Time(s);Current(A)
9.75000e-06;0.007913991909541873
9.75025e-06;0.007974342252661328
9.75050e-06;0.008034692595780784
9.75075e-06;0.00809504293889983
9.75100e-06;0.008155393282019285
9.75125e-06;0.00821574362513874
9.75150e-06;0.00829181512726505
9.75175e-06;0.008380788865079295
9.75200e-06;0.008469762602894143
9.75225e-06;0.00855873634070899
9.75250e-06;0.008647710078523234
9.75275e-06;0.00873668381633808
9.75300e-06;0.008825657554152927
9.75325e-06;0.008914631291967172
9.75350e-06;0.009003345803155906
9.75375e-06;0.009087055157942218
9.75400e-06;0.009170764512727962
9.75425e-06;0.009254473867514275
9.75450e-06;0.009338183222300588
9.75475e-06;0.009421892577086331
9.75500e-06;0.009505601931872644
9.75525e-06;0.009589311286658955
9.75550e-06;0.0096730206414447
9.75575e-06;0.009734765023522335
9.75600e-06;0.009778482919467327
9.75625e-06;0.009822200815412022
9.75650e-06;0.009865918711357015
9.75675e-06;0.009909636607302007
9.75700e-06;0.009953354503246702
9.75725e-06;0.009997072399191695
9.75750e-06;0.010038311407277137
9.75775e-06;0.010031687965302849
9.75800e-06;0.010025064523328514
9.75825e-06;0.01001844108135418
9.75850e-06;0.010011817639379892
9.75875e-06;0.010005194197405557
9.75900e-06;0.009998570755431223
9.75925e-06;0.009991947313456935
9.75950e-06;0.009958882368357187
9.75975e-06;0.00990411708264007
9.76000e-06;0.009849351796922954
9.76025e-06;0.009794586511206209
9.76050e-06;0.009739821225489092
9.76075e-06;0.009685055939771977
9.76100e-06;0.009630290654055232
9.76125e-06;0.009575525368338115
9.76150e-06;0.009520760082620998
9.76175e-06;0.00945114272499086
9.76200e-06;0.009369336384839496
9.76225e-06;0.009287530044688134
9.76250e-06;0.009205723704537325
9.76275e-06;0.009123917364385963
9.76300e-06;0.009042111024234599
9.76325e-06;0.00896030468408379
9.76350e-06;0.008878498343932428
9.76375e-06;0.008796692003781064
9.76400e-06;0.008715229007958293
9.76425e-06;0.00863404779221507
9.76450e-06;0.008552866576471847
9.76475e-06;0.008481003935434455
9.76500e-06;0.008416788977822554
9.76525e-06;0.008352574020210652
9.76550e-06;0.008288359062599187
9.76575e-06;0.008224144104987285
9.76600e-06;0.008159929147375384
9.76625e-06;0.008095714189763917
9.76650e-06;0.008049023944964996
9.76675e-06;0.008016716098759421
9.76700e-06;0.007984408252554065
9.76725e-06;0.007952100406348488
9.76750e-06;0.007919792560142913
9.76775e-06;0.007887484713937557
9.76800e-06;0.007855176867731982
9.76825e-06;0.00784421443156773
9.76850e-06;0.007850770011170457
9.76875e-06;0.007857325590773139
9.76900e-06;0.007863881170375866
9.76925e-06;0.007870436749978591
9.76950e-06;0.007876992329581273
9.76975e-06;0.007883547909184
9.77000e-06;0.007890103488786727
9.77025e-06;0.007896659068389409
9.77050e-06;0.007903214647992134
9.77075e-06;0.007909770227594861
9.77100e-06;0.007932365713768392
9.77125e-06;0.007968125029340438
9.77150e-06;0.008003884344912483
9.77175e-06;0.008039643660484288
9.77200e-06;0.008075402976056334
9.77225e-06;0.00811116229162838
9.77250e-06;0.008146921607200182
9.77275e-06;0.008182680922772228
9.77300e-06;0.008218440238344274
9.77325e-06;0.008254199553916078
9.77350e-06;0.008289958869488124
9.77375e-06;0.008326334620297696
9.77400e-06;0.00836321627482076
9.77425e-06;0.008400097929344073
9.77450e-06;0.008436979583867386
9.77475e-06;0.008473861238390449
9.77500e-06;0.008510742892913762
9.77525e-06;0.008547624547437075
9.77550e-06;0.008584506201960138
9.77575e-06;0.008612286809170934
9.77600e-06;0.008632598256031366
9.77625e-06;0.00865290970289166
9.77650e-06;0.008673221149752093
9.77675e-06;0.008693532596612525
9.77700e-06;0.008713844043472958
9.77725e-06;0.008734155490333254
9.77750e-06;0.008754466937193686
9.77775e-06;0.008760976299186724
9.77800e-06;0.008756158395041127
9.77825e-06;0.008751340490895494
9.77850e-06;0.008746522586749862
9.77875e-06;0.008741704682604264
9.77900e-06;0.008736886778458632
9.77925e-06;0.008732068874313
9.77950e-06;0.0087272509701674
9.77975e-06;0.00872243306602177
9.78000e-06;0.008717615161876137
9.78025e-06;0.008712797257730538
9.78050e-06;0.008707979353584907
9.78075e-06;0.008703161449439275
9.78100e-06;0.008697467483635707
9.78125e-06;0.008674858489853747
9.78150e-06;0.008652249496071785
9.78175e-06;0.00862964050228998
9.78200e-06;0.008607031508508018
9.78225e-06;0.008584422514726058
9.78250e-06;0.008561813520944251
9.78275e-06;0.008539204527162291
9.78300e-06;0.008516595533380331
9.78325e-06;0.008493986539598524
9.78350e-06;0.008471377545816564
9.78375e-06;0.008448768552034604
9.78400e-06;0.008426159558252797
9.78425e-06;0.008403550564470837
9.78450e-06;0.008383078217717175
9.78475e-06;0.008364359400939032
9.78500e-06;0.008345640584160763
9.78525e-06;0.008326921767382494
9.78550e-06;0.008308202950604224
9.78575e-06;0.008289484133826084
9.78600e-06;0.008270765317047814
9.78625e-06;0.008252046500269545
9.78650e-06;0.008234395780057956
9.78675e-06;0.008237367904311965
9.78700e-06;0.008240340028565971
9.78725e-06;0.008243312152819957
9.78750e-06;0.008246284277073964
9.78775e-06;0.008249256401327973
9.78800e-06;0.008252228525581959
9.78825e-06;0.008255200649835965
9.78850e-06;0.008258172774089972
9.78875e-06;0.008278353247663415
9.78900e-06;0.00831265648272285
9.78925e-06;0.008346959717782284
9.78950e-06;0.008381262952841487
9.78975e-06;0.008415566187900922
9.79000e-06;0.008449869422960355
9.79025e-06;0.008484172658019557
9.79050e-06;0.008518475893078992
9.79075e-06;0.008552779128138427
9.79100e-06;0.00858708236319763
9.79125e-06;0.008621385598257064
9.79150e-06;0.008665755661523781
9.79175e-06;0.00871838749418267
9.79200e-06;0.008771019326841914
9.79225e-06;0.008823651159501159
9.79250e-06;0.008876282992160046
9.79275e-06;0.00892891482481929
9.79300e-06;0.008981546657478535
9.79325e-06;0.009034178490137424
9.79350e-06;0.009086810322796669
9.79375e-06;0.009139442155455913
9.79400e-06;0.009192073988115158
9.79425e-06;0.009240079794473402
9.79450e-06;0.009284289056208723
9.79475e-06;0.009328498317944042
9.79500e-06;0.009372707579679063
9.79525e-06;0.009416916841414383
9.79550e-06;0.009461126103149704
9.79575e-06;0.009505335364884725
9.79600e-06;0.009548080249498377
9.79625e-06;0.009562550891310079
9.79650e-06;0.009577021533121682
9.79675e-06;0.009591492174933384
9.79700e-06;0.009605962816745086
9.79725e-06;0.00962043345855669
9.79750e-06;0.009634904100368392
9.79775e-06;0.009649374742180094
9.79800e-06;0.009640409729964402
9.79825e-06;0.009612211254617534
9.79850e-06;0.009584012779270666
9.79875e-06;0.00955581430392399
9.79900e-06;0.009527615828577122
9.79925e-06;0.009499417353230254
9.79950e-06;0.009471218877883577
9.79975e-06;0.009443020402536707
9.80000e-06;0.00941302006286846
9.80025e-06;0.00934822926616119
9.80050e-06;0.00928343846945348
9.80075e-06;0.00921864767274577
9.80100e-06;0.009153856876038499
9.80125e-06;0.009089066079330788
9.80150e-06;0.00902427528262308
9.80175e-06;0.008959484485915808
9.80200e-06;0.008894693689208099
9.80225e-06;0.008821942841894241
9.80250e-06;0.008742659241549863
9.80275e-06;0.008663375641206023
9.80300e-06;0.008584092040861645
9.80325e-06;0.008504808440517268
9.80350e-06;0.008425524840173428
9.80375e-06;0.00834624123982905
9.80400e-06;0.008266957639484674
9.80425e-06;0.008188477047117632
9.80450e-06;0.008125500959838454
9.80475e-06;0.008062524872559275
9.80500e-06;0.007999548785280522
9.80525e-06;0.007936572698001342
9.80550e-06;0.007873596610722162
9.80575e-06;0.007810620523443409
9.80600e-06;0.0077476444361642294
9.80625e-06;0.007684668348885051
9.80650e-06;0.007643546698103504
9.80675e-06;0.007620360817248747
9.80700e-06;0.00759717493639399
9.80725e-06;0.00757398905553939
9.80750e-06;0.007550803174684632
9.80775e-06;0.007527617293829875
9.80800e-06;0.007504431412975275
9.80825e-06;0.007481245532120518
9.80850e-06;0.0074580596512657605
9.80875e-06;0.00743487377041116
9.80900e-06;0.007433326357332546
9.80925e-06;0.0074495374702937414
9.80950e-06;0.007465748583254827
9.80975e-06;0.007481959696216021
9.81000e-06;0.007498170809177217
9.81025e-06;0.007514381922138302
9.81050e-06;0.007530593035099497
9.81075e-06;0.007546804148060692
9.81100e-06;0.007563015261021887
9.81125e-06;0.007579226373982972
9.81150e-06;0.007607098833501673
9.81175e-06;0.007644541671507832
9.81200e-06;0.007681984509513739
9.81225e-06;0.007719427347519898
9.81250e-06;0.007756870185526059
9.81275e-06;0.007794313023531964
9.81300e-06;0.007831755861538125
9.81325e-06;0.007869198699544284
9.81350e-06;0.007906624178263176
9.81375e-06;0.007943714483283003
9.81400e-06;0.00798080478830283
9.81425e-06;0.008017895093322406
9.81450e-06;0.008054985398342233
9.81475e-06;0.008092075703362062
9.81500e-06;0.008129166008381638
9.81525e-06;0.008166256313401465
9.81550e-06;0.008203346618421292
9.81575e-06;0.00823678478286044
9.81600e-06;0.008267225663283152
9.81625e-06;0.008285916328960972
9.81650e-06;0.008297002698124336
9.81675e-06;0.008330688705284818
9.81700e-06;0.006887109330006907
9.81725e-06;-0.016840805142656595
9.81750e-06;-0.007444956912766041
9.81775e-06;0.009252959048092828
9.81800e-06;0.021710643321270002
9.81825e-06;0.031824998809789624
9.81850e-06;0.024996951103507276
9.81875e-06;0.013957859980682096
9.81900e-06;0.0030181528575216263
9.81925e-06;-0.006898283585659949
9.81950e-06;-0.0005593984807885357
9.81975e-06;0.009845450099772448
9.82000e-06;0.017627830237433563
9.82025e-06;0.02395286470056869
9.82050e-06;0.019669863681432784
9.82075e-06;0.01275281090784022
9.82100e-06;0.005901294869872452
9.82125e-06;-0.00030637425345190605
9.82150e-06;0.003670314244849888
9.82175e-06;0.010195068522272784
9.82200e-06;0.015077924851759038
9.82225e-06;0.019048543901608768
9.82250e-06;0.016375014788180226
9.82275e-06;0.012052338714629292
9.82300e-06;0.007771349298668623
9.82325e-06;0.003894026708650442
9.82350e-06;0.006395978787299222
9.82375e-06;0.010493241581811048
9.82400e-06;0.013560968281262848
9.82425e-06;0.016056063594770804
9.82450e-06;0.014388063322202344
9.82475e-06;0.011685851504626234
9.82500e-06;0.009008397058112662
9.82525e-06;0.00658222418681466
9.82550e-06;0.00815004922081297
9.82575e-06;0.01071477390024845
9.82600e-06;0.012631829188887448
9.82625e-06;0.014186592345694929
9.82650e-06;0.013129096765080905
9.82675e-06;0.011419055965206381
9.82700e-06;0.009720018989845237
9.82725e-06;0.008174130536664704
9.82750e-06;0.00912596707044395
9.82775e-06;0.010698272883664685
9.82800e-06;0.011861151075769997
9.82825e-06;0.012793659077764459
9.82850e-06;0.012086777923742183
9.82875e-06;0.010968435023698986
9.82900e-06;0.009854568001612071
9.82925e-06;0.008834488109092997
9.82950e-06;0.009377033507942025
9.82975e-06;0.010306481498614406
9.83000e-06;0.010977979067507575
9.83025e-06;0.011503984327756905
9.83050e-06;0.01100222220681736
9.83075e-06;0.010242204162666236
9.83100e-06;0.009484765846350858
9.83125e-06;0.008786130682959744
9.83150e-06;0.0090666106847002
9.83175e-06;0.00958996397270158
9.83200e-06;0.009952532512134361
9.83225e-06;0.010225056537806658
9.83250e-06;0.009855197182403408
9.83275e-06;0.009325297071303359
9.83300e-06;0.00879903539845381
9.83325e-06;0.00831191478816326
9.83350e-06;0.008440672066953543
9.83375e-06;0.008724377183310102
9.83400e-06;0.008910464746547973
9.83425e-06;0.009043537185341542
9.83450e-06;0.008777918374040775
9.83475e-06;0.008416058501345615
9.83500e-06;0.00806077542418428
9.83525e-06;0.007734593721163338
9.83550e-06;0.007799050095426692
9.83575e-06;0.007965683494303462
9.83600e-06;0.008076408731591139
9.83625e-06;0.008158651470212316
9.83650e-06;0.007994879163969095
9.83675e-06;0.007773904243972418
9.83700e-06;0.0075599062939691345
9.83725e-06;0.0073668274875723595
9.83750e-06;0.00742095822833212
9.83775e-06;0.0075414291857677914
9.83800e-06;0.007629051455483931
9.83825e-06;0.00770084335755095
9.83850e-06;0.007620387707400626
9.83875e-06;0.007505801849837595
9.83900e-06;0.00739712599773908
9.83925e-06;0.007302930219357748
9.83950e-06;0.007364790997304876
9.83975e-06;0.007469240407506992
9.84000e-06;0.007553983378087463
9.84025e-06;0.0076295175261518935
9.84050e-06;0.007610234747062953
9.84075e-06;0.0075699655933689726
9.84100e-06;0.00753362901247834
9.84125e-06;0.007506430092817167
9.84150e-06;0.007576884960750912
9.84175e-06;0.007673748908476593
9.84200e-06;0.007757837047207407
9.84225e-06;0.007835564025112764
9.84250e-06;0.007853144389007635
9.84275e-06;0.00785666665207224
9.84300e-06;0.007861579134075076
9.84325e-06;0.007870977977383576
9.84350e-06;0.007940145646982116
9.84375e-06;0.008024286426927115
9.84400e-06;0.008098694719444372
9.84425e-06;0.008167224126192323
9.84450e-06;0.008196025166386883
9.84475e-06;0.008213805993507196
9.84500e-06;0.008230082087419535
9.84525e-06;0.008246631429628963
9.84550e-06;0.0082979162439131
9.84575e-06;0.008355714409103009
9.84600e-06;0.008404610119284131
9.84625e-06;0.008447903509179646
9.84650e-06;0.008465787572363203
9.84675e-06;0.008476979141181644
9.84700e-06;0.008487518315088894
9.84725e-06;0.00849850578726655
9.84750e-06;0.008531510952418091
9.84775e-06;0.008568836385586328
9.84800e-06;0.008600809489669856
9.84825e-06;0.008629480016659426
9.84850e-06;0.008642425390442769
9.84875e-06;0.008651353932376713
9.84900e-06;0.00866003278749256
9.84925e-06;0.008669133016385975
9.84950e-06;0.008692148976057105
9.84975e-06;0.008717976845745384
9.85000e-06;0.008740541532977937
9.85025e-06;0.008761109388392986
9.85050e-06;0.008771883537376986
9.85075e-06;0.008780180622557886
9.85100e-06;0.00878834363460976
9.85125e-06;0.008796776329672839
9.85150e-06;0.008813914765785842
9.85175e-06;0.008832785927399597
9.85200e-06;0.00884956623712045
9.85225e-06;0.008865032626693418
9.85250e-06;0.008874285018234977
9.85275e-06;0.008881889670215182
9.85300e-06;0.008889297391275286
9.85325e-06;0.008896744922497162
9.85350e-06;0.00890949794463028
9.85375e-06;0.008923171758093623
9.85400e-06;0.008935354728036301
9.85425e-06;0.008946517203160196
9.85450e-06;0.008953571762945431
9.85475e-06;0.008959363337541224
9.85500e-06;0.00896478273264352
9.85525e-06;0.008969961852966666
9.85550e-06;0.00897818142913145
9.85575e-06;0.008986678852425007
9.85600e-06;0.00899366834782079
9.85625e-06;0.008998266239782659
9.85650e-06;0.00899691867893248
9.85675e-06;0.008990701495391178
9.85700e-06;0.008978553430485061
9.85725e-06;0.008965770096825846
9.85750e-06;0.008948566915470003
9.85775e-06;0.00893084757216537
9.85800e-06;0.008906040210842141
9.85825e-06;0.008880405091314736
9.85850e-06;0.00884458764341415
9.85875e-06;0.008807581075250516
9.85900e-06;0.008762061296669846
9.85925e-06;0.008715547322003251
9.85950e-06;0.008663295884666241
9.85975e-06;0.00861037441068665
9.86000e-06;0.008550865278804868
9.86025e-06;0.008490586822146743
9.86050e-06;0.00842260156879312
9.86075e-06;0.008353716294561686
9.86100e-06;0.008278990983836021
9.86125e-06;0.008203583657615067
9.86150e-06;0.008124895219929032
9.86175e-06;0.008045823605037741
9.86200e-06;0.007963757751815953
9.86225e-06;0.007881342223220506
9.86250e-06;0.007796051291821717
9.86275e-06;0.007710424562988995
9.86300e-06;0.007624258418153389
9.86325e-06;0.00753802927883532
9.86350e-06;0.007451800139517251
9.86375e-06;0.007368617081398388
9.86400e-06;0.007285789753004531
9.86425e-06;0.007202962424610675
9.86450e-06;0.00712553161906361
9.86475e-06;0.0070487310342705195
9.86500e-06;0.006971930449477429
9.86525e-06;0.006905098984051943
9.86550e-06;0.006839431739756664
9.86575e-06;0.006773764495461384
9.86600e-06;0.006733372792774733
9.86625e-06;0.006695932837232934
9.86650e-06;0.006658492881691134
9.86675e-06;0.00662105292614959
9.86700e-06;0.006583612970607791
9.86725e-06;0.006546173015065992
9.86750e-06;0.006527257833099395
9.86775e-06;0.006536665122425606
9.86800e-06;0.006546072411751816
9.86825e-06;0.0065554797010779625
9.86850e-06;0.006564886990404173
9.86875e-06;0.006574294279730384
9.86900e-06;0.006583701569056531
9.86925e-06;0.006638237073120042
9.86950e-06;0.006698042774004188
9.86975e-06;0.006757848474887929
9.87000e-06;0.006817654175772075
9.87025e-06;0.0068774598766562205
9.87050e-06;0.006937265577539961
9.87075e-06;0.006997071278424107
9.87100e-06;0.007056876979308253
9.87125e-06;0.007130431192771841
9.87150e-06;0.007225005466280338
9.87175e-06;0.007319579739789476
9.87200e-06;0.007414154013298613
9.87225e-06;0.00750872828680711
9.87250e-06;0.0076033025603162475
9.87275e-06;0.007697876833825386
9.87300e-06;0.007792451107333883
9.87325e-06;0.007887025380843021
9.87350e-06;0.007981660848721445
9.87375e-06;0.008076303463045692
9.87400e-06;0.008170946077370579
9.87425e-06;0.008265588691695467
9.87450e-06;0.008360231306019714
9.87475e-06;0.0084548739203446
9.87500e-06;0.008549516534669488
9.87525e-06;0.008630433249775462
9.87550e-06;0.008690364478333686
9.87575e-06;0.008750295706891908
9.87600e-06;0.008810226935449724
9.87625e-06;0.008870158164007947
9.87650e-06;0.00893008939256617
9.87675e-06;0.008990020621123985
9.87700e-06;0.009049951849682207
9.87725e-06;0.009059615302560832
9.87750e-06;0.009063408346576575
9.87775e-06;0.009067201390592344
9.87800e-06;0.00907099443460811
9.87825e-06;0.009074787478623853
9.87850e-06;0.009078580522639622
9.87875e-06;0.00908237356665539
9.87900e-06;0.009086166610671133
9.87925e-06;0.009041378752798052
9.87950e-06;0.008990917483814184
9.87975e-06;0.008940456214830318
9.88000e-06;0.008889994945846793
9.88025e-06;0.008839533676862927
9.88050e-06;0.008789072407879059
9.88075e-06;0.008738611138895534
9.88100e-06;0.008688149869911668
9.88125e-06;0.008606615091032985
9.88150e-06;0.008521451462351068
9.88175e-06;0.008436287833668574
9.88200e-06;0.00835112420498608
9.88225e-06;0.008265960576304163
9.88250e-06;0.00818079694762167
9.88275e-06;0.008095633318939175
9.88300e-06;0.008010469690257257
9.88325e-06;0.007921401376315508
9.88350e-06;0.00783187706250802
9.88375e-06;0.00774235274870114
9.88400e-06;0.007652828434893653
9.88425e-06;0.007563304121086165
9.88450e-06;0.007473779807279285
9.88475e-06;0.0073842554934717974
9.88500e-06;0.00729473117966431
9.88525e-06;0.007231334793316487
9.88550e-06;0.0071709896980773
9.88575e-06;0.007110644602838112
9.88600e-06;0.0070502995075993335
9.88625e-06;0.006989954412360146
9.88650e-06;0.006929609317120959
9.88675e-06;0.00686926422188218
9.88700e-06;0.006808919126642992
9.88725e-06;0.006748574031403805
9.88750e-06;0.006698212564003299
9.88775e-06;0.006663115035558206
9.88800e-06;0.006628017507113113
9.88825e-06;0.00659291997866802
9.88850e-06;0.006557822450223164
9.88875e-06;0.006522724921778071
9.88900e-06;0.0064876273933329775
9.88925e-06;0.006452529864888122
9.88950e-06;0.006417432336443029
9.88975e-06;0.006382334807997936
9.89000e-06;0.006364040498806295
9.89025e-06;0.0063477085156969796
9.89050e-06;0.006331376532587665
9.89075e-06;0.00631504454947846
9.89100e-06;0.006298712566369145
9.89125e-06;0.00628238058325983
9.89150e-06;0.006266048600150625
9.89175e-06;0.00624971661704131
9.89200e-06;0.006233384633931994
9.89225e-06;0.00621705265082279
9.89250e-06;0.006200720667713475
9.89275e-06;0.00618438868460416
9.89300e-06;0.006168056701494955
9.89325e-06;0.00615172471838564
9.89350e-06;0.006135392735276324
9.89375e-06;0.00611906075216712
9.89400e-06;0.006102728769057804
9.89425e-06;0.0060863967859484894
9.89450e-06;0.006070064802839285
9.89475e-06;0.006058225504987518
9.89500e-06;0.006053255060286861
9.89525e-06;0.006048284615586238
9.89550e-06;0.006043314170885582
9.89575e-06;0.0060383437261849245
9.89600e-06;0.006033373281484302
9.89625e-06;0.0060284028367836445
9.89650e-06;0.006023432392082988
9.89675e-06;0.0060184619473823316
9.89700e-06;0.006013491502681708
9.89725e-06;0.0060085210579810516
9.89750e-06;0.006003550613280394
9.89775e-06;0.0059985801685797716
9.89800e-06;0.005993609723879114
9.89825e-06;0.005988639279178458
9.89850e-06;0.005983668834477835
9.89875e-06;0.005978698389777178
9.89900e-06;0.005973727945076521
9.89925e-06;0.005968757500375898
9.89950e-06;0.005963787055675241
9.89975e-06;0.005964191082692338
9.90000e-06;0.005965222755274362
9.90025e-06;0.005966254427856394
9.90050e-06;0.005967286100438425
9.90075e-06;0.00596831777302045
9.90100e-06;0.005969349445602482
9.90125e-06;0.005970381118184513
9.90150e-06;0.005971412790766537
