Time(s);Current(A)
1.25000e-05;-0.0006825464527958808
1.25003e-05;-0.0006997484173064855
1.25005e-05;-0.0007211258619633789
1.25008e-05;-0.0007429457021487231
1.25010e-05;-0.000768565787422537
1.25012e-05;-0.0007945885117639618
1.25015e-05;-0.0008251131971557217
1.25018e-05;-0.0008561148689939854
1.25020e-05;-0.0008871165408322491
1.25023e-05;-0.0009223048243426643
1.25025e-05;-0.0009579366827759506
1.25028e-05;-0.000993568541209237
1.25030e-05;-0.00103191052710697
1.25033e-05;-0.00107053965322112
1.25035e-05;-0.0011091687793352697
1.25038e-05;-0.001149187477789339
1.25040e-05;-0.0011893534025669262
1.25043e-05;-0.0012295193273445134
1.25045e-05;-0.0012692110087627459
1.25048e-05;-0.0013088524437103956
1.25050e-05;-0.0013484938786580453
1.25053e-05;-0.0013864159182721215
1.25055e-05;-0.0014241557865479427
1.25058e-05;-0.0014588513535094868
1.25060e-05;-0.0014932243742625184
1.25063e-05;-0.0015275973950157828
1.25065e-05;-0.0015564575647888865
1.25068e-05;-0.0015847336435021319
1.25070e-05;-0.0016130097222155687
1.25073e-05;-0.0016353664957411702
1.25075e-05;-0.0016570961140519513
1.25078e-05;-0.0016788257323628797
1.25080e-05;-0.0016952353408820578
1.25083e-05;-0.0017110812900226382
1.25085e-05;-0.001726927239163326
1.25088e-05;-0.0017333476892614924
1.25090e-05;-0.001738769500044912
1.25093e-05;-0.0017441913108283684
1.25095e-05;-0.0017496131216118247
1.25097e-05;-0.0017550349323952443
1.25100e-05;-0.0017604567431787005
1.25103e-05;-0.001765878553962157
1.25105e-05;-0.001760539694106786
1.25108e-05;-0.0017540607324166276
1.25110e-05;-0.0017475817707264254
1.25113e-05;-0.0017411028090362232
1.25115e-05;-0.0017346238473460649
1.25118e-05;-0.0017281448856558625
1.25120e-05;-0.0017216659239656603
1.25123e-05;-0.0017095836405477875
1.25125e-05;-0.0016969076806204473
1.25128e-05;-0.001684231720693107
1.25130e-05;-0.0016694625251049491
1.25133e-05;-0.001654471549490312
1.25135e-05;-0.001638449789303271
1.25138e-05;-0.0016223188166497528
1.25140e-05;-0.001605595636285704
1.25143e-05;-0.0015888097110314783
1.25145e-05;-0.0015717574712541963
1.25148e-05;-0.0015546770152357484
1.25150e-05;-0.001537713348135663
1.25153e-05;-0.001520762054916897
1.25155e-05;-0.0015045082320658072
1.25158e-05;-0.0014883283067693516
1.25160e-05;-0.0014739472225436979
1.25163e-05;-0.0014597567269973228
1.25165e-05;-0.0014455662314509477
1.25168e-05;-0.0014325898623677084
1.25170e-05;-0.0014214031482166324
1.25173e-05;-0.0014102164340655567
1.25175e-05;-0.0013990297199145566
1.25178e-05;-0.0013912797581437076
1.25180e-05;-0.001383893923092171
1.25182e-05;-0.0013765080880406846
1.25185e-05;-0.001369122252989148
1.25188e-05;-0.0013617364179376115
1.25190e-05;-0.001354350582886075
1.25193e-05;-0.0013469647478345885
1.25195e-05;-0.0013395789127830517
1.25198e-05;-0.0013321930777315152
1.25200e-05;-0.0013248072426800287
1.25203e-05;-0.0013174214076284922
1.25205e-05;-0.0013100355725769557
1.25208e-05;-0.0013042004330515984
1.25210e-05;-0.0013006510602742557
1.25213e-05;-0.0012971016874969129
1.25215e-05;-0.0012935523147195942
1.25218e-05;-0.0012900029419422514
1.25220e-05;-0.0012864535691649087
1.25223e-05;-0.0012829041963875899
1.25225e-05;-0.001279354823610247
1.25228e-05;-0.0012758054508329043
1.25230e-05;-0.0012722560780555855
1.25233e-05;-0.0012687067052782428
1.25235e-05;-0.0012651573325009
1.25238e-05;-0.001261607959723581
1.25240e-05;-0.0012593924222232748
1.25243e-05;-0.0012573182056591604
1.25245e-05;-0.0012552439890950603
1.25248e-05;-0.001253169772530946
1.25250e-05;-0.0012510955559668316
1.25253e-05;-0.0012490213394027315
1.25255e-05;-0.001247187313258214
1.25258e-05;-0.001245707334226853
1.25260e-05;-0.0012442273551955018
1.25263e-05;-0.0012427473761641408
1.25265e-05;-0.0012412673971327797
1.25267e-05;-0.0012397874181014287
1.25270e-05;-0.0012383074390700678
1.25273e-05;-0.0012358419528682657
1.25275e-05;-0.0012332720513774157
1.25278e-05;-0.001230702149886583
1.25280e-05;-0.0012281322483957329
1.25283e-05;-0.0012255623469048826
1.25285e-05;-0.00122299244541405
1.25288e-05;-0.0012204225439231998
1.25290e-05;-0.0012153341732047955
1.25293e-05;-0.0012099789686162313
1.25295e-05;-0.0012046237640276308
1.25298e-05;-0.0011992685594390303
1.25300e-05;-0.0011939133548504659
1.25303e-05;-0.0011885581502618654
1.25305e-05;-0.001183202945673265
1.25308e-05;-0.0011750651852617477
1.25310e-05;-0.0011666326107896026
1.25313e-05;-0.0011582000363174576
1.25315e-05;-0.0011497674618453698
1.25318e-05;-0.0011413348873732247
1.25320e-05;-0.0011329023129010797
1.25323e-05;-0.0011244697384289917
1.25325e-05;-0.0011160371639568466
1.25328e-05;-0.0011076045894847018
1.25330e-05;-0.0010986427849909949
1.25333e-05;-0.00108890088126714
1.25335e-05;-0.0010791589775432852
1.25338e-05;-0.0010694170738194965
1.25340e-05;-0.0010596751700956417
1.25343e-05;-0.0010499332663717871
1.25345e-05;-0.0010401913626479982
1.25348e-05;-0.0010304494589241436
1.25350e-05;-0.0010207075552002888
1.25352e-05;-0.0010109656514764999
1.25355e-05;-0.001002316933690149
1.25358e-05;-0.0009937840398462
1.25360e-05;-0.0009852511460022512
1.25363e-05;-0.0009767182521583603
1.25365e-05;-0.0009693804578947185
1.25368e-05;-0.0009621692854071318
1.25370e-05;-0.0009554945840528118
1.25373e-05;-0.0009488767222529161
1.25375e-05;-0.0009408397619378674
1.25378e-05;-0.0009326524469768173
1.25380e-05;-0.0009222586337359954
1.25383e-05;-0.0009116310402013073
1.25385e-05;-0.0009010034466666911
1.25388e-05;-0.0008882968454741365
1.25390e-05;-0.0008753699717231518
1.25393e-05;-0.0008624430979722547
1.25395e-05;-0.0008462096434533541
1.25398e-05;-0.0008296258540029273
1.25400e-05;-0.0008130420645526126
1.25403e-05;-0.000793333167155572
1.25405e-05;-0.0007732931620205325
1.25408e-05;-0.0007532531568856288
1.25410e-05;-0.0007307784089422462
1.25413e-05;-0.0007080456980107961
1.25415e-05;-0.0006853129870795
1.25418e-05;-0.000659940113263903
1.25420e-05;-0.0006342875120354969
1.25423e-05;-0.0006086349108072647
1.25425e-05;-0.0005815760443360888
1.25428e-05;-0.000554368182914459
1.25430e-05;-0.0005265784295231812
1.25433e-05;-0.0004987270242024921
1.25435e-05;-0.00047034145036924693
1.25437e-05;-0.00044189928094622456
1.25440e-05;-0.00041334983571733814
1.25443e-05;-0.00038478902452926617
1.25445e-05;-0.00035653942238764803
1.25448e-05;-0.00032873926480254874
1.25450e-05;-0.00030153033539583626
1.25453e-05;-0.00027498915853677047
1.25455e-05;-0.00024955922882304894
1.25458e-05;-0.00022424019144614597
1.25460e-05;-0.00020024971354112755
1.25463e-05;-0.0001775035712965369
1.25465e-05;-0.00015614146598183918
1.25468e-05;-0.00013634423703590498
1.25470e-05;-0.00011829881976460845
1.25473e-05;-0.0001021885653879032
1.25475e-05;-8.814492322573356e-05
1.25478e-05;-7.62281413488388e-05
1.25480e-05;-6.646647539787013e-05
1.25483e-05;-5.888527289003838e-05
1.25485e-05;-5.3509841000012095e-05
1.25488e-05;-5.0365442745408806e-05
1.25490e-05;-4.948118198954327e-05
1.25493e-05;-5.088389239766131e-05
1.25495e-05;-5.45679004081288e-05
1.25498e-05;-6.048291788788287e-05
1.25500e-05;-6.855863695048036e-05
1.25503e-05;-7.872292004735987e-05
1.25505e-05;-9.090359177009714e-05
1.25508e-05;-0.00010502848777690005
1.25510e-05;-0.0001210278201090388
1.25513e-05;-0.0001388303945526576
1.25515e-05;-0.0001583446505459235
1.25518e-05;-0.00017945109895588733
1.25520e-05;-0.00020201771566145902
1.25522e-05;-0.00022591131952913812
1.25525e-05;-0.0002514724843631139
1.25528e-05;-0.0002771969890299825
1.25530e-05;-0.0003048882760109666
1.25533e-05;-0.0003327879451836407
1.25535e-05;-0.00036068761435650387
1.25538e-05;-0.0003898556722346881
1.25540e-05;-0.00041915811693153676
1.25543e-05;-0.00044846056162858405
1.25545e-05;-0.00047765126124297425
1.25548e-05;-0.0005068301213744277
1.25550e-05;-0.0005360089815060788
1.25553e-05;-0.0005636714453398431
1.25555e-05;-0.0005911732457476226
1.25558e-05;-0.0006186750461555886
1.25560e-05;-0.0006431388083787126
1.25563e-05;-0.0006672806879756068
1.25565e-05;-0.0006914225675726648
1.25568e-05;-0.0007112589062403196
1.25570e-05;-0.0007306390693311127
1.25573e-05;-0.0007500192324220372
1.25575e-05;-0.0007666539173404633
1.25578e-05;-0.0007829977166048332
1.25580e-05;-0.0007993415158693139
1.25583e-05;-0.000813195765568859
1.25585e-05;-0.0008267862454592724
1.25588e-05;-0.000840376725349778
1.25590e-05;-0.0008494823084387246
1.25593e-05;-0.0008581127130496808
1.25595e-05;-0.0008667431176606954
1.25598e-05;-0.0008753735222717101
1.25600e-05;-0.0008840039268826663
1.25603e-05;-0.0008926343314936809
1.25605e-05;-0.0009012647361046956
1.25607e-05;-0.0009098951407156518
1.25610e-05;-0.0009185255453266664
1.25613e-05;-0.0009228106255719243
1.25615e-05;-0.0009266353151526728
1.25618e-05;-0.0009304600047333953
1.25620e-05;-0.0009342846943141438
1.25623e-05;-0.0009381093838948923
1.25625e-05;-0.0009419340734756149
1.25628e-05;-0.0009457587630563633
1.25630e-05;-0.0009495834526371119
1.25633e-05;-0.0009534081422178344
1.25635e-05;-0.0009547686856217477
1.25638e-05;-0.0009558681507261885
1.25640e-05;-0.0009569676158306218
1.25643e-05;-0.0009580670809350627
1.25645e-05;-0.0009591665460395036
1.25648e-05;-0.000960266011143937
1.25650e-05;-0.0009613654762483778
1.25653e-05;-0.0009624649413528186
1.25655e-05;-0.0009635644064572521
1.25658e-05;-0.0009646638715616929
1.25660e-05;-0.000965598431310833
1.25663e-05;-0.0009662899161481333
1.25665e-05;-0.0009669814009854382
1.25668e-05;-0.0009676728858227432
1.25670e-05;-0.0009683643706600436
1.25673e-05;-0.0009690558554973486
1.25675e-05;-0.0009697473403346534
1.25678e-05;-0.0009704388251719538
1.25680e-05;-0.0009711303100092588
1.25683e-05;-0.0009718217948465638
1.25685e-05;-0.000972513279683864
1.25688e-05;-0.0009749948675917971
1.25690e-05;-0.0009776661183818307
1.25692e-05;-0.0009803373691718463
1.25695e-05;-0.0009830086199618799
1.25698e-05;-0.0009856798707519137
1.25700e-05;-0.0009883511215419472
1.25703e-05;-0.0009910223723319628
1.25705e-05;-0.0009936936231219964
1.25708e-05;-0.00099636487391203
1.25710e-05;-0.0009990361247020456
1.25713e-05;-0.0010017073754920792
1.25715e-05;-0.001005108631358834
1.25718e-05;-0.001009585934267053
1.25720e-05;-0.0010140632371753026
1.25723e-05;-0.0010185405400835522
1.25725e-05;-0.0010230178429917712
1.25728e-05;-0.0010274951459000208
1.25730e-05;-0.0010319724488082702
1.25733e-05;-0.0010364497517164895
1.25735e-05;-0.001040927054624739
1.25738e-05;-0.0010454043575329885
1.25740e-05;-0.0010498816604412077
1.25743e-05;-0.0010543589633494573
1.25745e-05;-0.0010589342143045041
1.25748e-05;-0.0010635198429350665
1.25750e-05;-0.00106810547156566
1.25753e-05;-0.0010726911001962534
1.25755e-05;-0.0010767858101087381
1.25758e-05;-0.0010808285067821612
1.25760e-05;-0.0010848712034555843
1.25763e-05;-0.0010889139001289798
1.25765e-05;-0.0010923476523298197
1.25768e-05;-0.0010957168863664855
1.25770e-05;-0.0010980320727840556
1.25773e-05;-0.0011002355819956034
1.25775e-05;-0.0010994263686919762
1.25777e-05;-0.0010982979549775116
1.25780e-05;-0.0010929126492258926
1.25783e-05;-0.0010870763222865152
1.25785e-05;-0.0010812399953471377
1.25788e-05;-0.0010707026732194392
1.25790e-05;-0.0010596672768123914
1.25793e-05;-0.0010486318804053434
1.25795e-05;-0.001031799002796288
1.25798e-05;-0.0010143518773191925
1.25800e-05;-0.000996904751842097
1.25803e-05;-0.0009740414591392181
1.25805e-05;-0.0009506043190953932
1.25808e-05;-0.0009271671790515683
1.25810e-05;-0.000899977056855217
1.25813e-05;-0.0008723893031346354
1.25815e-05;-0.0008417054588743614
1.25818e-05;-0.0008106935812930943
1.25820e-05;-0.0007776004504511424
1.25823e-05;-0.0007431451829765698
1.25825e-05;-0.0007076119638302991
1.25828e-05;-0.0006712050907489947
1.25830e-05;-0.0006340916622733358
1.25833e-05;-0.0005963407296614784
1.25835e-05;-0.000557997215861332
1.25838e-05;-0.0005192108590720789
1.25840e-05;-0.00048020681927370384
1.25843e-05;-0.00044121797504266953
1.25845e-05;-0.0004024772762263808
1.25848e-05;-0.00036421759093707934
1.25850e-05;-0.00032664856850578885
1.25853e-05;-0.0002899183467510401
1.25855e-05;-0.0002541600437303298
1.25858e-05;-0.00021957233556702712
1.25860e-05;-0.00018640116617988956
1.25862e-05;-0.00015489728067068478
1.25865e-05;-0.00012531145498227144
1.25868e-05;-9.789440963867519e-05
1.25870e-05;-7.273185379311224e-05
1.25873e-05;-4.944287149936747e-05
1.25875e-05;-2.745076312168343e-05
1.25878e-05;-6.557862432158557e-06
1.25880e-05;1.3129128591634566e-05
1.25883e-05;3.14719743970391e-05
1.25885e-05;4.8332062823234486e-05
1.25888e-05;6.357083383947563e-05
1.25890e-05;7.715309931461052e-05
1.25893e-05;8.933595393266434e-05
1.25895e-05;0.00010049911167485087
1.25898e-05;0.00011078481858051395
1.25900e-05;0.00012014467231117913
1.25903e-05;0.00012851053149979407
1.25905e-05;0.0001358140225786945
1.25908e-05;0.00014198678653194933
1.25910e-05;0.00014702524832439713
1.25913e-05;0.00015110891953511928
1.25915e-05;0.00015449408768440363
1.25918e-05;0.0001572882499318183
1.25920e-05;0.00015919491618953573
1.25923e-05;0.00016101346175967328
1.25925e-05;0.00016164947347977666
1.25928e-05;0.00016216019477259075
1.25930e-05;0.00016153650698651217
1.25933e-05;0.0001607926276319558
1.25935e-05;0.000159398975051664
1.25938e-05;0.00015793647846737774
1.25940e-05;0.00015590414687371472
1.25943e-05;0.0001538114407953617
1.25945e-05;0.00015171873471700868
1.25947e-05;0.00014901416250084573
1.25950e-05;0.00014624476256759484
1.25953e-05;0.00014347536263434394
1.25955e-05;0.00014073576531918423
1.25958e-05;0.00013804009786155043
1.25960e-05;0.00013534443040391666
1.25963e-05;0.00013264876294628286
1.25965e-05;0.00013032329579580376
1.25968e-05;0.00012803705167023266
1.25970e-05;0.00012564958434183035
1.25973e-05;0.00012325139233242366
1.25975e-05;0.00011965142314347098
1.25978e-05;0.00011478006433196109
1.25980e-05;0.00010871795700467339
1.25983e-05;0.00010155077977284544
1.25985e-05;9.336454312555139e-05
1.25988e-05;8.424527589455917e-05
1.25990e-05;7.419212125789226e-05
1.25993e-05;6.297173473333855e-05
1.25995e-05;5.02848388313975e-05
1.25998e-05;3.606754744321585e-05
1.26000e-05;2.042918758221177e-05
1.26003e-05;3.4967768887374016e-06
1.26005e-05;-1.4602458478223678e-05
1.26008e-05;-3.374130247002598e-05
1.26010e-05;-5.384695169112806e-05
1.26013e-05;-7.499224973209239e-05
1.26015e-05;-9.729132136858207e-05
1.26018e-05;-0.00012071082914452176
1.26020e-05;-0.0001451089363200799
1.26023e-05;-0.00017063023281981574
1.26025e-05;-0.00019626074666605065
1.26028e-05;-0.00022299224869756212
1.26030e-05;-0.00024984040132666193
1.26032e-05;-0.0002766885539555798
1.26035e-05;-0.00030440450508927827
1.26038e-05;-0.0003322124001834345
1.26040e-05;-0.0003600202952774023
1.26043e-05;-0.00038763722636744484
1.26045e-05;-0.0004152339246652534
1.26048e-05;-0.00044283062296306195
1.26050e-05;-0.00046900829292144375
1.26053e-05;-0.000495035615668257
1.26055e-05;-0.0005210629384150703
1.26058e-05;-0.0005447149215809452
1.26060e-05;-0.0005681152355779656
1.26063e-05;-0.0005915155495749859
1.26065e-05;-0.0006119145445119459
1.26068e-05;-0.0006319955472428221
1.26070e-05;-0.0006487481710656926
1.26073e-05;-0.0006651481504241205
1.26075e-05;-0.0006770844404844314
1.26078e-05;-0.0006885477990170687
1.26080e-05;-0.0006952381802486601
1.26083e-05;-0.0007014228606360589
1.26085e-05;-0.0007028494320727612
1.26088e-05;-0.0007037718779790842
1.26090e-05;-0.0006998446101072066
1.26093e-05;-0.0006954035110986463
1.26095e-05;-0.0006858231470573559
1.26098e-05;-0.0006756982736873895
1.26100e-05;-0.0006606620289377165
1.26103e-05;-0.0006451054203782581
1.26105e-05;-0.0006250684910206138
1.26108e-05;-0.0006045568680142998
1.26110e-05;-0.0005807921289001338
1.26113e-05;-0.0005566827194765888
1.26115e-05;-0.0005460683951424825
1.26117e-05;-0.0005194447487007417
1.26120e-05;-0.05623489153169017
1.26123e-05;-0.024824010991039307
1.26125e-05;-0.008075512067661418
1.26128e-05;0.007092556966369125
1.26130e-05;0.021006170378910047
1.26133e-05;0.019158492061064958
1.26135e-05;0.009112307864718327
1.26138e-05;-0.003047929850416029
1.26140e-05;-0.015782275883804583
1.26143e-05;-0.013650498066483715
1.26145e-05;-0.003791298006254204
1.26148e-05;0.0055140869753989435
1.26150e-05;0.014122238873077744
1.26153e-05;0.012905261911274162
1.26155e-05;0.00657360967652546
1.26158e-05;-0.0010728706285339238
1.26160e-05;-0.009074559312223316
1.26163e-05;-0.007762384134024698
1.26165e-05;-0.0016097436285635244
1.26168e-05;0.00419523102047475
1.26170e-05;0.009562443244655976
1.26173e-05;0.008774503941696566
1.26175e-05;0.004782657165937758
1.26178e-05;-3.258181087146834e-05
1.26180e-05;-0.0050700469482299
1.26183e-05;-0.0042732899453542285
1.26185e-05;-0.0004448287728446771
1.26188e-05;0.0031653892742905137
1.26190e-05;0.006500975794758128
1.26193e-05;0.00598078030672402
1.26195e-05;0.003453758348251418
1.26198e-05;0.0004112081886411853
1.26200e-05;-0.0027702344613181563
1.26202e-05;-0.002296941443804051
1.26205e-05;7.53805426675345e-05
1.26208e-05;0.002310931034886739
1.26210e-05;0.004374446976906714
1.26213e-05;0.004022865298095907
1.26215e-05;0.002414585385750889
1.26218e-05;0.0004838768841444847
1.26220e-05;-0.0015332659492066894
1.26223e-05;-0.0012605663347031938
1.26225e-05;0.00020209894121481068
1.26228e-05;0.0015795128401232812
1.26230e-05;0.002849652839798712
1.26233e-05;0.002607600418782126
1.26235e-05;0.001579139838579057
1.26238e-05;0.00034960277640171144
1.26240e-05;-0.0009331105850318129
1.26243e-05;-0.0007805037555457793
1.26245e-05;0.00011842627190974161
1.26248e-05;0.0009649184104680302
1.26250e-05;0.0017452489810343814
1.26253e-05;0.0015794916325443818
1.26255e-05;0.0009224095956610033
1.26258e-05;0.00014075004461913676
1.26260e-05;-0.0006727667590679398
1.26263e-05;-0.000585719027624603
1.26265e-05;-2.9686244023695036e-05
1.26268e-05;0.0004950392489997479
1.26270e-05;0.0009796696075242057
1.26273e-05;0.0008720669676530626
1.26275e-05;0.000455858977850373
1.26278e-05;-3.973126824457124e-05
1.26280e-05;-0.0005565811190153562
1.26283e-05;-0.000510569572174879
1.26285e-05;-0.00017199726221625767
1.26288e-05;0.0001458203062364346
1.26290e-05;0.00043746056769425166
1.26293e-05;0.00035716331367749746
1.26295e-05;8.269891213063407e-05
1.26298e-05;-0.00024225566821000038
1.26300e-05;-0.0005812085603471186
1.26303e-05;-0.0005682012034263877
1.26305e-05;-0.00037249259535153775
1.26308e-05;-0.00019026898008099753
1.26310e-05;-2.484375161384666e-05
1.26313e-05;-9.270702196085663e-05
1.26315e-05;-0.0002824050404549307
1.26318e-05;-0.0005038491753874754
1.26320e-05;-0.0007340963814200989
1.26323e-05;-0.000743837442827707
1.26325e-05;-0.000639028240185561
1.26328e-05;-0.0005424812119720087
1.26330e-05;-0.0004561876575812792
1.26333e-05;-0.000515666040067006
1.26335e-05;-0.0006510081507087664
1.26338e-05;-0.0008056946031557467
1.26340e-05;-0.0009652688264593797
1.26343e-05;-0.0009860140088150822
1.26345e-05;-0.0009342264486424693
1.26348e-05;-0.000886754555392144
1.26350e-05;-0.0008447610633617103
1.26353e-05;-0.0008930458172222363
1.26355e-05;-0.0009877277576056558
1.26358e-05;-0.001093316159528045
1.26360e-05;-0.0012006701064615729
1.26363e-05;-0.0012196851109003586
1.26365e-05;-0.0011918104586436905
1.26368e-05;-0.0011651013522934784
1.26370e-05;-0.001140365693066835
1.26373e-05;-0.0011712972529021152
1.26375e-05;-0.001231193706327782
1.26378e-05;-0.0012981706537112852
1.26380e-05;-0.0013665111247806586
1.26383e-05;-0.001379761140197433
1.26385e-05;-0.0013638729404955433
1.26388e-05;-0.0013489340590413697
1.26390e-05;-0.0013354349861231778
1.26393e-05;-0.001356992466072898
1.26395e-05;-0.0013968619207781862
1.26398e-05;-0.0014413185891515485
1.26400e-05;-0.0014867654318572638
1.26403e-05;-0.0014978256461768585
1.26405e-05;-0.00149074251913486
1.26408e-05;-0.0014843479473520078
1.26410e-05;-0.0014789333493729795
1.26413e-05;-0.0014955394503036446
1.26415e-05;-0.0015236603197099597
1.26418e-05;-0.0015546822113169292
1.26420e-05;-0.0015863359148951112
1.26423e-05;-0.0015964469411221289
1.26425e-05;-0.0015951755071150512
1.26428e-05;-0.001594302569369764
1.26430e-05;-0.001593994991629498
1.26433e-05;-0.0016074159544636117
