Time(s);Current(A)
1.30000e-05;0.0010126794451102703
1.30003e-05;0.0009939963576529947
1.30005e-05;0.0009750154215057864
1.30008e-05;0.0009471129203431194
1.30010e-05;0.0009189331947110479
1.30013e-05;0.0008825323502838133
1.30015e-05;0.0008458760467197268
1.30018e-05;0.0008015725866184765
1.30020e-05;0.000757031502411184
1.30023e-05;0.0007056481467747801
1.30025e-05;0.0006540521776491516
1.30028e-05;0.000596804117021159
1.30030e-05;0.0005393804259887046
1.30033e-05;0.00047751768702811046
1.30035e-05;0.0004155170112031284
1.30038e-05;0.000350210915128964
1.30040e-05;0.0002848021079975022
1.30043e-05;0.00021736608559059966
1.30045e-05;0.0001498670704595657
1.30048e-05;8.18601436105427e-05
1.30050e-05;1.3837434154731205e-05
1.30053e-05;-5.3605338543226804e-05
1.30055e-05;-0.00012013888302754104
1.30058e-05;-0.00018539314299382856
1.30060e-05;-0.00024898486786306136
1.30063e-05;-0.00031048996314023245
1.30065e-05;-0.0003694620333181134
1.30068e-05;-0.0004254535632676063
1.30070e-05;-0.0004780171645221917
1.30073e-05;-0.000526705424772963
1.30075e-05;-0.0005713488229571316
1.30078e-05;-0.0006126270367912153
1.30080e-05;-0.0006515930237774265
1.30083e-05;-0.0006885812632109394
1.30085e-05;-0.000722190916896906
1.30088e-05;-0.0007556974293059821
1.30090e-05;-0.0007839859208136842
1.30093e-05;-0.000812112270020698
1.30095e-05;-0.0008346814824335081
1.30098e-05;-0.0008570780150192007
1.30100e-05;-0.000875712433033871
1.30103e-05;-0.000894229948888781
1.30105e-05;-0.0009085228740753314
1.30108e-05;-0.000922684526339827
1.30110e-05;-0.0009368461786043227
1.30113e-05;-0.0009452804022332193
1.30115e-05;-0.0009535366544674001
1.30118e-05;-0.0009617929067015808
1.30120e-05;-0.0009659973816965278
1.30123e-05;-0.0009700759536916364
1.30125e-05;-0.0009741545256867451
1.30128e-05;-0.0009729804398990487
1.30130e-05;-0.0009716431355203195
1.30133e-05;-0.0009703058311415902
1.30135e-05;-0.00096896852676287
1.30138e-05;-0.0009676312223841408
1.30140e-05;-0.0009662939180054116
1.30143e-05;-0.0009649566136266823
1.30145e-05;-0.000959640752137503
1.30148e-05;-0.0009542012628558945
1.30150e-05;-0.0009487617735742859
1.30153e-05;-0.0009433222842927143
1.30155e-05;-0.0009378827950111057
1.30158e-05;-0.0009324433057294972
1.30160e-05;-0.0009270038164479256
1.30163e-05;-0.0009216330148892421
1.30165e-05;-0.0009162643477002103
1.30168e-05;-0.0009108956805112148
1.30170e-05;-0.0009055270133221829
1.30173e-05;-0.0009002005450893772
1.30175e-05;-0.0008948753881269141
1.30178e-05;-0.0008895502311644151
1.30180e-05;-0.0008842250742019161
1.30183e-05;-0.0008740606801913784
1.30185e-05;-0.000863745914028993
1.30188e-05;-0.0008534311478666074
1.30190e-05;-0.0008387143107884885
1.30193e-05;-0.0008238606858510535
1.30195e-05;-0.0008090070609136185
1.30198e-05;-0.0007900542002009913
1.30200e-05;-0.0007709739617842003
1.30203e-05;-0.000747511806334409
1.30205e-05;-0.0007239134892776747
1.30208e-05;-0.0006965561908165186
1.30210e-05;-0.0006690820875538706
1.30213e-05;-0.0006385772524327146
1.30215e-05;-0.0006079782417900966
1.30218e-05;-0.0005743214298580025
1.30220e-05;-0.0005405696012622353
1.30223e-05;-0.0005036043574331977
1.30225e-05;-0.00046653926146651584
1.30228e-05;-0.00042708521060984636
1.30230e-05;-0.00038755692650464194
1.30233e-05;-0.0003462600639146844
1.30235e-05;-0.00030490824535747663
1.30238e-05;-0.000263556426800549
1.30240e-05;-0.00022077351085397572
1.30243e-05;-0.00017794612566729233
1.30245e-05;-0.00013511874048089916
1.30248e-05;-9.229135529421578e-05
1.30250e-05;-4.9721479224970925e-05
1.30253e-05;-7.76622853564283e-06
1.30255e-05;3.334407449226606e-05
1.30258e-05;7.34761651161001e-05
1.30260e-05;0.00011252576116945868
1.30263e-05;0.00015029081294544176
1.30265e-05;0.00018650047809949547
1.30268e-05;0.0002208803193711059
1.30270e-05;0.0002531558724298024
1.30273e-05;0.0002830527441690342
1.30275e-05;0.0003104617829324106
1.30278e-05;0.0003357798266665216
1.30280e-05;0.00035962840846589264
1.30283e-05;0.00038220422727908393
1.30285e-05;0.0004026246249284506
1.30288e-05;0.00042297923276945056
1.30290e-05;0.0004400354488171358
1.30293e-05;0.00045698917220585985
1.30295e-05;0.00047043802529655196
1.30298e-05;0.00048377796971311863
1.30300e-05;0.0004946816935863149
1.30303e-05;0.0005055097155000817
1.30305e-05;0.00051359202963132
1.30308e-05;0.0005215890249437922
1.30310e-05;0.0005295860202562643
1.30313e-05;0.0005339209929705807
1.30315e-05;0.0005381421737348895
1.30318e-05;0.0005423633544992269
1.30320e-05;0.0005439529951811934
1.30323e-05;0.00054546086463715
1.30325e-05;0.0005469687340931168
1.30328e-05;0.0005463179928614544
1.30330e-05;0.0005456001759870712
1.30333e-05;0.0005448823591126831
1.30335e-05;0.0005415720520227049
1.30338e-05;0.0005381811871237721
1.30340e-05;0.0005347903222248164
1.30343e-05;0.0005313994573258608
1.30345e-05;0.000528008592426928
1.30348e-05;0.0005246177275279723
1.30350e-05;0.0005206313561523993
1.30353e-05;0.0005159730865997736
1.30355e-05;0.0005113148170471163
1.30358e-05;0.0005066565474944591
1.30360e-05;0.0005019982779418334
1.30363e-05;0.0004973400083891762
1.30365e-05;0.0004926817388365189
1.30368e-05;0.0004891862755816021
1.30370e-05;0.0004857269448170029
1.30373e-05;0.00048226761405240374
1.30375e-05;0.00047880828328782804
1.30378e-05;0.0004753489525232289
1.30380e-05;0.0004718896217586298
1.30383e-05;0.0004684302909940541
1.30385e-05;0.0004649709602294549
1.30388e-05;0.0004615116294648558
1.30390e-05;0.0004580522987002801
1.30393e-05;0.0004549858924375202
1.30395e-05;0.0004519316957240279
1.30398e-05;0.0004488774990105356
1.30400e-05;0.00044582330229706404
1.30403e-05;0.00044276910558357175
1.30405e-05;0.0004397149088700795
1.30408e-05;0.00043666071215660795
1.30410e-05;0.00043360651544311566
1.30413e-05;0.0004305523187296234
1.30415e-05;0.0004274981220161518
1.30418e-05;0.0004242700910070965
1.30420e-05;0.0004210366583537364
1.30423e-05;0.00041780322570039827
1.30425e-05;0.0004145697930470382
1.30428e-05;0.0004113363603936781
1.30430e-05;0.00040810292774033993
1.30433e-05;0.0004048694950869799
1.30435e-05;0.0004016360624336198
1.30438e-05;0.00039840262978028165
1.30440e-05;0.00039516919712692157
1.30443e-05;0.0003922205185138364
1.30445e-05;0.00038928068821252683
1.30448e-05;0.0003863408579111973
1.30450e-05;0.00038340102760986785
1.30453e-05;0.00038046119730855823
1.30455e-05;0.00037752136700722877
1.30458e-05;0.00037458153670589926
1.30460e-05;0.0003716417064045897
1.30463e-05;0.0003687018761032602
1.30465e-05;0.0003657620458019307
1.30468e-05;0.0003633094031557989
1.30470e-05;0.00036112832014041776
1.30473e-05;0.00035895520502915115
1.30475e-05;0.00035678208991789934
1.30478e-05;0.00035354127535202246
1.30480e-05;0.0003502672836005379
1.30482e-05;0.0003442844999208777
1.30485e-05;0.00033821754452769743
1.30488e-05;0.00032964885435903874
1.30490e-05;0.0003210024264724782
1.30493e-05;0.0003107137111809681
1.30495e-05;0.0002986432848315273
1.30498e-05;0.0002865190801726241
1.30500e-05;0.00027205221245591593
1.30503e-05;0.0002557815177068548
1.30505e-05;0.00023786226597369593
1.30508e-05;0.0002184394722743514
1.30510e-05;0.0001976583484164227
1.30513e-05;0.0001756640656220056
1.30515e-05;0.0001525429128459613
1.30518e-05;0.00012821096286664814
1.30520e-05;0.00010253300419522132
1.30523e-05;7.555268550711845e-05
1.30525e-05;4.743898141979454e-05
1.30528e-05;1.836748884772142e-05
1.30530e-05;-1.1486133344083549e-05
1.30533e-05;-4.194625186669593e-05
1.30535e-05;-7.287411947299674e-05
1.30538e-05;-0.00010444888657601184
1.30540e-05;-0.0001360433209798262
1.30543e-05;-0.00016821916949740325
1.30545e-05;-0.00020041308460074729
1.30548e-05;-0.00023260699970430946
1.30550e-05;-0.00026404768460951995
1.30553e-05;-0.0002954649639971313
1.30555e-05;-0.00032688224338495555
1.30558e-05;-0.00035664210584242543
1.30560e-05;-0.00038635046651328984
1.30563e-05;-0.0004141513073432989
1.30565e-05;-0.00044189287480784426
1.30567e-05;-0.00046695137900547426
1.30570e-05;-0.0004919265109697853
1.30573e-05;-0.0005133612493014683
1.30575e-05;-0.0005346859751230826
1.30578e-05;-0.0005523184192963142
1.30580e-05;-0.0005665424674478271
1.30583e-05;-0.000577151240826794
1.30585e-05;-0.0005841677899666642
1.30588e-05;-0.000587628890786321
1.30590e-05;-0.0005875713922434023
1.30593e-05;-0.000584032309147671
1.30595e-05;-0.0005769779818481527
1.30598e-05;-0.0005661865967510575
1.30600e-05;-0.0005514187066772716
1.30603e-05;-0.0005326910205546219
1.30605e-05;-0.0005101843122293011
1.30608e-05;-0.00048408801654022587
1.30610e-05;-0.00045459151737446945
1.30613e-05;-0.00042188424981042015
1.30615e-05;-0.0003861115040804196
1.30618e-05;-0.0003473005940181795
1.30620e-05;-0.0003054678711930077
1.30623e-05;-0.0002607900974281488
1.30625e-05;-0.0002135468317517554
1.30628e-05;-0.00016402295872269812
1.30630e-05;-0.00011250339160523854
1.30633e-05;-5.927303529026368e-05
1.30635e-05;-4.589118145013825e-06
1.30638e-05;5.136503426576271e-05
1.30640e-05;0.0001084129848118231
1.30643e-05;0.00016651183240971689
1.30645e-05;0.00022464231578518521
1.30648e-05;0.0002827727991610475
1.30650e-05;0.0003409032825369097
1.30652e-05;0.00039903376591237803
1.30655e-05;0.0004552919930967837
1.30658e-05;0.0005114920426815151
1.30660e-05;0.0005648458220666707
1.30663e-05;0.000618111157803106
1.30665e-05;0.0006671600133528711
1.30668e-05;0.0007160778479998709
1.30670e-05;0.0007592984848375843
1.30673e-05;0.0008023420896566884
1.30675e-05;0.0008389716789458131
1.30678e-05;0.0008754019621623258
1.30680e-05;0.0009073989557053971
1.30683e-05;0.0009392581913106221
1.30685e-05;0.0009670544436677265
1.30688e-05;0.0009947244448131787
1.30690e-05;0.0010175737726896518
1.30693e-05;0.0010402733052542275
1.30695e-05;0.0010568982392670956
1.30698e-05;0.0010733344140894461
1.30700e-05;0.001089770588911685
1.30703e-05;0.001101013723488337
1.30705e-05;0.0011120954919985795
1.30708e-05;0.0011231772605087467
1.30710e-05;0.001128869869477198
1.30713e-05;0.0011343950182613313
1.30715e-05;0.0011399201670454272
1.30718e-05;0.0011407724377009416
1.30720e-05;0.0011414795055606128
1.30723e-05;0.001142186573420279
1.30725e-05;0.0011375927641857832
1.30728e-05;0.0011328342380138219
1.30730e-05;0.0011280757118418926
1.30733e-05;0.0011233171856699312
1.30735e-05;0.0011185586594979699
1.30737e-05;0.0011138001333260408
1.30740e-05;0.0011090416071540795
1.30743e-05;0.0011001380103810967
1.30745e-05;0.0010911056116527003
1.30748e-05;0.001082073212924365
1.30750e-05;0.0010730408141959686
1.30753e-05;0.0010640084154675722
1.30755e-05;0.001054976016739237
1.30758e-05;0.0010459436180108406
1.30760e-05;0.0010394594491770618
1.30763e-05;0.0010330544628289677
1.30765e-05;0.0010266494764808302
1.30768e-05;0.0010202444901326925
1.30770e-05;0.0010138395037845983
1.30773e-05;0.0010074345174364606
1.30775e-05;0.0010010295310883231
1.30778e-05;0.000994624544740229
1.30780e-05;0.0009882195583920913
1.30783e-05;0.0009818145720439538
1.30785e-05;0.0009754095856958595
1.30788e-05;0.0009690045993477219
1.30790e-05;0.0009625996129995843
1.30793e-05;0.0009561946266514902
1.30795e-05;0.0009527149974392557
1.30798e-05;0.0009525359908175001
1.30800e-05;0.0009523569841957457
1.30803e-05;0.0009521779775739901
1.30805e-05;0.0009519989709522345
1.30808e-05;0.0009518199643304802
1.30810e-05;0.0009516409577087246
1.30813e-05;0.0009514619510869691
1.30815e-05;0.0009512829444652147
1.30818e-05;0.0009511039378434592
1.30820e-05;0.0009509249312217036
1.30822e-05;0.0009507459245999492
1.30825e-05;0.0009505669179781937
1.30828e-05;0.000950387911356438
1.30830e-05;0.0009502089047346825
1.30833e-05;0.0009528433814669859
1.30835e-05;0.0009555652830450858
1.30838e-05;0.0009582871846231856
1.30840e-05;0.000961009086201267
1.30843e-05;0.0009637309877793669
1.30845e-05;0.0009664528893574666
1.30848e-05;0.000969174790935548
1.30850e-05;0.0009718966925136479
1.30853e-05;0.0009746185940917477
1.30855e-05;0.0009773404956698291
1.30858e-05;0.0009800623972479289
1.30860e-05;0.0009823870015596798
1.30863e-05;0.000984263343224589
1.30865e-05;0.0009861396848895108
1.30868e-05;0.0009880160265544325
1.30870e-05;0.0009898923682193415
1.30873e-05;0.0009917687098842634
1.30875e-05;0.000993645051549185
1.30878e-05;0.0009955213932140942
1.30880e-05;0.000997397734879016
1.30883e-05;0.000999274076543938
1.30885e-05;0.001001150418208847
1.30888e-05;0.0010030267598737687
1.30890e-05;0.0010017969068024752
1.30893e-05;0.0010004705333107602
1.30895e-05;0.000999144159819036
1.30898e-05;0.0009978177863273117
1.30900e-05;0.0009964914128355966
1.30903e-05;0.0009951650393438725
1.30905e-05;0.000993838665852148
1.30907e-05;0.000992512292360433
1.30910e-05;0.0009911859188687089
1.30913e-05;0.0009898595453769845
1.30915e-05;0.0009885331718852604
1.30918e-05;0.0009872067983935453
1.30920e-05;0.000985880424901821
1.30923e-05;0.000982220695573108
1.30925e-05;0.0009784884606529713
1.30928e-05;0.0009747562257328092
1.30930e-05;0.0009710239908126471
1.30933e-05;0.0009672917558925103
1.30935e-05;0.0009635595209723483
1.30938e-05;0.0009598272860521862
1.30940e-05;0.0009560950511320493
1.30943e-05;0.0009523628162118874
1.30945e-05;0.0009486305812917253
1.30948e-05;0.0009448983463715884
1.30950e-05;0.0009411661114514263
1.30953e-05;0.0009374338765312643
1.30955e-05;0.0009337364599692006
1.30958e-05;0.0009300401253362404
1.30960e-05;0.0009263437907032801
1.30963e-05;0.000922647456070345
1.30965e-05;0.0009189511214373848
1.30968e-05;0.00091535680089693
1.30970e-05;0.0009118775808392006
1.30973e-05;0.0009083983607814476
1.30975e-05;0.0009049191407236945
1.30978e-05;0.0009014399206659652
1.30980e-05;0.0008979607006082121
1.30983e-05;0.0008905261377866248
1.30985e-05;0.0008829686685217613
1.30988e-05;0.0008754111992568468
1.30990e-05;0.0008643174104177771
1.30992e-05;0.0008531137356631043
1.30995e-05;0.0008419100609083555
1.30998e-05;0.0008265489280527161
1.31000e-05;0.0008110586083176559
1.31003e-05;0.0007955682885827008
1.31005e-05;0.0007752472468649845
1.31008e-05;0.000754776097585559
1.31010e-05;0.0007343049483062721
1.31013e-05;0.0007101160192366524
1.31015e-05;0.0006858115656426632
1.31018e-05;0.0006615071120488387
1.31020e-05;0.0006334504985117375
1.31023e-05;0.0006052772921376883
1.31025e-05;0.00057710408576383
1.31028e-05;0.0005460969724971517
1.31030e-05;0.0005150017997529073
1.31033e-05;0.00048390662700887373
1.31035e-05;0.00045117297343593625
1.31038e-05;0.00041838840648747986
1.31040e-05;0.00038560383953924556
1.31043e-05;0.000352519809851109
1.31045e-05;0.00031909790227717063
1.31048e-05;0.0002856759947034587
1.31050e-05;0.00025225408712952033
1.31053e-05;0.0002198197833209354
1.31055e-05;0.0001874161678431944
1.31058e-05;0.00015606928338391068
1.31060e-05;0.00012557495353520253
1.31063e-05;9.608233067381371e-05
1.31065e-05;6.780268627840311e-05
1.31068e-05;4.095001704688488e-05
1.31070e-05;1.57383156106677e-05
1.31073e-05;-7.618454886927243e-06
1.31075e-05;-2.9172083281307033e-05
1.31077e-05;-4.97627253299713e-05
1.31080e-05;-7.051965536849508e-05
1.31083e-05;-9.181984455667165e-05
1.31085e-05;-0.00011359032098277927
1.31088e-05;-0.00013537489217610072
1.31090e-05;-0.0001571594633695698
1.31093e-05;-0.00017862472207113496
1.31095e-05;-0.00020008005860773604
1.31098e-05;-0.00022203466948374895
1.31100e-05;-0.00024400479457361413
1.31103e-05;-0.00026778272153543865
1.31105e-05;-0.0002916168232747782
1.31108e-05;-0.00031669693740433053
1.31110e-05;-0.00034181576953135143
1.31113e-05;-0.00036765153699070226
1.31115e-05;-0.00039350958215830236
1.31118e-05;-0.0004193676273257273
1.31120e-05;-0.00044696826827484744
1.31123e-05;-0.00047462305781824767
1.31125e-05;-0.0005022778473614605
1.31128e-05;-0.0005312006926577738
1.31130e-05;-0.0005601629409167438
1.31133e-05;-0.0005891251891755175
1.31135e-05;-0.0006180874374344875
1.31138e-05;-0.0006470496856934575
1.31140e-05;-0.0006758601883004708
1.31143e-05;-0.0007044994792902708
1.31145e-05;-0.0007331387702800708
1.31148e-05;-0.0007617780612696767
1.31150e-05;-0.0007904173522594765
1.31153e-05;-0.0008190566432492765
1.31155e-05;-0.0008445642764385309
1.31158e-05;-0.0008699745979796615
1.31160e-05;-0.000895384919520792
1.31162e-05;-0.0009207952410617504
1.31165e-05;-0.0009462055626028809
1.31168e-05;-0.0009654149239483698
1.31170e-05;-0.0009844315995994433
1.31173e-05;-0.001003448275250388
1.31175e-05;-0.0010224649509014614
1.31178e-05;-0.0010414816265525348
1.31180e-05;-0.0010514285468817062
1.31183e-05;-0.0010610936379381157
1.31185e-05;-0.0010637415083205053
1.31188e-05;-0.0010661713289176688
1.31190e-05;-0.0010618153315450937
1.31193e-05;-0.0010572484748851295
1.31195e-05;-0.0010458290722738745
1.31198e-05;-0.001034196736901566
1.31200e-05;-0.001014828133223089
1.31203e-05;-0.000995219136414693
1.31205e-05;-0.0009681327386092094
1.31208e-05;-0.0009408139915935395
1.31210e-05;-0.0009068355718493248
1.31213e-05;-0.0008726502125948454
1.31215e-05;-0.0008324361608569496
1.31218e-05;-0.0007920347763899643
1.31220e-05;-0.0007457238444521005
1.31223e-05;-0.0006992292820404197
1.31225e-05;-0.0006476600340496676
1.31228e-05;-0.0005959330976869838
1.31230e-05;-0.0005403163067052244
1.31233e-05;-0.000484578644227252
1.31235e-05;-0.000426018817174973
1.31238e-05;-0.00036737129551989774
1.31240e-05;-0.0003063696272353253
1.31243e-05;-0.00024529480731505114
1.31245e-05;-0.00018421998739477706
1.31247e-05;-0.00012263427313327657
1.31250e-05;-6.1032683583012374e-05
1.31253e-05;-1.8547468910911155e-07
1.31255e-05;5.968591839212378e-05
1.31258e-05;0.00011830361957368833
1.31260e-05;0.00017539523613450007
1.31263e-05;0.00023061198055470534
1.31265e-05;0.0002835548628841985
1.31268e-05;0.0003338223274683815
1.31270e-05;0.00038101292623595606
1.31273e-05;0.00042472514493440544
1.31275e-05;0.0004648858004025847
1.31278e-05;0.0005017904478316928
1.31280e-05;0.0005385972473028218
1.31283e-05;0.0005733836905947372
1.31285e-05;0.0006081073542973444
1.31288e-05;0.0006401151835048343
1.31290e-05;0.0006720386221600468
1.31293e-05;0.000700305401297783
1.31295e-05;0.0007284585551324568
1.31298e-05;0.0007537552112851584
1.31300e-05;0.0007789631059841854
1.31303e-05;0.0008041710006830417
1.31305e-05;0.0008254208519102397
1.31308e-05;0.0008465477127725088
1.31310e-05;0.0008676745736346348
1.31313e-05;0.0008888014344969039
1.31315e-05;0.000909928295359173
1.31318e-05;0.000931055156221299
1.31320e-05;0.000952182017083568
1.31323e-05;0.0009733088779458372
1.31325e-05;0.0009921138652444308
1.31328e-05;0.00100829912852579
1.31330e-05;0.0010244843918071496
1.31332e-05;0.0010406696550883993
1.31335e-05;0.0010568549183697586
1.31338e-05;0.0010730401816511181
1.31340e-05;0.0010892254449324775
1.31343e-05;0.001105410708213727
1.31345e-05;0.0011215959714950866
1.31348e-05;0.0011331908312203988
1.31350e-05;0.001144643050923309
1.31353e-05;0.0011560952706262968
1.31355e-05;0.0011675474903292847
1.31358e-05;0.0011789997100321947
1.31360e-05;0.0011904519297351826
1.31363e-05;0.0012019041494381703
1.31365e-05;0.0012133563691410806
1.31368e-05;0.0012248085888440683
1.31370e-05;0.0012362608085470562
1.31373e-05;0.0012477130282499663
1.31375e-05;0.0012516163024695601
1.31378e-05;0.0012552850043384054
1.31380e-05;0.0012589537062072257
1.31383e-05;0.001262622408076071
1.31385e-05;0.0012662911099449161
1.31388e-05;0.0012699598118137364
1.31390e-05;0.0012736285136825817
1.31393e-05;0.001277297215551427
1.31395e-05;0.0012809659174202472
1.31398e-05;0.0012846346192890924
1.31400e-05;0.0012883033211579377
1.31403e-05;0.0012837611578347804
1.31405e-05;0.0012789638539817108
1.31408e-05;0.001274166550128641
1.31410e-05;0.0012693692462756037
1.31413e-05;0.001264571942422534
1.31415e-05;0.0012597746385694642
1.31418e-05;0.0012549773347164269
1.31420e-05;0.0012501800308633573
1.31423e-05;0.0012453827270102874
1.31425e-05;0.0012382802184692542
1.31428e-05;0.001228576793072883
1.31430e-05;0.0012188733676764462
1.31433e-05;0.0012091699422800096
1.31435e-05;0.0011994665168836385
1.31438e-05;0.0011897630914872016
1.31440e-05;0.001180059666090765
1.31443e-05;0.0011703562406943939
1.31445e-05;0.001160652815297957
1.31448e-05;0.0011509493899015204
1.31450e-05;0.0011415082933730917
