Time(s);Current(A)
4.25000e-06;0.0017700786484605708
4.25025e-06;0.001774036424813348
4.25050e-06;0.0017779942011661117
4.25075e-06;0.0017819519775188755
4.25100e-06;0.0017859097538716526
4.25125e-06;0.0017898675302244161
4.25150e-06;0.0017938253065771799
4.25175e-06;0.001797783082929957
4.25200e-06;0.0018017408592827207
4.25225e-06;0.001805698635635498
4.25250e-06;0.0018096564119882616
4.25275e-06;0.0018136141883410254
4.25300e-06;0.0018245122912061483
4.25325e-06;0.0018412633663696296
4.25350e-06;0.001858014441533111
4.25375e-06;0.001874765516696649
4.25400e-06;0.0018915165918601303
4.25425e-06;0.0019082676670236116
4.25450e-06;0.0019250187421871498
4.25475e-06;0.0019417698173506313
4.25500e-06;0.0019585208925141126
4.25525e-06;0.0019752719676776505
4.25550e-06;0.001992023042841132
4.25575e-06;0.0020087741180046135
4.25600e-06;0.0020257134663698843
4.25625e-06;0.0020468948096027642
4.25650e-06;0.0020680761528357157
4.25675e-06;0.0020892574960685957
4.25700e-06;0.0021104388393014756
4.25725e-06;0.0021316201825344275
4.25750e-06;0.0021528015257673075
4.25775e-06;0.0021739828690001874
4.25800e-06;0.002195164212233139
4.25825e-06;0.0022134921992664116
4.25850e-06;0.0022294138708673175
4.25875e-06;0.0022453355424682775
4.25900e-06;0.0022612572140691834
4.25925e-06;0.0022771788856700893
4.25950e-06;0.0022931005572710494
4.25975e-06;0.0023090222288719552
4.26000e-06;0.002324943900472861
4.26025e-06;0.0023402274447635475
4.26050e-06;0.0023411333041323157
4.26075e-06;0.0023420391635010874
4.26100e-06;0.002342945022869856
4.26125e-06;0.002343850882238625
4.26150e-06;0.0023447567416073965
4.26175e-06;0.002345662600976165
4.26200e-06;0.0023465684603449334
4.26225e-06;0.002347474319713705
4.26250e-06;0.002348380179082474
4.26275e-06;0.0023492860384512425
4.26300e-06;0.002349492806806837
4.26325e-06;0.0023339483133781517
4.26350e-06;0.002318403819949466
4.26375e-06;0.002302859326520728
4.26400e-06;0.0022873148330920428
4.26425e-06;0.002271770339663357
4.26450e-06;0.002256225846234619
4.26475e-06;0.0022406813528059338
4.26500e-06;0.0022251368593771957
4.26525e-06;0.00220959236594851
4.26550e-06;0.002194047872519825
4.26575e-06;0.002178210257143071
4.26600e-06;0.0021557682934778837
4.26625e-06;0.0021333263298126963
4.26650e-06;0.002110884366147433
4.26675e-06;0.0020884424024822457
4.26700e-06;0.0020660004388170583
4.26725e-06;0.0020435584751517947
4.26750e-06;0.0020211165114866073
4.26775e-06;0.0019988044380656825
4.26800e-06;0.001979418929571165
4.26825e-06;0.0019600334210767133
4.26850e-06;0.0019406479125822617
4.26875e-06;0.0019212624040877444
4.26900e-06;0.0019018768955932927
4.26925e-06;0.0018824913870987754
4.26950e-06;0.0018631058786043237
4.26975e-06;0.0018439045282155886
4.27000e-06;0.0018288524552112742
4.27025e-06;0.001813800382207011
4.27050e-06;0.0017987483092027476
4.27075e-06;0.0017836962361984332
4.27100e-06;0.00176864416319417
4.27125e-06;0.0017535920901899065
4.27150e-06;0.0017385400171855924
4.27175e-06;0.001723487944181329
4.27200e-06;0.0017084358711770657
4.27225e-06;0.0016933837981727513
4.27250e-06;0.001678331725168488
4.27275e-06;0.0016632796521642247
4.27300e-06;0.0016482275791599103
4.27325e-06;0.0016331755061556469
4.27350e-06;0.0016181234331513325
4.27375e-06;0.0016019714410448705
4.27400e-06;0.001584891856263668
4.27425e-06;0.0015678122714824075
4.27450e-06;0.001550732686701205
4.27475e-06;0.0015336531019200024
4.27500e-06;0.0015165735171387422
4.27525e-06;0.0014994939323575397
4.27550e-06;0.0014824143475763371
4.27575e-06;0.0014653347627950767
4.27600e-06;0.0014482551780138741
4.27625e-06;0.0014311755932326716
4.27650e-06;0.0014140960084514111
4.27675e-06;0.0013970164236702088
4.27700e-06;0.0013799368388890062
4.27725e-06;0.0013628572541077458
4.27750e-06;0.0013458605672661034
4.27775e-06;0.0013307316588976037
4.27800e-06;0.0013156027505291555
4.27825e-06;0.001300473842160707
4.27850e-06;0.0012853449337922073
4.27875e-06;0.0012702160254237588
4.27900e-06;0.001255308470180538
4.27925e-06;0.0012453882355437905
4.27950e-06;0.0012354680009070765
4.27975e-06;0.0012255477662703623
4.28000e-06;0.0012156275316336147
4.28025e-06;0.0012057072969969005
4.28050e-06;0.0011961148138664608
4.28075e-06;0.0011939069196777912
4.28100e-06;0.0011916990254891287
4.28125e-06;0.0011897319627883597
4.28150e-06;0.0011931910888560297
4.28175e-06;0.001196650214923688
4.28200e-06;0.001200372549137829
4.28225e-06;0.0012100252419624312
4.28250e-06;0.0012196779347870333
4.28275e-06;0.001229582570745669
4.28300e-06;0.0012451637526394149
4.28325e-06;0.001260744934533161
4.28350e-06;0.0012766703736726988
4.28375e-06;0.001300352293561425
4.28400e-06;0.0013240342134501514
4.28425e-06;0.001347716133338958
4.28450e-06;0.0013713980532276842
4.28475e-06;0.0013950799731164106
4.28500e-06;0.001418761893005217
4.28525e-06;0.0014427398023517163
4.28550e-06;0.0014733866680069852
4.28575e-06;0.001504033533662358
4.28600e-06;0.0015346803993176268
4.28625e-06;0.0015653272649729995
4.28650e-06;0.0015959741306282686
4.28675e-06;0.0016266209962835375
4.28700e-06;0.0016571420577021119
4.28725e-06;0.0016848286162812912
4.28750e-06;0.0017125151748604707
4.28775e-06;0.0017402017334397439
4.28800e-06;0.0017678882920189232
4.28825e-06;0.0017955748505981025
4.28850e-06;0.0018232614091773756
4.28875e-06;0.0018509479677565552
4.28900e-06;0.0018786345263357344
4.28925e-06;0.0019063210849150076
4.28950e-06;0.001934007643494187
4.28975e-06;0.0019612238388906685
4.29000e-06;0.0019778422530800526
4.29025e-06;0.0019944606672693804
4.29050e-06;0.0020110790814587645
4.29075e-06;0.002027697495648092
4.29100e-06;0.0020443159098374204
4.29125e-06;0.0020609343240268045
4.29150e-06;0.002077552738216132
4.29175e-06;0.00209417115240546
4.29200e-06;0.002110789566594844
4.29225e-06;0.002127407980784172
4.29250e-06;0.0021437969434851536
4.29275e-06;0.002155016120880296
4.29300e-06;0.0021662352982754003
4.29325e-06;0.0021774544756705044
4.29350e-06;0.0021886736530656466
4.29375e-06;0.0021998928304607507
4.29400e-06;0.002211112007855855
4.29425e-06;0.0022223311852509974
4.29450e-06;0.0022335503626461015
4.29475e-06;0.0022447695400412437
4.29500e-06;0.0022559887174363477
4.29525e-06;0.0022672078948314522
4.29550e-06;0.0022784270722265945
4.29575e-06;0.0022896462496216985
4.29600e-06;0.0023008654270168026
4.29625e-06;0.002312084604411945
4.29650e-06;0.0023233037818070493
4.29675e-06;0.002331826778036287
4.29700e-06;0.002338076008955771
4.29725e-06;0.002344325239875234
4.29750e-06;0.002350574470794697
4.29775e-06;0.0023568237017141808
4.29800e-06;0.002363072932633644
4.29825e-06;0.002369322163553107
4.29850e-06;0.002375571394472591
4.29875e-06;0.002381820625392054
4.29900e-06;0.0023880698563115378
4.29925e-06;0.002394319087231001
4.29950e-06;0.0024005683181504635
4.29975e-06;0.002406817549069948
4.30000e-06;0.0024130667799894105
4.30025e-06;0.0024193160109088735
4.30050e-06;0.0024255652418283574
4.30075e-06;0.0024313420555336146
4.30100e-06;0.0024264748085382447
4.30125e-06;0.0024216075615428588
4.30150e-06;0.0024167403145474893
4.30175e-06;0.0024118730675521194
4.30200e-06;0.0024070058205567335
4.30225e-06;0.002402138573561364
4.30250e-06;0.002397271326565994
4.30275e-06;0.0023924040795706082
4.30300e-06;0.002387536832575239
4.30325e-06;0.0023826695855798524
4.30350e-06;0.002377802338584483
4.30375e-06;0.002372530257778495
4.30400e-06;0.002358136842010747
4.30425e-06;0.0023437434262430475
4.30450e-06;0.002329350010475348
4.30475e-06;0.0023149565947075995
4.30500e-06;0.0023005631789399
4.30525e-06;0.0022861697631722006
4.30550e-06;0.0022717763474044525
4.30575e-06;0.002257382931636753
4.30600e-06;0.0022429895158690536
4.30625e-06;0.0022285961001013055
4.30650e-06;0.002214202684333606
4.30675e-06;0.0021997623650951677
4.30700e-06;0.0021842652609337996
4.30725e-06;0.002168768156772484
4.30750e-06;0.002153271052611116
4.30775e-06;0.0021377739484498004
4.30800e-06;0.0021222768442884852
4.30825e-06;0.002106779740127117
4.30850e-06;0.0020912826359658016
4.30875e-06;0.002075785531804486
4.30900e-06;0.0020604317395130365
4.30925e-06;0.0020483069155892964
4.30950e-06;0.0020361820916655563
4.30975e-06;0.002024057267741775
4.31000e-06;0.002011932443818035
4.31025e-06;0.001999807619894295
4.31050e-06;0.0019876827959705136
4.31075e-06;0.0019755579720467735
4.31100e-06;0.0019634331481230335
4.31125e-06;0.0019511602593797002
4.31150e-06;0.00193555131327529
4.31175e-06;0.001919942367170827
4.31200e-06;0.0019043334210664168
4.31225e-06;0.0018887244749620066
4.31250e-06;0.0018731155288575435
4.31275e-06;0.0018575065827531332
4.31300e-06;0.001841897636648723
4.31325e-06;0.00182628869054426
4.31350e-06;0.0018106797444398498
4.31375e-06;0.0017950707983354396
4.31400e-06;0.0017794618522309765
4.31425e-06;0.0017611598520879605
4.31450e-06;0.0017405867238302008
4.31475e-06;0.0017200135955723714
4.31500e-06;0.0016994404673146117
4.31525e-06;0.001678867339056852
4.31550e-06;0.0016582942107990226
4.31575e-06;0.0016377210825412629
4.31600e-06;0.0016171479542834335
4.31625e-06;0.001596574826025674
4.31650e-06;0.0015760016977679142
4.31675e-06;0.001555428569510085
4.31700e-06;0.0015350183173202837
4.31725e-06;0.0015182778356184713
4.31750e-06;0.0015015373539166018
4.31775e-06;0.0014847968722147894
4.31800e-06;0.0014680563905129767
4.31825e-06;0.0014513159088111074
4.31850e-06;0.001434575427109295
4.31875e-06;0.0014178349454074823
4.31900e-06;0.001401094463705613
4.31925e-06;0.0013843539820038004
4.31950e-06;0.001367613500301988
4.31975e-06;0.0013508730186001187
4.32000e-06;0.001334132536898306
4.32025e-06;0.0013173920551964367
4.32050e-06;0.0013010981157929023
4.32075e-06;0.0012948652477776683
4.32100e-06;0.0012886323797624132
4.32125e-06;0.0012823995117471792
4.32150e-06;0.0012761666437319454
4.32175e-06;0.00126993377571669
4.32200e-06;0.0012637009077014563
4.32225e-06;0.0012574680396862223
4.32250e-06;0.0012512351716709672
4.32275e-06;0.0012450023036557332
4.32300e-06;0.0012387694356404994
4.32325e-06;0.0012325365676252441
4.32350e-06;0.0012263036996100103
4.32375e-06;0.0012200708315947763
4.32400e-06;0.0012140975946045636
4.32425e-06;0.001213974119857621
4.32450e-06;0.0012138506451106785
4.32475e-06;0.0012137271703637357
4.32500e-06;0.001213603695616793
4.32525e-06;0.0012134802208698503
4.32550e-06;0.0012133567461229077
4.32575e-06;0.001213233271375965
4.32600e-06;0.0012131097966290223
4.32625e-06;0.0012129863218820797
4.32650e-06;0.0012128628471351373
4.32675e-06;0.0012127393723881943
4.32700e-06;0.001212615897641252
4.32725e-06;0.0012133760821192061
4.32750e-06;0.0012148814812420457
4.32775e-06;0.00121638688036488
4.32800e-06;0.0012178922794877146
4.32825e-06;0.001219397678610554
4.32850e-06;0.0012209030777333885
4.32875e-06;0.0012224084768562228
4.32900e-06;0.0012239138759790624
4.32925e-06;0.0012254192751018967
4.32950e-06;0.0012269246742247363
4.32975e-06;0.0012284300733475706
4.33000e-06;0.001229935472470405
4.33025e-06;0.0012318497410953486
4.33050e-06;0.0012429762730607019
4.33075e-06;0.0012541028050260551
4.33100e-06;0.0012652293369914461
4.33125e-06;0.0012763558689567994
4.33150e-06;0.0012874824009221526
4.33175e-06;0.0012986089328875436
4.33200e-06;0.0013097354648528969
4.33225e-06;0.0013208619968182501
4.33250e-06;0.001331988528783641
4.33275e-06;0.0013431150607489944
4.33300e-06;0.0013548786836620954
4.33325e-06;0.0013809966410286449
4.33350e-06;0.0014071145983951061
4.33375e-06;0.0014332325557616557
4.33400e-06;0.0014593505131281167
4.33425e-06;0.001485468470494578
4.33450e-06;0.0015115864278611275
4.33475e-06;0.0015377043852275885
4.33500e-06;0.0015638223425940496
4.33525e-06;0.0015899402999605993
4.33550e-06;0.0016160582573270603
4.33575e-06;0.0016424322307671195
4.33600e-06;0.0016745745177544054
4.33625e-06;0.0017067168047415824
4.33650e-06;0.0017388590917287593
4.33675e-06;0.0017710013787160452
4.33700e-06;0.0018031436657032223
4.33725e-06;0.001835285952690399
4.33750e-06;0.001867278329280911
4.33775e-06;0.0018958930657091292
4.33800e-06;0.0019245078021374444
4.33825e-06;0.0019531225385656626
4.33850e-06;0.001981737274993881
4.33875e-06;0.002010352011422196
4.33900e-06;0.002038966747850414
4.33925e-06;0.0020671090320457564
4.33950e-06;0.0020846064665806254
4.33975e-06;0.002102103901115435
4.34000e-06;0.002119601335650245
4.34025e-06;0.002137098770185114
4.34050e-06;0.0021545962047199237
4.34075e-06;0.0021720936392547337
4.34100e-06;0.0021895910737896027
4.34125e-06;0.0022070885083244124
4.34150e-06;0.0022245859428592224
4.34175e-06;0.0022420833773940914
4.34200e-06;0.0022592566933160693
4.34225e-06;0.0022691272732903206
4.34250e-06;0.0022789978532645385
4.34275e-06;0.0022888684332387564
4.34300e-06;0.0022987390132130077
4.34325e-06;0.0023086095931872256
4.34350e-06;0.0023184801731614435
4.34375e-06;0.0023283507531356947
4.34400e-06;0.0023382213331099126
4.34425e-06;0.0023480919130841305
4.34450e-06;0.002357962493058382
4.34475e-06;0.0023677120835503738
4.34500e-06;0.0023747356527468364
4.34525e-06;0.002381759221943323
4.34550e-06;0.0023887827911397855
4.34575e-06;0.002395710250698919
4.34600e-06;0.0024004722582433727
4.34625e-06;0.00240523426578781
4.34650e-06;0.0024099962733322637
4.34675e-06;0.002414758280876701
4.34700e-06;0.0024195202884211386
4.34725e-06;0.002424282295965592
4.34750e-06;0.0024290443035100296
4.34775e-06;0.002433806311054467
4.34800e-06;0.0024385683185989206
4.34825e-06;0.002443330326143358
4.34850e-06;0.0024480923336877955
4.34875e-06;0.002452854341232249
4.34900e-06;0.0024576163487766865
4.34925e-06;0.0024594336882209455
4.34950e-06;0.0024587677063465214
4.34975e-06;0.0024581017244721
4.35000e-06;0.002457435742597678
4.35025e-06;0.0024567697607232536
4.35050e-06;0.0024561037788488316
4.35075e-06;0.002455437796974408
4.35100e-06;0.002454771815099986
4.35125e-06;0.002454105833225564
4.35150e-06;0.0024534398513511397
4.35175e-06;0.0024527738694767177
4.35200e-06;0.002452107887602296
4.35225e-06;0.002451441905727872
4.35250e-06;0.002450401987865864
4.35275e-06;0.002440936895801617
4.35300e-06;0.0024314718037373373
4.35325e-06;0.0024220067116730902
4.35350e-06;0.002412541619608843
4.35375e-06;0.0024030765275445632
4.35400e-06;0.0023936114354803162
4.35425e-06;0.0023841463434160688
4.35450e-06;0.0023746812513517897
4.35475e-06;0.002365216159287542
4.35500e-06;0.002355751067223263
4.35525e-06;0.0023462859751590156
4.35550e-06;0.00233474941120927
4.35575e-06;0.0023214659168352
4.35600e-06;0.002308182422461176
4.35625e-06;0.0022948989280871515
4.35650e-06;0.002281615433713082
4.35675e-06;0.0022683319393390577
4.35700e-06;0.002255048444965033
4.35725e-06;0.0022417649505909634
4.35750e-06;0.0022284814562169393
4.35775e-06;0.0022151979618429147
4.35800e-06;0.002201914467468845
4.35825e-06;0.0021888639538837715
4.35850e-06;0.002181062744448452
4.35875e-06;0.0021732615350131064
4.35900e-06;0.0021654603255777875
4.35925e-06;0.0021576591161424417
4.35950e-06;0.0021498579067071224
4.35975e-06;0.002142056697271803
4.36000e-06;0.0021342554878364573
4.36025e-06;0.0021264542784011384
4.36050e-06;0.002118653068965819
4.36075e-06;0.0021108518595304732
4.36100e-06;0.002103050650095154
4.36125e-06;0.0020952494406598346
4.36150e-06;0.002087448231224489
4.36175e-06;0.00207964702178917
4.36200e-06;0.0020718458123538505
4.36225e-06;0.0020640446029185047
4.36250e-06;0.002060366517079495
4.36275e-06;0.0020601655771785477
4.36300e-06;0.0020599646372775997
4.36325e-06;0.0020597636973766526
4.36350e-06;0.0020595627574757046
4.36375e-06;0.002059361817574757
4.36400e-06;0.00205916087767381
4.36425e-06;0.002058959937772862
4.36450e-06;0.0020587589978719144
4.36475e-06;0.0020585580579709673
4.36500e-06;0.0020583571180700193
4.36525e-06;0.0020581561781690717
4.36550e-06;0.0020579552382681246
4.36575e-06;0.0020577542983671766
4.36600e-06;0.002057553358466229
4.36625e-06;0.002057352418565282
4.36650e-06;0.002057248064546773
4.36675e-06;0.00205931989284472
4.36700e-06;0.002061391721142667
4.36725e-06;0.0020634635494406212
4.36750e-06;0.002065535377738568
4.36775e-06;0.0020676072060365224
4.36800e-06;0.0020696790343344693
4.36825e-06;0.0020717508626324167
4.36850e-06;0.0020738226909303705
4.36875e-06;0.002075894519228318
4.36900e-06;0.002077966347526265
4.36925e-06;0.0020800381758242187
4.36950e-06;0.0020802794876509626
4.36975e-06;0.002078977073522649
4.37000e-06;0.0020776746593943306
4.37025e-06;0.002076372245266017
4.37050e-06;0.002075069831137703
4.37075e-06;0.002073767417009385
4.37100e-06;0.0020724650028810716
4.37125e-06;0.0020711625887527576
4.37150e-06;0.0020698601746244397
4.37175e-06;0.002068557760496126
4.37200e-06;0.0020672553463678077
4.37225e-06;0.0020656404286452912
4.37250e-06;0.002056984473683101
4.37275e-06;0.0020483285187208817
4.37300e-06;0.0020396725637586914
4.37325e-06;0.0020310166087965016
4.37350e-06;0.002022360653834282
4.37375e-06;0.002013704698872092
4.37400e-06;0.0020050487439099017
4.37425e-06;0.0019963927889476824
4.37450e-06;0.001987736833985492
4.37475e-06;0.0019790808790233023
4.37500e-06;0.0019704249240610826
4.37525e-06;0.001959654623229052
4.37550e-06;0.001947101235138165
4.37575e-06;0.0019345478470472353
4.37600e-06;0.0019219944589563482
4.37625e-06;0.0019094410708654188
4.37650e-06;0.0018968876827745317
4.37675e-06;0.0018843342946836446
4.37700e-06;0.001871780906592715
4.37725e-06;0.001859227518501828
4.37750e-06;0.001846674130410941
4.37775e-06;0.0018341207423200113
4.37800e-06;0.0018216253225296674
4.37825e-06;0.0018104359899976594
4.37850e-06;0.0017992466574656136
4.37875e-06;0.0017880573249336056
4.37900e-06;0.0017768679924015979
4.37925e-06;0.0017658969246000277
4.37950e-06;0.0017577084860120034
4.37975e-06;0.0017495200474239789
4.38000e-06;0.0017413316088359268
4.38025e-06;0.0017331431702479023
4.38050e-06;0.00172304258675076
4.38075e-06;0.0017143676606495358
4.38100e-06;-0.005516293543878333
4.38125e-06;-0.014295902836701053
4.38150e-06;-0.011980794847646272
4.38175e-06;-0.009588054338179367
4.38200e-06;-0.0038401086361684635
4.38225e-06;0.0032410533821846496
4.38250e-06;0.003549161835286571
4.38275e-06;0.0027959371748133436
4.38300e-06;-0.0013185568164782828
4.38325e-06;-0.006790537607930345
4.38350e-06;-0.006504877615385328
4.38375e-06;-0.004377413088066134
4.38400e-06;-0.0012905329938143774
4.38425e-06;0.0023033744760187678
4.38450e-06;0.004205706027895099
4.38475e-06;0.0036833125694629445
4.38500e-06;0.0015178142403892642
4.38525e-06;-0.0011167023336781416
4.38550e-06;-0.002410500495650578
4.38575e-06;-0.001665638831967749
4.38600e-06;0.000291093405192686
4.38625e-06;0.002467669050382422
4.38650e-06;0.0036217862987509373
4.38675e-06;0.003260914859924958
4.38700e-06;0.0018742802313793609
4.38725e-06;0.00019697554854334899
4.38750e-06;-0.0006377504047672632
4.38775e-06;-0.0001930881801969966
4.38800e-06;0.0010127364517894205
4.38825e-06;0.0023580875953048996
4.38850e-06;0.003064658090096879
4.38875e-06;0.0028238764108770367
4.38900e-06;0.001942167431354093
4.38925e-06;0.0008799543955489062
4.38950e-06;0.0003470282721988018
4.38975e-06;0.000616865858210212
4.39000e-06;0.001364593707183081
4.39025e-06;0.0022004949469270375
4.39050e-06;0.0026368344764053633
4.39075e-06;0.0024802770227892275
4.39100e-06;0.0019227612929378277
4.39125e-06;0.0012526738144336134
4.39150e-06;0.0009145761186677455
4.39175e-06;0.0010796993856120355
4.39200e-06;0.0015444738077040711
4.39225e-06;0.0020647351004643446
4.39250e-06;0.0023349482744316947
4.39275e-06;0.002234011317732669
4.39300e-06;0.0018821592932770496
4.39325e-06;0.0014600300177528697
4.39350e-06;0.0012460694156622638
4.39375e-06;0.0013474927175399862
4.39400e-06;0.001636742387924371
4.39425e-06;0.001960846376127179
4.39450e-06;0.0021284061318452324
4.39475e-06;0.0020635649000628527
4.39500e-06;0.0018416392843788902
4.39525e-06;0.001575773908239991
4.39550e-06;0.0014403675869478214
4.39575e-06;0.00150254979055512
4.39600e-06;0.0016823892726446812
4.39625e-06;0.0018840435509559076
4.39650e-06;0.0019876097431481775
4.39675e-06;0.0019455682598395311
4.39700e-06;0.0018050941882745088
4.39725e-06;0.00163705287987148
4.39750e-06;0.001550670939915444
4.39775e-06;0.0015879749561359935
4.39800e-06;0.0016988733818079382
