Time(s);Current(A)
1.10500e-05;0.005369592312281515
1.10503e-05;0.005384424555604853
1.10505e-05;0.005399256798928092
1.10508e-05;0.00541408904225143
1.10510e-05;0.005428921285574769
1.10513e-05;0.005443753528898008
1.10515e-05;0.005458585772221346
1.10518e-05;0.005463721189891639
1.10520e-05;0.005430283641577015
1.10523e-05;0.005396846093262165
1.10525e-05;0.005363408544947314
1.10528e-05;0.00532997099663269
1.10530e-05;0.005296533448317839
1.10533e-05;0.005263095900002989
1.10535e-05;0.005229658351688365
1.10538e-05;0.005196220803373515
1.10540e-05;0.005136135271117057
1.10543e-05;0.005064677410016557
1.10545e-05;0.004993219548915575
1.10548e-05;0.004921761687814591
1.10550e-05;0.004850303826714092
1.10553e-05;0.00477884596561311
1.10555e-05;0.004707388104512126
1.10557e-05;0.004635930243411628
1.10560e-05;0.004561750096224506
1.10563e-05;0.00447674097753915
1.10565e-05;0.004391731858854371
1.10568e-05;0.004306722740169015
1.10570e-05;0.00422171362148366
1.10572e-05;0.00413670450279888
1.10575e-05;0.004051695384113525
1.10578e-05;0.003973549886738368
1.10580e-05;0.0038983335174647975
1.10583e-05;0.0038231171481917362
1.10585e-05;0.0037479007789181654
1.10588e-05;0.0036726844096445946
1.10590e-05;0.0035974680403715333
1.10593e-05;0.003526318442865919
1.10595e-05;0.0034713460413562367
1.10598e-05;0.003416373639846927
1.10600e-05;0.0033649294117616096
1.10603e-05;0.0033275198913640257
1.10605e-05;0.003290110370966696
1.10608e-05;0.0032564398450464953
1.10610e-05;0.0032376426510821303
1.10613e-05;0.0032188454571178927
1.10615e-05;0.003203926516146436
1.10618e-05;0.0032044348630517494
1.10620e-05;0.003204943209957059
1.10623e-05;0.0032091453687180943
1.10625e-05;0.003228041127654939
1.10628e-05;0.0032469368865916566
1.10630e-05;0.003269219206201358
1.10633e-05;0.00330497291267149
1.10635e-05;0.0033407266191413792
1.10638e-05;0.003381026010075112
1.10640e-05;0.0034394076620024297
1.10642e-05;0.003497789313929352
1.10645e-05;0.00355617096585667
1.10648e-05;0.0036145526177839876
1.10650e-05;0.00367293426971091
1.10653e-05;0.0037313159216382278
1.10655e-05;0.00379317737044684
1.10657e-05;0.0038688810900771643
1.10660e-05;0.003944584809708002
1.10663e-05;0.00402028852933884
1.10665e-05;0.004095992248969677
1.10668e-05;0.004171695968600001
1.10670e-05;0.004247399688230838
1.10673e-05;0.004322372538117776
1.10675e-05;0.00439443806402044
1.10678e-05;0.004466503589923591
1.10680e-05;0.004538569115826742
1.10683e-05;0.0046106346417294055
1.10685e-05;0.004682700167632557
1.10688e-05;0.004754765693535709
1.10690e-05;0.004812436511884621
1.10693e-05;0.0048639642258115606
1.10695e-05;0.004915491939738499
1.10698e-05;0.004967019653665089
1.10700e-05;0.005018547367592028
1.10703e-05;0.005070075081518966
1.10705e-05;0.005117344016468394
1.10708e-05;0.005147671970664898
1.10710e-05;0.005177999924861402
1.10713e-05;0.0052083278790577
1.10715e-05;0.005238655833254205
1.10718e-05;0.005268983787450709
1.10720e-05;0.005299311741647008
1.10723e-05;0.005329639695843512
1.10725e-05;0.005359967650040016
1.10727e-05;0.0053902956042363144
1.10730e-05;0.0054206235584328185
1.10733e-05;0.005450951512629323
1.10735e-05;0.005481279466825622
1.10738e-05;0.005511607421022126
1.10740e-05;0.005538953656273105
1.10742e-05;0.005554438923028734
1.10745e-05;0.005569924189784468
1.10748e-05;0.005585409456540203
1.10750e-05;0.005600894723295832
1.10753e-05;0.005616379990051566
1.10755e-05;0.0056318652568073
1.10758e-05;0.005647350523563035
1.10760e-05;0.0056628357903186636
1.10763e-05;0.005678321057074398
1.10765e-05;0.005693806323830132
1.10768e-05;0.005709291590585761
1.10770e-05;0.0057247768573414955
1.10773e-05;0.005740262124097229
1.10775e-05;0.005753789701890765
1.10778e-05;0.0057595297961784125
1.10780e-05;0.00576526989046606
1.10783e-05;0.005771009984753669
1.10785e-05;0.005776750079041316
1.10788e-05;0.0057824901733289635
1.10790e-05;0.005788230267616572
1.10793e-05;0.00579397036190422
1.10795e-05;0.005799710456191867
1.10798e-05;0.0058054505504794756
1.10800e-05;0.005811190644767123
1.10803e-05;0.005816930739054771
1.10805e-05;0.005822670833342379
1.10808e-05;0.005828410927630027
1.10810e-05;0.005834151021917674
1.10812e-05;0.005826885690156688
1.10815e-05;0.005814070145582251
1.10818e-05;0.005801254601007814
1.10820e-05;0.005788439056433464
1.10823e-05;0.005775623511859027
1.10825e-05;0.00576280796728459
1.10827e-05;0.00574999242271024
1.10830e-05;0.005737176878135803
1.10833e-05;0.005724361333561365
1.10835e-05;0.005711545788987015
1.10838e-05;0.005698730244412578
1.10840e-05;0.005685914699838141
1.10843e-05;0.005673099155263704
1.10845e-05;0.005660283610689354
1.10848e-05;0.0056449759463836745
1.10850e-05;0.005619754888437901
1.10853e-05;0.005594533830492298
1.10855e-05;0.005569312772546524
1.10858e-05;0.00554409171460075
1.10860e-05;0.005518870656655147
1.10863e-05;0.0054936495987093735
1.10865e-05;0.0054684285407636
1.10868e-05;0.005443207482817998
1.10870e-05;0.005417986424872224
1.10873e-05;0.00539276536692645
1.10875e-05;0.005369987842794881
1.10878e-05;0.00534825312438414
1.10880e-05;0.005326518405973398
1.10883e-05;0.005304783687562804
1.10885e-05;0.005283048969152062
1.10888e-05;0.0052613142507413205
1.10890e-05;0.005239579532330726
1.10893e-05;0.0052178448139199845
1.10895e-05;0.005196110095509242
1.10897e-05;0.005174375377098648
1.10900e-05;0.00515301709221267
1.10903e-05;0.005133156220819566
1.10905e-05;0.005113295349426595
1.10908e-05;0.0050934344780334895
1.10910e-05;0.005073573606640384
1.10912e-05;0.005053712735247414
1.10915e-05;0.005033851863854309
1.10918e-05;0.005013990992461204
1.10920e-05;0.004994130121068233
1.10923e-05;0.004974269249675129
1.10925e-05;0.004954408378282023
1.10928e-05;0.004934547506888918
1.10930e-05;0.004914686635495947
1.10933e-05;0.004894825764102843
1.10935e-05;0.004874964892709738
1.10938e-05;0.00485118295722274
1.10940e-05;0.004825727663238491
1.10943e-05;0.004800272369254242
1.10945e-05;0.004774817075270166
1.10948e-05;0.004749361781285918
1.10950e-05;0.004723906487301669
1.10953e-05;0.004698451193317592
1.10955e-05;0.004672995899333344
1.10958e-05;0.004647540605349095
1.10960e-05;0.004622085311365019
1.10963e-05;0.00459663001738077
1.10965e-05;0.004571174723396521
1.10968e-05;0.004545719429412445
1.10970e-05;0.004520264135428197
1.10973e-05;0.004495381018250937
1.10975e-05;0.004472773961028792
1.10978e-05;0.004450166903806493
1.10980e-05;0.004427559846584195
1.10983e-05;0.004404952789362051
1.10985e-05;0.004382345732139753
1.10988e-05;0.0043597386749174545
1.10990e-05;0.004337519231402358
1.10993e-05;0.00431684167498554
1.10995e-05;0.004296164118568722
1.10997e-05;0.004275486562152044
1.11000e-05;0.004254809005735226
1.11003e-05;0.0042341314493184075
1.11005e-05;0.004213453892901729
1.11008e-05;0.004188754256606472
1.11010e-05;0.004148055203982067
1.11013e-05;0.004107356151357663
1.11015e-05;0.004066657098733534
1.11018e-05;0.004025958046109129
1.11020e-05;0.003985258993484725
1.11023e-05;0.003944559940860596
1.11025e-05;0.003903860888236192
1.11028e-05;0.0038631618356117876
1.11030e-05;0.0038224627829876586
1.11033e-05;0.003776388513819228
1.11035e-05;0.003708932191097091
1.11038e-05;0.003641475868375411
1.11040e-05;0.003574019545653274
1.11043e-05;0.003506563222931137
1.11045e-05;0.0034391069002094573
1.11048e-05;0.0033716505774873205
1.11050e-05;0.0033041942547651832
1.11053e-05;0.0032367379320435035
1.11055e-05;0.0031692816093213663
1.11058e-05;0.003099911793214532
1.11060e-05;0.003022930299011844
1.11063e-05;0.002945948804808634
1.11065e-05;0.0028689673106054242
1.11068e-05;0.002791985816402736
1.11070e-05;0.002715004322199526
1.11073e-05;0.0026393417458309247
1.11075e-05;0.0025689256877281584
1.11078e-05;0.002498509629624915
1.11080e-05;0.0024280935715216712
1.11082e-05;0.002357677513418905
1.11085e-05;0.0022872614553156615
1.11088e-05;0.0022195158803658887
1.11090e-05;0.002162393210252235
1.11093e-05;0.002105270540138195
1.11095e-05;0.0020505172448361765
1.11098e-05;0.00200518907663771
1.11100e-05;0.0019621987115437715
1.11103e-05;0.0019285078845764129
1.11105e-05;0.0018972633972284723
1.11108e-05;0.001875750195000893
1.11110e-05;0.0018567268311899148
1.11113e-05;0.0018476077862005363
1.11115e-05;0.0018410387880439145
1.11118e-05;0.0018446136115389273
1.11120e-05;0.0018507682762042312
1.11123e-05;0.0018671852813035316
1.11125e-05;0.001886047281301563
1.11128e-05;0.0019146352172596207
1.11130e-05;0.001945492469102399
1.11133e-05;0.001985376824021594
1.11135e-05;0.0020278563733155176
1.11138e-05;0.00208065933649749
1.11140e-05;0.00213346229967982
1.11143e-05;0.002188932004183324
1.11145e-05;0.0022550097289029173
1.11148e-05;0.0023210874536229585
1.11150e-05;0.002389791702765287
1.11153e-05;0.0024689439934740673
1.11155e-05;0.002548096284183384
1.11158e-05;0.0026272485748927007
1.11160e-05;0.0027064008656014814
1.11163e-05;0.002785553156310798
1.11165e-05;0.002865596377225452
1.11167e-05;0.0029491836260345213
1.11170e-05;0.003032770874844157
1.11173e-05;0.0031163581236537926
1.11175e-05;0.003199945372462862
1.11178e-05;0.0032835326212724975
1.11180e-05;0.003363046945687732
1.11183e-05;0.0034263595995538587
1.11185e-05;0.0034896722534195563
1.11188e-05;0.003552984907285683
1.11190e-05;0.00361629756115181
1.11193e-05;0.0036796102150175075
1.11195e-05;0.0037429228688836344
1.11198e-05;0.0038062355227497613
1.11200e-05;0.003869548176615459
1.11203e-05;0.003924560823410855
1.11205e-05;0.003946556903458426
1.11208e-05;0.003968552983505848
1.11210e-05;0.003990549063553419
1.11213e-05;0.00401254514360099
1.11215e-05;0.004034541223648411
1.11218e-05;0.004056537303695983
1.11220e-05;0.004078533383743554
1.11223e-05;0.004100529463790976
1.11225e-05;0.004115156854302985
1.11228e-05;0.004100472362566926
1.11230e-05;0.004085787870830967
1.11233e-05;0.004071103379094907
1.11235e-05;0.004056418887358848
1.11238e-05;0.004041734395622889
1.11240e-05;0.0040270499038868295
1.11243e-05;0.0040123654121507705
1.11245e-05;0.00399768092041481
1.11248e-05;0.003967218431431861
1.11250e-05;0.003930022503475307
1.11252e-05;0.003892826575519004
1.11255e-05;0.003855630647562449
1.11258e-05;0.0038184347196058947
1.11260e-05;0.003781238791649592
1.11263e-05;0.003744042863693037
1.11265e-05;0.0037068469357364824
1.11268e-05;0.0036689023002079682
1.11270e-05;0.0036279793836591517
1.11273e-05;0.003587056467110058
1.11275e-05;0.003546133550560965
1.11278e-05;0.0035052106340121483
1.11280e-05;0.0034642877174630546
1.11283e-05;0.0034233648009139614
1.11285e-05;0.003382441884365145
1.11288e-05;0.003341518967816051
1.11290e-05;0.003310760488863632
1.11293e-05;0.0032843397987445447
1.11295e-05;0.0032579191086252782
1.11298e-05;0.0032314984185060117
1.11300e-05;0.0032050777283869243
1.11303e-05;0.003178657038267658
1.11305e-05;0.0031522363481483913
1.11308e-05;0.003125815658029304
1.11310e-05;0.003103545990526141
1.11313e-05;0.0030977886602019714
1.11315e-05;0.003092031329877841
1.11318e-05;0.003086273999553672
1.11320e-05;0.0030805166692295027
1.11323e-05;0.0030747593389053723
1.11325e-05;0.0030690020085812034
1.11328e-05;0.003063244678257034
1.11330e-05;0.0030574873479329036
1.11333e-05;0.0030517300176087347
1.11335e-05;0.0030459726872845653
1.11337e-05;0.0030434667921328006
1.11340e-05;0.003053894768667939
1.11343e-05;0.0030643227452030767
1.11345e-05;0.0030747507217381443
1.11348e-05;0.0030851786982732826
1.11350e-05;0.0030956066748084204
1.11353e-05;0.0031060346513435587
1.11355e-05;0.003116462627878626
1.11358e-05;0.003126890604413764
1.11360e-05;0.003137318580948902
1.11363e-05;0.0031477465574839695
1.11365e-05;0.0031587455331871864
1.11368e-05;0.0031720158843237395
1.11370e-05;0.0031852862354602024
1.11373e-05;0.003198556586596755
1.11375e-05;0.003211826937733308
1.11378e-05;0.003225097288869771
1.11380e-05;0.003238367640006324
1.11383e-05;0.003251637991142877
1.11385e-05;0.00326490834227934
1.11388e-05;0.0032781786934158925
1.11390e-05;0.0032914490445524456
1.11393e-05;0.0033047193956889085
1.11395e-05;0.003317989746825461
1.11398e-05;0.0033312600979620143
1.11400e-05;0.0033445304490984772
1.11403e-05;0.0033527805565504707
1.11405e-05;0.0033588882181666566
1.11408e-05;0.003364995879782801
1.11410e-05;0.0033711035413989863
1.11413e-05;0.003377211203015172
1.11415e-05;0.0033833188646313164
1.11418e-05;0.003389426526247502
1.11420e-05;0.0033955341878636872
1.11422e-05;0.0034016418494798315
1.11425e-05;0.0034077495110960174
1.11428e-05;0.003413857172712203
1.11430e-05;0.003419964834328347
1.11433e-05;0.003426072495944533
1.11435e-05;0.0034321801575607183
1.11438e-05;0.0034375524576547812
1.11440e-05;0.003439999565927229
1.11443e-05;0.003442446674199694
1.11445e-05;0.0034448937824721583
1.11448e-05;0.0034473408907446062
1.11450e-05;0.0034497879990170706
1.11453e-05;0.003452235107289535
1.11455e-05;0.003454682215561983
1.11458e-05;0.0034571293238344473
1.11460e-05;0.0034595764321069117
1.11463e-05;0.0034620235403793596
1.11465e-05;0.0034644706486518244
1.11468e-05;0.003466600999150402
1.11470e-05;0.0034674713200963745
1.11473e-05;0.0034683416410423535
1.11475e-05;0.003469211961988332
1.11478e-05;0.0034700822829343047
1.11480e-05;0.0034709526038802833
1.11483e-05;0.003471822924826262
1.11485e-05;0.003472693245772235
1.11488e-05;0.0034735635667182134
1.11490e-05;0.003474433887664192
1.11493e-05;0.003475304208610165
1.11495e-05;0.0034761745295561436
1.11498e-05;0.0034740931484074818
1.11500e-05;0.003460270202641415
1.11503e-05;0.003446447256875255
1.11505e-05;0.0034326243111090947
1.11507e-05;0.003418801365343028
1.11510e-05;0.0034049784195768675
1.11513e-05;0.003391155473810707
1.11515e-05;0.003377332528044641
1.11518e-05;0.0033635095822784804
1.11520e-05;0.00334968663651232
1.11523e-05;0.0033303220796181325
1.11525e-05;0.003288913568739703
1.11528e-05;0.003247505057860993
1.11530e-05;0.0032060965469822827
1.11533e-05;0.003164688036103853
1.11535e-05;0.003123279525225143
1.11538e-05;0.003081871014346433
1.11540e-05;0.0030404625034680033
1.11543e-05;0.002999053992589293
1.11545e-05;0.002957645481710583
1.11548e-05;0.0029129523352762446
1.11550e-05;0.0028551932494628508
1.11553e-05;0.0027974341636494565
1.11555e-05;0.002739675077836454
1.11558e-05;0.00268191599202306
1.11560e-05;0.0026241569062096662
1.11563e-05;0.0025663978203966636
1.11565e-05;0.0025075897606917008
1.11568e-05;0.0024483340395008994
1.11570e-05;0.0023890783183105
1.11573e-05;0.002329822597119699
1.11575e-05;0.002270566875928898
1.11578e-05;0.0022113111547384986
1.11580e-05;0.002153288011004819
1.11583e-05;0.0021001679324858325
1.11585e-05;0.0020470478539672057
1.11588e-05;0.0019955268083846987
1.11590e-05;0.0019503665498854141
1.11592e-05;0.0019052062913864356
1.11595e-05;0.0018620362938499993
1.11598e-05;0.0018267833478867062
1.11600e-05;0.0017938780624127358
1.11603e-05;0.0017703115267387003
1.11605e-05;0.0017492423833006707
1.11608e-05;0.0017381076070138522
1.11610e-05;0.0017294381250603334
1.11613e-05;0.0017305753281316037
1.11615e-05;0.0017342334151281321
1.11618e-05;0.0017479193167773822
1.11620e-05;0.0017643225719194955
1.11623e-05;0.001791535177265582
1.11625e-05;0.0018213321373623582
1.11628e-05;0.0018614093924698206
1.11630e-05;0.0019038241232674164
1.11633e-05;0.0019555370897911305
1.11635e-05;0.002009395622795519
1.11638e-05;0.0020717889966052738
1.11640e-05;0.0021366730663303158
1.11643e-05;0.0022114648659401757
1.11645e-05;0.0022862566655500356
1.11648e-05;0.0023640185882633194
1.11650e-05;0.0024535953524648956
1.11653e-05;0.0025431721166664714
1.11655e-05;0.0026327488808674405
1.11658e-05;0.0027223256450690167
1.11660e-05;0.002811902409270593
1.11663e-05;0.00290683984722545
1.11665e-05;0.0030040650134053673
1.11668e-05;0.003101290179585284
1.11670e-05;0.0031985153457645423
1.11673e-05;0.0032957405119444596
1.11675e-05;0.0033911019226204628
1.11677e-05;0.00347904950730853
1.11680e-05;0.0035669970919971934
1.11683e-05;0.003654944676685857
1.11685e-05;0.0037428922613739245
1.11688e-05;0.003830839846062588
1.11690e-05;0.003912897584470441
1.11693e-05;0.00397152612557742
1.11695e-05;0.0040301546666840025
1.11698e-05;0.004088783207790981
1.11700e-05;0.00414741174889796
1.11703e-05;0.004206040290004542
1.11705e-05;0.004258641503686345
1.11708e-05;0.004287266634339726
1.11710e-05;0.004315891764992913
1.11713e-05;0.004340201908507981
1.11715e-05;0.004347347480961751
1.11718e-05;0.004354493053415472
1.11720e-05;0.0043574458095461815
1.11723e-05;0.004343719977441468
1.11725e-05;0.004329994145336847
1.11728e-05;0.0043124052770376975
1.11730e-05;0.004279449651632783
1.11733e-05;0.004246494026228092
1.11735e-05;0.004208386298701156
1.11738e-05;0.0041497840435768445
1.11740e-05;0.004091181788452929
1.11743e-05;0.004032579533328617
1.11745e-05;0.003973977278204305
1.11748e-05;0.00391537502308039
1.11750e-05;0.0038567727679560777
1.11753e-05;0.003782702277850977
1.11755e-05;0.0037020305433167464
1.11758e-05;0.0036213588087819692
1.11760e-05;0.0035406870742471924
1.11762e-05;0.0034600153397129616
1.11765e-05;0.0033793436051781844
1.11768e-05;0.0032979400664255878
1.11770e-05;0.003213625486435382
1.11773e-05;0.003129310906444605
1.11775e-05;0.003044996326453828
1.11778e-05;0.0029606817464630504
1.11780e-05;0.002876367166472845
1.11783e-05;0.0028015443255707245
1.11785e-05;0.0027307721918031196
1.11788e-05;0.0026600000580359945
1.11790e-05;0.0025892279242683896
1.11793e-05;0.002518455790500785
1.11795e-05;0.002451152802743186
1.11798e-05;0.0023976497178153887
1.11800e-05;0.0023441466328875914
1.11803e-05;0.002292567117781882
1.11805e-05;0.002248639363816822
1.11808e-05;0.0022047116098517622
1.11810e-05;0.002160783855887
1.11813e-05;0.00211685610192194
1.11815e-05;0.0020729283479568802
1.11818e-05;0.0020290005939921176
1.11820e-05;0.001985072840027058
1.11823e-05;0.001948507768747366
1.11825e-05;0.0019150848056747362
1.11828e-05;0.00188166184260188
1.11830e-05;0.0018482388795290237
1.11833e-05;0.0018148159164563939
1.11835e-05;0.0017813929533835376
1.11838e-05;0.0017479699903106814
1.11840e-05;0.0017159528019551563
1.11843e-05;0.0016895276395472764
1.11845e-05;0.0016631024771393962
1.11847e-05;0.0016366773147316954
1.11850e-05;0.0016102521523238154
1.11853e-05;0.0015838269899159352
1.11855e-05;0.0015574018275082344
1.11858e-05;0.0015309766651003542
1.11860e-05;0.0015045515026924743
1.11863e-05;0.0014781263402845943
1.11865e-05;0.0014517011778768932
1.11868e-05;0.0014252760154690133
1.11870e-05;0.0014006388621549874
1.11873e-05;0.0013831142234762275
1.11875e-05;0.001365589584797349
1.11878e-05;0.0013480649461184704
1.11880e-05;0.0013305403074397107
1.11883e-05;0.0013130156687608321
1.11885e-05;0.0012954910300819536
1.11888e-05;0.0012779663914031939
1.11890e-05;0.0012604417527243153
1.11893e-05;0.0012429171140454368
1.11895e-05;0.0012253924753666769
1.11898e-05;0.0012078678366877983
1.11900e-05;0.001192416998912781
1.11903e-05;0.0011852155259381846
1.11905e-05;0.0011780140529635394
1.11908e-05;0.0011708125799888942
1.11910e-05;0.0011636111070142978
1.11913e-05;0.0011564096340396525
1.11915e-05;0.0011492081610650073
1.11918e-05;0.001142006688090411
1.11920e-05;0.0011348052151157657
1.11923e-05;0.0011276037421411205
1.11925e-05;0.001120402269166524
1.11928e-05;0.0011147466022747262
1.11930e-05;0.0011152399915750515
1.11932e-05;0.0011157333808753736
1.11935e-05;0.001116226770175699
1.11938e-05;0.001116720159476024
1.11940e-05;0.0011172135487763461
1.11943e-05;0.0011177069380766715
1.11945e-05;0.0011182003273769968
1.11948e-05;0.0011186937166773221
1.11950e-05;0.001119187105977644
1.11953e-05;0.0011196804952779693
1.11955e-05;0.0011208798003224446
1.11958e-05;0.001124887164945666
1.11960e-05;0.0011288945295689146
1.11963e-05;0.0011329018941921632
1.11965e-05;0.0011369092588153845
1.11968e-05;0.001140916623438633
1.11970e-05;0.0011449239880618816
1.11973e-05;0.001148931352685103
1.11975e-05;0.0011529353555061502
1.11978e-05;0.0011569259854268862
1.11980e-05;0.0011609166153475953
1.11983e-05;0.0011649072452683312
1.11985e-05;0.0011688978751890672
1.11988e-05;0.001172888505109776
1.11990e-05;0.001176879135030512
1.11993e-05;0.001180869764951248
1.11995e-05;0.0011850430294050955
