Time(s);Current(A)
1.47500e-05;0.0021487584591541715
1.47503e-05;0.0021665837819118587
1.47505e-05;0.0021840696319008887
1.47508e-05;0.002201555481890037
1.47510e-05;0.0022190413318791853
1.47513e-05;0.002236527181868215
1.47515e-05;0.002254013031857363
1.47518e-05;0.0022714988818465114
1.47520e-05;0.0022889847318355414
1.47523e-05;0.0023064705818246897
1.47525e-05;0.002323956431813838
1.47528e-05;0.0023414422818028675
1.47530e-05;0.002358928131792016
1.47533e-05;0.002376413981781164
1.47535e-05;0.0023901355140982035
1.47538e-05;0.0023966431787601924
1.47540e-05;0.0024031508434221812
1.47543e-05;0.0024096585080841263
1.47545e-05;0.0024161661727461156
1.47548e-05;0.0024226738374081044
1.47550e-05;0.0024291815020700495
1.47553e-05;0.0024356891667320383
1.47555e-05;0.0024421968313940276
1.47558e-05;0.0024487044960559722
1.47560e-05;0.0024552121607179615
1.47563e-05;0.0024617198253799504
1.47565e-05;0.0024682274900418954
1.47568e-05;0.0024747351547038847
1.47570e-05;0.0024812428193658736
1.47573e-05;0.0024722338548347897
1.47575e-05;0.002460332692398563
1.47578e-05;0.0024484315299622555
1.47580e-05;0.002436530367525948
1.47583e-05;0.002424629205089722
1.47585e-05;0.0024127280426534145
1.47588e-05;0.002400826880217107
1.47590e-05;0.0023889257177808804
1.47593e-05;0.002377024555344573
1.47595e-05;0.0023651233929082656
1.47598e-05;0.002353222230472039
1.47600e-05;0.0023413210680357315
1.47603e-05;0.0023294199055994246
1.47605e-05;0.002317518743163198
1.47608e-05;0.0023030768054229617
1.47610e-05;0.002283765773630649
1.47613e-05;0.002264454741838467
1.47615e-05;0.002245143710046154
1.47618e-05;0.002225832678253841
1.47620e-05;0.0022065216464616593
1.47623e-05;0.0021872106146693464
1.47625e-05;0.0021678995828770336
1.47628e-05;0.0021496644836376364
1.47630e-05;0.0021334912813260162
1.47633e-05;0.002117318079014396
1.47635e-05;0.0021011448767028857
1.47638e-05;0.0020849716743912656
1.47640e-05;0.0020687984720796455
1.47643e-05;0.002052625269768135
1.47645e-05;0.002036452067456515
1.47648e-05;0.002025909799141121
1.47650e-05;0.0020261585469342307
1.47653e-05;0.002026407294727342
1.47655e-05;0.0020266560425204532
1.47658e-05;0.002026904790313564
1.47660e-05;0.0020271535381066737
1.47663e-05;0.002027402285899785
1.47665e-05;0.0020276510336928962
1.47668e-05;0.002027899781486006
1.47670e-05;0.002028148529279117
1.47673e-05;0.0020283972770722284
1.47675e-05;0.0020365544387169164
1.47678e-05;0.0020598671360733426
1.47680e-05;0.0020831798334297684
1.47683e-05;0.002106492530786037
1.47685e-05;0.002129805228142463
1.47688e-05;0.0021531179254988893
1.47690e-05;0.0021764306228551572
1.47693e-05;0.0021997433202115835
1.47695e-05;0.0022230560175680097
1.47698e-05;0.002246368714924278
1.47700e-05;0.0022696814122807043
1.47703e-05;0.002296841076730685
1.47705e-05;0.0023313729966369877
1.47708e-05;0.0023659049165435245
1.47710e-05;0.0024004368364500613
1.47713e-05;0.0024349687563563643
1.47715e-05;0.002469500676262901
1.47718e-05;0.0025040325961694374
1.47720e-05;0.0025385645160757404
1.47723e-05;0.002571413206085986
1.47725e-05;0.0026039481530839466
1.47728e-05;0.0026364831000816862
1.47730e-05;0.002669018047079647
1.47733e-05;0.0027015529940776074
1.47735e-05;0.002734087941075347
1.47738e-05;0.0027666228880733074
1.47740e-05;0.0027955858021998024
1.47743e-05;0.0028177033396461224
1.47745e-05;0.0028398208770922927
1.47748e-05;0.0028619384145386127
1.47750e-05;0.0028840559519849327
1.47753e-05;0.002906173489431103
1.47755e-05;0.002928291026877423
1.47758e-05;0.002950408564323743
1.47760e-05;0.0029725261017699133
1.47763e-05;0.0029946436392162333
1.47765e-05;0.003015895983785269
1.47768e-05;0.003035490288980051
1.47770e-05;0.0030550845941749653
1.47773e-05;0.0030746788993698793
1.47775e-05;0.003094273204564661
1.47778e-05;0.0031138675097595755
1.47780e-05;0.00313346181495449
1.47783e-05;0.003153056120149271
1.47785e-05;0.0031726504253441856
1.47788e-05;0.0031922447305391
1.47790e-05;0.0032118039907985934
1.47793e-05;0.0032312960916026762
1.47795e-05;0.003250788192406759
1.47798e-05;0.0032702802932107096
1.47800e-05;0.0032897723940147924
1.47803e-05;0.0033092644948188752
1.47805e-05;0.0033287565956228262
1.47808e-05;0.003348248696426909
1.47810e-05;0.003367740797230992
1.47813e-05;0.0033872328980349424
1.47815e-05;0.0034067249988390252
1.47818e-05;0.003426217099643108
1.47820e-05;0.0034457092004470586
1.47823e-05;0.0034652013012511414
1.47825e-05;0.0034846934020552243
1.47828e-05;0.003504185502859307
1.47830e-05;0.003518103347022933
1.47833e-05;0.0035309821863099985
1.47835e-05;0.003543861025597064
1.47838e-05;0.0035567398648840426
1.47840e-05;0.0035696187041711082
1.47843e-05;0.003582497543458174
1.47845e-05;0.0035953763827451524
1.47848e-05;0.003608255222032218
1.47850e-05;0.0036211340613192837
1.47853e-05;0.003634012900606262
1.47855e-05;0.003646891739893328
1.47858e-05;0.0036597705791803934
1.47860e-05;0.003672649418467372
1.47863e-05;0.0036855282577544376
1.47865e-05;0.003698407097041503
1.47868e-05;0.0037109236701253563
1.47870e-05;0.0037227460030638685
1.47873e-05;0.0037345683360023806
1.47875e-05;0.0037463906689408125
1.47878e-05;0.0037582130018793247
1.47880e-05;0.003770035334817837
1.47883e-05;0.003781857667756269
1.47885e-05;0.0037936800006947813
1.47888e-05;0.0038055023336332934
1.47890e-05;0.0038173246665717253
1.47893e-05;0.0038291469995102374
1.47895e-05;0.0038409693324487496
1.47898e-05;0.0038527916653871815
1.47900e-05;0.003864613998325694
1.47903e-05;0.003876436331264206
1.47905e-05;0.0038880635410093027
1.47908e-05;0.003899316820332682
1.47910e-05;0.0039105700996560615
1.47913e-05;0.00392182337897944
1.47915e-05;0.003933076658302744
1.47918e-05;0.0039443299376261225
1.47920e-05;0.003955583216949502
1.47923e-05;0.003966836496272805
1.47925e-05;0.003978089775596184
1.47928e-05;0.003989343054919563
1.47930e-05;0.004000596334242866
1.47933e-05;0.004011849613566245
1.47935e-05;0.004023102892889625
1.47938e-05;0.004034356172212927
1.47940e-05;0.004045609451536307
1.47943e-05;0.004051209584403691
1.47945e-05;0.004045976133610988
1.47948e-05;0.00404074268281825
1.47950e-05;0.00403550923202551
1.47953e-05;0.0040302757812328074
1.47955e-05;0.004025042330440069
1.47958e-05;0.00401980887964733
1.47960e-05;0.0040145754288546266
1.47963e-05;0.00399542225597531
1.47965e-05;0.003949593589204402
1.47968e-05;0.0039037649224338035
1.47970e-05;0.003857936255662895
1.47973e-05;0.0038121075888919867
1.47975e-05;0.003766278922121389
1.47978e-05;0.0037204502553504805
1.47980e-05;0.003674621588579572
1.47983e-05;0.0036190937347254943
1.47985e-05;0.0035449785409660925
1.47988e-05;0.003470863347206691
1.47990e-05;0.003390622477581029
1.47993e-05;0.0032986424778085016
1.47995e-05;0.0032066624780359744
1.47998e-05;0.0031146824782634476
1.48000e-05;0.0030227024784915436
1.48003e-05;0.002930722478719017
1.48005e-05;0.002828039888887108
1.48008e-05;0.0027233624064643604
1.48010e-05;0.0026186849240409033
1.48013e-05;0.002514007441617446
1.48015e-05;0.002409329959194698
1.48018e-05;0.00230470193282436
1.48020e-05;0.002200168683105085
1.48023e-05;0.002095635433386518
1.48025e-05;0.0019911021836672422
1.48028e-05;0.001886568933947967
1.48030e-05;0.0017921005583551683
1.48033e-05;0.0016995082092861823
1.48035e-05;0.0016069158602171963
1.48038e-05;0.0015143235111488376
1.48040e-05;0.0014270885296771983
1.48043e-05;0.0013501203068206767
1.48045e-05;0.0012764591881728891
1.48048e-05;0.0012114516090020167
1.48050e-05;0.0011531698391416426
1.48053e-05;0.0011015785893713594
1.48055e-05;0.0010567725824721856
1.48058e-05;0.0010189238004546838
1.48060e-05;0.000988204092292912
1.48063e-05;0.0009647853651679684
1.48065e-05;0.0009488077700374386
1.48068e-05;0.0009402661214849429
1.48070e-05;0.0009389446605533893
1.48073e-05;0.0009445634312241758
1.48075e-05;0.0009569240492980107
1.48078e-05;0.0009758765302538378
1.48080e-05;0.0010012707582031123
1.48083e-05;0.0010329566521680006
1.48085e-05;0.0010707642388573452
1.48088e-05;0.0011153192590297148
1.48090e-05;0.001165268009559153
1.48093e-05;0.0012184982371127985
1.48095e-05;0.0012780170255883416
1.48098e-05;0.0013403271213061408
1.48100e-05;0.0014079864257829568
1.48103e-05;0.0014784039390501763
1.48105e-05;0.0015541072318248337
1.48108e-05;0.0016298105245989782
1.48110e-05;0.0017077657469154687
1.48113e-05;0.0017900365246997566
1.48115e-05;0.0018723073024834872
1.48118e-05;0.001954578080267775
1.48120e-05;0.002036848858052063
1.48123e-05;0.002118233997097173
1.48125e-05;0.0021979219147022153
1.48128e-05;0.0022776098323072577
1.48130e-05;0.0023572977499117602
1.48133e-05;0.0024369856675168027
1.48135e-05;0.002512745866638718
1.48138e-05;0.00258097905984703
1.48140e-05;0.002649212253055804
1.48143e-05;0.0027126888493957542
1.48145e-05;0.002767049992855262
1.48148e-05;0.0028214111363151387
1.48150e-05;0.0028720265329233983
1.48153e-05;0.0029154636506338134
1.48155e-05;0.002958900768344523
1.48158e-05;0.002998614093955937
1.48160e-05;0.0030311912143442636
1.48163e-05;0.003063768334732811
1.48165e-05;0.003089362735081094
1.48168e-05;0.0031015755819231894
1.48170e-05;0.0031137884287652023
1.48173e-05;0.0031260012756072976
1.48175e-05;0.003138214122449393
1.48178e-05;0.003150426969291406
1.48180e-05;0.003162639816133501
1.48183e-05;0.003174852662975597
1.48185e-05;0.0031870655098176093
1.48188e-05;0.003191862050221566
1.48190e-05;0.003182446120291474
1.48193e-05;0.003173030190361446
1.48195e-05;0.003163614260431354
1.48198e-05;0.003154198330501262
1.48200e-05;0.003144782400571234
1.48203e-05;0.0031353664706411425
1.48205e-05;0.0031259505407110503
1.48208e-05;0.0031165346107810223
1.48210e-05;0.003103924043742842
1.48213e-05;0.003085191334165535
1.48215e-05;0.0030664586245883548
1.48218e-05;0.0030477259150110477
1.48220e-05;0.0030289932054337406
1.48223e-05;0.00301026049585656
1.48225e-05;0.002991527786279253
1.48228e-05;0.002972795076701946
1.48230e-05;0.0029548192372495247
1.48233e-05;0.0029382938494855477
1.48235e-05;0.0029217684617215706
1.48238e-05;0.0029052430739577055
1.48240e-05;0.0028887176861937284
1.48243e-05;0.0028721922984297514
1.48245e-05;0.0028556669106658866
1.48248e-05;0.0028391415229019096
1.48250e-05;0.002819324627877201
1.48253e-05;0.002793199950171707
1.48255e-05;0.0027670752724663905
1.48258e-05;0.0027409505947608966
1.48260e-05;0.0027148259170554027
1.48263e-05;0.0026887012393500857
1.48265e-05;0.002662576561644592
1.48268e-05;0.0026364518839390983
1.48270e-05;0.0026103272062337813
1.48273e-05;0.0025842025285282874
1.48275e-05;0.002558077850822794
1.48278e-05;0.0025244462663333543
1.48280e-05;0.0024764285867043536
1.48283e-05;0.0024284109070753525
1.48285e-05;0.0023803932274466776
1.48288e-05;0.0023323755478176765
1.48290e-05;0.0022843578681886758
1.48293e-05;0.0022363401885600004
1.48295e-05;0.0021883225089309997
1.48298e-05;0.002140304829301999
1.48300e-05;0.0020922871496733236
1.48303e-05;0.002044269470044323
1.48305e-05;0.0019930440668442574
1.48308e-05;0.0019356714424514322
1.48310e-05;0.0018782988180582184
1.48313e-05;0.0018209261936650044
1.48315e-05;0.0017635535692721793
1.48318e-05;0.0017061809448789655
1.48320e-05;0.001650790239317602
1.48323e-05;0.0015957689504285993
1.48325e-05;0.0015407476615392239
1.48328e-05;0.0014857263726498482
1.48330e-05;0.0014307050837608455
1.48333e-05;0.0013773155228622377
1.48335e-05;0.0013286875793194959
1.48338e-05;0.0012831921611086714
1.48340e-05;0.0012376967428981555
1.48343e-05;0.0011948192359560465
1.48345e-05;0.0011569586449914908
1.48348e-05;0.0011209284815978592
1.48350e-05;0.0010884061152156776
1.48353e-05;0.0010572113127835883
1.48355e-05;0.00102856062896726
1.48358e-05;0.0010014401614433879
1.48360e-05;0.0009772521716776097
1.48363e-05;0.0009548191450114925
1.48365e-05;0.0009357492966621746
1.48368e-05;0.0009184439284648007
1.48370e-05;0.0009045199768850164
1.48373e-05;0.0008905960253051376
1.48375e-05;0.0008783951891280677
1.48378e-05;0.0008694964989404454
1.48380e-05;0.0008605978087527626
1.48383e-05;0.0008535503831913589
1.48385e-05;0.0008500506863840597
1.48388e-05;0.0008465509895767368
1.48390e-05;0.0008443883970571945
1.48393e-05;0.0008447882060774545
1.48395e-05;0.0008451880150977173
1.48398e-05;0.0008467032519377488
1.48400e-05;0.000850356073698357
1.48403e-05;0.0008540088954589899
1.48405e-05;0.0008589587555102251
1.48408e-05;0.0008663942353767816
1.48410e-05;0.0008738297152433884
1.48413e-05;0.0008812651951099952
1.48415e-05;0.0008887006749765517
1.48418e-05;0.0008961361548431585
1.48420e-05;0.0009035716347097654
1.48423e-05;0.0009114026536736638
1.48425e-05;0.0009199916763334352
1.48428e-05;0.0009285806989932649
1.48430e-05;0.0009371697216530946
1.48433e-05;0.0009457587443128661
1.48435e-05;0.0009543477669726958
1.48438e-05;0.0009629367896325254
1.48440e-05;0.0009709449180608402
1.48443e-05;0.0009778398316959238
1.48445e-05;0.0009847347453310073
1.48448e-05;0.0009916296589660442
1.48450e-05;0.00100214268009992
1.48453e-05;0.001013330092742927
1.48455e-05;0.0010245175053858581
1.48458e-05;0.0010380042934043459
1.48460e-05;0.0010558975611997894
1.48463e-05;0.0010737908289951117
1.48465e-05;0.00109372221631695
1.48468e-05;0.001117559417614233
1.48470e-05;0.0011413966189113547
1.48473e-05;0.00116805128021561
1.48475e-05;0.0012001052689529746
1.48478e-05;0.001232159257690122
1.48480e-05;0.0012664465636600109
1.48483e-05;0.001305013756822949
1.48485e-05;0.0013435809499856256
1.48488e-05;0.0013842249429564968
1.48490e-05;0.0014288488760681247
1.48493e-05;0.0014734728091794502
1.48495e-05;0.001520210510353485
1.48498e-05;0.0015709989969368504
1.48500e-05;0.0016217874835198715
1.48503e-05;0.0016725759701032368
1.48505e-05;0.0017233644566866022
1.48508e-05;0.0017770882444478643
1.48510e-05;0.0018313591530979213
1.48513e-05;0.0018856300617483461
1.48515e-05;0.001939900970398771
1.48518e-05;0.001990628160273723
1.48520e-05;0.002023649138519277
1.48523e-05;0.0020847662958967243
1.48525e-05;0.0009357540960873674
1.48528e-05;-0.007353013120993155
1.48530e-05;-0.01182132369551827
1.48533e-05;-0.009859299194246718
1.48535e-05;-0.00722314990180572
1.48538e-05;-0.0005076431951606423
1.48540e-05;0.003690108853291603
1.48543e-05;0.003643876124905817
1.48545e-05;0.002559550068485421
1.48548e-05;-0.0025251575326360218
1.48550e-05;-0.005426788453423468
1.48553e-05;-0.004416276854935297
1.48555e-05;-0.003409694005721886
1.48558e-05;0.0003479988419985082
1.48560e-05;0.003739616922414586
1.48563e-05;0.0048649312609671215
1.48565e-05;0.003988830143643208
1.48568e-05;0.0017026015354424792
1.48570e-05;-0.0004250157588291282
1.48573e-05;-0.0008378742373252504
1.48575e-05;0.00023500262659335522
1.48578e-05;0.0021414642602448197
1.48580e-05;0.003960547765781195
1.48583e-05;0.0046279434489908565
1.48585e-05;0.004043707278795618
1.48588e-05;0.0025780548506921805
1.48590e-05;0.0012134617639075569
1.48593e-05;0.000924468333266909
1.48595e-05;0.0015673839274133266
1.48598e-05;0.0027335271552167985
1.48600e-05;0.0038459043930741768
1.48603e-05;0.004237808814229806
1.48605e-05;0.0038466636471650027
1.48608e-05;0.0029044083797680306
1.48610e-05;0.0020264774526071823
1.48613e-05;0.001823290335654528
1.48615e-05;0.0022047948957175934
1.48618e-05;0.0029149741372668423
1.48620e-05;0.003592416684355995
1.48623e-05;0.0038195570487574064
1.48625e-05;0.0035572826377552307
1.48628e-05;0.0029509658464484958
1.48630e-05;0.002386178885651601
1.48633e-05;0.002245322284049587
1.48635e-05;0.0024720098156823934
1.48638e-05;0.0029059077020478483
1.48640e-05;0.003320683257029435
1.48643e-05;0.003454853255555715
1.48645e-05;0.003284056412809511
1.48648e-05;0.002899679486049813
1.48650e-05;0.0025437131757302008
1.48653e-05;0.002455951330966571
1.48655e-05;0.0026010138301457582
1.48658e-05;0.0028783035864745825
1.48660e-05;0.0031458936908125793
1.48663e-05;0.0032398537628891984
1.48665e-05;0.0031447947737431453
1.48668e-05;0.002917830921110788
1.48670e-05;0.0027104050722848642
1.48673e-05;0.0026725706791300937
1.48675e-05;0.002782006863819416
1.48678e-05;0.002975545240881515
1.48680e-05;0.0031641358177672252
1.48683e-05;0.003244954123993172
1.48685e-05;0.0032082275963062554
1.48688e-05;0.0030895980446823
1.48690e-05;0.0029837892194884384
1.48693e-05;0.0029846459287688307
1.48695e-05;0.003078034240176673
1.48698e-05;0.003224235948566616
1.48700e-05;0.003367325052815797
1.48703e-05;0.0034427530735692173
1.48705e-05;0.0034442618970677414
1.48708e-05;0.0033940407671604013
1.48710e-05;0.0033512836863387446
1.48713e-05;0.003374628924789471
1.48715e-05;0.0034550747268933713
1.48718e-05;0.0035675951078881682
1.48720e-05;0.003677014014131553
1.48723e-05;0.0037427580609946482
1.48725e-05;0.0037607685712602763
1.48728e-05;0.003744806072535644
1.48730e-05;0.003731808535516564
1.48733e-05;0.0037583624226121114
1.48735e-05;0.003818683026183629
1.48738e-05;0.0038969494338542887
1.48740e-05;0.003970984289834093
1.48743e-05;0.004015231228628955
1.48745e-05;0.00402585004328422
1.48748e-05;0.004011968680309623
1.48750e-05;0.0040032592155507495
1.48753e-05;0.00401449860729552
1.48755e-05;0.004045713500333277
1.48758e-05;0.0040870018240338445
1.48760e-05;0.0041233857266900304
1.48763e-05;0.0041405648481161236
1.48765e-05;0.004135469971604939
1.48768e-05;0.00411394058764748
1.48770e-05;0.004095290746844442
1.48773e-05;0.004087956437970712
1.48775e-05;0.004092292319784812
1.48778e-05;0.004102201824809398
1.48780e-05;0.00410686574922717
1.48783e-05;0.004097414920570584
1.48785e-05;0.004082622349899445
1.48788e-05;0.004053456276050773
1.48790e-05;0.0040242902022019035
1.48793e-05;0.0039984606116756785
1.48795e-05;0.003982217684420224
1.48798e-05;0.0039676131494663916
1.48800e-05;0.003953008614512559
1.48803e-05;0.003933644689178982
1.48805e-05;0.0039014742463146833
1.48808e-05;0.0038691816513364095
1.48810e-05;0.0038365603707360032
1.48813e-05;0.0038039390901353763
1.48815e-05;0.00377319832665475
1.48818e-05;0.0037475176388442307
1.48820e-05;0.003721836951033537
1.48823e-05;0.0036961562632228436
1.48825e-05;0.003664729384199066
1.48828e-05;0.003631595255300684
1.48830e-05;0.0035984611264023017
1.48833e-05;0.00356798499782434
1.48835e-05;0.00354466098852719
1.48838e-05;0.0035213369792300407
1.48840e-05;0.0034980129699330492
1.48843e-05;0.0034746889606358995
1.48845e-05;0.00345136495133875
1.48848e-05;0.0034280409420417587
1.48850e-05;0.003404675729724787
1.48853e-05;0.003381199648755811
1.48855e-05;0.003357723567786835
1.48858e-05;0.003334247486818018
1.48860e-05;0.003310771405849042
1.48863e-05;0.003287295324880066
1.48865e-05;0.003263819243911249
1.48868e-05;0.0032384845600854756
1.48870e-05;0.0032081487672573016
1.48873e-05;0.0031778129744293336
1.48875e-05;0.0031474771816011595
1.48878e-05;0.0031171413887729855
1.48880e-05;0.0030868055959450175
1.48883e-05;0.0030564698031168435
1.48885e-05;0.00302613401028867
1.48888e-05;0.0029957982174607014
1.48890e-05;0.0029654624246325274
1.48893e-05;0.0029351266318043538
1.48895e-05;0.0029002622873052883
1.48898e-05;0.0028640524656042385
1.48900e-05;0.0028278426439031887
1.48903e-05;0.0027916328222023844
1.48905e-05;0.0027554230005013346
1.48908e-05;0.0027192131788002847
1.48910e-05;0.0026830033570994804
1.48913e-05;0.0026467935353984306
1.48915e-05;0.002610583713697381
1.48918e-05;0.002574373891996576
1.48920e-05;0.0025403267415643393
1.48923e-05;0.0025120988842181613
1.48925e-05;0.0024838710268721745
1.48928e-05;0.0024556431695259965
1.48930e-05;0.002427415312179819
1.48933e-05;0.002399187454833832
1.48935e-05;0.002370959597487654
1.48938e-05;0.002342731740141476
1.48940e-05;0.002314503882795298
1.48943e-05;0.0022862760254493113
1.48945e-05;0.0022580481681031333
1.48948e-05;0.0022298203107569557
1.48950e-05;0.002201592453410969
1.48953e-05;0.002173364596064791
1.48955e-05;0.002145136738718613
1.48958e-05;0.002132256947955384
1.48960e-05;0.002123937218594339
1.48963e-05;0.0021156174892332947
1.48965e-05;0.0021072977598723063
1.48968e-05;0.0020989780305112615
1.48970e-05;0.0020906583011502168
1.48973e-05;0.0020823385717892284
1.48975e-05;0.0020740188424281836
1.48978e-05;0.002065699113067139
1.48980e-05;0.0020573793837061504
1.48983e-05;0.0020490596543451057
