Time(s);Current(A)
1.50000e-06;-0.008136516693541481
1.50025e-06;-0.008120476579622546
1.50050e-06;-0.008104436465703623
1.50075e-06;-0.008088396351784701
1.50100e-06;-0.008072356237865765
1.50125e-06;-0.008056316123946843
1.50150e-06;-0.008040276010027906
1.50175e-06;-0.008024907423553534
1.50200e-06;-0.008010489125722772
1.50225e-06;-0.007996070827892022
1.50250e-06;-0.007981652530061273
1.50275e-06;-0.007967234232230511
1.50300e-06;-0.007952815934399763
1.50325e-06;-0.007938397636569
1.50350e-06;-0.007923979338738252
1.50375e-06;-0.007909561040907502
1.50400e-06;-0.007893855371741677
1.50425e-06;-0.007878028662173174
1.50450e-06;-0.007862201952604661
1.50475e-06;-0.007846375243036158
1.50500e-06;-0.007830548533467657
1.50525e-06;-0.007814721823899142
1.50550e-06;-0.0077988951143306414
1.50575e-06;-0.007782738260541682
1.50600e-06;-0.007766114214672968
1.50625e-06;-0.00774949016880424
1.50650e-06;-0.007732866122935526
1.50675e-06;-0.007716242077066813
1.50700e-06;-0.007699618031198085
1.50725e-06;-0.007682993985329371
1.50750e-06;-0.007666369939460643
1.50775e-06;-0.007650375531408867
1.50800e-06;-0.007634440322760424
1.50825e-06;-0.007618505114111967
1.50850e-06;-0.007602569905463524
1.50875e-06;-0.007586634696815067
1.50900e-06;-0.007572621090912366
1.50925e-06;-0.007558788156711602
1.50950e-06;-0.007544955222510827
1.50975e-06;-0.007531122288310064
1.51000e-06;-0.007517289354109288
1.51025e-06;-0.00750555164196938
1.51050e-06;-0.007494010925455379
1.51075e-06;-0.007483064475919677
1.51100e-06;-0.007472173900172982
1.51125e-06;-0.0074612833244262775
1.51150e-06;-0.0074489163389443325
1.51175e-06;-0.0074364105394123855
1.51200e-06;-0.007423904739880449
1.51225e-06;-0.007410459690641866
1.51250e-06;-0.0073969263318692585
1.51275e-06;-0.007383392973096663
1.51300e-06;-0.007367338565957365
1.51325e-06;-0.007351047126424132
1.51350e-06;-0.007334755686890898
1.51375e-06;-0.007318464247357651
1.51400e-06;-0.007302172807824418
1.51425e-06;-0.007282925370694761
1.51450e-06;-0.007263400006653433
1.51475e-06;-0.007243874642612088
1.51500e-06;-0.00722434927857076
1.51525e-06;-0.007204823914529431
1.51550e-06;-0.0071829033029380904
1.51575e-06;-0.007160757486916597
1.51600e-06;-0.007138611670895085
1.51625e-06;-0.007116465854873592
1.51650e-06;-0.007093909993663164
1.51675e-06;-0.0070707738713039715
1.51700e-06;-0.0070476377489448
1.51725e-06;-0.007024501626585608
1.51750e-06;-0.007001365504226436
1.51775e-06;-0.006978081873315652
1.51800e-06;-0.00695495548147847
1.51825e-06;-0.006932138444692918
1.51850e-06;-0.006909763130822833
1.51875e-06;-0.00688791326450169
1.51900e-06;-0.006866606290078449
1.51925e-06;-0.0068458861978667645
1.51950e-06;-0.006825865142861374
1.51975e-06;-0.006806678854345538
1.52000e-06;-0.0067884655536827685
1.52025e-06;-0.006771362265349781
1.52050e-06;-0.006755519088662766
1.52075e-06;-0.006741321040921785
1.52100e-06;-0.006729436028552742
1.52125e-06;-0.006720327920210517
1.52150e-06;-0.006714081129312913
1.52175e-06;-0.006710654048656418
1.52200e-06;-0.006709996386821996
1.52225e-06;-0.0067120574267487566
1.52250e-06;-0.006716794072909881
1.52275e-06;-0.006725722650623305
1.52300e-06;-0.00673502376917599
1.52325e-06;-0.006751489717175324
1.52350e-06;-0.00676862931217726
1.52375e-06;-0.006785768907179196
1.52400e-06;-0.006814978124404356
1.52425e-06;-0.006845322143915272
1.52450e-06;-0.006875666163426214
1.52475e-06;-0.0069060101829371305
1.52500e-06;-0.006936354202448047
1.52525e-06;-0.006966698221958989
1.52550e-06;-0.006997042241469905
1.52575e-06;-0.007035640611979785
1.52600e-06;-0.007077839201537292
1.52625e-06;-0.007120303319988172
1.52650e-06;-0.0071627674384390876
1.52675e-06;-0.007208193882362098
1.52700e-06;-0.00725389884815225
1.52725e-06;-0.007299603813942363
1.52750e-06;-0.007346654517416466
1.52775e-06;-0.007393831748976616
1.52800e-06;-0.007441008980536767
1.52825e-06;-0.007487601451120215
1.52850e-06;-0.0075341389416818194
1.52875e-06;-0.007579078147055299
1.52900e-06;-0.007623867079483063
1.52925e-06;-0.007666197930163384
1.52950e-06;-0.007708297668656982
1.52975e-06;-0.0077396366175542
1.53000e-06;-0.0077699638223882395
1.53025e-06;-0.007800291027222253
1.53050e-06;-0.007830618232056268
1.53075e-06;-0.007860945436890306
1.53100e-06;-0.00789127264172432
1.53125e-06;-0.00792159984655836
1.53150e-06;-0.007951927051392374
1.53175e-06;-0.007975030890196952
1.53200e-06;-0.007987912834481671
1.53225e-06;-0.00800079477876639
1.53250e-06;-0.00801367672305112
1.53275e-06;-0.008026558667335839
1.53300e-06;-0.008039440611620569
1.53325e-06;-0.008052322555905288
1.53350e-06;-0.008065204500190007
1.53375e-06;-0.008078086444474736
1.53400e-06;-0.008078888372290285
1.53425e-06;-0.008078554520539126
1.53450e-06;-0.008078220668787967
1.53475e-06;-0.008077886817036807
1.53500e-06;-0.008077552965285648
1.53525e-06;-0.00807721911353449
1.53550e-06;-0.008076885261783328
1.53575e-06;-0.00807655141003217
1.53600e-06;-0.008072968212911038
1.53625e-06;-0.008064786818011444
1.53650e-06;-0.00805660542311185
1.53675e-06;-0.00804842402821225
1.53700e-06;-0.008040242633312657
1.53725e-06;-0.008032061238413058
1.53750e-06;-0.008023879843513465
1.53775e-06;-0.008015698448613872
1.53800e-06;-0.008007517053714271
1.53825e-06;-0.00799794857764505
1.53850e-06;-0.007988249686319041
1.53875e-06;-0.007978550794993041
1.53900e-06;-0.00796885190366704
1.53925e-06;-0.007959153012341031
1.53950e-06;-0.007949454121015031
1.53975e-06;-0.007939755229689023
1.54000e-06;-0.007930056338363021
1.54025e-06;-0.007920357447037021
1.54050e-06;-0.007912972087360425
1.54075e-06;-0.007908860641312342
1.54100e-06;-0.007904749195264254
1.54125e-06;-0.00790063774921617
1.54150e-06;-0.007896526303168082
1.54175e-06;-0.007892414857119997
1.54200e-06;-0.007888303411071914
1.54225e-06;-0.007884191965023825
1.54250e-06;-0.007880080518975742
1.54275e-06;-0.007875969072927654
1.54300e-06;-0.007879219966009935
1.54325e-06;-0.007883163076223495
1.54350e-06;-0.007887106186437058
1.54375e-06;-0.007891049296650618
1.54400e-06;-0.007894992406864181
1.54425e-06;-0.007898935517077743
1.54450e-06;-0.007902878627291303
1.54475e-06;-0.007906821737504866
1.54500e-06;-0.007913150398834607
1.54525e-06;-0.007922854889629469
1.54550e-06;-0.007932559380424324
1.54575e-06;-0.007942263871219189
1.54600e-06;-0.007951968362014044
1.54625e-06;-0.0079616728528089
1.54650e-06;-0.007971377343603763
1.54675e-06;-0.007981081834398619
1.54700e-06;-0.007990786325193483
1.54725e-06;-0.00800162703772567
1.54750e-06;-0.008012574579369847
1.54775e-06;-0.008023522121014032
1.54800e-06;-0.008034469662658207
1.54825e-06;-0.008045417204302392
1.54850e-06;-0.008056364745946568
1.54875e-06;-0.008067312287590745
1.54900e-06;-0.00807825982923493
1.54925e-06;-0.008089207370879105
1.54950e-06;-0.00810015491252329
1.54975e-06;-0.008111102454167466
1.55000e-06;-0.008122049995811651
1.55025e-06;-0.008125854841385668
1.55050e-06;-0.008128988120967531
1.55075e-06;-0.0081321214005494
1.55100e-06;-0.008135254680131264
1.55125e-06;-0.00813838795971313
1.55150e-06;-0.008141521239294996
1.55175e-06;-0.008144654518876861
1.55200e-06;-0.008147787798458728
1.55225e-06;-0.008150921078040593
1.55250e-06;-0.00815405435762246
1.55275e-06;-0.008157187637204326
1.55300e-06;-0.008160320916786189
1.55325e-06;-0.008153946976300572
1.55350e-06;-0.008146679154062995
1.55375e-06;-0.008139411331825414
1.55400e-06;-0.008132143509587837
1.55425e-06;-0.008124875687350255
1.55450e-06;-0.008117607865112678
1.55475e-06;-0.008110340042875102
1.55500e-06;-0.00810307222063752
1.55525e-06;-0.008093283153553978
1.55550e-06;-0.008079926234756193
1.55575e-06;-0.00806656931595842
1.55600e-06;-0.008053212397160647
1.55625e-06;-0.008039855478362863
1.55650e-06;-0.00802649855956509
1.55675e-06;-0.008013141640767307
1.55700e-06;-0.007999784721969534
1.55725e-06;-0.00798642780317176
1.55750e-06;-0.007971428116197023
1.55775e-06;-0.007956273973925633
1.55800e-06;-0.00794111983165423
1.55825e-06;-0.00792596568938284
1.55850e-06;-0.007910811547111438
1.55875e-06;-0.007896234646568344
1.55900e-06;-0.007882474609525467
1.55925e-06;-0.007868714572482578
1.55950e-06;-0.007854954535439702
1.55975e-06;-0.007841194498396813
1.56000e-06;-0.007827434461353935
1.56025e-06;-0.007816093824242214
1.56050e-06;-0.007804980662400177
1.56075e-06;-0.007793867500558148
1.56100e-06;-0.007782229096659575
1.56125e-06;-0.007770541308789009
1.56150e-06;-0.0077588535209184425
1.56175e-06;-0.007745158264150533
1.56200e-06;-0.007731274262428595
1.56225e-06;-0.007717390260706645
1.56250e-06;-0.007700574508786099
1.56275e-06;-0.007683483109727385
1.56300e-06;-0.007666391710668685
1.56325e-06;-0.007649300311609986
1.56350e-06;-0.007632208912551272
1.56375e-06;-0.0076151175134925725
1.56400e-06;-0.007593114987700731
1.56425e-06;-0.00757065071109886
1.56450e-06;-0.00754818643449699
1.56475e-06;-0.007525722157895099
1.56500e-06;-0.007503257881293229
1.56525e-06;-0.007480793604691339
1.56550e-06;-0.007454648854509896
1.56575e-06;-0.007428158061200466
1.56600e-06;-0.007401667267891013
1.56625e-06;-0.007375176474581582
1.56650e-06;-0.00734868568127213
1.56675e-06;-0.007321650073575499
1.56700e-06;-0.007293843490799494
1.56725e-06;-0.007266036908023514
1.56750e-06;-0.007238230325247533
1.56775e-06;-0.007210423742471528
1.56800e-06;-0.007182617159695548
1.56825e-06;-0.00715543996580054
1.56850e-06;-0.00712832194790353
1.56875e-06;-0.0071023135783382894
1.56900e-06;-0.007076409539417269
1.56925e-06;-0.007051851167239997
1.56950e-06;-0.007027419316478801
1.56975e-06;-0.0070043218529520345
1.57000e-06;-0.006982442898625759
1.57025e-06;-0.006961912993555253
1.57050e-06;-0.006943663164481786
1.57075e-06;-0.006925616694122803
1.57100e-06;-0.006910766581319437
1.57125e-06;-0.006896216994397494
1.57150e-06;-0.006885014016608122
1.57175e-06;-0.006874125691557649
1.57200e-06;-0.006867589341715543
1.57225e-06;-0.006861462170497148
1.57250e-06;-0.006855334999278748
1.57275e-06;-0.006854565382165482
1.57300e-06;-0.00685429948957043
1.57325e-06;-0.006854033596975377
1.57350e-06;-0.0068611863582573205
1.57375e-06;-0.006869036631459191
1.57400e-06;-0.006876886904661053
1.57425e-06;-0.006884737177862916
1.57450e-06;-0.006892587451064786
1.57475e-06;-0.006900437724266649
1.57500e-06;-0.006916276727678115
1.57525e-06;-0.0069328668423610275
1.57550e-06;-0.00694945695704394
1.57575e-06;-0.006966047071726867
1.57600e-06;-0.00698263718640978
1.57625e-06;-0.0069992273010927065
1.57650e-06;-0.007020544365092776
1.57675e-06;-0.007042305863291853
1.57700e-06;-0.007064067361490911
1.57725e-06;-0.007085828859689969
1.57750e-06;-0.007107590357889045
1.57775e-06;-0.007129351856088104
1.57800e-06;-0.007151098997267301
1.57825e-06;-0.007172825821610506
1.57850e-06;-0.007194552645953712
1.57875e-06;-0.007216279470296937
1.57900e-06;-0.007238006294640142
1.57925e-06;-0.0072597331189833665
1.57950e-06;-0.007281459943326573
1.57975e-06;-0.007300298787642473
1.58000e-06;-0.00731886610015131
1.58025e-06;-0.0073350545002986555
1.58050e-06;-0.007351019231872728
1.58075e-06;-0.007362932987974434
1.58100e-06;-0.007374465865856765
1.58125e-06;-0.007385998743739087
1.58150e-06;-0.007391694227258171
1.58175e-06;-0.007396840871025929
1.58200e-06;-0.007401987514793684
1.58225e-06;-0.007401147647666201
1.58250e-06;-0.007399744920648402
1.58275e-06;-0.007398342193630602
1.58300e-06;-0.007388701480529269
1.58325e-06;-0.007378286220780572
1.58350e-06;-0.0073678709610318655
1.58375e-06;-0.007357455701283168
1.58400e-06;-0.007347040441534471
1.58425e-06;-0.0073274898007784734
1.58450e-06;-0.007307080239084805
1.58475e-06;-0.007286670677391119
1.58500e-06;-0.007266261115697451
1.58525e-06;-0.007245851554003766
1.58550e-06;-0.007219511609388241
1.58575e-06;-0.007192614082110771
1.58600e-06;-0.007165716554833279
1.58625e-06;-0.00713572915140571
1.58650e-06;-0.007105451233623219
1.58675e-06;-0.007075173315840753
1.58700e-06;-0.007043154877548077
1.58725e-06;-0.007010972793151568
1.58750e-06;-0.006978161397263499
1.58775e-06;-0.006945094186113892
1.58800e-06;-0.006911981670552143
1.58825e-06;-0.006879009223789998
1.58850e-06;-0.006846360902094195
1.58875e-06;-0.006814212554477916
1.58900e-06;-0.0067827333105990786
1.58925e-06;-0.00675210621166702
1.58950e-06;-0.006722533536509626
1.58975e-06;-0.006694223926831259
1.59000e-06;-0.0066673856132661745
1.59025e-06;-0.006642226746409775
1.59050e-06;-0.006618963138411034
1.59075e-06;-0.006597941568177992
1.59100e-06;-0.0065796457736284975
1.59125e-06;-0.006564396279567326
1.59150e-06;-0.0065522681674938235
1.59175e-06;-0.006543259655014114
1.59200e-06;-0.0065373624802832885
1.59225e-06;-0.006534568261398186
1.59250e-06;-0.006536329844964683
1.59275e-06;-0.006538494704289378
1.59300e-06;-0.00654674262427156
1.59325e-06;-0.006555562481883819
1.59350e-06;-0.00657180673953842
1.59375e-06;-0.006588749049374981
1.59400e-06;-0.006605691359211527
1.59425e-06;-0.006632953214089125
1.59450e-06;-0.006661185326616043
1.59475e-06;-0.006689417439142937
1.59500e-06;-0.006717649551669854
1.59525e-06;-0.0067458816641967475
1.59550e-06;-0.006784298960817233
1.59575e-06;-0.006823673882288147
1.59600e-06;-0.006863048803759027
1.59625e-06;-0.006902423725229942
1.59650e-06;-0.006941798646700822
1.59675e-06;-0.006986156841200523
1.59700e-06;-0.007030983569802811
1.59725e-06;-0.007075810298405061
1.59750e-06;-0.007122174871051408
1.59775e-06;-0.007168684033884702
1.59800e-06;-0.007215193196718034
1.59825e-06;-0.007260968836744077
1.59850e-06;-0.00730667550995891
1.59875e-06;-0.007352382183173781
1.59900e-06;-0.007395871120411797
1.59925e-06;-0.007439151543099364
1.59950e-06;-0.00747848967086962
1.59975e-06;-0.007517457138714106
1.60000e-06;-0.007556424606558625
1.60025e-06;-0.007579364317303396
1.60050e-06;-0.007600797076543684
1.60075e-06;-0.007622229835783954
1.60100e-06;-0.007643662595024223
1.60125e-06;-0.00766509535426451
1.60150e-06;-0.00768652811350478
1.60175e-06;-0.007707960872745068
1.60200e-06;-0.0077293936319853375
1.60225e-06;-0.007750826391225625
1.60250e-06;-0.007772259150465895
1.60275e-06;-0.007793691909706165
1.60300e-06;-0.007815124668946453
1.60325e-06;-0.007836557428186723
1.60350e-06;-0.00785799018742701
1.60375e-06;-0.00787942294666728
1.60400e-06;-0.00790085570590755
1.60425e-06;-0.007907825739965969
1.60450e-06;-0.007913435968947792
1.60475e-06;-0.00791904619792962
1.60500e-06;-0.007924656426911442
1.60525e-06;-0.007930266655893265
1.60550e-06;-0.007935876884875091
1.60575e-06;-0.007941487113856914
1.60600e-06;-0.007947097342838742
1.60625e-06;-0.007952707571820565
1.60650e-06;-0.007958317800802393
1.60675e-06;-0.007963928029784215
1.60700e-06;-0.007969538258766038
1.60725e-06;-0.007975148487747866
1.60750e-06;-0.007980758716729687
1.60775e-06;-0.007986368945711515
1.60800e-06;-0.007991979174693338
1.60825e-06;-0.007993449191204125
1.60850e-06;-0.007994529939311825
1.60875e-06;-0.007995610687419523
1.60900e-06;-0.007996691435527222
1.60925e-06;-0.00799747268354385
1.60950e-06;-0.00799783010445193
1.60975e-06;-0.007998187525360011
1.61000e-06;-0.007998544946268091
1.61025e-06;-0.007998902367176172
1.61050e-06;-0.007998359035319123
1.61075e-06;-0.007997731013462973
1.61100e-06;-0.007997102991606823
1.61125e-06;-0.00799301989288365
1.61150e-06;-0.007988611943137991
1.61175e-06;-0.007984203993392336
1.61200e-06;-0.007973751601802482
1.61225e-06;-0.007962730903576068
1.61250e-06;-0.007951710205349653
1.61275e-06;-0.00794068950712323
1.61300e-06;-0.007929668808896815
1.61325e-06;-0.007918648110670392
1.61350e-06;-0.007903647047334619
1.61375e-06;-0.00788301330913322
1.61400e-06;-0.007862379570931803
1.61425e-06;-0.007841745832730404
1.61450e-06;-0.007821112094528987
1.61475e-06;-0.007800478356327587
1.61500e-06;-0.0077798446181261876
1.61525e-06;-0.007752398318229698
1.61550e-06;-0.007724311492024445
1.61575e-06;-0.007696224665819167
1.61600e-06;-0.007668137839613913
1.61625e-06;-0.007640051013408636
1.61650e-06;-0.007611964187203383
1.61675e-06;-0.007580877366220886
1.61700e-06;-0.007549508481652446
1.61725e-06;-0.007518139597084033
1.61750e-06;-0.007486770712515594
1.61775e-06;-0.007455401827947181
1.61800e-06;-0.007424032943378767
1.61825e-06;-0.007392889932757944
1.61850e-06;-0.007361768159112663
1.61875e-06;-0.007331741561975932
1.61900e-06;-0.007301817934822893
1.61925e-06;-0.0072734253414441855
1.61950e-06;-0.007245176697941569
1.61975e-06;-0.007219116704888689
1.62000e-06;-0.007193262491725411
1.62025e-06;-0.007171130161935819
1.62050e-06;-0.007149347768678978
1.62075e-06;-0.007127565375422154
1.62100e-06;-0.007110350403096052
1.62125e-06;-0.007093564865892885
1.62150e-06;-0.007076779328689732
1.62175e-06;-0.007067635076326122
1.62200e-06;-0.0070592092679474935
1.62225e-06;-0.0070507834595688644
1.62250e-06;-0.007042357651190229
1.62275e-06;-0.007033931842811601
1.62300e-06;-0.007025506034432965
1.62325e-06;-0.007017080226054337
1.62350e-06;-0.007018597411550775
1.62375e-06;-0.007021049450843657
1.62400e-06;-0.007023501490136538
1.62425e-06;-0.00702595352942942
1.62450e-06;-0.007028405568722301
1.62475e-06;-0.007030857608015183
1.62500e-06;-0.007033309647308064
1.62525e-06;-0.007043194593400273
1.62550e-06;-0.007053778391490899
1.62575e-06;-0.007064362189581515
1.62600e-06;-0.00707494598767214
1.62625e-06;-0.007085529785762756
1.62650e-06;-0.007096113583853373
1.62675e-06;-0.007106697381943998
1.62700e-06;-0.00711878405349598
1.62725e-06;-0.007132997464012572
1.62750e-06;-0.007147210874529153
1.62775e-06;-0.007161424285045734
1.62800e-06;-0.007175637695562327
1.62825e-06;-0.0071898511060789075
1.62850e-06;-0.0072040645165955
1.62875e-06;-0.007218277927112081
1.62900e-06;-0.007231415050160001
1.62925e-06;-0.007244450979197465
1.62950e-06;-0.007257486908234929
1.62975e-06;-0.007270522837272403
1.63000e-06;-0.00728220655981849
1.63025e-06;-0.007291976754507932
1.63050e-06;-0.007301746949197365
1.63075e-06;-0.007311517143886799
1.63100e-06;-0.007321287338576241
1.63125e-06;-0.007329059423776667
1.63150e-06;-0.007336643644007583
1.63175e-06;-0.007344227864238492
1.63200e-06;-0.007352957688564599
1.63225e-06;-0.007360841583613886
1.63250e-06;-0.024463082635822413
1.63275e-06;-0.034143133710845784
1.63300e-06;-0.026610161965229556
1.63325e-06;-0.021215001256218072
1.63350e-06;-0.011963824089299533
1.63375e-06;0.0041233350755144615
1.63400e-06;0.0009432428358395559
1.63425e-06;-0.0010431825387416474
1.63450e-06;-0.007720411271480216
1.63475e-06;-0.015620443871144871
1.63500e-06;-0.016482657228308082
1.63525e-06;-0.013176674429279344
1.63550e-06;-0.007787967653308683
1.63575e-06;-0.0019262856916017956
1.63600e-06;-0.0006748590790334066
1.63625e-06;-0.002402160594446579
1.63650e-06;-0.006727034687666426
1.63675e-06;-0.011783150726212471
1.63700e-06;-0.012405719016487654
1.63725e-06;-0.010399401230071124
1.63750e-06;-0.007075606959072308
1.63775e-06;-0.003446263941343477
1.63800e-06;-0.0026979021907900212
1.63825e-06;-0.003810123510891512
1.63850e-06;-0.00654530713885967
1.63875e-06;-0.0097352157982723
1.63900e-06;-0.010145400224648443
1.63925e-06;-0.00890696961461608
1.63950e-06;-0.0068418351889066005
1.63975e-06;-0.004584150705830327
1.64000e-06;-0.004130044129971795
1.64025e-06;-0.004840318109765785
1.64050e-06;-0.00656607941417904
1.64075e-06;-0.008575307459659415
1.64100e-06;-0.00884155255990593
1.64125e-06;-0.008073116799615927
1.64150e-06;-0.006784900471603781
1.64175e-06;-0.005374286062026423
1.64200e-06;-0.005091714656247272
1.64225e-06;-0.005536818966406003
1.64250e-06;-0.006616377727971214
1.64275e-06;-0.007871922899572118
1.64300e-06;-0.008034236265578061
1.64325e-06;-0.007547178828591409
1.64350e-06;-0.006733431333166401
1.64375e-06;-0.005842033251284552
1.64400e-06;-0.0056563309450942375
1.64425e-06;-0.00592558301971324
1.64450e-06;-0.006591457434241625
1.64475e-06;-0.007366847575140338
1.64500e-06;-0.007456841630260803
1.64525e-06;-0.007139624186693115
1.64550e-06;-0.006617449796452374
1.64575e-06;-0.0060464258136488465
1.64600e-06;-0.005917322123279262
1.64625e-06;-0.006073139876374319
1.64650e-06;-0.006477413723471396
1.64675e-06;-0.006950385264211722
