Time(s);Current(A)
8.55000e-06;-0.012815289245170941
8.55025e-06;-0.012736638068194603
8.55050e-06;-0.012678271461561691
8.55075e-06;-0.012619904854928778
8.55100e-06;-0.01256153824829626
8.55125e-06;-0.01250317164166335
8.55150e-06;-0.012444805035030437
8.55175e-06;-0.01238643842839792
8.55200e-06;-0.012328071821765008
8.55225e-06;-0.012269705215132095
8.55250e-06;-0.01222127687464137
8.55275e-06;-0.012199060795505633
8.55300e-06;-0.012176844716369898
8.55325e-06;-0.012154628637234313
8.55350e-06;-0.012132412558098576
8.55375e-06;-0.012110196478962842
8.55400e-06;-0.012087980399827256
8.55425e-06;-0.01206576432069152
8.55450e-06;-0.012043548241555783
8.55475e-06;-0.012028099413439556
8.55500e-06;-0.012030499267363298
8.55525e-06;-0.012032899121287043
8.55550e-06;-0.012035298975210785
8.55575e-06;-0.012037698829134512
8.55600e-06;-0.012040098683058257
8.55625e-06;-0.012042498536982
8.55650e-06;-0.012044898390905726
8.55675e-06;-0.01204729824482947
8.55700e-06;-0.01205977201843787
8.55725e-06;-0.012075171930262184
8.55750e-06;-0.012090571842086603
8.55775e-06;-0.012105971753911022
8.55800e-06;-0.012121371665735337
8.55825e-06;-0.012136771577559756
8.55850e-06;-0.012152171489384177
8.55875e-06;-0.01216757140120849
8.55900e-06;-0.01218399104266626
8.55925e-06;-0.012203100229693077
8.55950e-06;-0.012222209416719766
8.55975e-06;-0.012241143050384594
8.56000e-06;-0.012259613660566084
8.56025e-06;-0.012278084270747449
8.56050e-06;-0.012296305077968056
8.56075e-06;-0.012313715456162591
8.56100e-06;-0.012330741168940706
8.56125e-06;-0.012348410193813802
8.56150e-06;-0.012368898554692177
8.56175e-06;-0.012394020821062099
8.56200e-06;-0.012424130534457916
8.56225e-06;-0.012458899101233902
8.56250e-06;-0.012497995645842686
8.56275e-06;-0.01254108912951445
8.56300e-06;-0.01258796405481995
8.56325e-06;-0.012638971097693796
8.56350e-06;-0.012695182389591041
8.56375e-06;-0.012757443242434137
8.56400e-06;-0.012825682437626962
8.56425e-06;-0.01289940239288105
8.56450e-06;-0.012978104338553797
8.56475e-06;-0.013061822367484483
8.56500e-06;-0.013149936193252118
8.56525e-06;-0.013241012791376785
8.56550e-06;-0.013339903726758038
8.56575e-06;-0.013438794662138622
8.56600e-06;-0.013540420201712311
8.56625e-06;-0.013649258283072174
8.56650e-06;-0.013759535782517204
8.56675e-06;-0.013873609759391555
8.56700e-06;-0.013988600718812092
8.56725e-06;-0.014106010227486634
8.56750e-06;-0.014224177338103643
8.56775e-06;-0.014344342630277267
8.56800e-06;-0.01446471185281389
8.56825e-06;-0.014585618943418196
8.56850e-06;-0.014705992973109178
8.56875e-06;-0.014824961050112329
8.56900e-06;-0.014942748558494156
8.56925e-06;-0.01505742230710656
8.56950e-06;-0.015170964133385005
8.56975e-06;-0.015280581887552025
8.57000e-06;-0.015386590059905534
8.57025e-06;-0.015488277539254238
8.57050e-06;-0.015584932119863025
8.57075e-06;-0.015675843295416585
8.57100e-06;-0.015760311965883064
8.57125e-06;-0.015836655780993168
8.57150e-06;-0.01590482859345502
8.57175e-06;-0.01596870517050601
8.57200e-06;-0.016021250390165814
8.57225e-06;-0.016069354203647773
8.57250e-06;-0.016105743770605724
8.57275e-06;-0.016137550345081665
8.57300e-06;-0.016157269237954065
8.57325e-06;-0.016172365965280325
8.57350e-06;-0.016175271691713115
8.57375e-06;-0.016173747277424447
8.57400e-06;-0.01616053832934863
8.57425e-06;-0.0161421627186684
8.57450e-06;-0.016110159991477673
8.57475e-06;-0.01607815726428695
8.57500e-06;-0.01604051276240357
8.57525e-06;-0.015987988031840407
8.57550e-06;-0.015935463301277243
8.57575e-06;-0.015879642400590945
8.57600e-06;-0.015813687893050363
8.57625e-06;-0.015742622107701318
8.57650e-06;-0.015666904605830003
8.57675e-06;-0.015586994110208289
8.57700e-06;-0.01550335299848643
8.57725e-06;-0.015416461759475747
8.57750e-06;-0.015326849262742552
8.57775e-06;-0.015235095696630705
8.57800e-06;-0.015141801600978196
8.57825e-06;-0.015047569285456428
8.57850e-06;-0.014952999872383034
8.57875e-06;-0.0148586944136622
8.57900e-06;-0.01476525759367667
8.57925e-06;-0.014673302965159772
8.57950e-06;-0.014583475675398869
8.57975e-06;-0.014496452584664131
8.58000e-06;-0.014412924478273442
8.58025e-06;-0.014333581210222004
8.58050e-06;-0.014259112471280167
8.58075e-06;-0.014190209558831941
8.58100e-06;-0.014127509910500073
8.58125e-06;-0.014071362212515134
8.58150e-06;-0.014021659711797248
8.58175e-06;-0.01397818112463932
8.58200e-06;-0.013940971624848942
8.58225e-06;-0.013910233146201037
8.58250e-06;-0.013886169392306578
8.58275e-06;-0.01386898287942074
8.58300e-06;-0.013858842513048983
8.58325e-06;-0.01385573994030729
8.58350e-06;-0.013859377874175648
8.58375e-06;-0.013869387821239459
8.58400e-06;-0.013885569163008439
8.58425e-06;-0.013907819034742929
8.58450e-06;-0.01393683141712255
8.58475e-06;-0.013972215155699916
8.58500e-06;-0.01401164835035474
8.58525e-06;-0.014061762019818305
8.58550e-06;-0.014111875689281872
8.58575e-06;-0.0141619893587451
8.58600e-06;-0.014223638178890352
8.58625e-06;-0.014288637576202246
8.58650e-06;-0.014353636973513696
8.58675e-06;-0.014421144068730345
8.58700e-06;-0.014495265238476267
8.58725e-06;-0.014570681167605714
8.58750e-06;-0.014649512035611467
8.58775e-06;-0.01472910280985645
8.58800e-06;-0.014810697843263108
8.58825e-06;-0.014892591411264295
8.58850e-06;-0.014975272366793508
8.58875e-06;-0.015057794069734298
8.58900e-06;-0.0151398957426221
8.58925e-06;-0.015221305230025515
8.58950e-06;-0.015300889072332844
8.58975e-06;-0.01537919402930787
8.59000e-06;-0.015454125915354994
8.59025e-06;-0.015523276189966831
8.59050e-06;-0.015577177415294912
8.59075e-06;-0.015631078640623356
8.59100e-06;-0.0156849798659518
8.59125e-06;-0.015738881091279883
8.59150e-06;-0.015792782316608328
8.59175e-06;-0.015846683541936774
8.59200e-06;-0.015900584767264855
8.59225e-06;-0.0159544859925933
8.59250e-06;-0.016008387217921746
8.59275e-06;-0.016062288443249827
8.59300e-06;-0.016116189668578272
8.59325e-06;-0.016170090893906718
8.59350e-06;-0.016209700722839938
8.59375e-06;-0.016245159377005207
8.59400e-06;-0.016280618031170473
8.59425e-06;-0.016316076685335502
8.59450e-06;-0.016351535339500768
8.59475e-06;-0.016386993993666037
8.59500e-06;-0.016422452647831064
8.59525e-06;-0.016457911301996333
8.59550e-06;-0.016493369956161602
8.59575e-06;-0.01652882861032663
8.59600e-06;-0.016564287264491898
8.59625e-06;-0.016599745918657163
8.59650e-06;-0.016632467341976154
8.59675e-06;-0.01665796929568017
8.59700e-06;-0.01668347124938419
8.59725e-06;-0.01670897320308803
8.59750e-06;-0.016734475156792047
8.59775e-06;-0.016759977110496063
8.59800e-06;-0.01678547906420008
8.59825e-06;-0.016810981017903924
8.59850e-06;-0.01683648297160794
8.59875e-06;-0.016861984925311956
8.59900e-06;-0.0168874868790158
8.59925e-06;-0.016912988832719817
8.59950e-06;-0.016938490786423833
8.59975e-06;-0.01696399274012768
8.60000e-06;-0.016989494693831694
8.60025e-06;-0.01701499664753571
8.60050e-06;-0.017040498601239556
8.60075e-06;-0.01706600055494357
8.60100e-06;-0.01708156688016676
8.60125e-06;-0.017094247236158308
8.60150e-06;-0.01710692759214994
8.60175e-06;-0.017119607948141578
8.60200e-06;-0.017132288304133127
8.60225e-06;-0.017144968660124764
8.60250e-06;-0.0171576490161164
8.60275e-06;-0.01717032937210795
8.60300e-06;-0.017183009728099587
8.60325e-06;-0.017195690084091223
8.60350e-06;-0.017208370440082773
8.60375e-06;-0.01722105079607441
8.60400e-06;-0.017233731152066046
8.60425e-06;-0.017246411508057596
8.60450e-06;-0.017259091864049232
8.60475e-06;-0.01727177222004087
8.60500e-06;-0.01728445257603242
8.60525e-06;-0.017294553044978823
8.60550e-06;-0.017297849039919082
8.60575e-06;-0.017301145034859317
8.60600e-06;-0.017304441029799576
8.60625e-06;-0.017307737024739832
8.60650e-06;-0.01731103301968009
8.60675e-06;-0.017314329014620326
8.60700e-06;-0.017317625009560585
8.60725e-06;-0.017320921004500844
8.60750e-06;-0.01732421699944108
8.60775e-06;-0.017327512994381337
8.60800e-06;-0.01732953894466675
8.60825e-06;-0.01733119598927045
8.60850e-06;-0.017332853033874163
8.60875e-06;-0.017334510078477874
8.60900e-06;-0.017336167123081572
8.60925e-06;-0.017337824167685284
8.60950e-06;-0.017339481212288996
8.60975e-06;-0.017341138256892694
8.61000e-06;-0.017342795301496405
8.61025e-06;-0.017344452346100117
8.61050e-06;-0.017346578809103275
8.61075e-06;-0.017349943367124507
8.61100e-06;-0.017353307925145743
8.61125e-06;-0.01735564630250503
8.61150e-06;-0.0173552781196472
8.61175e-06;-0.017354909936789367
8.61200e-06;-0.017352292076432508
8.61225e-06;-0.017343740672552368
8.61250e-06;-0.01733518926867223
8.61275e-06;-0.017323560207284365
8.61300e-06;-0.017303813798063235
8.61325e-06;-0.017284067388842108
8.61350e-06;-0.017264320979621113
8.61375e-06;-0.017244574570399983
8.61400e-06;-0.017224828161178853
8.61425e-06;-0.017192375206936297
8.61450e-06;-0.017156231424472354
8.61475e-06;-0.017120087642008414
8.61500e-06;-0.017083943859544475
8.61525e-06;-0.017047800077080778
8.61550e-06;-0.017008107033450726
8.61575e-06;-0.016959052783329612
8.61600e-06;-0.016909998533208827
8.61625e-06;-0.01686094428308771
8.61650e-06;-0.016811890032966594
8.61675e-06;-0.016760955885417872
8.61700e-06;-0.0167050634924249
8.61725e-06;-0.016649171099431925
8.61750e-06;-0.01659327870643933
8.61775e-06;-0.016537386313446357
8.61800e-06;-0.01648105072715859
8.61825e-06;-0.01642354621478935
8.61850e-06;-0.016366370704952237
8.61875e-06;-0.016310062942090985
8.61900e-06;-0.01625447335207346
8.61925e-06;-0.016200777949034004
8.61950e-06;-0.0161477658983364
8.61975e-06;-0.01609712049219963
8.62000e-06;-0.01604864600830881
8.62025e-06;-0.016003230504875173
8.62050e-06;-0.01596113472450284
8.62075e-06;-0.015919442413097402
8.62100e-06;-0.01587881425452227
8.62125e-06;-0.01584035153905329
8.62150e-06;-0.015825200389773142
8.62175e-06;-0.01580773819082776
8.62200e-06;-0.015790275991882503
8.62225e-06;-0.015772813792937126
8.62250e-06;-0.01575535159399175
8.62275e-06;-0.01573788939504649
8.62300e-06;-0.015722952106357397
8.62325e-06;-0.015725653986708308
8.62350e-06;-0.015728355867059216
8.62375e-06;-0.015731057747410106
8.62400e-06;-0.015733759627761013
8.62425e-06;-0.01573646150811192
8.62450e-06;-0.015742076641188877
8.62475e-06;-0.015762312991211724
8.62500e-06;-0.015782549341234575
8.62525e-06;-0.01580278569125729
8.62550e-06;-0.01582302204128014
8.62575e-06;-0.015843258391302992
8.62600e-06;-0.015863494741325705
8.62625e-06;-0.015892206454068362
8.62650e-06;-0.01592516581670361
8.62675e-06;-0.01595812517933863
8.62700e-06;-0.015991084541973878
8.62725e-06;-0.016024043904609122
8.62750e-06;-0.016057003267244144
8.62775e-06;-0.016090679175101843
8.62800e-06;-0.016127951325419672
8.62825e-06;-0.016165223475737248
8.62850e-06;-0.016202438374487763
8.62875e-06;-0.016239365935452985
8.62900e-06;-0.016276293496417953
8.62925e-06;-0.01631285402841653
8.62950e-06;-0.016347572492234765
8.62975e-06;-0.016382290956052762
8.63000e-06;-0.016416392701861727
8.63025e-06;-0.0164473992243384
8.63050e-06;-0.016477669832074052
8.63075e-06;-0.016504246984385854
8.63100e-06;-0.016529594465872335
8.63125e-06;-0.01654877039768354
8.63150e-06;-0.016567946329494872
8.63175e-06;-0.016585188086735196
8.63200e-06;-0.016592722486363867
8.63225e-06;-0.01660025688599249
8.63250e-06;-0.016605804192033797
8.63275e-06;-0.016601378547159214
8.63300e-06;-0.016596952902284662
8.63325e-06;-0.016589778006201327
8.63350e-06;-0.01656880499435002
8.63375e-06;-0.01654783198249885
8.63400e-06;-0.01652685897064754
8.63425e-06;-0.016505885958796228
8.63450e-06;-0.01648181381129334
8.63475e-06;-0.016442187525859516
8.63500e-06;-0.016402561240425693
8.63525e-06;-0.01636293495499214
8.63550e-06;-0.016323308669558317
8.63575e-06;-0.01628136604416661
8.63600e-06;-0.016227798025359667
8.63625e-06;-0.01617423000655236
8.63650e-06;-0.016120661987745057
8.63675e-06;-0.016067093968938115
8.63700e-06;-0.016008287056883504
8.63725e-06;-0.015946854536335004
8.63750e-06;-0.015885422015786917
8.63775e-06;-0.015823989495238413
8.63800e-06;-0.015762173647078992
8.63825e-06;-0.0156984196945479
8.63850e-06;-0.01563463065834628
8.63875e-06;-0.015571123150205783
8.63900e-06;-0.015508271880026098
8.63925e-06;-0.015446428300910305
8.63950e-06;-0.015385894146779103
8.63975e-06;-0.015326998936496427
8.64000e-06;-0.015270106160308142
8.64025e-06;-0.015215634455008896
8.64050e-06;-0.015164276911666255
8.64075e-06;-0.01511699645852107
8.64100e-06;-0.015070878676393317
8.64125e-06;-0.015030596181073474
8.64150e-06;-0.014991216635810305
8.64175e-06;-0.01495636887337463
8.64200e-06;-0.014922667870147193
8.64225e-06;-0.014894722294532613
8.64250e-06;-0.014866776718917842
8.64275e-06;-0.014840379720830979
8.64300e-06;-0.014821754821543087
8.64325e-06;-0.014803129922255067
8.64350e-06;-0.014786390997906906
8.64375e-06;-0.014779117523819621
8.64400e-06;-0.014771844049732287
8.64425e-06;-0.014764570575644953
8.64450e-06;-0.014757297101557668
8.64475e-06;-0.014750023627470334
8.64500e-06;-0.014744859177334294
8.64525e-06;-0.01475027962993896
8.64550e-06;-0.014755700082543665
8.64575e-06;-0.014761120535148367
8.64600e-06;-0.014766540987753034
8.64625e-06;-0.014771961440357738
8.64650e-06;-0.014778794778721285
8.64675e-06;-0.01479271919745486
8.64700e-06;-0.01480664361618853
8.64725e-06;-0.014820568034922202
8.64750e-06;-0.014834492453655777
8.64775e-06;-0.014848416872389447
8.64800e-06;-0.014862341291123116
8.64825e-06;-0.014878168605265474
8.64850e-06;-0.014894949605256084
8.64875e-06;-0.014911730605246695
8.64900e-06;-0.01492851160523719
8.64925e-06;-0.0149452926052278
8.64950e-06;-0.014962073605218411
8.64975e-06;-0.014978523815730897
8.65000e-06;-0.014993313839097407
8.65025e-06;-0.015008103862464017
8.65050e-06;-0.015021827568943075
8.65075e-06;-0.015030199576812208
8.65100e-06;-0.015038571584681401
8.65125e-06;-0.015046943592550592
8.65150e-06;-0.015055315600419726
8.65175e-06;-0.015063687608288917
8.65200e-06;-0.015072059616158108
8.65225e-06;-0.015080431624027243
8.65250e-06;-0.015087063764504097
8.65275e-06;-0.015084963748513657
8.65300e-06;-0.015082863732523231
8.65325e-06;-0.015080763716532792
8.65350e-06;-0.015078663700542352
8.65375e-06;-0.015076563684551928
8.65400e-06;-0.015074463668561487
8.65425e-06;-0.015072363652571048
8.65450e-06;-0.015068813229465114
8.65475e-06;-0.01505798341142924
8.65500e-06;-0.015047153593393365
8.65525e-06;-0.015036323775357562
8.65550e-06;-0.015025493957321688
8.65575e-06;-0.015014664139285813
8.65600e-06;-0.015003834321250012
8.65625e-06;-0.01499214155188827
8.65650e-06;-0.014976117747853766
8.65675e-06;-0.014960093943819367
8.65700e-06;-0.014944070139784863
8.65725e-06;-0.014928046335750357
8.65750e-06;-0.01491202253171596
8.65775e-06;-0.014895998727681454
8.65800e-06;-0.014879724063047394
8.65825e-06;-0.014862190363375967
8.65850e-06;-0.014844656663704658
8.65875e-06;-0.014827159068625188
8.65900e-06;-0.014809842677554504
8.65925e-06;-0.014792526286483938
8.65950e-06;-0.014775395215125962
8.65975e-06;-0.01475919423805881
8.66000e-06;-0.014742993260991768
8.66025e-06;-0.01472705852950128
8.66050e-06;-0.014712460048144183
8.66075e-06;-0.014698162911185017
8.66100e-06;-0.014685378180541983
8.66125e-06;-0.014673130531493238
8.66150e-06;-0.014663578421506758
8.66175e-06;-0.014654737778293602
8.66200e-06;-0.014649467889505122
8.66225e-06;-0.014645060513629397
8.66250e-06;-0.014644981972092273
8.66275e-06;-0.014644903430555146
8.66300e-06;-0.014646470433163175
8.66325e-06;-0.014656296196766238
8.66350e-06;-0.0146661219603693
8.66375e-06;-0.014675947723972295
8.66400e-06;-0.014685773487575358
8.66425e-06;-0.014695599251178422
8.66450e-06;-0.014707472996181772
8.66475e-06;-0.014729625279721171
8.66500e-06;-0.01475177756326057
8.66525e-06;-0.014773929846799821
8.66550e-06;-0.01479608213033922
8.66575e-06;-0.01481823441387862
8.66600e-06;-0.014841880762961973
8.66625e-06;-0.014873025622661077
8.66650e-06;-0.01490417048236018
8.66675e-06;-0.014935315342059281
8.66700e-06;-0.014966460201758174
8.66725e-06;-0.014997605061457276
8.66750e-06;-0.015028749921156378
8.66775e-06;-0.015061780496087472
8.66800e-06;-0.015095756146572216
8.66825e-06;-0.015129731797056963
8.66850e-06;-0.015163707447541478
8.66875e-06;-0.015197683098026223
8.66900e-06;-0.015231658748510969
8.66925e-06;-0.0152651821512898
8.66950e-06;-0.015296435784689604
8.66975e-06;-0.015327689418089409
8.67000e-06;-0.015358226014293057
8.67025e-06;-0.015385163898882094
8.67050e-06;-0.015412101783471131
8.67075e-06;-0.015437980410910475
8.67100e-06;-0.015458542771594551
8.67125e-06;-0.015479105132278627
8.67150e-06;-0.015497623641486104
8.67175e-06;-0.015505884339676878
8.67200e-06;-0.015514145037867652
8.67225e-06;-0.015522405736058368
8.67250e-06;-0.015530666434249142
8.67275e-06;-0.015538927132439914
8.67300e-06;-0.015547187830630632
8.67325e-06;-0.015552545520685931
8.67350e-06;-0.015543333409962154
8.67375e-06;-0.01553412129923844
8.67400e-06;-0.015524909188514662
8.67425e-06;-0.015515697077790885
8.67450e-06;-0.015506484967067172
8.67475e-06;-0.015497272856343395
8.67500e-06;-0.01548580747277344
8.67525e-06;-0.015463033220974651
8.67550e-06;-0.015440258969176017
8.67575e-06;-0.015417484717377227
8.67600e-06;-0.01539471046557844
8.67625e-06;-0.015371936213779806
8.67650e-06;-0.01534786740604825
8.67675e-06;-0.01531730139914937
8.67700e-06;-0.015286735392250696
8.67725e-06;-0.015256169385351816
8.67750e-06;-0.015225603378452936
8.67775e-06;-0.015195037371554265
8.67800e-06;-0.015164086231815463
8.67825e-06;-0.015131202163028365
8.67850e-06;-0.01509831809424149
8.67875e-06;-0.015065485010295995
8.67900e-06;-0.015032907812297233
8.67925e-06;-0.015000517146093986
8.67950e-06;-0.014969062657458922
8.67975e-06;-0.014937931872279483
8.68000e-06;-0.014908425710470716
8.68025e-06;-0.014879245108924945
8.68050e-06;-0.014851959950214488
8.68075e-06;-0.014826281375521997
8.68100e-06;-0.014802473203185316
8.68125e-06;-0.01478125327279583
8.68150e-06;-0.014763892933069001
8.68175e-06;-0.014751370989321094
8.68200e-06;-0.014744282354033925
8.68225e-06;-0.014743310518927317
8.68250e-06;-0.01474389584908142
8.68275e-06;-0.01475229637870448
8.68300e-06;-0.014762754560599256
8.68325e-06;-0.01478353981781957
8.68350e-06;-0.014804325075039886
8.68375e-06;-0.014828618120308957
8.68400e-06;-0.01487051627403096
8.68425e-06;-0.014912414427753245
8.68450e-06;-0.014954312581475532
8.68475e-06;-0.014996210735197534
8.68500e-06;-0.015041744053968601
8.68525e-06;-0.01510552176893633
8.68550e-06;-0.015169299483903626
8.68575e-06;-0.015233077198871353
8.68600e-06;-0.015296854913839081
8.68625e-06;-0.015363354636516018
8.68650e-06;-0.015443515743599178
8.68675e-06;-0.01552367685068234
8.68700e-06;-0.01560383795776496
8.68725e-06;-0.01568399906484812
8.68750e-06;-0.01576416017193128
8.68775e-06;-0.015845113001136658
8.68800e-06;-0.01593003937539327
8.68825e-06;-0.01601496574964988
8.68850e-06;-0.016099892123905914
8.68875e-06;-0.016184818498162525
8.68900e-06;-0.016269744872419136
8.68925e-06;-0.01635357227447529
8.68950e-06;-0.016431884085366125
8.68975e-06;-0.016510195896256956
8.69000e-06;-0.01658716575104385
8.69025e-06;-0.0166574005116859
8.69050e-06;-0.01672611516585245
8.69075e-06;-0.016787200613521062
8.69100e-06;-0.01684634244785153
8.69125e-06;-0.016895729552660815
8.69150e-06;-0.01694216830491642
8.69175e-06;-0.01697380967894812
8.69200e-06;-0.017005451052979823
8.69225e-06;-0.017033396348359736
8.69250e-06;-0.017042791530492436
8.69275e-06;-0.0170521867126252
8.69300e-06;-0.017057766258328784
8.69325e-06;-0.017044195646653267
8.69350e-06;-0.017030625034977657
8.69375e-06;-0.017012693607535014
8.69400e-06;-0.016972875842180105
8.69425e-06;-0.01693305807682493
8.69450e-06;-0.01689324031146975
8.69475e-06;-0.01684905038319055
8.69500e-06;-0.016782917167167104
8.69525e-06;-0.01671678395114366
8.69550e-06;-0.016650650735120662
8.69575e-06;-0.016580990977293573
8.69600e-06;-0.016493631988472066
8.69625e-06;-0.016406272999651153
8.69650e-06;-0.016318914010829647
8.69675e-06;-0.016229660149868888
8.69700e-06;-0.01613089618479931
8.69725e-06;-0.016031452782887392
8.69750e-06;-0.015928251847905923
8.69775e-06;-0.01582305478801315
