Time(s);Current(A)
0.00000e+00;2.1222044013671043e-20
2.50000e-10;-1.6496060166507303e-14
5.00000e-10;1.862645116544645e-14
7.50000e-10;-4.122295117665784e-07
1.00000e-09;-2.6390736894656873e-06
1.25000e-09;-7.443608391878839e-06
1.50000e-09;-1.3339056857273862e-05
1.75000e-09;-1.859344429401829e-05
2.00000e-09;-2.269931459501076e-05
2.25000e-09;-2.5586311634307873e-05
2.50000e-09;-2.7213228155573327e-05
2.75000e-09;-2.7958333929277722e-05
3.00000e-09;-2.9004088442070625e-05
3.25000e-09;-3.1081406186731835e-05
3.50000e-09;-3.3352404091734075e-05
3.75000e-09;-3.4764335440599764e-05
4.00000e-09;-3.502679853595015e-05
4.25000e-09;-3.412320783240371e-05
4.50000e-09;-3.205523301150213e-05
4.75000e-09;-2.9087295511922303e-05
5.00000e-09;-2.598751447366765e-05
5.25000e-09;-2.3241103705296083e-05
5.50000e-09;-2.035058838884479e-05
5.75000e-09;-1.6683957617812368e-05
6.00000e-09;-1.208676579232555e-05
6.25000e-09;-6.5760932845838406e-06
6.50000e-09;-1.804584148555231e-07
6.75000e-09;6.907044760838745e-06
7.00000e-09;1.4177837612921805e-05
7.25000e-09;2.130058762668045e-05
7.50000e-09;2.855952031644515e-05
7.75000e-09;3.632310501657814e-05
8.00000e-09;4.466064040919423e-05
8.25000e-09;5.353397808332586e-05
8.50000e-09;6.2897808527255e-05
8.75000e-09;7.255798833233582e-05
9.00000e-09;8.228516877301315e-05
9.25000e-09;9.1793694224114e-05
9.50000e-09;0.00010120365237155782
9.75000e-09;0.00011066058879022308
1.00000e-08;0.00012031874149341884
1.02500e-08;0.00012997689419661467
1.05000e-08;0.00013951866949383005
1.07500e-08;0.00014900798311552483
1.10000e-08;0.00015849729673721966
1.12500e-08;0.00016723708116682466
1.15000e-08;0.0001756389859458453
1.17500e-08;0.00018340127404740516
1.20000e-08;0.00019087522987082416
1.22500e-08;0.0001983491856942431
1.25000e-08;0.0002050192722657526
1.27500e-08;0.00021132698327562007
1.30000e-08;0.00021763469428548755
1.32500e-08;0.00022394240529535503
1.35000e-08;0.0002302501163052225
1.37500e-08;0.00023660019147796524
1.40000e-08;0.00024296936395699128
1.42500e-08;0.00024933853643601723
1.45000e-08;0.00025570770891504324
1.47500e-08;0.0002620768813940693
1.50000e-08;0.00026913845076863204
1.52500e-08;0.0002765121451726114
1.55000e-08;0.00028388583957659076
1.57500e-08;0.0002912595339805702
1.60000e-08;0.0002986332283845495
1.62500e-08;0.00030600692278852886
1.65000e-08;0.0003133806171925083
1.67500e-08;0.0003207543115964876
1.70000e-08;0.00032812800600046696
1.72500e-08;0.0003357061791256751
1.75000e-08;0.00034416017095347516
1.77500e-08;0.00035261416278127523
1.80000e-08;0.0003610681546090754
1.82500e-08;0.0003695221464368755
1.85000e-08;0.0003779761382646756
1.87500e-08;0.0003864301300924758
1.90000e-08;0.00039488412192027587
1.92500e-08;0.000403338113748076
1.95000e-08;0.0004117921055758762
1.97500e-08;0.0004200185281806193
2.00000e-08;0.00042814236504169594
2.02500e-08;0.0004362662019027727
2.05000e-08;0.0004443900387638494
2.07500e-08;0.00045251387562492606
2.10000e-08;0.00046036155665891347
2.12500e-08;0.00046702641320758853
2.15000e-08;0.00047369126975626365
2.17500e-08;0.0004803561263049388
2.20000e-08;0.0004870209828536139
2.22500e-08;0.000493685839402289
2.25000e-08;0.0004997212036904396
2.27500e-08;0.0005054727996780676
2.30000e-08;0.0005112243956656954
2.32500e-08;0.0005189783827530171
2.35000e-08;0.000527635026084068
2.37500e-08;0.0005362916694151189
2.40000e-08;0.0005468749546844766
2.42500e-08;0.0005583267492951458
2.45000e-08;0.0005697785439058151
2.47500e-08;0.0005834593619058786
2.50000e-08;0.0005981449995339174
2.52500e-08;0.0006128306371619562
2.55000e-08;0.0006303817970914462
2.57500e-08;0.0006492247034721396
2.60000e-08;0.0006680676098528327
2.62500e-08;0.0006890454416180616
2.65000e-08;0.0007109856746487288
2.67500e-08;0.0007329259076793957
2.70000e-08;0.0007570488239080365
2.72500e-08;0.0007821556701077182
2.75000e-08;0.0008072625163073995
2.77500e-08;0.0008345397418158464
2.80000e-08;0.0008627953508351957
2.82500e-08;0.0008910509598545447
2.85000e-08;0.0009193065688738937
2.87500e-08;0.000947562177893243
2.90000e-08;0.000975817786912592
2.92500e-08;0.001004677035435536
2.95000e-08;0.0010338083981158823
2.97500e-08;0.001062939760796228
3.00000e-08;0.0010920711234765742
3.02500e-08;0.00112120248615692
3.05000e-08;0.0011503338488372658
3.07500e-08;0.0011767963240890188
3.10000e-08;0.0012020556937628471
3.12500e-08;0.0012273150634366761
3.15000e-08;0.0012525744331105043
3.17500e-08;0.0012778338027843326
3.20000e-08;0.001303093172458161
3.22500e-08;0.001321382148167198
3.25000e-08;0.0013365289456901005
3.27500e-08;0.001351675743213003
3.30000e-08;0.0013668225407359059
3.32500e-08;0.0013819693382588084
3.35000e-08;0.0013971161357817109
3.37500e-08;0.0014042963790228953
3.40000e-08;0.0014078853857846052
3.42500e-08;0.0014114743925463151
3.45000e-08;0.0014094343967427946
3.47500e-08;0.0014048569074834522
3.50000e-08;0.00140027941822411
3.52500e-08;0.0013899027850098541
3.55000e-08;0.0013769119604420791
3.57500e-08;0.0013639211358743041
3.60000e-08;0.0013457129808256583
3.62500e-08;0.0013251529096429107
3.65000e-08;0.0013045928384601629
3.67500e-08;0.001279392836919024
3.70000e-08;0.0012521012049720628
3.72500e-08;0.0012248095730251016
3.75000e-08;0.0011936460943773716
3.77500e-08;0.0011607372291267245
3.80000e-08;0.0011278283638760775
3.82500e-08;0.0010915682482003767
3.85000e-08;0.001053797425090482
3.87500e-08;0.0010160266019805869
3.90000e-08;0.0009782557788706907
3.92500e-08;0.0009404849557607958
3.95000e-08;0.000901391796231061
3.97500e-08;0.0008617025417497156
4.00000e-08;0.0008220132872683702
4.02500e-08;0.0007823240327870248
4.05000e-08;0.0007426347783056783
4.07500e-08;0.0007045351140915706
4.10000e-08;0.0006671520199720417
4.12500e-08;0.0006297689258525127
4.15000e-08;0.0005947136205808611
4.17500e-08;0.000560707657337317
4.20000e-08;0.0005293991947516712
4.22500e-08;0.0004993067362781527
4.25000e-08;0.0004716534369105361
4.27500e-08;0.0004467440186283607
4.30000e-08;0.00042404035910552433
4.32500e-08;0.00040338867562399227
4.35000e-08;0.00038480944792481774
4.37500e-08;0.00036839198309122033
4.40000e-08;0.00035423095390926937
4.42500e-08;0.0003424209458535434
4.45000e-08;0.00033303527299962304
4.47500e-08;0.0003260270982188449
4.50000e-08;0.0003212061955939666
4.52500e-08;0.000318407253982562
4.55000e-08;0.00031757410119702997
4.57500e-08;0.00031869373472651015
4.60000e-08;0.0003217564590466488
4.62500e-08;0.00032675256449562074
4.65000e-08;0.00033365897901837003
4.67500e-08;0.0003429140629881527
4.70000e-08;0.0003529615929286461
4.72500e-08;0.0003649688415400393
4.75000e-08;0.00037785951012593577
4.77500e-08;0.00039246901866044526
4.80000e-08;0.00040785336164753604
4.82500e-08;0.00042505904132986204
4.85000e-08;0.0004430857598892265
4.87500e-08;0.000461112478448591
4.90000e-08;0.00048073934722184437
4.92500e-08;0.0005010875463993778
4.95000e-08;0.0005214357455769112
4.97500e-08;0.0005417839447544451
5.00000e-08;0.0005621321439319784
5.02500e-08;0.0005824580115505987
5.05000e-08;0.0006027738123440677
5.07500e-08;0.0006230896131375366
5.10000e-08;0.0006434054139310056
5.12500e-08;0.0006637212147244751
5.15000e-08;0.0006822212503447128
5.17500e-08;0.0006999027586697532
5.20000e-08;0.0007175842669947935
5.22500e-08;0.0007327694633111793
5.25000e-08;0.0007468293491818446
5.27500e-08;0.0007608892350525104
5.30000e-08;0.0007715285461067072
5.32500e-08;0.0007806258990410876
5.35000e-08;0.000789723251975468
5.37500e-08;0.0007950770663754535
5.40000e-08;0.0007987433341057491
5.42500e-08;0.0008024096018360449
5.45000e-08;0.0008022201249118825
5.47500e-08;0.0008002925200130721
5.50000e-08;0.0007983649151142617
5.52500e-08;0.0007925596592886852
5.55000e-08;0.0007850064003779101
5.57500e-08;0.0007774531414671347
5.60000e-08;0.0007663858115557
5.62500e-08;0.0007537343764561578
5.65000e-08;0.0007410829413566157
5.67500e-08;0.0007253050746354401
5.70000e-08;0.0007081178463643232
5.72500e-08;0.000690930618093206
5.75000e-08;0.0006711618198854961
5.77500e-08;0.0006502292778805631
5.80000e-08;0.0006292967358756302
5.82500e-08;0.0006061799013596767
5.85000e-08;0.000582078411411775
5.87500e-08;0.0005579769214638725
5.90000e-08;0.0005338754315159708
5.92500e-08;0.0005094820867375338
5.95000e-08;0.00048383867585203444
5.97500e-08;0.0004581952649665351
6.00000e-08;0.00043255185408103505
6.02500e-08;0.00040690844319553636
6.05000e-08;0.0003818734239679424
6.07500e-08;0.00035711266111750024
6.10000e-08;0.0003323518982670567
6.12500e-08;0.00030881468364252375
6.15000e-08;0.0002858290313205754
6.17500e-08;0.0002639189127747392
6.20000e-08;0.00024336588200377313
6.22500e-08;0.00022419472254116578
6.25000e-08;0.00020661955525981454
6.27500e-08;0.00019107751729247342
6.30000e-08;0.00017819096453832155
6.32500e-08;0.00016836733206322446
6.35000e-08;0.00016168652467344103
6.37500e-08;0.00015811520963959481
6.40000e-08;0.00015761194113270927
6.42500e-08;0.00016013526625507276
6.45000e-08;0.0001656720869055678
6.47500e-08;0.0001743489768298656
6.50000e-08;0.00018640850001428355
6.52500e-08;0.00020195855379655857
6.55000e-08;0.00022090190212570077
6.57500e-08;0.00024307035405826
6.60000e-08;0.0002682906444611819
6.62500e-08;0.0002963895237405299
6.65000e-08;0.00032721153514624654
6.67500e-08;0.0003606886790013843
6.70000e-08;0.0003968255978943309
6.72500e-08;0.0004355426323560171
6.75000e-08;0.0004773345914460655
6.77500e-08;0.0005201567452192244
6.80000e-08;0.0005654383394547867
6.82500e-08;0.000611828622841941
6.85000e-08;0.0006603761257259226
6.87500e-08;0.0007098960798199649
6.90000e-08;0.0007594160339140073
6.92500e-08;0.0008104133953364613
6.95000e-08;0.0008620767559983915
6.97500e-08;0.000913740116660319
7.00000e-08;0.0009654034773222492
7.02500e-08;0.0010165753966100415
7.05000e-08;0.0010656423851543707
7.07500e-08;0.0011147093736987026
7.10000e-08;0.001163776362243032
7.12500e-08;0.001212843350787364
7.15000e-08;0.0012574477543792779
7.17500e-08;0.0013000404729556693
7.20000e-08;0.001342633191532061
7.22500e-08;0.001379422272559221
7.25000e-08;0.0014135951365691578
7.27500e-08;0.0014477680005790926
7.30000e-08;0.0014763629766591881
7.32500e-08;0.0015024435012080764
7.35000e-08;0.0015285240257569633
7.37500e-08;0.001549120385914676
7.40000e-08;0.0015672445440984087
7.42500e-08;0.0015853687022821424
7.45000e-08;0.001597553639407089
7.47500e-08;0.0016070612399355874
7.50000e-08;0.001616568840464086
7.52500e-08;0.0016210921354742906
7.55000e-08;0.0016233685594824018
7.57500e-08;0.001625644983490513
7.60000e-08;0.0016231412128032627
7.62500e-08;0.0016184825820646069
7.65000e-08;0.0016138239513259513
7.67500e-08;0.0016027466719896648
7.70000e-08;0.0015887759353093792
7.72500e-08;0.001574805198629093
7.75000e-08;0.0015608344619488074
7.77500e-08;0.0015468637252685211
7.80000e-08;0.0015328929885882348
7.82500e-08;0.0015189222519079494
7.85000e-08;0.0014996840826985694
7.87500e-08;0.0014780714118937974
7.90000e-08;0.0014564587410890245
7.92500e-08;0.0014348460702842513
7.95000e-08;0.0014132333994794795
7.97500e-08;0.0013916207286747064
8.00000e-08;0.0013700080578699344
8.02500e-08;0.0013480913199283454
8.05000e-08;0.0013260375118112043
8.07500e-08;0.001303983703694062
8.10000e-08;0.00128192989557692
8.12500e-08;0.001259876087459779
8.15000e-08;0.0012378222793426367
8.17500e-08;0.0012170756167787166
8.20000e-08;0.001201927690922695
8.22500e-08;0.001186779765066674
8.25000e-08;0.0011716318392106524
8.27500e-08;0.0011564839133546307
8.30000e-08;0.0011413359874986098
8.32500e-08;0.0011261880616425881
8.35000e-08;0.0011168772633700105
8.37500e-08;0.001110197779059761
8.40000e-08;0.0011035182947495114
8.42500e-08;0.0011008703669714637
8.45000e-08;0.001100039821260443
8.47500e-08;0.0010992092755494226
8.50000e-08;0.0011024959588861129
8.52500e-08;0.0011076386445329248
8.55000e-08;0.001112781330179737
8.57500e-08;0.001121754270032269
8.60000e-08;0.0011324538470409528
8.62500e-08;0.0011431534240496375
8.65000e-08;0.0011572779758525526
8.67500e-08;0.001172946469237669
8.70000e-08;0.001188614962622785
8.72500e-08;0.0012086404274831597
8.75000e-08;0.0012306299679462071
8.77500e-08;0.0012526195084092535
8.80000e-08;0.0012746090488723006
8.82500e-08;0.001296598589335347
8.85000e-08;0.0013185881297983944
8.87500e-08;0.0013405776702614417
8.90000e-08;0.001365249920923016
8.92500e-08;0.0013911315083176624
8.95000e-08;0.0014170130957123072
8.97500e-08;0.0014428946831069535
9.00000e-08;0.0014687762705015996
9.02500e-08;0.0014946578578962444
9.05000e-08;0.0015205394452908908
9.07500e-08;0.0015422542626243514
9.10000e-08;0.0015620907450948015
9.12500e-08;0.0015819272275652506
9.15000e-08;0.0016017637100357008
9.17500e-08;0.001621600192506151
9.20000e-08;0.0016414366749766
9.22500e-08;0.0016612731574470502
9.25000e-08;0.0016811096399174993
9.27500e-08;0.0017009461223879494
9.30000e-08;0.0017207826048583996
9.32500e-08;0.0017406190873288487
9.35000e-08;0.0017583648186903051
9.37500e-08;0.0017671554914875285
9.40000e-08;0.0017759461642847523
9.42500e-08;0.0017847368370819757
9.45000e-08;0.0017935275098791995
9.47500e-08;0.0018023181826764233
9.50000e-08;0.0018111088554736466
9.52500e-08;0.0018198995282708704
9.55000e-08;0.0018286902010680938
9.57500e-08;0.0018374808738653176
9.60000e-08;0.0018462715466625414
9.62500e-08;0.0018550622194597648
9.65000e-08;0.0018589301223158297
9.67500e-08;0.0018605788937422
9.70000e-08;0.00186222766516857
9.72500e-08;0.0018638764365949399
9.75000e-08;0.00186552520802131
9.77500e-08;0.00186717397944768
9.80000e-08;0.00186882275087405
9.82500e-08;0.00187047152230042
9.85000e-08;0.0018721202937267902
9.87500e-08;0.0018737690651531602
9.90000e-08;0.0018754178365795301
9.92500e-08;0.0018770666080059003
9.95000e-08;0.0018787153794322703
9.97500e-08;0.0018803641508586403
1.00000e-07;0.0018820129222850103
1.00250e-07;0.0018830001091820832
1.00500e-07;0.0018811536119645895
1.00750e-07;0.0018793071147470957
1.01000e-07;0.0018774606175296022
1.01250e-07;0.0018756141203121084
1.01500e-07;0.0018737676230946149
1.01750e-07;0.0018719211258771211
1.02000e-07;0.0018700746286596276
1.02250e-07;0.0018682281314421339
1.02500e-07;0.0018663816342246403
1.02750e-07;0.0018645351370071466
1.03000e-07;0.001862688639789653
1.03250e-07;0.0018608421425721595
1.03500e-07;0.0018589956453546658
1.03750e-07;0.001857149148137172
1.04000e-07;0.0018553026509196785
1.04250e-07;0.0018475915434916711
1.04500e-07;0.001837236733230371
1.04750e-07;0.0018268819229690706
1.05000e-07;0.0018165271127077705
1.05250e-07;0.00180617230244647
1.05500e-07;0.0017958174921851693
1.05750e-07;0.0017854626819238692
1.06000e-07;0.0017751078716625687
1.06250e-07;0.0017647530614012686
1.06500e-07;0.0017543982511399679
1.06750e-07;0.001742588297781646
1.07000e-07;0.0017245457079334066
1.07250e-07;0.0017065031180851663
1.07500e-07;0.001688460528236927
1.07750e-07;0.0016704179383886868
1.08000e-07;0.0016523753485404476
1.08250e-07;0.0016343327586922072
1.08500e-07;0.0016162901688439668
1.08750e-07;0.0015982475789957276
1.09000e-07;0.0015802049891474874
1.09250e-07;0.0015621623992992481
1.09500e-07;0.001544998045014144
1.09750e-07;0.0015282295898192137
1.10000e-07;0.0015114611346242843
1.10250e-07;0.001494692679429354
1.10500e-07;0.0014779242242344247
1.10750e-07;0.0014611557690394944
1.11000e-07;0.0014443873138445652
1.11250e-07;0.001427618858649635
1.11500e-07;0.0014108504034547047
1.11750e-07;0.0013940819482597753
1.12000e-07;0.001377313493064845
1.12250e-07;0.0013605450378699159
1.12500e-07;0.0013437765826749856
1.12750e-07;0.0013270081274800562
1.13000e-07;0.001310239672285126
1.13250e-07;0.0013003908601867261
1.13500e-07;0.001293661348332177
1.13750e-07;0.0012869318364776279
1.14000e-07;0.001280202324623079
1.14250e-07;0.0012734728127685299
1.14500e-07;0.0012667433009139804
1.14750e-07;0.0012600137890594317
1.15000e-07;0.0012532842772048824
1.15250e-07;0.0012465547653503334
1.15500e-07;0.0012398252534957842
1.15750e-07;0.0012330957416412354
1.16000e-07;0.0012263662297866862
1.16250e-07;0.0012196367179321368
1.16500e-07;0.001212907206077588
1.16750e-07;0.0012061776942230388
1.17000e-07;0.0012033275170557224
1.17250e-07;0.001202226101994641
1.17500e-07;0.0012011246869335595
1.17750e-07;0.001200023271872478
1.18000e-07;0.0011989218568113965
1.18250e-07;0.0011978204417503152
1.18500e-07;0.0011967190266892337
1.18750e-07;0.0011956176116281522
1.19000e-07;0.0011945161965670708
1.19250e-07;0.0011934147815059893
1.19500e-07;0.0011923133664449078
1.19750e-07;0.0011912119513838265
1.20000e-07;0.0011911242430555804
1.20250e-07;0.0011914935027551386
1.20500e-07;0.001191862762454697
1.20750e-07;0.001192232022154255
1.21000e-07;0.0011926012818538132
1.21250e-07;0.0011929705415533716
1.21500e-07;0.0011933398012529297
1.21750e-07;0.001193709060952488
1.22000e-07;0.0011940783206520463
1.22250e-07;0.0011944475803516044
1.22500e-07;0.0011948168400511628
1.22750e-07;0.001195186099750721
1.23000e-07;0.0011937999526868462
1.23250e-07;0.0011916224872458745
1.23500e-07;0.0011894450218049028
1.23750e-07;0.0011872675563639314
1.24000e-07;0.0011850900909229599
1.24250e-07;0.0011829126254819882
1.24500e-07;0.0011807351600410167
1.24750e-07;0.001178557694600045
1.25000e-07;0.0011763802291590733
1.25250e-07;0.0011742027637181018
1.25500e-07;0.0011720252982771304
1.25750e-07;0.0011698478328361589
1.26000e-07;0.0011676703673951872
1.26250e-07;0.0011654929019542155
1.26500e-07;0.0011608349208642255
1.26750e-07;0.001155058750156518
1.27000e-07;0.0011492825794488112
1.27250e-07;0.0011435064087411042
1.27500e-07;0.0011377302380333972
1.27750e-07;0.0011319540673256898
1.28000e-07;0.001126177896617983
1.28250e-07;0.001120401725910276
1.28500e-07;0.0011146255552025685
1.28750e-07;0.0011088493844948616
1.29000e-07;0.0011030732137871546
1.29250e-07;0.001097297043079448
1.29500e-07;0.0010915208723717403
1.29750e-07;0.0010857447016640333
1.30000e-07;0.0010799615441049546
1.30250e-07;0.0010741752369488682
1.30500e-07;0.0010683889297927822
1.30750e-07;0.0010626026226366963
1.31000e-07;0.0010568163154806103
1.31250e-07;0.0010510300083245237
1.31500e-07;0.0010452437011684377
1.31750e-07;0.0010394573940123517
1.32000e-07;0.0010336710868562651
1.32250e-07;0.0010278847797001792
1.32500e-07;0.0010247857703355942
1.32750e-07;0.0010228981657413633
1.33000e-07;0.0010210105611471328
1.33250e-07;0.0010191229565529021
1.33500e-07;0.0010172353519586714
1.33750e-07;0.0010153477473644405
1.34000e-07;0.00101346014277021
1.34250e-07;0.0010115725381759793
1.34500e-07;0.0010096849335817484
1.34750e-07;0.0010077973289875177
1.35000e-07;0.0010099084134927467
1.35250e-07;0.0010138220637819246
1.35500e-07;0.001017735714071103
1.35750e-07;0.0010216493643602806
1.36000e-07;0.0010255630146494585
1.36250e-07;0.0010294766649386368
1.36500e-07;0.0010333903152278147
1.36750e-07;0.0010373039655169926
1.37000e-07;0.0010412176158061705
1.37250e-07;0.0010451312660953488
1.37500e-07;0.0010497573277878241
1.37750e-07;0.001057434774129055
1.38000e-07;0.0010651122204702866
1.38250e-07;0.0010727896668115172
1.38500e-07;0.0010804671131527481
1.38750e-07;0.0010881445594939797
1.39000e-07;0.0010958220058352106
1.39250e-07;0.0011034994521764412
1.39500e-07;0.0011111768985176721
1.39750e-07;0.0011188543448589037
1.40000e-07;0.0011265317912001345
1.40250e-07;0.0011342555443717866
1.40500e-07;0.0011420001721615966
1.40750e-07;0.001149744799951406
1.41000e-07;0.001157489427741215
1.41250e-07;0.0011652340555310242
1.41500e-07;0.0011729786833208342
1.41750e-07;0.0011801256786596835
1.42000e-07;0.001184712908000952
1.42250e-07;0.001189300137342221
1.42500e-07;0.0011938873666834896
1.42750e-07;0.0011984745960247581
1.43000e-07;0.0012030618253660267
1.43250e-07;0.0012076490547072956
1.43500e-07;0.0012047414417334652
1.43750e-07;0.0011984552349312099
1.44000e-07;0.001192169028128954
1.44250e-07;0.0011858828213266988
1.44500e-07;0.0011795966145244435
1.44750e-07;0.0011733104077221882
1.45000e-07;0.0011670242009199322
1.45250e-07;0.001160737994117677
1.45500e-07;0.0011544517873154218
1.45750e-07;0.0011456004844062455
1.46000e-07;0.0011257624190070944
1.46250e-07;0.0011059243536079434
1.46500e-07;0.0010860862882087904
