Time(s);Current(A)
1.32500e-05;-0.013492114998567385
1.32503e-05;-0.013506862706457016
1.32505e-05;-0.013523164222890975
1.32508e-05;-0.01354386430642837
1.32510e-05;-0.013564564389965904
1.32513e-05;-0.013585264473503441
1.32515e-05;-0.013605964557040835
1.32518e-05;-0.01362666464057837
1.32520e-05;-0.013650305491027713
1.32523e-05;-0.01367486971659285
1.32525e-05;-0.013699433942158152
1.32528e-05;-0.013723998167723456
1.32530e-05;-0.013748562393288593
1.32533e-05;-0.01377353732428488
1.32535e-05;-0.013799674892341464
1.32538e-05;-0.013825812460398048
1.32540e-05;-0.013852000838968677
1.32543e-05;-0.013878333053443355
1.32545e-05;-0.01390458200188396
1.32548e-05;-0.013930595238376656
1.32550e-05;-0.013956485338384105
1.32553e-05;-0.013981916243801686
1.32555e-05;-0.014006897627521777
1.32558e-05;-0.014031175955306565
1.32560e-05;-0.0140545569948068
1.32563e-05;-0.014077938034306878
1.32565e-05;-0.014099608093864699
1.32568e-05;-0.014120740920669813
1.32570e-05;-0.014141499062477117
1.32573e-05;-0.014161196534930235
1.32575e-05;-0.014180907621683812
1.32578e-05;-0.014200657248200974
1.32580e-05;-0.014220365059366857
1.32583e-05;-0.01423995449840132
1.32585e-05;-0.014259410954893659
1.32588e-05;-0.014278490960479806
1.32590e-05;-0.01429753024472083
1.32593e-05;-0.0143164542537756
1.32595e-05;-0.0143355146489476
1.32598e-05;-0.014354961129966858
1.32600e-05;-0.01437448520439485
1.32603e-05;-0.01439422893253584
1.32605e-05;-0.01441397266067683
1.32608e-05;-0.014433766929206887
1.32610e-05;-0.014453704268963112
1.32613e-05;-0.014473641608719336
1.32615e-05;-0.014493578948475425
1.32618e-05;-0.01451351628823165
1.32620e-05;-0.014533794941946723
1.32623e-05;-0.014554180765262766
1.32625e-05;-0.014574566588578673
1.32628e-05;-0.014594952411894718
1.32630e-05;-0.01461530101198451
1.32633e-05;-0.014635544239466215
1.32635e-05;-0.014655787466948057
1.32638e-05;-0.014675981180515735
1.32640e-05;-0.014696034728633078
1.32643e-05;-0.014716088276750557
1.32645e-05;-0.014735941176011298
1.32648e-05;-0.01475522607256373
1.32650e-05;-0.014774510969116294
1.32653e-05;-0.014793543433847887
1.32655e-05;-0.014811861307127016
1.32658e-05;-0.01483017918040627
1.32660e-05;-0.01484813902999852
1.32663e-05;-0.01486508537556611
1.32665e-05;-0.014882031721133813
1.32668e-05;-0.014898472959947097
1.32670e-05;-0.014913484327645506
1.32673e-05;-0.014928495695344015
1.32675e-05;-0.014942940854011074
1.32678e-05;-0.014955783171433219
1.32680e-05;-0.01496862548885545
1.32683e-05;-0.01498051459330157
1.32685e-05;-0.014989705314309
1.32688e-05;-0.014998896035316494
1.32690e-05;-0.015008086756323988
1.32693e-05;-0.01501727747733142
1.32695e-05;-0.015026468198338914
1.32698e-05;-0.015035658919346407
1.32700e-05;-0.015041326598422113
1.32703e-05;-0.015045888073112183
1.32705e-05;-0.015050449547802254
1.32708e-05;-0.015055011022492324
1.32710e-05;-0.015059572497182363
1.32713e-05;-0.015064133971872434
1.32715e-05;-0.01506779918424993
1.32718e-05;-0.015068927230808377
1.32720e-05;-0.015070055277366831
1.32723e-05;-0.015071183323925286
1.32725e-05;-0.015072311370483734
1.32728e-05;-0.015073439417042188
1.32730e-05;-0.015074567463600643
1.32733e-05;-0.015074494956391802
1.32735e-05;-0.015074045485789252
1.32738e-05;-0.015073596015186702
1.32740e-05;-0.015073146544584156
1.32743e-05;-0.015072697073981607
1.32745e-05;-0.015072247603379057
1.32748e-05;-0.015071844149610734
1.32750e-05;-0.015071570961655513
1.32753e-05;-0.015071297773700292
1.32755e-05;-0.01507134187458062
1.32758e-05;-0.01507228416606556
1.32760e-05;-0.015073226457550501
1.32763e-05;-0.015074168749035435
1.32765e-05;-0.015075111040520374
1.32768e-05;-0.015077447253802913
1.32770e-05;-0.015080221146351248
1.32773e-05;-0.015082995038899602
1.32775e-05;-0.015085768931447955
1.32778e-05;-0.01508886233252796
1.32780e-05;-0.015092860207793962
1.32783e-05;-0.015096858083059963
1.32785e-05;-0.015100855958325938
1.32788e-05;-0.01510485383359194
1.32790e-05;-0.01510885170885794
1.32793e-05;-0.015112849584123943
1.32795e-05;-0.015116847459389918
1.32798e-05;-0.015120845334655918
1.32800e-05;-0.01512484320992192
1.32803e-05;-0.015128841085187895
1.32805e-05;-0.015132838960453896
1.32808e-05;-0.015137310219508713
1.32810e-05;-0.015142005258348365
1.32813e-05;-0.015146700297188051
1.32815e-05;-0.015151395336027735
1.32818e-05;-0.015156090374867388
1.32820e-05;-0.015160785413707072
1.32823e-05;-0.015165480452546757
1.32825e-05;-0.01517017549138641
1.32828e-05;-0.015174870530226094
1.32830e-05;-0.01517956556906578
1.32833e-05;-0.015184260607905432
1.32835e-05;-0.015188844126548478
1.32838e-05;-0.015192389328294614
1.32840e-05;-0.015195934530040728
1.32843e-05;-0.015199479731786864
1.32845e-05;-0.015203024933533002
1.32848e-05;-0.015206570135279113
1.32850e-05;-0.015210115337025251
1.32853e-05;-0.015211782367354652
1.32855e-05;-0.01521299844883559
1.32858e-05;-0.015214214530316536
1.32860e-05;-0.015215430611797483
1.32863e-05;-0.015216646693278421
1.32865e-05;-0.015217862774759366
1.32868e-05;-0.015217638589433619
1.32870e-05;-0.015216062294932005
1.32873e-05;-0.015214486000430379
1.32875e-05;-0.015212909705928753
1.32878e-05;-0.015211333411427127
1.32880e-05;-0.015209757116925514
1.32883e-05;-0.015208180822423888
1.32885e-05;-0.015206540269459284
1.32888e-05;-0.015200893226072218
1.32890e-05;-0.015195246182685113
1.32893e-05;-0.015189599139298007
1.32895e-05;-0.01518395209591094
1.32898e-05;-0.015178305052523834
1.32900e-05;-0.01517265800913673
1.32903e-05;-0.015167010965749662
1.32905e-05;-0.015159398022405051
1.32908e-05;-0.015149939510337256
1.32910e-05;-0.015140480998269526
1.32913e-05;-0.01513102248620173
1.32915e-05;-0.015121563974133936
1.32918e-05;-0.015112105462066205
1.32920e-05;-0.01510261181611997
1.32923e-05;-0.01509092758637924
1.32925e-05;-0.01507924335663859
1.32928e-05;-0.01506755912689786
1.32930e-05;-0.01505587489715713
1.32933e-05;-0.01504419066741648
1.32935e-05;-0.01503250643767575
1.32938e-05;-0.015020528952725496
1.32940e-05;-0.015008276162493079
1.32943e-05;-0.01499602337226058
1.32945e-05;-0.014983829986869758
1.32948e-05;-0.014971692370195735
1.32950e-05;-0.01495955475352163
1.32953e-05;-0.01494768621996461
1.32955e-05;-0.014936070299152799
1.32958e-05;-0.014924715935777239
1.32960e-05;-0.01491381271530052
1.32963e-05;-0.014903348451344237
1.32965e-05;-0.01489335622092021
1.32968e-05;-0.014883882913226894
1.32970e-05;-0.014875387491005478
1.32973e-05;-0.014868858860460401
1.32975e-05;-0.014865173741558588
1.32978e-05;-0.014864614807916132
1.32980e-05;-0.014867100927138105
1.32983e-05;-0.01487250254725823
1.32985e-05;-0.014881341953838154
1.32988e-05;-0.014892109439784534
1.32990e-05;-0.014905949324927982
1.32993e-05;-0.01492267355006164
1.32995e-05;-0.014943978593020211
1.32998e-05;-0.014969584065445832
1.33000e-05;-0.014995189537871451
1.33003e-05;-0.015024800193604824
1.33005e-05;-0.015058170878437159
1.33008e-05;-0.015096306712236607
1.33010e-05;-0.015138916023876582
1.33013e-05;-0.015181525335516843
1.33015e-05;-0.015224134647157106
1.33018e-05;-0.01526674395879708
1.33020e-05;-0.015314677801653352
1.33023e-05;-0.015367610265239683
1.33025e-05;-0.015420542728825655
1.33028e-05;-0.015473475192411984
1.33030e-05;-0.015526407655998315
1.33033e-05;-0.015581508252196535
1.33035e-05;-0.015638644271267477
1.33038e-05;-0.01569578029033842
1.33040e-05;-0.015753068424232665
1.33043e-05;-0.015810499362118903
1.33045e-05;-0.01586793030000514
1.33048e-05;-0.01592426360934783
1.33050e-05;-0.015979566475150697
1.33053e-05;-0.01603336196311166
1.33055e-05;-0.016085742338675758
1.33058e-05;-0.016135956278908528
1.33060e-05;-0.01618413638966111
1.33063e-05;-0.016229341134462467
1.33065e-05;-0.016271752633187593
1.33068e-05;-0.016309419590501983
1.33070e-05;-0.01634263241615792
1.33073e-05;-0.01637584524181363
1.33075e-05;-0.016402950737359312
1.33078e-05;-0.016424322727801588
1.33080e-05;-0.016445694718243718
1.33083e-05;-0.016460599747108486
1.33085e-05;-0.01646943365216959
1.33088e-05;-0.016478267557230638
1.33090e-05;-0.016477901965336165
1.33093e-05;-0.0164688999706613
1.33095e-05;-0.016459897975986494
1.33098e-05;-0.016450895981311626
1.33100e-05;-0.016441893986636757
1.33103e-05;-0.016432572128795855
1.33105e-05;-0.016403306925536612
1.33108e-05;-0.016374041722277365
1.33110e-05;-0.01634477651901832
1.33113e-05;-0.016315511315759076
1.33115e-05;-0.016286246112499833
1.33118e-05;-0.016250613193488125
1.33120e-05;-0.016209002321736023
1.33123e-05;-0.016167391449983918
1.33125e-05;-0.01612257912161687
1.33128e-05;-0.016074761295345814
1.33130e-05;-0.016026943469074757
1.33133e-05;-0.015977324283049706
1.33135e-05;-0.015926013997124188
1.33138e-05;-0.015873973560044715
1.33140e-05;-0.015821247663805434
1.33143e-05;-0.015768344033404123
1.33145e-05;-0.0157153504058284
1.33148e-05;-0.015662653741545744
1.33150e-05;-0.015610554818424912
1.33153e-05;-0.01555938094232567
1.33155e-05;-0.015509475888888919
1.33158e-05;-0.015461179355633695
1.33160e-05;-0.015414824305081079
1.33163e-05;-0.01537074174890011
1.33165e-05;-0.015329262365410308
1.33168e-05;-0.015290705666980013
1.33170e-05;-0.015255278113912923
1.33173e-05;-0.015222966570641934
1.33175e-05;-0.015194456067521404
1.33178e-05;-0.015168126181353162
1.33180e-05;-0.015145041384736293
1.33183e-05;-0.015125003048220866
1.33185e-05;-0.01510840626956045
1.33188e-05;-0.015095040393630946
1.33190e-05;-0.015085917640616531
1.33193e-05;-0.015080778292208922
1.33195e-05;-0.015075638943801347
1.33198e-05;-0.015076940020575828
1.33200e-05;-0.015084287309032668
1.33203e-05;-0.015091634597489457
1.33205e-05;-0.015098981885946295
1.33208e-05;-0.015106329174403134
1.33210e-05;-0.015113888343538991
1.33213e-05;-0.01513465819160396
1.33215e-05;-0.015155428039668928
1.33218e-05;-0.015176197887733897
1.33220e-05;-0.015196967735798724
1.33223e-05;-0.015217737583863694
1.33225e-05;-0.01524304792112853
1.33228e-05;-0.015272620827721812
1.33230e-05;-0.015302193734315293
1.33233e-05;-0.015331766640908774
1.33235e-05;-0.015361339547502056
1.33238e-05;-0.015390912454095539
1.33240e-05;-0.015421603004340683
1.33243e-05;-0.015453342788124222
1.33245e-05;-0.015485082571907975
1.33248e-05;-0.015516822355691729
1.33250e-05;-0.015548562139475268
1.33253e-05;-0.01558030192325902
1.33255e-05;-0.01561027701496761
1.33258e-05;-0.01563859543005289
1.33260e-05;-0.015666913845138367
1.33263e-05;-0.01569256016319544
1.33265e-05;-0.015715697941239032
1.33268e-05;-0.01573883571928278
1.33270e-05;-0.015758314415274022
1.33273e-05;-0.01577435799882596
1.33275e-05;-0.015790401582378
1.33278e-05;-0.015802340627625634
1.33280e-05;-0.015810426370218407
1.33283e-05;-0.015818512112811236
1.33285e-05;-0.015820133615882803
1.33288e-05;-0.01581568655058904
1.33290e-05;-0.015811239485295246
1.33293e-05;-0.01580679242000145
1.33295e-05;-0.01580234535470769
1.33298e-05;-0.015797898289413893
1.33300e-05;-0.01578546039225306
1.33303e-05;-0.015765520775930523
1.33305e-05;-0.015745581159608116
1.33308e-05;-0.015725641543285578
1.33310e-05;-0.015705701926963037
1.33313e-05;-0.015685762310640634
1.33315e-05;-0.01566010887725224
1.33318e-05;-0.015629091365169184
1.33320e-05;-0.01559807385308634
1.33323e-05;-0.015567056341003287
1.33325e-05;-0.015536038828920233
1.33328e-05;-0.015501946611901263
1.33330e-05;-0.015464967890282611
1.33333e-05;-0.015427989168663959
1.33335e-05;-0.015391010447045557
1.33338e-05;-0.015354031725426905
1.33340e-05;-0.015316223225451392
1.33343e-05;-0.01527763573721761
1.33345e-05;-0.015239208449910977
1.33348e-05;-0.015200931557755568
1.33350e-05;-0.015163041117312865
1.33353e-05;-0.015125921302016919
1.33355e-05;-0.015089710348786652
1.33358e-05;-0.015054640725513853
1.33360e-05;-0.01502094805680943
1.33363e-05;-0.014988867486922396
1.33365e-05;-0.014958634189504355
1.33368e-05;-0.01493049147496789
1.33370e-05;-0.014904749434048294
1.33373e-05;-0.014881798094647585
1.33375e-05;-0.014861945313619004
1.33378e-05;-0.014846145200573412
1.33380e-05;-0.014832695039950905
1.33383e-05;-0.014822594928106976
1.33385e-05;-0.014815639811119724
1.33388e-05;-0.014812079896995694
1.33390e-05;-0.014811707367965847
1.33393e-05;-0.01481576858574239
1.33395e-05;-0.014823992164076281
1.33398e-05;-0.014832215742410119
1.33400e-05;-0.014846910861776011
1.33403e-05;-0.014867681404099602
1.33405e-05;-0.01488845194642305
1.33408e-05;-0.014909222488746638
1.33410e-05;-0.014929993031070229
1.33413e-05;-0.014957429084843772
1.33415e-05;-0.014991122659212725
1.33418e-05;-0.01502481623358168
1.33420e-05;-0.015058509807950404
1.33423e-05;-0.015092203382319359
1.33425e-05;-0.015130403302295647
1.33428e-05;-0.015172833737913125
1.33430e-05;-0.015215264173530888
1.33433e-05;-0.015257694609148654
1.33435e-05;-0.015300125044766131
1.33438e-05;-0.015342555480383897
1.33440e-05;-0.015385737363230307
1.33443e-05;-0.015429624697795331
1.33445e-05;-0.015473512032360652
1.33448e-05;-0.015517399366925973
1.33450e-05;-0.015561286701490998
1.33453e-05;-0.015605174036056319
1.33455e-05;-0.01564648742768532
1.33458e-05;-0.015685384425454727
1.33460e-05;-0.015724281423224403
1.33463e-05;-0.015756031137880013
1.33465e-05;-0.015781071049149987
1.33468e-05;-0.015806110960420127
1.33470e-05;-0.01583115087169027
1.33473e-05;-0.01585619078296041
1.33475e-05;-0.015881230694230385
1.33478e-05;-0.015906270605500525
1.33480e-05;-0.015931310516770665
1.33483e-05;-0.01595635042804064
1.33485e-05;-0.01598139033931078
1.33488e-05;-0.016006430250580923
1.33490e-05;-0.016031470161850893
1.33493e-05;-0.01605635377581222
1.33495e-05;-0.016071492312503884
1.33498e-05;-0.016086630849195448
1.33500e-05;-0.016101769385887112
1.33503e-05;-0.01611690792257878
1.33505e-05;-0.01613204645927034
1.33508e-05;-0.01614718499596201
1.33510e-05;-0.016162323532653674
1.33513e-05;-0.016177462069345238
1.33515e-05;-0.016192600606036903
1.33518e-05;-0.016207739142728567
1.33520e-05;-0.01622287767942013
1.33523e-05;-0.016238016216111796
1.33525e-05;-0.016250485435474263
1.33528e-05;-0.016260448724377437
1.33530e-05;-0.016270412013280677
1.33533e-05;-0.01628037530218392
1.33535e-05;-0.01629033859108709
1.33538e-05;-0.016300301879990334
1.33540e-05;-0.016310265168893574
1.33543e-05;-0.016320228457796748
1.33545e-05;-0.016330191746699987
1.33548e-05;-0.01634015503560323
1.33550e-05;-0.0163501183245064
1.33553e-05;-0.016360081613409645
1.33555e-05;-0.016370044902312884
1.33557e-05;-0.01638000819121606
1.33560e-05;-0.016389971480119298
1.33563e-05;-0.01639611614253967
1.33565e-05;-0.016398675913680088
1.33568e-05;-0.01640123568482049
1.33570e-05;-0.016403795455960903
1.33573e-05;-0.01640635522710132
1.33575e-05;-0.016408914998241722
1.33578e-05;-0.01641147476938214
1.33580e-05;-0.016414034540522558
1.33583e-05;-0.01641659431166296
1.33585e-05;-0.016419154082803377
1.33588e-05;-0.01642171385394379
1.33590e-05;-0.016424273625084192
1.33593e-05;-0.01642683339622461
1.33595e-05;-0.01642939316736503
1.33598e-05;-0.01643195293850543
1.33600e-05;-0.016431413220209256
1.33603e-05;-0.016427963729851166
1.33605e-05;-0.0164245142394931
1.33608e-05;-0.01642106474913501
1.33610e-05;-0.01641761525877692
1.33613e-05;-0.016414165768418854
1.33615e-05;-0.016410716278060764
1.33618e-05;-0.016407266787702674
1.33620e-05;-0.01640381729734461
1.33623e-05;-0.01640036780698652
1.33625e-05;-0.016396918316628428
1.33628e-05;-0.016393468826270362
1.33630e-05;-0.016390019335912272
1.33633e-05;-0.016386569845554186
1.33635e-05;-0.016383092268590294
1.33638e-05;-0.01637786350251069
1.33640e-05;-0.016372634736431083
1.33642e-05;-0.016367405970351512
1.33645e-05;-0.016362177204271904
1.33648e-05;-0.016356948438192298
1.33650e-05;-0.016351719672112693
1.33653e-05;-0.01634649090603312
1.33655e-05;-0.016341262139953513
1.33658e-05;-0.016336033373873907
1.33660e-05;-0.016330804607794337
1.33663e-05;-0.016325575841714728
1.33665e-05;-0.016320347075635122
1.33668e-05;-0.01631511830955555
1.33670e-05;-0.016309889543475942
1.33673e-05;-0.01630363453916889
1.33675e-05;-0.016296416111890158
1.33678e-05;-0.01628919768461138
1.33680e-05;-0.0162819792573326
1.33683e-05;-0.016274760830053872
1.33685e-05;-0.016267542402775094
1.33688e-05;-0.016260323975496316
1.33690e-05;-0.016253105548217586
1.33693e-05;-0.016245887120938805
1.33695e-05;-0.016238668693660026
1.33698e-05;-0.016231450266381297
1.33700e-05;-0.01622190181847326
1.33703e-05;-0.016210165968713462
1.33705e-05;-0.016198430118953746
1.33708e-05;-0.016186694269193953
1.33710e-05;-0.016174958419434157
1.33713e-05;-0.01616322256967444
1.33715e-05;-0.016151486719914645
1.33718e-05;-0.01613975087015485
1.33720e-05;-0.016128015020395133
1.33723e-05;-0.016116279170635336
1.33725e-05;-0.016104543320875544
1.33727e-05;-0.016091741293222876
1.33730e-05;-0.016077938347609014
1.33733e-05;-0.016064135401995153
1.33735e-05;-0.016050332456381294
1.33738e-05;-0.016036529510767526
1.33740e-05;-0.016022726565153664
1.33743e-05;-0.016008923619539803
1.33745e-05;-0.01599513820181188
1.33748e-05;-0.015982445641059648
1.33750e-05;-0.015969753080307413
1.33753e-05;-0.01595706051955527
1.33755e-05;-0.015944367958803034
1.33758e-05;-0.0159316753980508
1.33760e-05;-0.015918982837298656
1.33763e-05;-0.01590629027654642
1.33765e-05;-0.015894685993278
1.33768e-05;-0.015884103374862717
1.33770e-05;-0.015872988995048472
1.33773e-05;-0.015861375402543017
1.33775e-05;-0.01584715007857809
1.33778e-05;-0.01583047288523445
1.33780e-05;-0.01581069206912823
1.33783e-05;-0.01578799760063015
1.33785e-05;-0.01576530313213192
1.33788e-05;-0.015739196167718957
1.33790e-05;-0.015709885583650857
1.33793e-05;-0.01568057499958256
1.33795e-05;-0.015645315711815627
1.33798e-05;-0.015604471835944139
1.33800e-05;-0.015563627960072374
1.33803e-05;-0.01552278408420061
1.33805e-05;-0.015481762511921985
1.33808e-05;-0.015429661636610558
1.33810e-05;-0.01537756076129913
1.33812e-05;-0.015325459885988057
1.33815e-05;-0.015273359010676628
1.33818e-05;-0.015216933697740246
1.33820e-05;-0.015156448642690985
1.33823e-05;-0.015095963587642135
1.33825e-05;-0.015033723207589927
1.33828e-05;-0.014969834944632592
1.33830e-05;-0.014905304677060026
1.33833e-05;-0.0148397364929656
1.33835e-05;-0.014773392742107852
1.33838e-05;-0.014706519998591771
1.33840e-05;-0.01463948897768582
1.33843e-05;-0.014572687619346719
1.33845e-05;-0.0145065037753233
1.33848e-05;-0.014441316739044124
1.33850e-05;-0.014377431308412805
1.33853e-05;-0.014315032973914923
1.33855e-05;-0.01425431447964027
1.33858e-05;-0.01419559654310678
1.33860e-05;-0.014139278574168253
1.33863e-05;-0.014089923089438482
1.33865e-05;-0.014060981111212723
1.33868e-05;-0.013998893061988352
1.33870e-05;-0.013955110722737647
1.33873e-05;-0.013919259913625148
1.33875e-05;-0.013882843756010666
1.33878e-05;-0.013849608495007616
1.33880e-05;-0.013819670823527154
1.33883e-05;-0.013793089869269125
1.33885e-05;-0.013770008948088665
1.33888e-05;-0.013750694468678208
1.33890e-05;-0.01373610998586601
1.33893e-05;-0.013724444239296339
1.33895e-05;-0.013715993074852072
1.33897e-05;-0.01371092481740103
1.33900e-05;-0.013710620046694415
1.33903e-05;-0.01371532819274997
1.33905e-05;-0.013720036338805523
1.33908e-05;-0.013724744484861046
1.33910e-05;-0.013729452630916598
1.33913e-05;-0.013745926568964787
1.33915e-05;-0.013762552539566758
1.33918e-05;-0.013779178510168844
1.33920e-05;-0.01379580448077093
1.33923e-05;-0.013815909587617338
1.33925e-05;-0.01383967600839895
1.33928e-05;-0.013863442429180563
1.33930e-05;-0.013889235131824981
1.33933e-05;-0.01391716021834311
1.33935e-05;-0.01394508530486124
1.33938e-05;-0.013973926877032175
1.33940e-05;-0.01400373292471017
1.33943e-05;-0.014033538972388163
1.33945e-05;-0.014063462776144656
1.33948e-05;-0.014093510502030763
1.33950e-05;-0.014123205867242066
1.33953e-05;-0.014152530421148786
1.33955e-05;-0.014180955354916893
1.33958e-05;-0.014208433561819635
1.33960e-05;-0.01423249505401034
1.33963e-05;-0.014252960922371197
1.33965e-05;-0.014273426790732053
1.33968e-05;-0.01429389265909277
1.33970e-05;-0.014314358527453627
1.33973e-05;-0.014334824395814483
1.33975e-05;-0.0143552902641752
1.33978e-05;-0.014375756132536057
