Time(s);Current(A)
6.55000e-06;0.0005760925328211899
6.55025e-06;0.0005328452586938708
6.55050e-06;0.00048614848292709615
6.55075e-06;0.00043624801361626033
6.55100e-06;0.0003833897284908085
6.55125e-06;0.00032785513985557184
6.55150e-06;0.0002700325118723767
6.55175e-06;0.00021039501157393609
6.55200e-06;0.00014938541506927808
6.55225e-06;8.738005417540423e-05
6.55250e-06;2.473296058564123e-05
6.55275e-06;-3.8201841215879624e-05
6.55300e-06;-0.00010107032388856155
6.55325e-06;-0.00016349614994904782
6.55350e-06;-0.00022503615935906183
6.55375e-06;-0.0002851940095133492
6.55400e-06;-0.0003434924647569209
6.55425e-06;-0.00039949595398788433
6.55450e-06;-0.000452782850014031
6.55475e-06;-0.0005029315735841787
6.55500e-06;-0.0005495206487387442
6.55525e-06;-0.0005921466456613241
6.55550e-06;-0.0006304872933433685
6.55575e-06;-0.0006643520845900049
6.55600e-06;-0.0006936414059749714
6.55625e-06;-0.0007182770080242396
6.55650e-06;-0.0007381794783495664
6.55675e-06;-0.0007532694388401464
6.55700e-06;-0.0007634676688695529
6.55725e-06;-0.0007687062297972106
6.55750e-06;-0.0007689680286512477
6.55775e-06;-0.000764318508170616
6.55800e-06;-0.0007548800762002743
6.55825e-06;-0.0007407884569449871
6.55850e-06;-0.0007221787241382808
6.55875e-06;-0.0006991859458009605
6.55900e-06;-0.0006719451956665907
6.55925e-06;-0.0006405987647835509
6.55950e-06;-0.0006053207057394798
6.55975e-06;-0.0005663366994819925
6.56000e-06;-0.000523908190780251
6.56025e-06;-0.00047830492072642385
6.56050e-06;-0.0004297961899200592
6.56075e-06;-0.0003786513092278765
6.56100e-06;-0.0003251395763934386
6.56125e-06;-0.0002695347476216503
6.56150e-06;-0.00021213050042687945
6.56175e-06;-0.00015325283410699988
6.56200e-06;-9.325010135158667e-05
6.56225e-06;-3.247585174725148e-05
6.56250e-06;2.8716673134509877e-05
6.56275e-06;8.997425754593693e-05
6.56300e-06;0.00015094370064741463
6.56325e-06;0.00021126906542371052
6.56350e-06;0.00027058193788985306
6.56375e-06;0.00032849365676211595
6.56400e-06;0.00038460161692612313
6.56425e-06;0.00043850000144177165
6.56450e-06;0.0004897831902236186
6.56475e-06;0.0005380456430875256
6.56500e-06;0.0005828819174280161
6.56525e-06;0.000623171597033883
6.56550e-06;0.0006610638820698061
6.56575e-06;0.0006959207376082948
6.56600e-06;0.0007282847500489614
6.56625e-06;0.0007576297286259924
6.56650e-06;0.0007844953290015421
6.56675e-06;0.0008079458914155336
6.56700e-06;0.000828591857703306
6.56725e-06;0.0008457392418051798
6.56750e-06;0.000860013419179498
6.56775e-06;0.0008714987727314616
6.56800e-06;0.0008806938078221316
6.56825e-06;0.0008872721732466388
6.56850e-06;0.0008917016016191858
6.56875e-06;0.0008934281793764432
6.56900e-06;0.0008929350440731843
6.56925e-06;0.0008893339720048775
6.56950e-06;0.0008831805103263029
6.56975e-06;0.0008770270486477285
6.57000e-06;0.0008681090529747198
6.57025e-06;0.0008569206868347914
6.57050e-06;0.0008457323206948629
6.57075e-06;0.0008321434164177888
6.57100e-06;0.0008165830728666498
6.57125e-06;0.000801022729315458
6.57150e-06;0.0007835133081723387
6.57175e-06;0.0007644032092254991
6.57200e-06;0.0007452931102785948
6.57225e-06;0.0007261830113317552
6.57250e-06;0.0007070729123849157
6.57275e-06;0.0006873698539910857
6.57300e-06;0.0006671798283113186
6.57325e-06;0.0006469898026315514
6.57350e-06;0.0006267997769517159
6.57375e-06;0.0006066097512719488
6.57400e-06;0.0005875438545725996
6.57425e-06;0.0005694011475475267
6.57450e-06;0.0005512584405225153
6.57475e-06;0.0005349007908296467
6.57500e-06;0.0005200091174844775
6.57525e-06;0.0005051174441393588
6.57550e-06;0.0004920347024704963
6.57575e-06;0.0004804375439279725
6.57600e-06;0.0004688403853854487
6.57625e-06;0.0004588516822103839
6.57650e-06;0.00045018392121609857
6.57675e-06;0.0004415161602218132
6.57700e-06;0.00043437920171930287
6.57725e-06;0.00042849941305978987
6.57750e-06;0.00042396699607662386
6.57775e-06;0.00042054110658333555
6.57800e-06;0.0004171152170900589
6.57825e-06;0.00041509330096453786
6.57850e-06;0.0004142243964049723
6.57875e-06;0.0004133554918454097
6.57900e-06;0.0004138916259969466
6.57925e-06;0.0004155816466264676
6.57950e-06;0.00041727166725598287
6.57975e-06;0.00042004772018831594
6.58000e-06;0.0004237156759407781
6.58025e-06;0.00042738363169324023
6.58050e-06;0.0004323261445441297
6.58075e-06;0.00043831538599372347
6.58100e-06;0.00044430462744331727
6.58125e-06;0.00045029386889293134
6.58150e-06;0.0004562831103425251
6.58175e-06;0.00046227235179211883
6.58200e-06;0.00046832837090915604
6.58225e-06;0.0004756783731455319
6.58250e-06;0.00048302837538190767
6.58275e-06;0.0004903783776183084
6.58300e-06;0.0004977283798546842
6.58325e-06;0.00050507838209106
6.58350e-06;0.0005124283843274608
6.58375e-06;0.0005195211463036177
6.58400e-06;0.0005264026500023674
6.58425e-06;0.0005332841537010939
6.58450e-06;0.0005397027177801906
6.58475e-06;0.0005457410932118829
6.58500e-06;0.0005512066441856038
6.58525e-06;0.0005562017637107234
6.58550e-06;0.0005595345161687501
6.58575e-06;0.0005615020515229471
6.58600e-06;0.0005609354866457797
6.58625e-06;0.0005582877947737998
6.58650e-06;0.0005532394688834954
6.58675e-06;0.0005462196249773312
6.58700e-06;0.0005369544421507825
6.58725e-06;0.0005258452772348036
6.58750e-06;0.0005128303515865933
6.58775e-06;0.0004967470054240609
6.58800e-06;0.000477941821546121
6.58825e-06;0.00045652691950384135
6.58850e-06;0.0004326824040674438
6.58875e-06;0.0004065883246557464
6.58900e-06;0.0003784246856035559
6.58925e-06;0.000348316141719204
6.58950e-06;0.0003162425330760663
6.58975e-06;0.00028212089221550196
6.59000e-06;0.00024599849964889717
6.59025e-06;0.0002080687320439541
6.59050e-06;0.00016856751161205917
6.59075e-06;0.00012773072603790005
6.59100e-06;8.579422805421214e-05
6.59125e-06;4.2959189617946114e-05
6.59150e-06;-6.639554357299494e-07
6.59175e-06;-4.500410289509858e-05
6.59200e-06;-8.996773917439127e-05
6.59225e-06;-0.0001351913858164106
6.59250e-06;-0.0001804150324585832
6.59275e-06;-0.00022529103155425294
6.59300e-06;-0.00026988151223809
6.59325e-06;-0.00031356311789405606
6.59350e-06;-0.0003564983109447088
6.59375e-06;-0.00039811622826804743
6.59400e-06;-0.00043865233436662807
6.59425e-06;-0.0004772917564579397
6.59450e-06;-0.0005143735289194733
6.59475e-06;-0.0005489163272038053
6.59500e-06;-0.0005813739957708816
6.59525e-06;-0.0006112569691985956
6.59550e-06;-0.0006390254771089612
6.59575e-06;-0.0006667939850192327
6.59600e-06;-0.0006936613545135507
6.59625e-06;-0.0007197886650868759
6.59650e-06;-0.0007459159756601127
6.59675e-06;-0.0007720432862334379
6.59700e-06;-0.0007980614384076329
6.59725e-06;-0.000821964375556632
6.59750e-06;-0.0008458673127057121
6.59775e-06;-0.0008697702498547112
6.59800e-06;-0.0008936731870037103
6.59825e-06;-0.0009177209087977364
6.59850e-06;-0.0009418875348201831
6.59875e-06;-0.0009660541608426298
6.59900e-06;-0.0009902207868651585
6.59925e-06;-0.001014387412887605
6.59950e-06;-0.0010385540389100517
6.59975e-06;-0.0010627206649325804
6.60000e-06;-0.0010868872909550271
6.60025e-06;-0.0011110539169774739
6.60050e-06;-0.0011351881599557774
6.60075e-06;-0.0011586949010442451
6.60100e-06;-0.001182201642132713
6.60125e-06;-0.0012057083832212603
6.60150e-06;-0.001229215124309728
6.60175e-06;-0.0012527218653982754
6.60200e-06;-0.0012762286064867431
6.60225e-06;-0.0012997353475752108
6.60250e-06;-0.0013232420886637583
6.60275e-06;-0.001346748829752226
6.60300e-06;-0.0013687160835575394
6.60325e-06;-0.0013894190351453463
6.60350e-06;-0.001410121986733083
6.60375e-06;-0.0014308249383208195
6.60400e-06;-0.0014498159044754003
6.60425e-06;-0.0014674009044986461
6.60450e-06;-0.001484985904521892
6.60475e-06;-0.0015025709045451974
6.60500e-06;-0.0015181507473027182
6.60525e-06;-0.001532083856887914
6.60550e-06;-0.001542876675230034
6.60575e-06;-0.0015510905328845162
6.60600e-06;-0.0015548830345883968
6.60625e-06;-0.0015550445026397707
6.60650e-06;-0.0015509463977794419
6.60675e-06;-0.001543350123407226
6.60700e-06;-0.001531687955541699
6.60725e-06;-0.0015166866771710802
6.60750e-06;-0.0014970298377708507
6.60775e-06;-0.0014735496240579498
6.60800e-06;-0.0014450612952454725
6.60825e-06;-0.0014124600574826427
6.60850e-06;-0.0013754019878361398
6.60875e-06;-0.0013346837499666983
6.60900e-06;-0.0012900798746960753
6.60925e-06;-0.0012422849240357572
6.60950e-06;-0.00119068478004966
6.60975e-06;-0.0011359596252807991
6.61000e-06;-0.0010776583046965907
6.61025e-06;-0.001016420061917456
6.61050e-06;-0.0009524008415687594
6.61075e-06;-0.0008860977464869383
6.61100e-06;-0.0008178211348361216
6.61125e-06;-0.0007479237749005548
6.61150e-06;-0.0006768770746341671
6.61175e-06;-0.0006042381332532754
6.61200e-06;-0.0005306150110293437
6.61225e-06;-0.0004564118243241631
6.61250e-06;-0.00038207048569913687
6.61275e-06;-0.00030803287575612525
6.61300e-06;-0.00023474078492827016
6.61325e-06;-0.00016260556489871357
6.61350e-06;-9.195980750784286e-05
6.61375e-06;-2.31043377349355e-05
6.61400e-06;4.3585169089401074e-05
6.61425e-06;0.00010765112668901657
6.61450e-06;0.0001686122760068924
6.61475e-06;0.0002259874241492024
6.61500e-06;0.0002792954040490583
6.61525e-06;0.00032800380971666925
6.61550e-06;0.00037148259766064956
6.61575e-06;0.00040916352790196535
6.61600e-06;0.0004407432675037622
6.61625e-06;0.0004661284423686169
6.61650e-06;0.0004852789953587287
6.61675e-06;0.0004981549406675536
6.61700e-06;0.0005047163187357852
6.61725e-06;0.0005048910978431437
6.61750e-06;0.0004985460383552803
6.61775e-06;0.00048558673296067776
6.61800e-06;0.00046608470124414903
6.61825e-06;0.00044024294358651
6.61850e-06;0.000408297899506565
6.61875e-06;0.00037048599254258164
6.61900e-06;0.0003270436650699151
6.61925e-06;0.00027818728268216614
6.61950e-06;0.00022409487249794348
6.61975e-06;0.0001649687542453452
6.62000e-06;0.00010111517838585484
6.62025e-06;3.2922737780923046e-05
6.62050e-06;-3.9199068391320854e-05
6.62075e-06;-0.00011484073513940607
6.62100e-06;-0.00019359279508455535
6.62125e-06;-0.0002750584077662118
6.62150e-06;-0.00035935009630405423
6.62175e-06;-0.00044502234352790057
6.62200e-06;-0.000532205716352447
6.62225e-06;-0.0006206300993942062
6.62250e-06;-0.0007090544824362652
6.62275e-06;-0.0007970304411611886
6.62300e-06;-0.0008846381319155216
6.62325e-06;-0.0009722458226695576
6.62350e-06;-0.001057624868432596
6.62375e-06;-0.001141173641978651
6.62400e-06;-0.0012215691164386678
6.62425e-06;-0.0012993749475357342
6.62450e-06;-0.0013727472138470988
6.62475e-06;-0.001442478420014588
6.62500e-06;-0.0015065167616527665
6.62525e-06;-0.0015658798446355675
6.62550e-06;-0.0016187744505267256
6.62575e-06;-0.0016663568268093878
6.62600e-06;-0.0017072586694097647
6.62625e-06;-0.0017426741311623284
6.62650e-06;-0.0017711397617440553
6.62675e-06;-0.0017938978512157407
6.62700e-06;-0.0018094403596213852
6.62725e-06;-0.0018190570801115754
6.62750e-06;-0.0018214953254441061
6.62775e-06;-0.0018180382560471335
6.62800e-06;-0.001807792978716641
6.62825e-06;-0.0017919728931799525
6.62850e-06;-0.0017697189435566393
6.62875e-06;-0.001742181190216689
6.62900e-06;-0.0017085660579771581
6.62925e-06;-0.0016699598850839618
6.62950e-06;-0.0016258225987397376
6.62975e-06;-0.0015771428916335347
6.63000e-06;-0.0015236993739605406
6.63025e-06;-0.0014663435821643475
6.63050e-06;-0.0014058811533205226
6.63075e-06;-0.001341042724809084
6.63100e-06;-0.0012730662185785517
6.63125e-06;-0.0012023011739978246
6.63150e-06;-0.0011291415119319488
6.63175e-06;-0.001054034166957099
6.63200e-06;-0.000977442647433558
6.63225e-06;-0.0008998210272850511
6.63250e-06;-0.000821618134359531
6.63275e-06;-0.0007432827234750181
6.63300e-06;-0.0006652635756968918
6.63325e-06;-0.0005880173023648428
6.63350e-06;-0.0005120284547031211
6.63375e-06;-0.00043781465327447425
6.63400e-06;-0.0003659038847088743
6.63425e-06;-0.0002968181999911232
6.63450e-06;-0.00023107628473093396
6.63475e-06;-0.00016919679030124945
6.63500e-06;-0.00011169796600378109
6.63525e-06;-5.864973881549705e-05
6.63550e-06;-8.895055351518472e-06
6.63575e-06;3.940911430437098e-05
6.63600e-06;8.72638056195023e-05
6.63625e-06;0.00013459672455124033
6.63650e-06;0.00018101120911302715
6.63675e-06;0.00022611067696261215
6.63700e-06;0.0002694988201223572
6.63725e-06;0.0003108735081604076
6.63750e-06;0.0003512945377132249
6.63775e-06;0.0003918880809757625
6.63800e-06;0.00043262330093041354
6.63825e-06;0.00047337309820608874
6.63850e-06;0.0005141348670905331
6.63875e-06;0.0005548966359751156
6.63900e-06;0.0005955887645383632
6.63925e-06;0.0006349314389650785
6.63950e-06;0.0006742741133919272
6.63975e-06;0.0007136167878186426
6.64000e-06;0.0007531919343659594
6.64025e-06;0.0007929579983831577
6.64050e-06;0.0008327240624003559
6.64075e-06;0.0008724901264176889
6.64100e-06;0.0009121779238021351
6.64125e-06;0.0009503491108453106
6.64150e-06;0.0009885202978886156
6.64175e-06;0.0010266914849317913
6.64200e-06;0.001064862671974967
6.64225e-06;0.0011024168973856397
6.64250e-06;0.0011394644437425561
6.64275e-06;0.0011758607670251523
6.64300e-06;0.0012111105539399857
6.64325e-06;0.0012451823256246642
6.64350e-06;0.0012780917267173914
6.64375e-06;0.0013099597877625343
6.64400e-06;0.0013407779454043985
6.64425e-06;0.0013703724882902773
6.64450e-06;0.0013985195908249389
6.64475e-06;0.0014249955256116918
6.64500e-06;0.0014495765834709078
6.64525e-06;0.0014717721570741168
6.64550e-06;0.0014904035931762422
6.64575e-06;0.0015040223336012922
6.64600e-06;0.0015118468771306748
6.64625e-06;0.001513820088925961
6.64650e-06;0.0015100938499132703
6.64675e-06;0.0015008201985029328
6.64700e-06;0.0014861510452640518
6.64725e-06;0.0014643781702323923
6.64750e-06;0.0014387440984427104
6.64775e-06;0.0014059067822616027
6.64800e-06;0.0013671538096474512
6.64825e-06;0.0013215503704342017
6.64850e-06;0.0012703209931568327
6.64875e-06;0.001213092028349299
6.64900e-06;0.0011509359089654275
6.64925e-06;0.0010833295996092865
6.64950e-06;0.0010112473278098414
6.64975e-06;0.0009350015877194204
6.65000e-06;0.0008527446235962814
6.65025e-06;0.0007660606694104357
6.65050e-06;0.000675484537150086
6.65075e-06;0.0005815510388033823
6.65100e-06;0.0004847948585182347
6.65125e-06;0.0003856851047774522
6.65150e-06;0.0002845218135725344
6.65175e-06;0.0001815386438058228
6.65200e-06;7.713320677134973e-05
6.65225e-06;-2.8101535742325707e-05
6.65250e-06;-0.00013357633479886316
6.65275e-06;-0.0002382935490787675
6.65300e-06;-0.0003423886010169697
6.65325e-06;-0.00044509619640324227
6.65350e-06;-0.0005454075537820629
6.65375e-06;-0.000643181442933054
6.65400e-06;-0.0007378770494937016
6.65425e-06;-0.0008288421322301894
6.65450e-06;-0.0009153923379595984
6.65475e-06;-0.000996843388846424
6.65500e-06;-0.0010725112079254368
6.65525e-06;-0.0011418144854168767
6.65550e-06;-0.0012044976084983222
6.65575e-06;-0.0012606089090889513
6.65600e-06;-0.0013101802496871704
6.65625e-06;-0.0013530887321851785
6.65650e-06;-0.001389154157090778
6.65675e-06;-0.0014181963659802546
6.65700e-06;-0.0014400353396974194
6.65725e-06;-0.0014525967697827304
6.65750e-06;-0.001460236583485284
6.65775e-06;-0.0014603752188784348
6.65800e-06;-0.0014543535199416147
6.65825e-06;-0.0014412482998967977
6.65850e-06;-0.0014223257460333574
6.65875e-06;-0.0013966177328204783
6.65900e-06;-0.0013653371686762246
6.65925e-06;-0.0013276972718632785
6.65950e-06;-0.0012848347801811067
6.65975e-06;-0.001236466551524867
6.66000e-06;-0.001183576742512275
6.66025e-06;-0.0011259884817454693
6.66050e-06;-0.0010645416227098284
6.66075e-06;-0.0010000285244446297
6.66100e-06;-0.0009311972765281211
6.66125e-06;-0.0008592959625434373
6.66150e-06;-0.000784763289233305
6.66175e-06;-0.0007081126541351229
6.66200e-06;-0.0006298532279678892
6.66225e-06;-0.0005504561840786957
6.66250e-06;-0.00047037854732768304
6.66275e-06;-0.0003900773089168803
6.66300e-06;-0.00031000942237589525
6.66325e-06;-0.00023064765702778583
6.66350e-06;-0.00015251490393851667
6.66375e-06;-7.618074207945937e-05
6.66400e-06;-2.212145309058946e-06
6.66425e-06;6.884781103306422e-05
6.66450e-06;0.00013646494247560118
6.66475e-06;0.000200105108917837
6.66500e-06;0.00025923446017883975
6.66525e-06;0.00031363153991506126
6.66550e-06;0.00036394349624169876
6.66575e-06;0.0004113402802934311
6.66600e-06;0.0004564590428582797
6.66625e-06;0.0004992168959428433
6.66650e-06;0.0005393101496454232
6.66675e-06;0.000576435112906094
6.66700e-06;0.0006102883965899393
6.66725e-06;0.0006400472868674759
6.66750e-06;0.0006677058502075586
6.66775e-06;0.000693182435920707
6.66800e-06;0.0007168670749387359
6.66825e-06;0.0007385286109814429
6.66850e-06;0.0007585286759598867
6.66875e-06;0.0007761557206174814
6.66900e-06;0.0007918339249806934
6.66925e-06;0.0008047674480202247
6.66950e-06;0.0008154469045807867
6.66975e-06;0.000826126361141385
6.67000e-06;0.0008347553513830005
6.67025e-06;0.0008417003984448908
6.67050e-06;0.0008486454455068047
6.67075e-06;0.0008534372312712372
6.67100e-06;0.0008564606535944045
6.67125e-06;0.000859484075917582
6.67150e-06;0.0008603605724581483
6.67175e-06;0.0008594739085919903
6.67200e-06;0.0008585872447258294
6.67225e-06;0.0008577005808596714
6.67250e-06;0.0008568139169935135
6.67275e-06;0.0008559272531273526
6.67300e-06;0.0008549327737927001
6.67325e-06;0.0008518491020629758
6.67350e-06;0.0008487654303332411
6.67375e-06;0.0008456817586035167
6.67400e-06;0.0008425980868737819
6.67425e-06;0.0008395144151440576
6.67450e-06;0.0008364307434143332
6.67475e-06;0.0008343637933293271
6.67500e-06;0.0008331318247621137
6.67525e-06;0.0008318998561949003
6.67550e-06;0.0008306678876276828
6.67575e-06;0.0008294359190604696
6.67600e-06;0.0008282039504932562
6.67625e-06;0.0008269719819260387
6.67650e-06;0.0008257400133588253
6.67675e-06;0.0008247475668270163
6.67700e-06;0.0008283964544345723
6.67725e-06;0.000832045342042116
6.67750e-06;0.0008356942296496595
6.67775e-06;0.0008393431172572155
6.67800e-06;0.0008429920048647592
6.67825e-06;0.0008466408924723152
6.67850e-06;0.0008502897800798588
6.67875e-06;0.0008539386676874025
6.67900e-06;0.0008600769139282942
6.67925e-06;0.0008682595431726963
6.67950e-06;0.0008764421724170983
6.67975e-06;0.0008846248016615282
6.68000e-06;0.0008928074309059302
6.68025e-06;0.0009009900601503323
6.68050e-06;0.0009091726893947621
6.68075e-06;0.0009173553186391641
6.68100e-06;0.0009267749153678408
6.68125e-06;0.0009372103702645273
6.68150e-06;0.0009476458251611785
6.68175e-06;0.0009580812800578297
6.68200e-06;0.0009685167349545164
6.68225e-06;0.0009789521898511675
6.68250e-06;0.000989387644747854
6.68275e-06;0.0009998230996445053
6.68300e-06;0.0010101643648734453
6.68325e-06;0.0010204282769427809
6.68350e-06;0.0010306921890120815
6.68375e-06;0.001040474118449218
6.68400e-06;0.0010498602201868684
6.68425e-06;0.0010592463219244869
6.68450e-06;0.0010681503984162047
6.68475e-06;0.0010763525603783271
6.68500e-06;0.0010839584620546084
6.68525e-06;0.001090633139088892
6.68550e-06;0.0010953483301279201
6.68575e-06;0.0010967688944242477
6.68600e-06;0.0010941733435200255
6.68625e-06;0.0010875336364947464
6.68650e-06;0.0010760310725218317
6.68675e-06;0.001062003433695265
6.68700e-06;0.001044112305953025
6.68725e-06;0.0010230482922446423
6.68750e-06;0.0009973538223191005
6.68775e-06;0.000967856595386083
6.68800e-06;0.000933200192991635
6.68825e-06;0.0008943068234993598
6.68850e-06;0.0008519361733577046
6.68875e-06;0.0008046315918449912
6.68900e-06;0.0007537219617103938
6.68925e-06;0.0006994312227037551
6.68950e-06;0.0006417113339345146
6.68975e-06;0.0005803939495589281
6.69000e-06;0.0005155514747248811
6.69025e-06;0.0004475284272928971
6.69050e-06;0.0003767486988403955
6.69075e-06;0.0003036361284507978
6.69100e-06;0.0002286145072661034
6.69125e-06;0.00015204262375330489
6.69150e-06;7.41088008122013e-05
6.69175e-06;-5.073968372422699e-06
6.69200e-06;-8.53359358427829e-05
6.69225e-06;-0.00016604341398574726
6.69250e-06;-0.00024675089212898506
6.69275e-06;-0.00032680804111112594
6.69300e-06;-0.00040633111462046146
6.69325e-06;-0.0004842124674152547
6.69350e-06;-0.0005607455589026176
6.69375e-06;-0.0006349260846607438
6.69400e-06;-0.0007071745684361721
6.69425e-06;-0.0007760432664570937
6.69450e-06;-0.0008421363191945086
