Time(s);Current(A)
9.50000e-06;0.0038672056339095315
9.50025e-06;0.003911471400546574
9.50050e-06;0.003954390288984363
9.50075e-06;0.003997309177422441
9.50100e-06;0.004040228065860521
9.50125e-06;0.004083146954298309
9.50150e-06;0.0041260658427363876
9.50175e-06;0.004168984731174467
9.50200e-06;0.004211903619612255
9.50225e-06;0.0042548225080503346
9.50250e-06;0.004285858193600887
9.50275e-06;0.00430821578202767
9.50300e-06;0.004330573370454604
9.50325e-06;0.004352930958881539
9.50350e-06;0.0043752885473084735
9.50375e-06;0.004397646135735256
9.50400e-06;0.004420003724162191
9.50425e-06;0.004442361312589124
9.50450e-06;0.004464718901015907
9.50475e-06;0.00447397071556564
9.50500e-06;0.0044736516105853006
9.50525e-06;0.004473332505604963
9.50550e-06;0.004473013400624624
9.50575e-06;0.004472694295644285
9.50600e-06;0.004472375190663949
9.50625e-06;0.004472056085683609
9.50650e-06;0.00447173698070327
9.50675e-06;0.0044714178757229335
9.50700e-06;0.0044710987707425945
9.50725e-06;0.0044707796657622555
9.50750e-06;0.004461760869854213
9.50775e-06;0.00444638884043319
9.50800e-06;0.004431016811012167
9.50825e-06;0.004415644781591248
9.50850e-06;0.004400272752170225
9.50875e-06;0.004384900722749201
9.50900e-06;0.004369528693328282
9.50925e-06;0.004354156663907259
9.50950e-06;0.004338784634486235
9.50975e-06;0.004323412605065316
9.51000e-06;0.004308040575644293
9.51025e-06;0.004292194397960049
9.51050e-06;0.004276001958016584
9.51075e-06;0.0042598095180730105
9.51100e-06;0.004243617078129437
9.51125e-06;0.004227424638185972
9.51150e-06;0.004211232198242399
9.51175e-06;0.004195039758298824
9.51200e-06;0.0041788473183552504
9.51225e-06;0.004162654878411786
9.51250e-06;0.004146462438468212
9.51275e-06;0.004138903374753098
9.51300e-06;0.004137649116075741
9.51325e-06;0.004136394857398376
9.51350e-06;0.004135140598721011
9.51375e-06;0.0041338863400436545
9.51400e-06;0.004132632081366289
9.51425e-06;0.004131377822688924
9.51450e-06;0.004130123564011568
9.51475e-06;0.004128869305334203
9.51500e-06;0.0041276150466568375
9.51525e-06;0.0041390994390853985
9.51550e-06;0.004159886647648204
9.51575e-06;0.004180673856211009
9.51600e-06;0.004201461064773674
9.51625e-06;0.00422224827333648
9.51650e-06;0.004243035481899285
9.51675e-06;0.004263822690461949
9.51700e-06;0.004284609899024756
9.51725e-06;0.004305397107587561
9.51750e-06;0.004326184316150225
9.51775e-06;0.004347968393253328
9.51800e-06;0.004381545765174187
9.51825e-06;0.004415123137094817
9.51850e-06;0.004448700509015675
9.51875e-06;0.004482277880936533
9.51900e-06;0.004515855252857164
9.51925e-06;0.004549432624778022
9.51950e-06;0.0045830099966988795
9.51975e-06;0.004616587368619511
9.52000e-06;0.004650164740540369
9.52025e-06;0.004683742112461226
9.52050e-06;0.004714949914137764
9.52075e-06;0.004744427259730446
9.52100e-06;0.004773904605323329
9.52125e-06;0.004803381950916211
9.52150e-06;0.004832859296508894
9.52175e-06;0.004862336642101776
9.52200e-06;0.004891813987694659
9.52225e-06;0.004921291333287341
9.52250e-06;0.004948963897064973
9.52275e-06;0.004955285276432022
9.52300e-06;0.0049616066557990265
9.52325e-06;0.004967928035166075
9.52350e-06;0.004974249414533122
9.52375e-06;0.004980570793900128
9.52400e-06;0.0049868921732671755
9.52425e-06;0.004993213552634224
9.52450e-06;0.004999534932001229
9.52475e-06;0.004985679022489527
9.52500e-06;0.004957087988590406
9.52525e-06;0.004928496954691478
9.52550e-06;0.004899905920792356
9.52575e-06;0.004871314886893234
9.52600e-06;0.004842723852994306
9.52625e-06;0.0048141328190951845
9.52650e-06;0.004785541785196063
9.52675e-06;0.004756950751297134
9.52700e-06;0.004712656876741783
9.52725e-06;0.00465689548979093
9.52750e-06;0.0046011341028404555
9.52775e-06;0.004545372715889603
9.52800e-06;0.00448961132893875
9.52825e-06;0.004433849941988275
9.52850e-06;0.004378088555037423
9.52875e-06;0.00432232716808657
9.52900e-06;0.004266565781135717
9.52925e-06;0.004206437761068405
9.52950e-06;0.004143120864510597
9.52975e-06;0.004079803967952789
9.53000e-06;0.00401648707139541
9.53025e-06;0.0039531701748376025
9.53050e-06;0.003889853278279794
9.53075e-06;0.003826536381722415
9.53100e-06;0.0037699861376521847
9.53125e-06;0.003718377462625717
9.53150e-06;0.0036667687875995988
9.53175e-06;0.0036151601125731306
9.53200e-06;0.003563551437546663
9.53225e-06;0.0035119427625205446
9.53250e-06;0.003460334087494077
9.53275e-06;0.003417823441584189
9.53300e-06;0.0033819569286674496
9.53325e-06;0.0033460904157504674
9.53350e-06;0.003310223902833485
9.53375e-06;0.0032743573899167463
9.53400e-06;0.003238490876999764
9.53425e-06;0.003202624364082782
9.53450e-06;0.0031667578511660427
9.53475e-06;0.0031308913382490605
9.53500e-06;0.0030950248253320783
9.53525e-06;0.003062294836204517
9.53550e-06;0.0030318553960435274
9.53575e-06;0.003001415955882538
9.53600e-06;0.002970976515721754
9.53625e-06;0.0029405370755607647
9.53650e-06;0.002910097635399775
9.53675e-06;0.0028796581952389914
9.53700e-06;0.0028492187550780016
9.53725e-06;0.0028187793149170117
9.53750e-06;0.002788339874756022
9.53775e-06;0.002759128891797673
9.53800e-06;0.0027308150298447856
9.53825e-06;0.002702501167891898
9.53850e-06;0.002674187305939202
9.53875e-06;0.0026458734439863147
9.53900e-06;0.002617559582033427
9.53925e-06;0.002589245720080731
9.53950e-06;0.0025609318581278433
9.53975e-06;0.002532617996174956
9.54000e-06;0.002507426754745629
9.54025e-06;0.0024845159089692303
9.54050e-06;0.002461605063192831
9.54075e-06;0.0024386942174165873
9.54100e-06;0.0024157833716401886
9.54125e-06;0.0023928725258637895
9.54150e-06;0.0023699616800875456
9.54175e-06;0.002347050834311147
9.54200e-06;0.002324139988534748
9.54225e-06;0.0023107501361125013
9.54250e-06;0.0023043133001380356
9.54275e-06;0.00229787646416357
9.54300e-06;0.0022914396281891476
9.54325e-06;0.002285002792214682
9.54350e-06;0.002278565956240216
9.54375e-06;0.0022721291202657938
9.54400e-06;0.002265692284291328
9.54425e-06;0.0022779745137773725
9.54450e-06;0.002303926952368289
9.54475e-06;0.0023298793909593807
9.54500e-06;0.002355831829550473
9.54525e-06;0.002381784268141389
9.54550e-06;0.0024077367067324813
9.54575e-06;0.0024336891453235732
9.54600e-06;0.0024596415839146656
9.54625e-06;0.0024983764615884897
9.54650e-06;0.0025464461330057656
9.54675e-06;0.002594515804423042
9.54700e-06;0.0026511858049685674
9.54725e-06;0.0027141364768339575
9.54750e-06;0.0027770871486993472
9.54775e-06;0.0028400378205643106
9.54800e-06;0.0029029884924297008
9.54825e-06;0.0029659391642950905
9.54850e-06;0.003029669099425922
9.54875e-06;0.003102617984791096
9.54900e-06;0.0031755668701562703
9.54925e-06;0.0032485157555209505
9.54950e-06;0.003321464640886125
9.54975e-06;0.0033944135262512993
9.55000e-06;0.0034673624116159795
9.55025e-06;0.003535500965000705
9.55050e-06;0.0036001266163024114
9.55075e-06;0.00366475226760368
9.55100e-06;0.0037293779189053865
9.55125e-06;0.003794003570207093
9.55150e-06;0.0038586292215083617
9.55175e-06;0.003923254872810068
9.55200e-06;0.003987880524111775
9.55225e-06;0.0040502645299147835
9.55250e-06;0.0040861291048590554
9.55275e-06;0.004121993679803327
9.55300e-06;0.004157858254747356
9.55325e-06;0.0041937228296916275
9.55350e-06;0.004229587404635899
9.55375e-06;0.004265451979579928
9.55400e-06;0.0043013165545242
9.55425e-06;0.004337181129468471
9.55450e-06;0.004354191336464161
9.55475e-06;0.004357432525288319
9.55500e-06;0.004360673714112501
9.55525e-06;0.004363914902936682
9.55550e-06;0.004367156091760842
9.55575e-06;0.004370397280585022
9.55600e-06;0.004373638469409203
9.55625e-06;0.004376879658233363
9.55650e-06;0.004380120847057544
9.55675e-06;0.0043833620358817256
9.55700e-06;0.00437280241776977
9.55725e-06;0.004352164309516263
9.55750e-06;0.004331526201262755
9.55775e-06;0.004310888093009388
9.55800e-06;0.004290249984755881
9.55825e-06;0.0042696118765023746
9.55850e-06;0.0042489737682490075
9.55875e-06;0.004228335659995501
9.55900e-06;0.004207697551741993
9.55925e-06;0.004187059443488626
9.55950e-06;0.004162330745260715
9.55975e-06;0.0041346147600631175
9.56000e-06;0.0041068987748657075
9.56025e-06;0.00407918278966811
9.56050e-06;0.004051466804470513
9.56075e-06;0.004023750819273103
9.56100e-06;0.003996034834075506
9.56125e-06;0.003968318848877908
9.56150e-06;0.003945681325229704
9.56175e-06;0.003926752514042779
9.56200e-06;0.003907823702855855
9.56225e-06;0.0038888948916690584
9.56250e-06;0.003869966080482134
9.56275e-06;0.0038510372692952093
9.56300e-06;0.0038321084581084126
9.56325e-06;0.003813179646921488
9.56350e-06;0.0038106685079045332
9.56375e-06;0.0038201469103616064
9.56400e-06;0.003829625312818615
9.56425e-06;0.003839103715275688
9.56450e-06;0.003848582117732761
9.56475e-06;0.00385806052018977
9.56500e-06;0.0038675389226468433
9.56525e-06;0.003877017325103916
9.56550e-06;0.003886495727560925
9.56575e-06;0.003895974130017998
9.56600e-06;0.003907892767448602
9.56625e-06;0.003948680216998439
9.56650e-06;0.0039894676665485525
9.56675e-06;0.004030255116098666
9.56700e-06;0.004071042565648503
9.56725e-06;0.004111830015198617
9.56750e-06;0.004152617464748731
9.56775e-06;0.004193404914298568
9.56800e-06;0.0042341923638486816
9.56825e-06;0.004274979813398795
9.56850e-06;0.004315767262948632
9.56875e-06;0.004363609302461565
9.56900e-06;0.004416603186771692
9.56925e-06;0.004469597071081459
9.56950e-06;0.004522590955391585
9.56975e-06;0.0045755848397017115
9.57000e-06;0.004628578724011479
9.57025e-06;0.004681572608321605
9.57050e-06;0.004734566492631731
9.57075e-06;0.00478228483222992
9.57100e-06;0.004826150532947935
9.57125e-06;0.004870016233665951
9.57150e-06;0.004913881934383669
9.57175e-06;0.004957747635101684
9.57200e-06;0.0050016133358196995
9.57225e-06;0.005045479036537715
9.57250e-06;0.005089344737255434
9.57275e-06;0.0051207235838308055
9.57300e-06;0.00514298349721572
9.57325e-06;0.005165243410600484
9.57350e-06;0.005187503323985398
9.57375e-06;0.005209763237370313
9.57400e-06;0.005232023150755076
9.57425e-06;0.00525428306413999
9.57450e-06;0.005276542977524905
9.57475e-06;0.005298802890909668
9.57500e-06;0.005321062804294583
9.57525e-06;0.005343322717679498
9.57550e-06;0.0053655826310642606
9.57575e-06;0.005387842544449175
9.57600e-06;0.005410102457834089
9.57625e-06;0.005432362371218853
9.57650e-06;0.005446406185765649
9.57675e-06;0.005454449925710346
9.57700e-06;0.005462493665654988
9.57725e-06;0.005470537405599684
9.57750e-06;0.005478581145544381
9.57775e-06;0.005486624885489023
9.57800e-06;0.005494668625433719
9.57825e-06;0.005502712365378416
9.57850e-06;0.005510756105323058
9.57875e-06;0.005518799845267754
9.57900e-06;0.005526843585212451
9.57925e-06;0.005534887325157093
9.57950e-06;0.005542931065101789
9.57975e-06;0.005550974805046485
9.58000e-06;0.0055590185449911275
9.58025e-06;0.005564423136681907
9.58050e-06;0.00556790040413722
9.58075e-06;0.005571377671592532
9.58100e-06;0.005574854939047821
9.58125e-06;0.005578332206503134
9.58150e-06;0.005581809473958446
9.58175e-06;0.005585286741413735
9.58200e-06;0.005588764008869048
9.58225e-06;0.005586711745460153
9.58250e-06;0.005580621361483486
9.58275e-06;0.005574530977506778
9.58300e-06;0.00556844059353007
9.58325e-06;0.005562350209553402
9.58350e-06;0.005556259825576695
9.58375e-06;0.005550169441599986
9.58400e-06;0.005544079057623319
9.58425e-06;0.005521524450168013
9.58450e-06;0.0054869463056176895
9.58475e-06;0.005452368161067601
9.58500e-06;0.005417790016517278
9.58525e-06;0.005383211871966954
9.58550e-06;0.005348633727416865
9.58575e-06;0.005314055582866541
9.58600e-06;0.005279477438316218
9.58625e-06;0.0052448992937661285
9.58650e-06;0.005210321149215805
9.58675e-06;0.0051596912412443805
9.58700e-06;0.005097339008609782
9.58725e-06;0.005034986775974761
9.58750e-06;0.00497263454333974
9.58775e-06;0.004910282310705141
9.58800e-06;0.00484793007807012
9.58825e-06;0.004785577845435099
9.58850e-06;0.0047232256128005
9.58875e-06;0.004660873380165478
9.58900e-06;0.004598521147530458
9.58925e-06;0.0045324818747190495
9.58950e-06;0.004463750020360206
9.58975e-06;0.004395018166000898
9.59000e-06;0.004326286311641589
9.59025e-06;0.004257554457282746
9.59050e-06;0.004188822602923437
9.59075e-06;0.004120090748564128
9.59100e-06;0.004052563367869892
9.59125e-06;0.003999285321520207
9.59150e-06;0.003946007275170523
9.59175e-06;0.0038927292288211996
9.59200e-06;0.003839451182471515
9.59225e-06;0.0037861731361218307
9.59250e-06;0.0037328950897725075
9.59275e-06;0.003679617043422823
9.59300e-06;0.0036391049268958463
9.59325e-06;0.003607915547698428
9.59350e-06;0.0035767261685007976
9.59375e-06;0.0035455367893031677
9.59400e-06;0.003514347410105749
9.59425e-06;0.003483158030908119
9.59450e-06;0.003451968651710489
9.59475e-06;0.0034207792725130704
9.59500e-06;0.0033895898933154404
9.59525e-06;0.0033584005141178105
9.59550e-06;0.0033272111349203918
9.59575e-06;0.0033049449544563497
9.59600e-06;0.0032891952313984945
9.59625e-06;0.003273445508340746
9.59650e-06;0.003257695785282891
9.59675e-06;0.0032419460622250353
9.59700e-06;0.003226196339167287
9.59725e-06;0.0032104466161094317
9.59750e-06;0.0031946968930515766
9.59775e-06;0.003178947169993721
9.59800e-06;0.0031631974469359726
9.59825e-06;0.0031474477238781174
9.59850e-06;0.0031361203405381945
9.59875e-06;0.003128022515260451
9.59900e-06;0.0031199246899826522
9.59925e-06;0.003111826864704854
9.59950e-06;0.00310372903942711
9.59975e-06;0.0030956312141493117
9.60000e-06;0.003087533388871513
9.60025e-06;0.0030794355635937695
9.60050e-06;0.003071337738315971
9.60075e-06;0.003063558075575505
9.60100e-06;0.003059542384193209
9.60125e-06;0.003055526692810886
9.60150e-06;0.003051511001428563
9.60175e-06;0.0030474953100462668
9.60200e-06;0.003043479618663944
9.60225e-06;0.0030394639272816205
9.60250e-06;0.0030354482358993244
9.60275e-06;0.0030314325445170015
9.60300e-06;0.003027416853134678
9.60325e-06;0.003034039959706199
9.60350e-06;0.003048432396066743
9.60375e-06;0.003062824832427287
9.60400e-06;0.003077217268787733
9.60425e-06;0.0030916097051482774
9.60450e-06;0.0031060021415088212
9.60475e-06;0.0031203945778692675
9.60500e-06;0.0031347870142298113
9.60525e-06;0.003149179450590355
9.60550e-06;0.0031635718869508014
9.60575e-06;0.0031779643233113457
9.60600e-06;0.003194249136688497
9.60625e-06;0.0032329214157691384
9.60650e-06;0.0032715936948495184
9.60675e-06;0.00331026597393016
9.60700e-06;0.0033489382530108016
9.60725e-06;0.0033876105320911815
9.60750e-06;0.0034262828111718234
9.60775e-06;0.0034649550902524653
9.60800e-06;0.0035036273693328447
9.60825e-06;0.0035422996484134866
9.60850e-06;0.0035809719274941284
9.60875e-06;0.003619644206574508
9.60900e-06;0.0036627185973594598
9.60925e-06;0.0037090077740396074
9.60950e-06;0.003755296950719441
9.60975e-06;0.0038015861273995887
9.61000e-06;0.0038478753040797364
9.61025e-06;0.0038941644807595705
9.61050e-06;0.003940453657439718
9.61075e-06;0.003986742834119866
9.61100e-06;0.004027143703470652
9.61125e-06;0.00406324444401515
9.61150e-06;0.004099345184559648
9.61175e-06;0.004135445925103901
9.61200e-06;0.004171546665648399
9.61225e-06;0.004207647406192897
9.61250e-06;0.0042437481467371505
9.61275e-06;0.0042798488872816485
9.61300e-06;0.004312474864352554
9.61325e-06;0.004342563281870947
9.61350e-06;0.0043726516993895445
9.61375e-06;0.0044027401169081425
9.61400e-06;0.004432828534426536
9.61425e-06;0.004462916951945133
9.61450e-06;0.00449300536946373
9.61475e-06;0.004523093786982328
9.61500e-06;0.004553182204500721
9.61525e-06;0.004583270622019318
9.61550e-06;0.004613359039537916
9.61575e-06;0.00464344745705631
9.61600e-06;0.004673535874574907
9.61625e-06;0.004706565531968635
9.61650e-06;0.004741743125875881
9.61675e-06;0.004776920719783366
9.61700e-06;0.00481209831369085
9.61725e-06;0.004847275907598096
9.61750e-06;0.004882453501505581
9.61775e-06;0.004917631095413066
9.61800e-06;0.004952808689320312
9.61825e-06;0.004987986283227797
9.61850e-06;0.005023163877135282
9.61875e-06;0.005058341471042528
9.61900e-06;0.005093519064950013
9.61925e-06;0.0051286966588574975
9.61950e-06;0.0051616588431990275
9.61975e-06;0.005193003152324285
9.62000e-06;0.0052243474614495425
9.62025e-06;0.0052556917705745875
9.62050e-06;0.005287036079699845
9.62075e-06;0.005318380388825103
9.62100e-06;0.005349724697950148
9.62125e-06;0.005381069007075406
9.62150e-06;0.005412413316200663
9.62175e-06;0.005443757625325708
9.62200e-06;0.005475101934450966
9.62225e-06;0.005505372428072437
9.62250e-06;0.005522939317920715
9.62275e-06;0.005540506207769113
9.62300e-06;0.0055580730976175115
9.62325e-06;0.00557563998746591
9.62350e-06;0.005593206877314189
9.62375e-06;0.005610773767162587
9.62400e-06;0.0056283406570109855
9.62425e-06;0.005645907546859264
9.62450e-06;0.005663474436707662
9.62475e-06;0.00568104132655606
9.62500e-06;0.00569860821640434
9.62525e-06;0.005711372322009447
9.62550e-06;0.005720629037505191
9.62575e-06;0.005729885753000873
9.62600e-06;0.005739142468496617
9.62625e-06;0.005748399183992362
9.62650e-06;0.005757655899488043
9.62675e-06;0.005766912614983787
9.62700e-06;0.005776169330479531
9.62725e-06;0.005785426045975213
9.62750e-06;0.005794682761470957
9.62775e-06;0.0058039394769667015
9.62800e-06;0.005813196192462383
9.62825e-06;0.005822452907958128
9.62850e-06;0.005831709623453871
9.62875e-06;0.005840966338949553
9.62900e-06;0.005849837481276931
9.62925e-06;0.005854147161469634
9.62950e-06;0.005858456841662308
9.62975e-06;0.005862766521855011
9.63000e-06;0.005867076202047714
9.63025e-06;0.005871385882240388
9.63050e-06;0.005875695562433092
9.63075e-06;0.005880005242625794
9.63100e-06;0.005884314922818468
9.63125e-06;0.005888624603011172
9.63150e-06;0.005892934283203874
9.63175e-06;0.005897243963396578
9.63200e-06;0.005901553643589252
9.63225e-06;0.005905863323781955
9.63250e-06;0.005910173003974658
9.63275e-06;0.005914482684167332
9.63300e-06;0.005909429459782879
9.63325e-06;0.005897538668426309
9.63350e-06;0.0058856478770698195
9.63375e-06;0.005873757085713249
9.63400e-06;0.005861866294356679
9.63425e-06;0.0058499755030001896
9.63450e-06;0.00583808471164362
9.63475e-06;0.00582619392028705
9.63500e-06;0.0058143031289305605
9.63525e-06;0.00580241233757399
9.63550e-06;0.00579052154621742
9.63575e-06;0.0057786307548609315
9.63600e-06;0.005765043604909903
9.63625e-06;0.0057313879539961695
9.63650e-06;0.005697732303082664
9.63675e-06;0.00566407665216893
9.63700e-06;0.0056304210012551965
9.63725e-06;0.005596765350341691
9.63750e-06;0.0055631096994279575
9.63775e-06;0.0055294540485142235
9.63800e-06;0.0054957983976007185
9.63825e-06;0.0054621427466869845
9.63850e-06;0.0054284870957732505
9.63875e-06;0.0053948314448597455
9.63900e-06;0.0053611757939460115
9.63925e-06;0.005324929863734697
9.63950e-06;0.005286792297436709
9.63975e-06;0.005248654731138463
9.64000e-06;0.005210517164840217
9.64025e-06;0.00517237959854197
9.64050e-06;0.0051342420322439825
9.64075e-06;0.005096104465945736
9.64100e-06;0.005057966899647489
9.64125e-06;0.005019829333349502
9.64150e-06;0.004981691767051255
9.64175e-06;0.0049509869591907755
9.64200e-06;0.004925710166023951
9.64225e-06;0.004900433372856956
9.64250e-06;0.004875156579689961
9.64275e-06;0.004849879786523138
9.64300e-06;0.004824602993356143
9.64325e-06;0.004799326200189148
9.64350e-06;0.004774049407022324
9.64375e-06;0.004748772613855329
9.64400e-06;0.0047234958206883336
9.64425e-06;0.004706325099326367
9.64450e-06;0.004695074101743296
9.64475e-06;0.004683823104160225
9.64500e-06;0.0046725721065772295
9.64525e-06;0.004661321108994158
9.64550e-06;0.004650070111411087
9.64575e-06;0.004638819113828092
9.64600e-06;0.00462756811624502
9.64625e-06;0.004616317118661949
9.64650e-06;0.004605066121078954
9.64675e-06;0.004593815123495882
9.64700e-06;0.0045825641259128105
9.64725e-06;0.004571313128329816
9.64750e-06;0.004560062130746744
9.64775e-06;0.004548811133163673
9.64800e-06;0.004537560135580678
9.64825e-06;0.0045263091379976065
9.64850e-06;0.004515058140414535
9.64875e-06;0.004508034638626435
9.64900e-06;0.0045040984037648495
9.64925e-06;0.004500162168903237
9.64950e-06;0.004496225934041625
9.64975e-06;0.004492289699180039
9.65000e-06;0.004488353464318427
