Time(s);Current(A)
1.30000e-05;-0.005716443015100606
1.30003e-05;-0.005713102326532032
1.30005e-05;-0.0057097616379634805
1.30008e-05;-0.005708877132657347
1.30010e-05;-0.005708024095962679
1.30013e-05;-0.005707171059268016
1.30015e-05;-0.005706318022573348
1.30018e-05;-0.005705464985878679
1.30020e-05;-0.005704611949184017
1.30023e-05;-0.0057037589124893495
1.30025e-05;-0.005702905875794681
1.30028e-05;-0.005704750809363668
1.30030e-05;-0.005709433773187246
1.30033e-05;-0.005714116737010824
1.30035e-05;-0.005718799700834371
1.30038e-05;-0.0057234826646579496
1.30040e-05;-0.005728165628481528
1.30043e-05;-0.005732848592305074
1.30045e-05;-0.005737531556128652
1.30048e-05;-0.005742214519952231
1.30050e-05;-0.005751994588975201
1.30053e-05;-0.0057618399620924625
1.30055e-05;-0.005771685335209724
1.30058e-05;-0.005781530708326986
1.30060e-05;-0.00579137608144418
1.30063e-05;-0.005801221454561442
1.30065e-05;-0.0058110668276787035
1.30068e-05;-0.005820912200795898
1.30070e-05;-0.005830757573913159
1.30073e-05;-0.005842498990338773
1.30075e-05;-0.005854264698864668
1.30078e-05;-0.005866030407390643
1.30080e-05;-0.005877796115916619
1.30083e-05;-0.005889561824442515
1.30085e-05;-0.00590132753296849
1.30088e-05;-0.005913093241494466
1.30090e-05;-0.005924858950020362
1.30093e-05;-0.005936624658546338
1.30095e-05;-0.005945639221769653
1.30098e-05;-0.0059546185373286695
1.30100e-05;-0.005963597852887747
1.30103e-05;-0.005972577168446824
1.30105e-05;-0.0059815564840058405
1.30108e-05;-0.005990535799564919
1.30110e-05;-0.005999515115123996
1.30113e-05;-0.006003574612188251
1.30115e-05;-0.00600245888774386
1.30118e-05;-0.006001343163299468
1.30120e-05;-0.0060002274388550846
1.30123e-05;-0.005999111714410693
1.30125e-05;-0.0059979959899663015
1.30128e-05;-0.005996880265521917
1.30130e-05;-0.005995764541077526
1.30133e-05;-0.005982110953059477
1.30135e-05;-0.005968296729975988
1.30138e-05;-0.005954482506892405
1.30140e-05;-0.0059406682838088224
1.30143e-05;-0.00592685406072524
1.30145e-05;-0.005908209439033497
1.30148e-05;-0.005884483657782413
1.30150e-05;-0.00586075787653133
1.30153e-05;-0.005837032095280407
1.30155e-05;-0.005813306314029322
1.30158e-05;-0.005789580532778239
1.30160e-05;-0.005758875950488658
1.30163e-05;-0.005728081955823513
1.30165e-05;-0.005697287961158367
1.30168e-05;-0.0056664939664934294
1.30170e-05;-0.005635699971828284
1.30173e-05;-0.005601709559256989
1.30175e-05;-0.005567678194190452
1.30178e-05;-0.005533646829123685
1.30180e-05;-0.005499615464056919
1.30183e-05;-0.005465584098990383
1.30185e-05;-0.005431465515420583
1.30188e-05;-0.005397345814407614
1.30190e-05;-0.00536395278099658
1.30193e-05;-0.005331256414854494
1.30195e-05;-0.0052993973619438455
1.30198e-05;-0.005268563637809287
1.30200e-05;-0.005242573613801152
1.30203e-05;-0.005216645480700383
1.30205e-05;-0.00519071734759979
1.30208e-05;-0.005246179845821056
1.30210e-05;-0.009009092457054054
1.30213e-05;-0.013917268854728838
1.30215e-05;-0.015163510561427257
1.30218e-05;-0.013728252785004193
1.30220e-05;-0.0106676871329247
1.30223e-05;-0.00706956962664872
1.30225e-05;-0.005302963869133844
1.30228e-05;-0.005624324211147297
1.30230e-05;-0.0077035448499317314
1.30233e-05;-0.010288147481751008
1.30235e-05;-0.011331614620021246
1.30238e-05;-0.010547932093555507
1.30240e-05;-0.008552705516989452
1.30243e-05;-0.00629127144669726
1.30245e-05;-0.00503189130138597
1.30248e-05;-0.005163482551784831
1.30250e-05;-0.00647387576914615
1.30253e-05;-0.008371444625977277
1.30255e-05;-0.009142404361559107
1.30258e-05;-0.008384325598678986
1.30260e-05;-0.006912967898521531
1.30263e-05;-0.005417045620224315
1.30265e-05;-0.004266270394120713
1.30268e-05;-0.004105180312304831
1.30270e-05;-0.004839568846376737
1.30273e-05;-0.005829779555474721
1.30275e-05;-0.006624236486505197
1.30278e-05;-0.0065181082268967044
1.30280e-05;-0.005654927934675323
1.30283e-05;-0.004713043810811104
1.30285e-05;-0.003987877918495258
1.30288e-05;-0.003883147190641537
1.30290e-05;-0.004339805379889632
1.30293e-05;-0.0049571600807518665
1.30295e-05;-0.00545236402283283
1.30298e-05;-0.005383966849686542
1.30300e-05;-0.004841947808234898
1.30303e-05;-0.004251272726014405
1.30305e-05;-0.003797015915722946
1.30308e-05;-0.0037320837982111606
1.30310e-05;-0.004019633412897093
1.30313e-05;-0.004409124463144941
1.30315e-05;-0.004723906435860699
1.30318e-05;-0.00468763745783742
1.30320e-05;-0.004356617600995787
1.30323e-05;-0.003996946203952131
1.30325e-05;-0.0037244364135873478
1.30328e-05;-0.0036973809496594757
1.30330e-05;-0.0038925667296366203
1.30333e-05;-0.004152930211470141
1.30335e-05;-0.004367704094344257
1.30338e-05;-0.004363688557693737
1.30340e-05;-0.0041760561720108995
1.30343e-05;-0.003971388447403242
1.30345e-05;-0.003822117626637796
1.30348e-05;-0.003827276676054125
1.30350e-05;-0.003972200118179217
1.30353e-05;-0.004158384457917236
1.30355e-05;-0.004316333538365945
1.30358e-05;-0.004337451058142591
1.30360e-05;-0.004243670005172033
1.30363e-05;-0.004139232115199758
1.30365e-05;-0.004069396456798202
1.30368e-05;-0.00409608098743175
1.30370e-05;-0.004209979657225055
1.30373e-05;-0.004349273905667492
1.30375e-05;-0.004470321305029538
1.30378e-05;-0.004504991290223938
1.30380e-05;-0.00446691943687271
1.30383e-05;-0.004421295423344255
1.30385e-05;-0.004396358618441263
1.30388e-05;-0.004430779939395922
1.30390e-05;-0.004518615299350114
1.30393e-05;-0.004621027469985749
1.30395e-05;-0.004710568516134941
1.30398e-05;-0.004744454682233264
1.30400e-05;-0.004731120728658862
1.30403e-05;-0.004711294390911175
1.30405e-05;-0.004702553700731799
1.30408e-05;-0.00472902380914032
1.30410e-05;-0.004787001455730499
1.30413e-05;-0.004852478510395254
1.30415e-05;-0.004908726365985138
1.30418e-05;-0.004929196907764122
1.30420e-05;-0.0049192426512862045
1.30423e-05;-0.004904425550365249
1.30425e-05;-0.004895804851255314
1.30428e-05;-0.004908539914322179
1.30430e-05;-0.004940357605643942
1.30433e-05;-0.004976266175057116
1.30435e-05;-0.005005836250094753
1.30438e-05;-0.005012487357508385
1.30440e-05;-0.004999623142229286
1.30443e-05;-0.0049833048458915365
1.30445e-05;-0.004970508416453733
1.30448e-05;-0.0049707775165130355
1.30450e-05;-0.004982735993541952
1.30453e-05;-0.004997040873753763
1.30455e-05;-0.005007207649884329
1.30458e-05;-0.005002899477980389
1.30460e-05;-0.004986298229143692
1.30463e-05;-0.0049675139093136025
1.30465e-05;-0.004950965347542176
1.30468e-05;-0.004942678385366002
1.30470e-05;-0.004941838043446741
1.30473e-05;-0.004942640734827409
1.30475e-05;-0.004941073206251413
1.30478e-05;-0.004930709464268064
1.30480e-05;-0.004912965617430349
1.30482e-05;-0.004894223567724853
1.30485e-05;-0.004877299142562027
1.30488e-05;-0.004866015540915537
1.30490e-05;-0.004859910625028525
1.30493e-05;-0.004855396980340425
1.30495e-05;-0.0048500089856029
1.30498e-05;-0.004839770613601536
1.30500e-05;-0.004825617770941802
1.30503e-05;-0.004812641714535572
1.30505e-05;-0.004803960546376723
1.30508e-05;-0.004795279378217932
1.30510e-05;-0.004788064870595608
1.30513e-05;-0.0047846944314676775
1.30515e-05;-0.004778499894583094
1.30518e-05;-0.004772305357698467
1.30520e-05;-0.004765069891369691
1.30523e-05;-0.004755081859516436
1.30525e-05;-0.004747019865649277
1.30528e-05;-0.004738957871782118
1.30530e-05;-0.004731330732867624
1.30533e-05;-0.0047251034444724576
1.30535e-05;-0.004718876156077291
1.30538e-05;-0.004711483368113782
1.30540e-05;-0.004700338696524646
1.30543e-05;-0.00468944834334275
1.30545e-05;-0.004679376671774961
1.30548e-05;-0.004669305000207104
1.30550e-05;-0.0046592333286392465
1.30553e-05;-0.004648828783331112
1.30555e-05;-0.004637352677320734
1.30558e-05;-0.004625876571310357
1.30560e-05;-0.0046144004653000574
1.30563e-05;-0.004602762076596477
1.30565e-05;-0.004590601280338292
1.30567e-05;-0.0045784404840801905
1.30570e-05;-0.004566279687822005
1.30573e-05;-0.004554118891563821
1.30575e-05;-0.004541611692185424
1.30578e-05;-0.0045289808884680025
1.30580e-05;-0.0045163500847504945
1.30583e-05;-0.0045037192810329875
1.30585e-05;-0.004491386928104611
1.30588e-05;-0.004480015324248128
1.30590e-05;-0.0044686437203916435
1.30593e-05;-0.004457490574124747
1.30595e-05;-0.004447040669176274
1.30598e-05;-0.004436590764227801
1.30600e-05;-0.004427017412079586
1.30603e-05;-0.004420265789074907
1.30605e-05;-0.004413514166070227
1.30608e-05;-0.004406762543065593
1.30610e-05;-0.004400010920060914
1.30613e-05;-0.004393259297056235
1.30615e-05;-0.0043865076740516006
1.30618e-05;-0.004379756051046921
1.30620e-05;-0.004373004428042242
1.30623e-05;-0.004366252805037608
1.30625e-05;-0.004360681625601125
1.30628e-05;-0.00435891043632872
1.30630e-05;-0.004357139247056329
1.30633e-05;-0.004355368057783925
1.30635e-05;-0.004353596868511522
1.30638e-05;-0.0043518256792391295
1.30640e-05;-0.004350054489966726
1.30643e-05;-0.004348283300694322
1.30645e-05;-0.004346512111421931
1.30648e-05;-0.004344740922149527
1.30650e-05;-0.0043437473506570436
1.30652e-05;-0.004345257024550487
1.30655e-05;-0.004346766698443939
1.30658e-05;-0.004348276372337392
1.30660e-05;-0.004349786046230844
1.30663e-05;-0.004351295720124286
1.30665e-05;-0.004352805394017739
1.30668e-05;-0.0043543150679111915
1.30670e-05;-0.0043558247418046345
1.30673e-05;-0.004357334415698087
1.30675e-05;-0.00435884408959154
1.30678e-05;-0.00436119842751891
1.30680e-05;-0.00436385416036347
1.30683e-05;-0.004366509893208031
1.30685e-05;-0.004369165626052573
1.30688e-05;-0.004371821358897134
1.30690e-05;-0.004374477091741694
1.30693e-05;-0.004377132824586237
1.30695e-05;-0.004379788557430798
1.30698e-05;-0.004382444290275358
1.30700e-05;-0.0043851000231199
1.30703e-05;-0.004387508280014561
1.30705e-05;-0.0043891198819897915
1.30708e-05;-0.004390731483965011
1.30710e-05;-0.004392343085940241
1.30713e-05;-0.004393954687915471
1.30715e-05;-0.0043955662898906905
1.30718e-05;-0.004397177891865921
1.30720e-05;-0.004398789493841151
1.30723e-05;-0.00440040109581637
1.30725e-05;-0.004401432474237848
1.30728e-05;-0.004400596043085556
1.30730e-05;-0.004399759611933269
1.30733e-05;-0.004398923180780978
1.30735e-05;-0.004398086749628685
1.30737e-05;-0.004397250318476399
1.30740e-05;-0.0043964138873241075
1.30743e-05;-0.004395577456171815
1.30745e-05;-0.004394741025019523
1.30748e-05;-0.004393383532574313
1.30750e-05;-0.004390348681005725
1.30753e-05;-0.004387313829437139
1.30755e-05;-0.004384278977868573
1.30758e-05;-0.004381244126299986
1.30760e-05;-0.004378209274731399
1.30763e-05;-0.004375174423162834
1.30765e-05;-0.0043721395715942465
1.30768e-05;-0.00436910472002566
1.30770e-05;-0.004365334774603008
1.30773e-05;-0.0043613025313406885
1.30775e-05;-0.00435727028807837
1.30778e-05;-0.0043532380448160785
1.30780e-05;-0.004349205801553759
1.30783e-05;-0.00434517355829144
1.30785e-05;-0.004341141315029148
1.30788e-05;-0.004337109071766829
1.30790e-05;-0.004333255916002122
1.30793e-05;-0.004329979264483931
1.30795e-05;-0.004326702612965719
1.30798e-05;-0.004323425961447506
1.30800e-05;-0.004320149309929316
1.30803e-05;-0.004316872658411104
1.30805e-05;-0.004313596006892891
1.30808e-05;-0.004310319355374701
1.30810e-05;-0.004307042703856488
1.30813e-05;-0.00430433837835693
1.30815e-05;-0.004303476439314129
1.30818e-05;-0.004302614500271322
1.30820e-05;-0.004301752561228515
1.30822e-05;-0.0043008906221857135
1.30825e-05;-0.004300028683142906
1.30828e-05;-0.0042991667441000985
1.30830e-05;-0.004298304805057292
1.30833e-05;-0.00429744286601449
1.30835e-05;-0.004297214888100003
1.30838e-05;-0.004299027707491494
1.30840e-05;-0.0043008405268829715
1.30843e-05;-0.004302653346274462
1.30845e-05;-0.004304466165665953
1.30848e-05;-0.004306278985057431
1.30850e-05;-0.0043080918044489215
1.30853e-05;-0.0043099046238404114
1.30855e-05;-0.00431171744323189
1.30858e-05;-0.0043139432521954405
1.30860e-05;-0.004317498524383894
1.30863e-05;-0.004321053796572325
1.30865e-05;-0.004324609068760779
1.30868e-05;-0.004328164340949233
1.30870e-05;-0.004331719613137663
1.30873e-05;-0.004335274885326117
1.30875e-05;-0.004338830157514572
1.30878e-05;-0.004342385429703002
1.30880e-05;-0.0043460232483002
1.30883e-05;-0.004349926793739444
1.30885e-05;-0.00435383033917866
1.30888e-05;-0.004357733884617903
1.30890e-05;-0.004361637430057147
1.30893e-05;-0.0043654256616755495
1.30895e-05;-0.004368842684201814
1.30898e-05;-0.004372259706728078
1.30900e-05;-0.0043756767292543195
1.30903e-05;-0.004379093751780584
1.30905e-05;-0.004382338046388041
1.30907e-05;-0.004385026308999651
1.30910e-05;-0.004387714571611278
1.30913e-05;-0.004390672554662501
1.30915e-05;-0.004394498800328051
1.30918e-05;-0.004398325045993576
1.30920e-05;-0.004402151291659126
1.30923e-05;-0.004405977537324676
1.30925e-05;-0.004409803782990201
1.30928e-05;-0.0044136300286557505
1.30930e-05;-0.004417456274321301
1.30933e-05;-0.004423125274761755
1.30935e-05;-0.004429451811099289
1.30938e-05;-0.004435778347436824
1.30940e-05;-0.0044421048837743156
1.30943e-05;-0.00444843142011185
1.30945e-05;-0.004454757956449384
1.30948e-05;-0.004461084492786876
1.30950e-05;-0.004467979498962909
1.30953e-05;-0.004476704478087872
1.30955e-05;-0.004485429457212776
1.30958e-05;-0.00449415443633774
1.30960e-05;-0.004502879415462703
1.30963e-05;-0.004511604394587607
1.30965e-05;-0.0045203293737125705
1.30968e-05;-0.004529054352837533
1.30970e-05;-0.004537974726971497
1.30973e-05;-0.004547524101197978
1.30975e-05;-0.0045570734754244585
1.30978e-05;-0.004566622849650874
1.30980e-05;-0.004576172223877355
1.30983e-05;-0.004585721598103836
1.30985e-05;-0.004595270972330251
1.30988e-05;-0.004604820346556732
1.30990e-05;-0.004613899839004953
1.30992e-05;-0.004621466725356297
1.30995e-05;-0.004629033611707692
1.30998e-05;-0.004636600498059086
1.31000e-05;-0.004644167384410482
1.31003e-05;-0.0046517342707618255
1.31005e-05;-0.004659301157113221
1.31008e-05;-0.004666868043464616
1.31010e-05;-0.004674434929815959
1.31013e-05;-0.0046782057424080165
1.31015e-05;-0.0046806220314360185
1.31018e-05;-0.004683038320464003
1.31020e-05;-0.004685454609492004
1.31023e-05;-0.004687870898520006
1.31025e-05;-0.004690287187547991
1.31028e-05;-0.0046927034765759925
1.31030e-05;-0.004695119765603994
1.31033e-05;-0.004696167872059136
1.31035e-05;-0.004692811633852908
1.31038e-05;-0.004689455395646681
1.31040e-05;-0.004686099157440476
1.31043e-05;-0.004682742919234248
1.31045e-05;-0.00467938668102802
1.31048e-05;-0.004676030442821815
1.31050e-05;-0.004672674204615587
1.31053e-05;-0.00466622930440219
1.31055e-05;-0.004658682300874752
1.31058e-05;-0.004651135297347263
1.31060e-05;-0.004643588293819774
1.31063e-05;-0.004636041290292336
1.31065e-05;-0.004628494286764847
1.31068e-05;-0.004620947283237357
1.31070e-05;-0.004612936404996085
1.31073e-05;-0.004603432258122134
1.31075e-05;-0.004593928111248183
1.31077e-05;-0.004584423964374296
1.31080e-05;-0.004574919817500345
1.31083e-05;-0.0045654156706263944
1.31085e-05;-0.0045559115237524435
1.31088e-05;-0.004546757757597679
1.31090e-05;-0.004537729015077971
1.31093e-05;-0.004528700272558262
1.31095e-05;-0.004519671530038614
1.31098e-05;-0.004510642787518906
1.31100e-05;-0.004501614044999196
1.31103e-05;-0.0044929501366150135
1.31105e-05;-0.0044854606733005994
1.31108e-05;-0.004478345895287127
1.31110e-05;-0.004472437274432949
1.31113e-05;-0.00446652865357873
1.31115e-05;-0.004461217719149857
1.31118e-05;-0.004457830809386862
1.31120e-05;-0.004454443899623843
1.31123e-05;-0.004452061022004708
1.31125e-05;-0.004452910244912356
1.31128e-05;-0.004453759467820011
1.31130e-05;-0.004454608690727665
1.31133e-05;-0.004455457913635313
1.31135e-05;-0.004456307136542967
1.31138e-05;-0.0044571563594506215
1.31140e-05;-0.0044621300534060096
1.31143e-05;-0.004468575450384145
1.31145e-05;-0.00447502084736228
1.31148e-05;-0.004481466244340371
1.31150e-05;-0.004487911641318506
1.31153e-05;-0.004494357038296641
1.31155e-05;-0.004501827518437819
1.31158e-05;-0.004512597864875
1.31160e-05;-0.004523368211312182
1.31162e-05;-0.00453413855774929
1.31165e-05;-0.0045449089041864725
1.31168e-05;-0.004555679250623654
1.31170e-05;-0.004566449597060836
1.31173e-05;-0.004577634269764181
1.31175e-05;-0.0045901527086739165
1.31178e-05;-0.004602671147583651
1.31180e-05;-0.004615189586493301
1.31183e-05;-0.004627708025403037
1.31185e-05;-0.004640226464312771
1.31188e-05;-0.004652744903222422
1.31190e-05;-0.00466509151819044
1.31193e-05;-0.004676885011173225
1.31195e-05;-0.00468867850415593
1.31198e-05;-0.004699272246306972
1.31200e-05;-0.0047060038458762955
1.31203e-05;-0.004712735445445574
1.31205e-05;-0.004719467045014897
1.31208e-05;-0.00472619864458422
1.31210e-05;-0.004732930244153498
1.31213e-05;-0.004739661843722822
1.31215e-05;-0.004746393443292145
1.31218e-05;-0.004753125042861423
1.31220e-05;-0.004759856642430746
1.31223e-05;-0.00476658824200007
1.31225e-05;-0.004773319841569348
1.31228e-05;-0.004780051441138671
1.31230e-05;-0.0047867830407079945
1.31233e-05;-0.004793514640277273
1.31235e-05;-0.004800246239846596
1.31238e-05;-0.004806977839415919
1.31240e-05;-0.004809728195104762
1.31243e-05;-0.004811057954409936
1.31245e-05;-0.004812387713715111
1.31247e-05;-0.004813717473020276
1.31250e-05;-0.00481504723232545
1.31253e-05;-0.004816376991630625
1.31255e-05;-0.0048177067509357985
1.31258e-05;-0.004819036510240964
1.31260e-05;-0.004820366269546138
1.31263e-05;-0.004821696028851312
1.31265e-05;-0.0048230257881564775
1.31268e-05;-0.004824355547461652
1.31270e-05;-0.004825685306766826
1.31273e-05;-0.004827015066071991
1.31275e-05;-0.004828344825377166
1.31278e-05;-0.00482967458468234
1.31280e-05;-0.004830626803467003
1.31283e-05;-0.004830363673795589
1.31285e-05;-0.004830100544124174
1.31288e-05;-0.004829837414452761
1.31290e-05;-0.004829574284781346
1.31293e-05;-0.004829311155109931
1.31295e-05;-0.004829048025438518
1.31298e-05;-0.004828784895767104
1.31300e-05;-0.004828195451611077
1.31303e-05;-0.004827489571187694
1.31305e-05;-0.004826783690764307
1.31308e-05;-0.004826077810340919
1.31310e-05;-0.004825371929917536
1.31313e-05;-0.004824666049494149
1.31315e-05;-0.004823960169070761
1.31318e-05;-0.004822769241621204
1.31320e-05;-0.004820016889311349
1.31323e-05;-0.004817264537001495
1.31325e-05;-0.0048145121846916595
1.31328e-05;-0.004811759832381805
1.31330e-05;-0.004809007480071951
1.31332e-05;-0.004806255127762115
1.31335e-05;-0.00480350277545226
1.31338e-05;-0.004800750423142406
1.31340e-05;-0.004797998070832552
1.31343e-05;-0.00479324804210012
1.31345e-05;-0.004787785197979291
1.31348e-05;-0.004782322353858463
1.31350e-05;-0.004776859509737671
1.31353e-05;-0.004771396665616842
1.31355e-05;-0.0047659338214960136
1.31358e-05;-0.004760470977375222
1.31360e-05;-0.004755008133254393
1.31363e-05;-0.004749545289133564
1.31365e-05;-0.004743751458781513
1.31368e-05;-0.004736892143843127
1.31370e-05;-0.00473003282890474
1.31373e-05;-0.0047231735139664005
1.31375e-05;-0.004716314199028015
1.31378e-05;-0.004709454884089628
1.31380e-05;-0.004702595569151288
1.31383e-05;-0.004695736254212902
1.31385e-05;-0.004689153604170573
1.31388e-05;-0.004682669674317972
1.31390e-05;-0.004676185744465327
1.31393e-05;-0.004669701814612683
1.31395e-05;-0.004663217884760082
1.31398e-05;-0.0046567339549074376
1.31400e-05;-0.004650250025054793
1.31403e-05;-0.004644027188442876
1.31405e-05;-0.00463864484245353
1.31408e-05;-0.004633498300424524
1.31410e-05;-0.004629110839775525
1.31413e-05;-0.004625298292690473
1.31415e-05;-0.00462333646168704
1.31418e-05;-0.004622233450817839
1.31420e-05;-0.0046238950855113856
1.31423e-05;-0.0046255567202049324
1.31425e-05;-0.004628177537495294
1.31428e-05;-0.004633886079216373
1.31430e-05;-0.004639594620937492
1.31433e-05;-0.004646972957845505
1.31435e-05;-0.004659726566792417
1.31438e-05;-0.004672480175739417
1.31440e-05;-0.004685233784686415
1.31443e-05;-0.004697987393633328
1.31445e-05;-0.004710741002580327
1.31448e-05;-0.004725390958050075
1.31450e-05;-0.004746145481625241
1.31453e-05;-0.004766900005200547
1.31455e-05;-0.004787654528775853
1.31458e-05;-0.004808409052351018
1.31460e-05;-0.004829163575926324
1.31463e-05;-0.004851174701021465
1.31465e-05;-0.004877230977921716
