Time(s);Current(A)
7.50000e-07;0.013456485419686153
7.50250e-07;0.013472504231006778
7.50500e-07;0.013484562374821181
7.50750e-07;0.013496620518635587
7.51000e-07;0.013509653191294645
7.51250e-07;0.013525332627720005
7.51500e-07;0.013541012064145375
7.51750e-07;0.013558962282270395
7.52000e-07;0.013583079811662638
7.52250e-07;0.013607197341054878
7.52500e-07;0.01363131487044711
7.52750e-07;0.013655432399839351
7.53000e-07;0.013679549929231594
7.53250e-07;0.013713815728267617
7.53500e-07;0.013751128066565636
7.53750e-07;0.013788440404863656
7.54000e-07;0.013825752743161659
7.54250e-07;0.013863065081459677
7.54500e-07;0.013904329146497307
7.54750e-07;0.013956325871944343
7.55000e-07;0.01400832259739138
7.55250e-07;0.014060319322838416
7.55500e-07;0.014112316048285431
7.55750e-07;0.014164312773732467
7.56000e-07;0.014216309499179503
7.56250e-07;0.01426830622462654
7.56500e-07;0.014320302950073575
7.56750e-07;0.014377878565123894
7.57000e-07;0.014437128978618848
7.57250e-07;0.0144963793921138
7.57500e-07;0.014555629805608754
7.57750e-07;0.014614880219103706
7.58000e-07;0.01467413063259866
7.58250e-07;0.014733381046093588
7.58500e-07;0.014792631459588541
7.58750e-07;0.014850293976604718
7.59000e-07;0.01490364385896899
7.59250e-07;0.014956993741333264
7.59500e-07;0.015010343623697537
7.59750e-07;0.015059620091808714
7.60000e-07;0.015097833403288359
7.60250e-07;0.015136046714768002
7.60500e-07;0.015174260026247645
7.60750e-07;0.015212473337727288
7.61000e-07;0.015250686649206915
7.61250e-07;0.015288899960686558
7.61500e-07;0.015306673875555912
7.61750e-07;0.015318311825728702
7.62000e-07;0.015329949775901493
7.62250e-07;0.015341587726074284
7.62500e-07;0.01535322567624707
7.62750e-07;0.01536486362641986
7.63000e-07;0.015368505840061684
7.63250e-07;0.015350432097473323
7.63500e-07;0.01533235835488496
7.63750e-07;0.0153142846122966
7.64000e-07;0.015296210869708246
7.64250e-07;0.015278137127119885
7.64500e-07;0.015260063384531522
7.64750e-07;0.015241989641943161
7.65000e-07;0.015204985876848839
7.65250e-07;0.015162299265434902
7.65500e-07;0.015119612654020948
7.65750e-07;0.015076926042606993
7.66000e-07;0.01503423943119304
7.66250e-07;0.014991552819779085
7.66500e-07;0.014948866208365129
7.66750e-07;0.014903378083417528
7.67000e-07;0.014850281210352692
7.67250e-07;0.014797184337287855
7.67500e-07;0.014743520792199604
7.67750e-07;0.014688318198793562
7.68000e-07;0.01463311560538752
7.68250e-07;0.014578079763766662
7.68500e-07;0.014523496810313598
7.68750e-07;0.014468913856860534
7.69000e-07;0.01441529306789128
7.69250e-07;0.014364285461802165
7.69500e-07;0.01431327785571307
7.69750e-07;0.014265805604681079
7.70000e-07;0.01422793517274132
7.70250e-07;0.01419006474080156
7.70500e-07;0.0141521943088618
7.70750e-07;0.01411432387692204
7.71000e-07;0.014076453444982297
7.71250e-07;0.014038583013042536
7.71500e-07;0.014000712581102777
7.71750e-07;0.013978324523567969
7.72000e-07;0.013960584318637663
7.72250e-07;0.013942844113707364
7.72500e-07;0.013925103908777058
7.72750e-07;0.013907363703846752
7.73000e-07;0.013889623498916447
7.73250e-07;0.01387188329398614
7.73500e-07;0.013859996417570264
7.73750e-07;0.013864006841588169
7.74000e-07;0.013868017265606075
7.74250e-07;0.01387202768962398
7.74500e-07;0.013876038113641886
7.74750e-07;0.013880048537659792
7.75000e-07;0.013884058961677699
7.75250e-07;0.013888069385695603
7.75500e-07;0.01389207980971351
7.75750e-07;0.013896090233731416
7.76000e-07;0.013900100657749322
7.76250e-07;0.013904111081767229
7.76500e-07;0.013908121505785132
7.76750e-07;0.01392146393073684
7.77000e-07;0.013937607848774255
7.77250e-07;0.01395375176681167
7.77500e-07;0.013969895684849085
7.77750e-07;0.0139860396028865
7.78000e-07;0.014002183520923908
7.78250e-07;0.014018327438961323
7.78500e-07;0.014034471356998738
7.78750e-07;0.014050615275036153
7.79000e-07;0.014066759193073567
7.79250e-07;0.014082903111110982
7.79500e-07;0.01409904702914839
7.79750e-07;0.014113504648872654
7.80000e-07;0.014123382380275369
7.80250e-07;0.014133260111678083
7.80500e-07;0.014143137843080798
7.80750e-07;0.014153015574483509
7.81000e-07;0.014162893305886224
7.81250e-07;0.014172771037288938
7.81500e-07;0.014182648768691653
7.81750e-07;0.014181135097915947
7.82000e-07;0.014176201695973695
7.82250e-07;0.014171268294031444
7.82500e-07;0.01416633489208919
7.82750e-07;0.014161401490146937
7.83000e-07;0.014156468088204683
7.83250e-07;0.014151534686262431
7.83500e-07;0.014141792860024389
7.83750e-07;0.01411899163254893
7.84000e-07;0.014096190405073462
7.84250e-07;0.014073389177597994
7.84500e-07;0.014050587950122527
7.84750e-07;0.014027786722647059
7.85000e-07;0.014004985495171601
7.85250e-07;0.013982184267696133
7.85500e-07;0.013959383040220664
7.85750e-07;0.013936581812745196
7.86000e-07;0.013904640043434611
7.86250e-07;0.013869954257601453
7.86500e-07;0.013835268471768311
7.86750e-07;0.013800582685935153
7.87000e-07;0.013765896900101996
7.87250e-07;0.01373121111426884
7.87500e-07;0.013696525328435682
7.87750e-07;0.01366183954260254
7.88000e-07;0.013627153756769383
7.88250e-07;0.013592364494896144
7.88500e-07;0.013557294198105278
7.88750e-07;0.013522223901314412
7.89000e-07;0.013487153604523544
7.89250e-07;0.013452083307732694
7.89500e-07;0.013420869676677596
7.89750e-07;0.013390813827589035
7.90000e-07;0.013360757978500474
7.90250e-07;0.013330702129411912
7.90500e-07;0.013302162975250992
7.90750e-07;0.013277743076462869
7.91000e-07;0.013253323177674735
7.91250e-07;0.013228496017309115
7.91500e-07;0.013202562758142338
7.91750e-07;0.013176629498975561
7.92000e-07;0.013150696239808794
7.92250e-07;0.013124762980642017
7.92500e-07;0.01309882972147524
7.92750e-07;0.013072896462308463
7.93000e-07;0.013046963203141686
7.93250e-07;0.01301981448762308
7.93500e-07;0.012989364663215397
7.93750e-07;0.0129589148388077
7.94000e-07;0.012928465014400004
7.94250e-07;0.012898015189992307
7.94500e-07;0.01286756536558461
7.94750e-07;0.012837115541176914
7.95000e-07;0.012806665716769229
7.95250e-07;0.012774912376087248
7.95500e-07;0.012739618760879026
7.95750e-07;0.012704325145670802
7.96000e-07;0.01266903153046258
7.96250e-07;0.012633737915254373
7.96500e-07;0.012598444300046151
7.96750e-07;0.012563150684837928
7.97000e-07;0.012527857069629706
7.97250e-07;0.012492563454421485
7.97500e-07;0.012457269839213261
7.97750e-07;0.012421976224005054
7.98000e-07;0.012386682608796832
7.98250e-07;0.01235138899358861
7.98500e-07;0.012318544312268457
7.98750e-07;0.012292350793217197
7.99000e-07;0.01226615727416594
7.99250e-07;0.012239963755114693
7.99500e-07;0.012213770236063433
7.99750e-07;0.012187576717012176
8.00000e-07;0.012161383197960918
8.00250e-07;0.012135189678909659
8.00500e-07;0.012108996159858412
8.00750e-07;0.012082802640807154
8.01000e-07;0.012056609121755895
8.01250e-07;0.012030415602704637
8.01500e-07;0.012004222083653378
8.01750e-07;0.011983703400519533
8.02000e-07;0.011978597242288919
8.02250e-07;0.011973491084058303
8.02500e-07;0.011968384925827687
8.02750e-07;0.011963278767597072
8.03000e-07;0.011958172609366456
8.03250e-07;0.01195306645113584
8.03500e-07;0.011947960292905228
8.03750e-07;0.011942854134674613
8.04000e-07;0.011937747976443997
8.04250e-07;0.011932641818213382
8.04500e-07;0.011927535659982766
8.04750e-07;0.011934534557374872
8.05000e-07;0.01194516742671697
8.05250e-07;0.01195580029605907
8.05500e-07;0.011966433165401169
8.05750e-07;0.011977066034743269
8.06000e-07;0.011987698904085367
8.06250e-07;0.011998331773427462
8.06500e-07;0.012008964642769562
8.06750e-07;0.01201959751211166
8.07000e-07;0.01203023038145376
8.07250e-07;0.01204086325079586
8.07500e-07;0.012052743095491454
8.07750e-07;0.012068009652854953
8.08000e-07;0.012083276210218452
8.08250e-07;0.012098542767581951
8.08500e-07;0.012113809324945449
8.08750e-07;0.012128561185989638
8.09000e-07;0.012142832694803377
8.09250e-07;0.012157104203617122
8.09500e-07;0.012171375712430868
8.09750e-07;0.012185647221244612
8.10000e-07;0.012195663711484124
8.10250e-07;0.008636230605703798
8.10500e-07;-0.0024138522821364828
8.10750e-07;-0.0023741629900015594
8.11000e-07;-8.233921659047457e-05
8.11250e-07;0.004320771585881643
8.11500e-07;0.01250853957903626
8.11750e-07;0.014550430448988336
8.12000e-07;0.013805787785161156
8.12250e-07;0.011226561980241
8.12500e-07;0.0048704836466949555
8.12750e-07;0.003394071870347341
8.13000e-07;0.005653169980517516
8.13250e-07;0.008261035175393498
8.13500e-07;0.012109264149069146
8.13750e-07;0.01484927835613395
8.14000e-07;0.014896559358391645
8.14250e-07;0.013156765701098904
8.14500e-07;0.010395452767140356
8.14750e-07;0.008409223877424751
8.15000e-07;0.008791594695825883
8.15250e-07;0.010567577716340334
8.15500e-07;0.012897623573111259
8.15750e-07;0.014594678819912938
8.16000e-07;0.014608867149530585
8.16250e-07;0.013506959385807775
8.16500e-07;0.011768011177248641
8.16750e-07;0.010516931662626188
8.17000e-07;0.010751385929199624
8.17250e-07;0.011860173718637184
8.17500e-07;0.013317027407526414
8.17750e-07;0.014378107886715853
8.18000e-07;0.014385598800160363
8.18250e-07;0.013694390816843425
8.18500e-07;0.012604425879832919
8.18750e-07;0.011820181990152659
8.19000e-07;0.011966389105093147
8.19250e-07;0.012659987497614583
8.19500e-07;0.01357116599043081
8.19750e-07;0.014233872524333217
8.20000e-07;0.014235987699583475
8.20250e-07;0.013799769616876479
8.20500e-07;0.013113052531330405
8.20750e-07;0.012617158478688063
8.21000e-07;0.012703704291938636
8.21250e-07;0.013133140406200929
8.21500e-07;0.013699039210155573
8.21750e-07;0.014109457655474122
8.22000e-07;0.0141062546742608
8.22250e-07;0.013828667163037727
8.22500e-07;0.013394359908093373
8.22750e-07;0.013079765604366873
8.23000e-07;0.01313015894758787
8.23250e-07;0.013395448457446828
8.23500e-07;0.013746303747445938
8.23750e-07;0.013999845500475153
8.24000e-07;0.013994380133359189
8.24250e-07;0.013817137730474405
8.24500e-07;0.013541828832200915
8.24750e-07;0.013341602759649324
8.25000e-07;0.013370078624770862
8.25250e-07;0.013533215957798234
8.25500e-07;0.01374998742351018
8.25750e-07;0.01390583042785928
8.26000e-07;0.013899466587466642
8.26250e-07;0.013785541410036177
8.26500e-07;0.013610227716771391
8.26750e-07;0.01348198259785981
8.27000e-07;0.013497017326302216
8.27250e-07;0.013596409735855611
8.27500e-07;0.013729391641043597
8.27750e-07;0.01382419770321633
8.28000e-07;0.013817386091215618
8.28250e-07;0.013743188981024683
8.28500e-07;0.01363052992854911
8.28750e-07;0.01354733996408956
8.29000e-07;0.013553874735138891
8.29250e-07;0.013613213448777962
8.29500e-07;0.013693546489145695
8.29750e-07;0.013749914153099303
8.30000e-07;0.013742576316761122
8.30250e-07;0.013692974718447649
8.30500e-07;0.013619212417517138
8.30750e-07;0.013563722880762045
8.31000e-07;0.013563869418539895
8.31250e-07;0.013596078897463504
8.31500e-07;0.013640272720418373
8.31750e-07;0.013668340102391294
8.32000e-07;0.01365545715110098
8.32250e-07;0.01361512368147944
8.32500e-07;0.013558748062709259
8.32750e-07;0.013512976061660398
8.33000e-07;0.01350127672212866
8.33250e-07;0.013508945904888058
8.33500e-07;0.013523472239995777
8.33750e-07;0.013527312963464844
8.34000e-07;0.01350498614035822
8.34250e-07;0.013465015922754675
8.34500e-07;0.013414616011385895
8.34750e-07;0.013371553645373789
8.35000e-07;0.013353085984380451
8.35250e-07;0.013336528919961047
8.35500e-07;0.013329669944275
8.35750e-07;0.0133151729870351
8.36000e-07;0.013281208584061448
8.36250e-07;0.013245298225766826
8.36500e-07;0.013198750723487545
8.36750e-07;0.01315526704583748
8.37000e-07;0.013128531103026706
8.37250e-07;0.013102881559519181
8.37500e-07;0.013083170582888732
8.37750e-07;0.013061159631384439
8.38000e-07;0.013026576364559955
8.38250e-07;0.012990979504324821
8.38500e-07;0.012949842054881481
8.38750e-07;0.012910870130656742
8.39000e-07;0.012883735581784033
8.39250e-07;0.012857568321486232
8.39500e-07;0.01283668853502464
8.39750e-07;0.012814695704175483
8.40000e-07;0.012786618656857275
8.40250e-07;0.012758678219606549
8.40500e-07;0.012731484531750353
8.40750e-07;0.012704290843894156
8.41000e-07;0.01267848702124758
8.41250e-07;0.012660220920849357
8.41500e-07;0.012641628617851458
8.41750e-07;0.01262303631485355
8.42000e-07;0.012603616621975762
8.42250e-07;0.012579950353925935
8.42500e-07;0.012557793724214545
8.42750e-07;0.012535637094503156
8.43000e-07;0.012513480464791777
8.43250e-07;0.012491596839174151
8.43500e-07;0.012471205531402945
8.43750e-07;0.01245081422363174
8.44000e-07;0.012430422915860533
8.44250e-07;0.012409694871834406
8.44500e-07;0.012387126131883749
8.44750e-07;0.012364557391933092
8.45000e-07;0.012341988651982435
8.45250e-07;0.012319538914739492
8.45500e-07;0.012297739680066111
8.45750e-07;0.01227594044539274
8.46000e-07;0.01225414121071936
8.46250e-07;0.012232222195589858
8.46500e-07;0.012209648426497298
8.46750e-07;0.012187074657404737
8.47000e-07;0.012164500888312188
8.47250e-07;0.012141927119219628
8.47500e-07;0.012119499134745219
8.47750e-07;0.012097868050362686
8.48000e-07;0.01207623696598015
8.48250e-07;0.012054605881597617
8.48500e-07;0.012032974797215093
8.48750e-07;0.012011752203579446
8.49000e-07;0.011992762536283036
8.49250e-07;0.011973772868986626
8.49500e-07;0.011954783201690217
8.49750e-07;0.011936126165865472
8.50000e-07;0.011919287388055144
8.50250e-07;0.011902448610244809
8.50500e-07;0.011885609832434474
8.50750e-07;0.011870193734095248
8.51000e-07;0.011862554405456536
8.51250e-07;0.011854915076817825
8.51500e-07;0.0118502660380493
8.51750e-07;0.011861962772260962
8.52000e-07;0.011873659506472624
8.52250e-07;0.011885356240684286
8.52500e-07;0.011897052974895949
8.52750e-07;0.011908749709107606
8.53000e-07;0.011938294361524627
8.53250e-07;0.011977254463454204
8.53500e-07;0.01201621456538378
8.53750e-07;0.012055174667313356
8.54000e-07;0.012094134769242933
8.54250e-07;0.01213768546404367
8.54500e-07;0.0122063296421436
8.54750e-07;0.012274973820243531
8.55000e-07;0.012343617998343461
8.55250e-07;0.012412262176443391
8.55500e-07;0.012480906354543294
8.55750e-07;0.012549550532643224
8.56000e-07;0.012618194710743155
8.56250e-07;0.012689826973019637
8.56500e-07;0.012777792951329149
8.56750e-07;0.012865758929638661
8.57000e-07;0.012953724907948135
8.57250e-07;0.013041690886257647
8.57500e-07;0.01312965686456716
8.57750e-07;0.013217622842876671
8.58000e-07;0.013305588821186183
8.58250e-07;0.013393380898312435
8.58500e-07;0.013480222382223277
8.58750e-07;0.013567063866134156
8.59000e-07;0.013652820679071635
8.59250e-07;0.013732648372673085
8.59500e-07;0.013812476066274533
8.59750e-07;0.01388881250625769
8.60000e-07;0.013946064763255685
8.60250e-07;0.014003317020253678
8.60500e-07;0.014060569277251673
8.60750e-07;0.014117821534249666
8.61000e-07;0.014175073791247661
8.61250e-07;0.01423232604824563
8.61500e-07;0.014283881709666327
8.61750e-07;0.014304298163147048
8.62000e-07;0.014324714616627768
8.62250e-07;0.014345131070108489
8.62500e-07;0.01436554752358921
8.62750e-07;0.014385963977069921
8.63000e-07;0.014406380430550642
8.63250e-07;0.014420820447627191
8.63500e-07;0.014402591567393956
8.63750e-07;0.014384362687160722
8.64000e-07;0.014366133806927495
8.64250e-07;0.01434790492669426
8.64500e-07;0.014329676046461026
8.64750e-07;0.01431144716622779
8.65000e-07;0.014293218285994556
8.65250e-07;0.01427498940576132
8.65500e-07;0.01425231378901631
8.65750e-07;0.014205331048653824
8.66000e-07;0.014158348308291338
8.66250e-07;0.014111365567928854
8.66500e-07;0.014064382827566368
8.66750e-07;0.014017400087203903
8.67000e-07;0.013970417346841417
8.67250e-07;0.013923434606478931
8.67500e-07;0.013876451866116447
8.67750e-07;0.013828333997152421
8.68000e-07;0.013774011193138532
8.68250e-07;0.013719688389124667
8.68500e-07;0.013665527712047312
8.68750e-07;0.013612253266811583
8.69000e-07;0.013558978821575854
8.69250e-07;0.013506412319427516
8.69500e-07;0.013457715635086881
8.69750e-07;0.013409018950746265
8.70000e-07;0.013362636989693573
8.70250e-07;0.013328907962978611
8.70500e-07;0.01329517893626365
8.70750e-07;0.013261449909548686
8.71000e-07;0.01322772088283374
8.71250e-07;0.013193991856118779
8.71500e-07;0.013160262829403815
8.71750e-07;0.013126533802688854
8.72000e-07;0.01310925003310922
8.72250e-07;0.013100641756463877
8.72500e-07;0.013092033479818539
8.72750e-07;0.013083425203173196
8.73000e-07;0.013074816926527856
8.73250e-07;0.013066208649882513
8.73500e-07;0.013057600373237171
8.73750e-07;0.01305320274965488
8.74000e-07;0.013071821750566584
8.74250e-07;0.013090440751478296
8.74500e-07;0.013109059752390009
8.74750e-07;0.013127678753301722
8.75000e-07;0.013146297754213434
8.75250e-07;0.01316491675512514
8.75500e-07;0.013183535756036853
8.75750e-07;0.013202154756948565
8.76000e-07;0.013220773757860278
8.76250e-07;0.01323939275877199
8.76500e-07;0.013260319472761227
8.76750e-07;0.013293860801288925
8.77000e-07;0.013327402129816635
8.77250e-07;0.013360943458344345
8.77500e-07;0.013394484786872057
8.77750e-07;0.013428026115399767
8.78000e-07;0.013461567443927477
8.78250e-07;0.013495108772455175
8.78500e-07;0.013528650100982885
8.78750e-07;0.013562191429510595
8.79000e-07;0.013595732758038307
8.79250e-07;0.013628210327778858
8.79500e-07;0.013654873090127317
8.79750e-07;0.013681535852475786
8.80000e-07;0.013708198614824255
8.80250e-07;0.013734861377172725
8.80500e-07;0.013761524139521194
8.80750e-07;0.013788186901869663
8.81000e-07;0.013800145002862882
8.81250e-07;0.013804345840795982
8.81500e-07;0.013808546678729081
8.81750e-07;0.013812747516662182
8.82000e-07;0.013816948354595283
8.82250e-07;0.01382114919252838
8.82500e-07;0.013820434139812009
8.82750e-07;0.013792847433829324
8.83000e-07;0.013765260727846639
8.83250e-07;0.013737674021863953
8.83500e-07;0.013710087315881268
8.83750e-07;0.013682500609898594
8.84000e-07;0.013654913903915909
8.84250e-07;0.013622709594531626
8.84500e-07;0.01356526415462244
8.84750e-07;0.013507818714713255
8.85000e-07;0.013450373274804068
8.85250e-07;0.013392927834894907
8.85500e-07;0.013335482394985722
8.85750e-07;0.013278036955076537
8.86000e-07;0.013218250718790011
8.86250e-07;0.013145669025259928
8.86500e-07;0.013073087331729875
8.86750e-07;0.012999738259771172
8.87000e-07;0.012922194479563538
8.87250e-07;0.012844650699355904
8.87500e-07;0.012766813631184027
8.87750e-07;0.012687373367773617
8.88000e-07;0.012607933104363242
8.88250e-07;0.012528814358303712
8.88500e-07;0.012451453117320703
8.88750e-07;0.012374091876337694
8.89000e-07;0.012297611411421468
8.89250e-07;0.01222594551842309
8.89500e-07;0.012154279625424744
8.89750e-07;0.012084136631020847
8.90000e-07;0.012022318232485596
8.90250e-07;0.011960499833950344
8.90500e-07;0.011902198841364111
8.90750e-07;0.011863124987825543
8.91000e-07;0.011824051134286957
8.91250e-07;0.011784977280748371
8.91500e-07;0.011745903427209787
8.91750e-07;0.011706829573671201
8.92000e-07;0.011667755720132615
8.92250e-07;0.011651172441140629
8.92500e-07;0.011646453787856042
8.92750e-07;0.011641735134571457
8.93000e-07;0.01163701648128687
8.93250e-07;0.011632297828002283
8.93500e-07;0.011627579174717696
8.93750e-07;0.01162854507075538
8.94000e-07;0.011660584326487016
8.94250e-07;0.011692623582218651
8.94500e-07;0.011724662837950288
8.94750e-07;0.011756702093681922
8.95000e-07;0.011788741349413545
8.95250e-07;0.01182078060514518
8.95500e-07;0.011852819860876817
8.95750e-07;0.011884859116608451
8.96000e-07;0.011920766854511038
8.96250e-07;0.01197782081371513
8.96500e-07;0.012034874772919197
8.96750e-07;0.012091928732123287
8.97000e-07;0.012148982691327378
8.97250e-07;0.012206036650531469
8.97500e-07;0.01226309060973556
8.97750e-07;0.01232014456893965
8.98000e-07;0.012377198528143717
8.98250e-07;0.012434540590322663
8.98500e-07;0.012493457505116845
8.98750e-07;0.012552374419911028
8.99000e-07;0.012611291334705212
8.99250e-07;0.01267020824949937
8.99500e-07;0.012722860408950628
8.99750e-07;0.012772207673849774
9.00000e-07;0.01282155493874892
9.00250e-07;0.012870902203648065
9.00500e-07;0.012917931250192484
9.00750e-07;0.012952288257371464
9.01000e-07;0.01298664526455046
9.01250e-07;0.013021002271729455
9.01500e-07;0.013055359278908451
9.01750e-07;0.013089716286087447
