Time(s);Current(A)
8.25000e-06;-0.00016854664308894833
8.25025e-06;-0.00019769314345109048
8.25050e-06;-0.0002256952935985462
8.25075e-06;-0.0002523434659039767
8.25100e-06;-0.0002774274815020374
8.25125e-06;-0.00030073724950706933
8.25150e-06;-0.0003220499106443407
8.25175e-06;-0.0003411152625991275
8.25200e-06;-0.00035771455225046224
8.25225e-06;-0.00037173623582299124
8.25250e-06;-0.00038314325225005983
8.25275e-06;-0.0003919124909208052
8.25300e-06;-0.0003980212564011368
8.25325e-06;-0.00040144689480380323
8.25350e-06;-0.00040215875623802734
8.25375e-06;-0.00040010908911100617
8.25400e-06;-0.00039526986908816267
8.25425e-06;-0.0003876802010069989
8.25450e-06;-0.00037742589297171705
8.25475e-06;-0.00036460139893902243
8.25500e-06;-0.00034930151697461746
8.25525e-06;-0.0003316209967069417
8.25550e-06;-0.0003116496726364899
8.25575e-06;-0.0002894665920516321
8.25600e-06;-0.00026516315560904053
8.25625e-06;-0.00023887281167602755
8.25650e-06;-0.00021075825811775096
8.25675e-06;-0.00018098763855755364
8.25700e-06;-0.00014972924867140625
8.25725e-06;-0.00011715138724669911
8.25750e-06;-8.341920460318227e-05
8.25775e-06;-4.869112649594107e-05
8.25800e-06;-1.3133308560648926e-05
8.25825e-06;2.306175985038877e-05
8.25850e-06;5.971799363730057e-05
8.25875e-06;9.64560025674156e-05
8.25900e-06;0.00013319401149728167
8.25925e-06;0.0001699320204273967
8.25950e-06;0.00020587841390503915
8.25975e-06;0.00024163813759187563
8.26000e-06;0.00027594953391521136
8.26025e-06;0.0003099193938570739
8.26050e-06;0.00034167878490923466
8.26075e-06;0.00037291691566868247
8.26100e-06;0.00040200582016046925
8.26125e-06;0.00042889298931256514
8.26150e-06;0.0004528562075193726
8.26175e-06;0.00047622416775820183
8.26200e-06;0.0004974556660057411
8.26225e-06;0.0005181833558493659
8.26250e-06;0.0005370728485760052
8.26275e-06;0.0005555288680370352
8.26300e-06;0.0005717119042693809
8.26325e-06;0.0005873589384301737
8.26350e-06;0.0006001141025046533
8.26375e-06;0.0006121873221032347
8.26400e-06;0.0006242605417018162
8.26425e-06;0.0006341041577713601
8.26450e-06;0.0006434220013252806
8.26475e-06;0.0006527398448792013
8.26500e-06;0.0006596537967942667
8.26525e-06;0.0006660008765555501
8.26550e-06;0.0006723479563168764
8.26575e-06;0.0006755056374580926
8.26600e-06;0.0006779112126242265
8.26625e-06;0.0006803167877903768
8.26650e-06;0.0006827223629565272
8.26675e-06;0.0006851279381226612
8.26700e-06;0.0006875335132888115
8.26725e-06;0.0006899390884549618
8.26750e-06;0.0006912761587756579
8.26775e-06;0.000690225836459069
8.26800e-06;0.0006891755141424802
8.26825e-06;0.0006881251918258984
8.26850e-06;0.0006870748695093096
8.26875e-06;0.0006860245471927206
8.26900e-06;0.000684974224876139
8.26925e-06;0.0006839239025595501
8.26950e-06;0.0006822086823293625
8.26975e-06;0.0006803366696272479
8.27000e-06;0.0006784646569251206
8.27025e-06;0.0006765926442229934
8.27050e-06;0.0006747206315208787
8.27075e-06;0.0006728486188187514
8.27100e-06;0.0006709766061166241
8.27125e-06;0.0006691045934145095
8.27150e-06;0.0006672325807123822
8.27175e-06;0.0006653605680102549
8.27200e-06;0.0006634885553081403
8.27225e-06;0.000661616542606013
8.27250e-06;0.0006597445299038857
8.27275e-06;0.0006578725172017711
8.27300e-06;0.0006560005044996438
8.27325e-06;0.0006542010048201572
8.27350e-06;0.0006524186047522616
8.27375e-06;0.000650636204684378
8.27400e-06;0.0006488538046164823
8.27425e-06;0.0006470714045485867
8.27450e-06;0.0006452890044807031
8.27475e-06;0.0006435066044128074
8.27500e-06;0.0006417242043449119
8.27525e-06;0.0006399418042770282
8.27550e-06;0.0006381594042091325
8.27575e-06;0.000636377004141237
8.27600e-06;0.0006345946040733533
8.27625e-06;0.0006328122040054577
8.27650e-06;0.0006310298039375621
8.27675e-06;0.0006292474038696785
8.27700e-06;0.0006272666263870533
8.27725e-06;0.0006252390686625143
8.27750e-06;0.0006232115109379891
8.27775e-06;0.0006211839532134501
8.27800e-06;0.0006191563954889112
8.27825e-06;0.000617128837764386
8.27850e-06;0.000615101280039847
8.27875e-06;0.0006130737223153079
8.27900e-06;0.000611127766410849
8.27925e-06;0.0006093641359168119
8.27950e-06;0.0006076005054227748
8.27975e-06;0.0006058368749287497
8.28000e-06;0.0006040732444347126
8.28025e-06;0.0006023096139406755
8.28050e-06;0.0006005459834466504
8.28075e-06;0.0005987823529526133
8.28100e-06;0.0005970187224585762
8.28125e-06;0.0005959071035092912
8.28150e-06;0.0005949492382412949
8.28175e-06;0.0005939913729732985
8.28200e-06;0.0005956203932240954
8.28225e-06;0.0005978594382126157
8.28250e-06;0.0006030134012056394
8.28275e-06;0.0006088547437051387
8.28300e-06;0.0006173097719939327
8.28325e-06;0.000626381144908992
8.28350e-06;0.0006380095650802621
8.28375e-06;0.0006502409736985699
8.28400e-06;0.0006658397962780577
8.28425e-06;0.0006822327034057957
8.28450e-06;0.0007019803308689775
8.28475e-06;0.0007225190495414467
8.28500e-06;0.000746506187445041
8.28525e-06;0.0007713065121021839
8.28550e-06;0.000796106836759495
8.28575e-06;0.0008247327234126337
8.28600e-06;0.0008542607324967974
8.28625e-06;0.0008837887415811611
8.28650e-06;0.0009177775748450492
8.28675e-06;0.0009528183344815218
8.28700e-06;0.0009878590941182319
8.28725e-06;0.001022899853754942
8.28750e-06;0.0010579406133914145
8.28775e-06;0.0010929813730281247
8.28800e-06;0.001130190552447397
8.28825e-06;0.0011679110763769857
8.28850e-06;0.00120563160030683
8.28875e-06;0.0012433521242366744
8.28900e-06;0.0012810726481662631
8.28925e-06;0.0013187931720961073
8.28950e-06;0.0013529628226129915
8.28975e-06;0.0013862951262089962
8.29000e-06;0.001419627429805227
8.29025e-06;0.0014529597334014576
8.29050e-06;0.0014862920369976883
8.29075e-06;0.001519624340593693
8.29100e-06;0.0015502193831213012
8.29125e-06;0.0015746984805930886
8.29150e-06;0.00159917757806471
8.29175e-06;0.0016236566755364974
8.29200e-06;0.0016481357730082848
8.29225e-06;0.0016726148704799063
8.29250e-06;0.0016970939679516938
8.29275e-06;0.0017198761766324426
8.29300e-06;0.0017422582345785946
8.29325e-06;0.0017646402925248984
8.29350e-06;0.0017870223504712023
8.29375e-06;0.0018094044084173543
8.29400e-06;0.0018317864663636582
8.29425e-06;0.001854168524309962
8.29450e-06;0.001876550582256114
8.29475e-06;0.0018989326402024179
8.29500e-06;0.0019213146981487217
8.29525e-06;0.0019436967560948737
8.29550e-06;0.001966078814041178
8.29575e-06;0.0019884608719874814
8.29600e-06;0.0020108429299336337
8.29625e-06;0.0020333988595097052
8.29650e-06;0.002056343275718219
8.29675e-06;0.0020792876919265776
8.29700e-06;0.0021022321081350915
8.29725e-06;0.0021251765243436053
8.29750e-06;0.0021481209405519635
8.29775e-06;0.0021710653567604777
8.29800e-06;0.0021940097729689916
8.29825e-06;0.0022169541891773497
8.29850e-06;0.0022398986053858636
8.29875e-06;0.0022628430215943774
8.29900e-06;0.0022857874378028912
8.29925e-06;0.00230873185401125
8.29950e-06;0.0023316762702197636
8.29975e-06;0.0023546206864282775
8.30000e-06;0.002373324685726292
8.30025e-06;0.00239102873384868
8.30050e-06;0.002408732781971068
8.30075e-06;0.002426436830093336
8.30100e-06;0.002444140878215724
8.30125e-06;0.002461844926338112
8.30150e-06;0.0024754742727333225
8.30175e-06;0.0024799993900228886
8.30200e-06;0.002484524507312455
8.30225e-06;0.0024890496246019905
8.30250e-06;0.0024935747418915566
8.30275e-06;0.002498099859181123
8.30300e-06;0.0025026249764706584
8.30325e-06;0.0024952845170206133
8.30350e-06;0.0024851459842528973
8.30375e-06;0.0024750074514852498
8.30400e-06;0.0024564594428416174
8.30425e-06;0.0024359283590740044
8.30450e-06;0.0024153972753065307
8.30475e-06;0.0023869652142939454
8.30500e-06;0.002356669989433635
8.30525e-06;0.00232637476457353
8.30550e-06;0.002285764192746944
8.30575e-06;0.002242721114035544
8.30600e-06;0.002199678035324436
8.30625e-06;0.0021566349566130363
8.30650e-06;0.0021135918779016365
8.30675e-06;0.0020705487991905286
8.30700e-06;0.0020240776694422534
8.30725e-06;0.001969947141749908
8.30750e-06;0.0019158166140575623
8.30775e-06;0.0018616860863655837
8.30800e-06;0.0018075555586732383
8.30825e-06;0.0017534250309808926
8.30850e-06;0.001699294503288914
8.30875e-06;0.0016431811055672445
8.30900e-06;0.001586600118629755
8.30925e-06;0.001533793740720443
8.30950e-06;0.0014822788584739671
8.30975e-06;0.0014519056287021306
8.31000e-06;-0.00599544226642647
8.31025e-06;-0.012727480978596994
8.31050e-06;-0.011079631449684362
8.31075e-06;-0.00899827469022699
8.31100e-06;-0.0038097437475665646
8.31125e-06;0.0024718536511486406
8.31150e-06;0.0021159235369368696
8.31175e-06;0.0009201745316523995
8.31200e-06;-0.002318630763692587
8.31225e-06;-0.00719554948828965
8.31250e-06;-0.006949887731892867
8.31275e-06;-0.004850909959409067
8.31300e-06;-0.0022799829052094827
8.31325e-06;0.0019262275168208743
8.31350e-06;0.0031001265664104124
8.31375e-06;0.0025203952632382462
8.31400e-06;0.0007912036308251294
8.31425e-06;-0.0020459271157173995
8.31450e-06;-0.0038891330885218976
8.31475e-06;-0.003577785367205669
8.31500e-06;-0.0018897575042015498
8.31525e-06;0.00034034632209588235
8.31550e-06;0.0018343808865612162
8.31575e-06;0.0019028124831101173
8.31600e-06;0.0008046292141904422
8.31625e-06;-0.001001021253192712
8.31650e-06;-0.002183096403748316
8.31675e-06;-0.0020146962887328413
8.31700e-06;-0.000983192607641941
8.31725e-06;0.0003885665824293617
8.31750e-06;0.0012999714116371229
8.31775e-06;0.0013191843707439006
8.31800e-06;0.0006085417795371515
8.31825e-06;-0.0005442533204815028
8.31850e-06;-0.0013053884643066183
8.31875e-06;-0.0012195383527558842
8.31900e-06;-0.0005919974005502553
8.31925e-06;0.00024975108968258014
8.31950e-06;0.0008042760388859967
8.31975e-06;0.0008011835905606201
8.32000e-06;0.0003422803270695444
8.32025e-06;-0.0003921077769029565
8.32050e-06;-0.0008796023503261364
8.32075e-06;-0.000834943780954549
8.32100e-06;-0.0004493261093807318
8.32125e-06;7.217725313710469e-05
8.32150e-06;0.000415378541895069
8.32175e-06;0.0004103279244138646
8.32200e-06;0.00011992510977588614
8.32225e-06;-0.000343414249530788
8.32250e-06;-0.0006525826094474204
8.32275e-06;-0.0006288883040482128
8.32300e-06;-0.0003920916510109601
8.32325e-06;-7.063517754684405e-05
8.32350e-06;0.00013870493097367035
8.32375e-06;0.00012951713042550658
8.32400e-06;-5.875001101393528e-05
8.32425e-06;-0.0003556359099891865
8.32450e-06;-0.0005562095832295631
8.32475e-06;-0.0005485218079299332
8.32500e-06;-0.00040757479854731113
8.32525e-06;-0.0002138018976453569
8.32550e-06;-9.043116104510031e-05
8.32575e-06;-0.00010407753893499221
8.32600e-06;-0.00022998734880895824
8.32625e-06;-0.00042398407916950437
8.32650e-06;-0.0005576668737113079
8.32675e-06;-0.0005608876001373637
8.32700e-06;-0.00048060515177835545
8.32725e-06;-0.00036717601749586054
8.32750e-06;-0.00029775736881297273
8.32775e-06;-0.0003140384853443682
8.32800e-06;-0.00040047424168726824
8.32825e-06;-0.0005293549504597175
8.32850e-06;-0.0006202179179375665
8.32875e-06;-0.0006290954659952481
8.32900e-06;-0.0005853762341787206
8.32925e-06;-0.000520574357361057
8.32950e-06;-0.0004829881912334829
8.32975e-06;-0.000498695606451221
8.33000e-06;-0.0005579221628576944
8.33025e-06;-0.0006432748086193525
8.33050e-06;-0.0007043191633510684
8.33075e-06;-0.0007134848173257172
8.33100e-06;-0.0006891520777473171
8.33125e-06;-0.000651030897002093
8.33150e-06;-0.0006289978205200511
8.33175e-06;-0.0006380723094382933
8.33200e-06;-0.000670367600647327
8.33225e-06;-0.0007140396011802254
8.33250e-06;-0.0007375006588799182
8.33275e-06;-0.0007237681380712314
8.33300e-06;-0.0006846431954020873
8.33325e-06;-0.0006327588191457014
8.33350e-06;-0.0005871148702070292
8.33375e-06;-0.0005574034446643464
8.33400e-06;-0.0005389679621191504
8.33425e-06;-0.000524673621296283
8.33450e-06;-0.0004950194378441438
8.33475e-06;-0.0004396543647863269
8.33500e-06;-0.00036625763981878637
8.33525e-06;-0.0002830288149703817
8.33550e-06;-0.00020215475658083597
8.33575e-06;-0.00012999112455072855
8.33600e-06;-6.39054332584328e-05
8.33625e-06;2.8687315196606423e-07
8.33650e-06;7.45157364975254e-05
8.33675e-06;0.00016497874802689008
8.33700e-06;0.00026657929007247176
8.33725e-06;0.00037389529531858454
8.33750e-06;0.00047900765349315314
8.33775e-06;0.0005776504093717066
8.33800e-06;0.0006711879359807732
8.33825e-06;0.0007619566544738565
8.33850e-06;0.0008571442310628702
8.33875e-06;0.0009603470721517119
8.33900e-06;0.001068000601517447
8.33925e-06;0.001176619531033235
8.33950e-06;0.001280886183346365
8.33975e-06;0.0013758947964158555
8.34000e-06;0.001466489374483945
8.34025e-06;0.001552304288686495
8.34050e-06;0.0016354044155369371
8.34075e-06;0.0017190909981621657
8.34100e-06;0.0017993577397901884
8.34125e-06;0.0018771273657221667
8.34150e-06;0.0019475240307249802
8.34175e-06;0.0020037811375682476
8.34200e-06;0.002053674649027479
8.34225e-06;0.0020956973481950475
8.34250e-06;0.0021294714151631235
8.34275e-06;0.0021585759902381595
8.34300e-06;0.002179561073440948
8.34325e-06;0.002196153516430241
8.34350e-06;0.0022016181496849674
8.34375e-06;0.0021990541022217204
8.34400e-06;0.0021855733010008034
8.34425e-06;0.002164216095304327
8.34450e-06;0.0021371768786001026
8.34475e-06;0.002101013880549064
8.34500e-06;0.0020612259175163414
8.34525e-06;0.0020134473792521113
8.34550e-06;0.001959903665377359
8.34575e-06;0.0018976561409650538
8.34600e-06;0.0018291288438482378
8.34625e-06;0.0017540708147890114
8.34650e-06;0.0016743008825897418
8.34675e-06;0.0015903835753373723
8.34700e-06;0.0015034739496587067
8.34725e-06;0.0014122779130120516
8.34750e-06;0.0013179892439511359
8.34775e-06;0.0012190519221687154
8.34800e-06;0.0011167606116522187
8.34825e-06;0.0010144693011357223
8.34850e-06;0.0009112016144053562
8.34875e-06;0.0008072294752191303
8.34900e-06;0.0007032573360329045
8.34925e-06;0.0005992851968473832
8.34950e-06;0.0004963595548177559
8.34975e-06;0.00039505196389371836
8.35000e-06;0.000295685858956901
8.35025e-06;0.00019908764487580282
8.35050e-06;0.00010640055871830159
8.35075e-06;1.855594268114823e-05
8.35100e-06;-6.394231625955593e-05
8.35125e-06;-0.00014060264345736512
8.35150e-06;-0.00021139199676791415
8.35175e-06;-0.0002771885640611097
8.35200e-06;-0.0003393275634451382
8.35225e-06;-0.00039848255032263227
8.35250e-06;-0.00045426049530025145
8.35275e-06;-0.0005061309497592548
8.35300e-06;-0.0005538312462151499
8.35325e-06;-0.0005971063938257526
8.35350e-06;-0.0006359886891347099
8.35375e-06;-0.0006710810955036252
8.35400e-06;-0.0007025869805494397
8.35425e-06;-0.0007325439024845211
8.35450e-06;-0.0007593238267272702
8.35475e-06;-0.0007838115568427563
8.35500e-06;-0.0008047493572094168
8.35525e-06;-0.0008231258941095944
8.35550e-06;-0.0008381780626868899
8.35575e-06;-0.0008508317096775468
8.35600e-06;-0.0008608182249529758
8.35625e-06;-0.0008688804128456347
8.35650e-06;-0.0008769426007383481
8.35675e-06;-0.0008818243195492359
8.35700e-06;-0.0008844113396359696
8.35725e-06;-0.000886998359722721
8.35750e-06;-0.0008868510631813443
8.35775e-06;-0.0008847309655479026
8.35800e-06;-0.0008826108679144466
8.35825e-06;-0.0008785527420562269
8.35850e-06;-0.0008730963347558133
8.35875e-06;-0.0008676399274553627
8.35900e-06;-0.0008621835201549122
8.35925e-06;-0.0008567271128544615
8.35950e-06;-0.000851156831482485
8.35975e-06;-0.0008442926560280256
8.36000e-06;-0.0008374284805735662
8.36025e-06;-0.0008305643051191532
8.36050e-06;-0.0008237001296646938
8.36075e-06;-0.0008168359542102344
8.36100e-06;-0.0008108446293321299
8.36125e-06;-0.0008054830634777295
8.36150e-06;-0.0008001214976233291
8.36175e-06;-0.0007928874326822415
8.36200e-06;-0.0007843023653715605
8.36225e-06;-0.0007757172980608797
8.36250e-06;-0.0007635417037768967
8.36275e-06;-0.0007487755552525379
8.36300e-06;-0.0007315921192601055
8.36325e-06;-0.0007126646177456797
8.36350e-06;-0.0006913251203780101
8.36375e-06;-0.0006682453753721939
8.36400e-06;-0.0006425602285236847
8.36425e-06;-0.0006122527310281101
8.36450e-06;-0.0005799664840224239
8.36475e-06;-0.0005445504919248026
8.36500e-06;-0.0005068763983058136
8.36525e-06;-0.0004672714569516462
8.36550e-06;-0.0004251125562649779
8.36575e-06;-0.000380813922819477
8.36600e-06;-0.00033413537151622495
8.36625e-06;-0.0002850569031108193
8.36650e-06;-0.0002338200143905297
8.36675e-06;-0.00018075134558302616
8.36700e-06;-0.00012618766164275324
8.36725e-06;-7.046598765689245e-05
8.36750e-06;-1.3862915749795096e-05
8.36775e-06;4.352073222341572e-05
8.36800e-06;0.00010167824178573326
8.36825e-06;0.0001604649657944687
8.36850e-06;0.00021951600448146978
8.36875e-06;0.00027859829370742255
8.36900e-06;0.0003370261132943408
8.36925e-06;0.00039498173503605283
8.36950e-06;0.000451544546247195
8.36975e-06;0.0005071024489167291
8.37000e-06;0.000561350854405515
8.37025e-06;0.0006135704075815924
8.37050e-06;0.0006637031739140213
8.37075e-06;0.0007113655858399765
8.37100e-06;0.0007561702033098932
8.37125e-06;0.0007977294236585755
8.37150e-06;0.0008356359218280987
8.37175e-06;0.0008694627706687857
8.37200e-06;0.0008988593740513908
8.37225e-06;0.0009236384266388808
8.37250e-06;0.0009437279983879365
8.37275e-06;0.0009590820666966853
8.37300e-06;0.0009696521236014965
8.37325e-06;0.000975389641039994
8.37350e-06;0.0009762338016881837
8.37375e-06;0.0009721114953996463
8.37400e-06;0.0009629973177383445
8.37425e-06;0.0009489682603130584
8.37450e-06;0.0009301735909908903
8.37475e-06;0.0009067787372097648
8.37500e-06;0.0008789476716569111
8.37525e-06;0.0008468443109606103
8.37550e-06;0.0008106247628295459
8.37575e-06;0.0007704374841661556
8.37600e-06;0.0007264609096725397
8.37625e-06;0.0006789375085985541
8.37650e-06;0.0006281549853450955
8.37675e-06;0.0005744112745290465
8.37700e-06;0.0005180032613236173
8.37725e-06;0.00045922776735333673
8.37750e-06;0.0003983767929962962
8.37775e-06;0.00033573751086838624
8.37800e-06;0.000271615809540991
8.37825e-06;0.00020635768253016564
8.37850e-06;0.00014033747439422617
8.37875e-06;7.398167832649581e-05
8.37900e-06;7.56587866123104e-06
8.37925e-06;-5.8491670733809036e-05
8.37950e-06;-0.00012376068206335672
8.37975e-06;-0.00018790039458582328
8.38000e-06;-0.0002505252693804407
8.38025e-06;-0.00031122464220286936
8.38050e-06;-0.0003695701298448374
8.38075e-06;-0.00042512942840038244
8.38100e-06;-0.00047747070657715743
8.38125e-06;-0.0005261621320097698
8.38150e-06;-0.0005708756628450463
8.38175e-06;-0.0006116009840273008
8.38200e-06;-0.0006485805387343348
8.38225e-06;-0.000681953231514078
8.38250e-06;-0.000711645118125479
8.38275e-06;-0.000737511930027974
8.38300e-06;-0.000759409612677397
8.38325e-06;-0.0007771942279450116
8.38350e-06;-0.0007896321012220658
8.38375e-06;-0.0007994742890868051
8.38400e-06;-0.0008050118073786419
8.38425e-06;-0.0008074435197248016
8.38450e-06;-0.0008058267070916251
8.38475e-06;-0.0008012888960544567
8.38500e-06;-0.0007927867863177929
8.38525e-06;-0.0007814244471806708
8.38550e-06;-0.0007663112490835394
8.38575e-06;-0.0007484918177060854
8.38600e-06;-0.0007275318382276961
8.38625e-06;-0.0007043059628891567
8.38650e-06;-0.0006783937899340509
8.38675e-06;-0.0006505434614550887
8.38700e-06;-0.0006203533093413224
8.38725e-06;-0.0005884749816235339
8.38750e-06;-0.0005543482923690333
8.38775e-06;-0.0005185994171347572
8.38800e-06;-0.0004828505419007234
8.38825e-06;-0.0004455779971479973
8.38850e-06;-0.0004072061294925313
8.38875e-06;-0.0003688342618373253
8.38900e-06;-0.00033046239418185936
8.38925e-06;-0.00029209052652639334
8.38950e-06;-0.00025371865887118737
8.38975e-06;-0.0002160519256729065
8.39000e-06;-0.000178893944831322
8.39025e-06;-0.00014276102418846312
8.39050e-06;-0.00010826037509478932
8.39075e-06;-7.544972416104186e-05
8.39100e-06;-4.4592870860886546e-05
8.39125e-06;-1.5953588826310753e-05
8.39150e-06;1.0351548942232875e-05
8.39175e-06;3.4629450652570934e-05
8.39200e-06;5.74555002886304e-05
8.39225e-06;7.914964455280773e-05
8.39250e-06;9.967344963084062e-05
8.39275e-06;0.00011887767046428814
8.39300e-06;0.0001366130285848389
8.39325e-06;0.00015273026617509692
8.39350e-06;0.00016717234171042313
8.39375e-06;0.0001801474744565996
8.39400e-06;0.00019203203525211042
8.39425e-06;0.00020304237841086407
8.39450e-06;0.00021317033501112387
8.39475e-06;0.00022233832643852667
8.39500e-06;0.0002304687872401998
