Time(s);Current(A)
8.75000e-06;0.013240277902186078
8.75025e-06;0.013274963459273105
8.75050e-06;0.013309649016360366
8.75075e-06;0.013343491671051694
8.75100e-06;0.013370535702534015
8.75125e-06;0.01339757973401652
8.75150e-06;0.013424623765499025
8.75175e-06;0.01345166779698153
8.75200e-06;0.01347871182846385
8.75225e-06;0.013505755859946355
8.75250e-06;0.013524070362939504
8.75275e-06;0.013536810855760159
8.75300e-06;0.013549551348580898
8.75325e-06;0.013562291841401638
8.75350e-06;0.013575032334222291
8.75375e-06;0.013587772827043031
8.75400e-06;0.013598634617546616
8.75425e-06;0.013594343302257533
8.75450e-06;0.01359005198696842
8.75475e-06;0.01358576067167931
8.75500e-06;0.013581469356390227
8.75525e-06;0.013577178041101116
8.75550e-06;0.013572886725812005
8.75575e-06;0.013568595410522922
8.75600e-06;0.01356430409523381
8.75625e-06;0.0135514257247792
8.75650e-06;0.013533064316735
8.75675e-06;0.013514702908690675
8.75700e-06;0.013496341500646351
8.75725e-06;0.01347798009260215
8.75750e-06;0.013459618684557825
8.75775e-06;0.013441257276513501
8.75800e-06;0.0134228958684693
8.75825e-06;0.013404014997046835
8.75850e-06;0.01338094427422846
8.75875e-06;0.013357873551410241
8.75900e-06;0.013334787727279869
8.75925e-06;0.013311580100043026
8.75950e-06;0.01328837247280634
8.75975e-06;0.013265319625456625
8.76000e-06;0.013243515190898869
8.76025e-06;0.013221710756341112
8.76050e-06;0.013200592768626106
8.76075e-06;0.01318501147586061
8.76100e-06;0.013169430183095113
8.76125e-06;0.013153848890329722
8.76150e-06;0.013138267597564226
8.76175e-06;0.01312268630479873
8.76200e-06;0.013107105012033339
8.76225e-06;0.013092751871255755
8.76250e-06;0.01308830467291588
8.76275e-06;0.013083857474576034
8.76300e-06;0.013079410276236159
8.76325e-06;0.013074963077896283
8.76350e-06;0.013070515879556438
8.76375e-06;0.013066068681216562
8.76400e-06;0.013063121521011719
8.76425e-06;0.013072273263521835
8.76450e-06;0.013081425006032014
8.76475e-06;0.013090576748542193
8.76500e-06;0.01309972849105231
8.76525e-06;0.013108880233562489
8.76550e-06;0.013118031976072668
8.76575e-06;0.013127183718582786
8.76600e-06;0.013136335461092965
8.76625e-06;0.013145487203603144
8.76650e-06;0.01315463894611326
8.76675e-06;0.01316379068862344
8.76700e-06;0.013178850735142626
8.76725e-06;0.013197683373354382
8.76750e-06;0.013216516011566265
8.76775e-06;0.013235348649778149
8.76800e-06;0.013254181287989905
8.76825e-06;0.013273013926201787
8.76850e-06;0.013291846564413672
8.76875e-06;0.013310679202625554
8.76900e-06;0.01332951184083731
8.76925e-06;0.013348344479049194
8.76950e-06;0.013367177117261077
8.76975e-06;0.013385930784380409
8.77000e-06;0.013404047491983562
8.77025e-06;0.013422164199586716
8.77050e-06;0.013440280907189746
8.77075e-06;0.0134583976147929
8.77100e-06;0.013476514322396051
8.77125e-06;0.013494631029999081
8.77150e-06;0.013512747737602235
8.77175e-06;0.013524708540060935
8.77200e-06;0.013532738651651909
8.77225e-06;0.013540768763242938
8.77250e-06;0.013548798874833966
8.77275e-06;0.01355682898642494
8.77300e-06;0.013564859098015969
8.77325e-06;0.013572889209606998
8.77350e-06;0.013579185548716826
8.77375e-06;0.013571497746955532
8.77400e-06;0.013563809945194238
8.77425e-06;0.013556122143432995
8.77450e-06;0.013548434341671701
8.77475e-06;0.013540746539910407
8.77500e-06;0.013533058738149166
8.77525e-06;0.013523813167814624
8.77550e-06;0.013502003056624011
8.77575e-06;0.013480192945433548
8.77600e-06;0.013458382834242935
8.77625e-06;0.013436572723052322
8.77650e-06;0.013414762611861857
8.77675e-06;0.013392952500671244
8.77700e-06;0.01337034809080013
8.77725e-06;0.01334133708216
8.77750e-06;0.013312326073520066
8.77775e-06;0.013283057486492791
8.77800e-06;0.01325171134171724
8.77825e-06;0.013220365196941903
8.77850e-06;0.013188917486426362
8.77875e-06;0.013156650574065376
8.77900e-06;0.013124383661704608
8.77925e-06;0.013092229820845118
8.77950e-06;0.013060987984197924
8.77975e-06;0.013029746147550944
8.78000e-06;0.012998807535660165
8.78025e-06;0.012970314652812379
8.78050e-06;0.012941821769964787
8.78075e-06;0.012914111204186772
8.78100e-06;0.01289271059674175
8.78125e-06;0.012871309989296871
8.78150e-06;0.012849909381851848
8.78175e-06;0.012828508774406826
8.78200e-06;0.012807108166961947
8.78225e-06;0.012790030743750465
8.78250e-06;0.012775713775807968
8.78275e-06;0.012761396807865566
8.78300e-06;0.012747079839923068
8.78325e-06;0.012732762871980571
8.78350e-06;0.012719275649168296
8.78375e-06;0.01271248092662447
8.78400e-06;0.012705686204080644
8.78425e-06;0.012698891481536863
8.78450e-06;0.012692096758993038
8.78475e-06;0.012685302036449212
8.78500e-06;0.012678507313905431
8.78525e-06;0.012671712591361607
8.78550e-06;0.012664917868817781
8.78575e-06;0.012658123146273955
8.78600e-06;0.012651328423730176
8.78625e-06;0.01264453370118635
8.78650e-06;0.012637738978642524
8.78675e-06;0.012630944256098744
8.78700e-06;0.012627621688650332
8.78725e-06;0.012626516174260832
8.78750e-06;0.012625410659871343
8.78775e-06;0.012624305145481844
8.78800e-06;0.012623199631092347
8.78825e-06;0.012622094116702856
8.78850e-06;0.012620988602313359
8.78875e-06;0.012619883087923861
8.78900e-06;0.01261877757353437
8.78925e-06;0.012617672059144873
8.78950e-06;0.012616566544755375
8.78975e-06;0.012615461030365885
8.79000e-06;0.012614355515976387
8.79025e-06;0.012613541355612006
8.79050e-06;0.012615077178177737
8.79075e-06;0.012616613000743477
8.79100e-06;0.012618148823309217
8.79125e-06;0.012619684645874948
8.79150e-06;0.012621220468440688
8.79175e-06;0.01262275629100643
8.79200e-06;0.012629009761367906
8.79225e-06;0.012638275561302963
8.79250e-06;0.01264754136123802
8.79275e-06;0.012656807161173015
8.79300e-06;0.012666072961108072
8.79325e-06;0.012675338761043129
8.79350e-06;0.012686172754124694
8.79375e-06;0.012709655369873736
8.79400e-06;0.012733137985622776
8.79425e-06;0.012756620601371818
8.79450e-06;0.0127801032171207
8.79475e-06;0.012803585832869741
8.79500e-06;0.012827068448618782
8.79525e-06;0.012850551064367664
8.79550e-06;0.012882783041086223
8.79575e-06;0.012920601691490835
8.79600e-06;0.012958420341895191
8.79625e-06;0.012996238992299803
8.79650e-06;0.013034057642704416
8.79675e-06;0.013071876293108771
8.79700e-06;0.013109694943513384
8.79725e-06;0.013148362629105303
8.79750e-06;0.013193878403366378
8.79775e-06;0.013239394177627761
8.79800e-06;0.013284909951889145
8.79825e-06;0.013330425726150221
8.79850e-06;0.013375941500411605
8.79875e-06;0.013421457274672989
8.79900e-06;0.013466973048934064
8.79925e-06;0.013512488823195447
8.79950e-06;0.01355800459745683
8.79975e-06;0.013603520371717907
8.80000e-06;0.013642822979473293
8.80025e-06;0.013678158333625472
8.80050e-06;0.013713493687777413
8.80075e-06;0.013748829041929592
8.80100e-06;0.013784164396081773
8.80125e-06;0.013819499750233713
8.80150e-06;0.013854835104385893
8.80175e-06;0.013890170458538072
8.80200e-06;0.013925505812690014
8.80225e-06;0.013960841166842193
8.80250e-06;0.013993591751920123
8.80275e-06;0.014005494287254292
8.80300e-06;0.014017396822588542
8.80325e-06;0.01402929935792279
8.80350e-06;0.014041201893257041
8.80375e-06;0.01405310442859121
8.80400e-06;0.01406500696392546
8.80425e-06;0.014076909499259709
8.80450e-06;0.01408654099503106
8.80475e-06;0.014077854898623579
8.80500e-06;0.014069168802216099
8.80525e-06;0.014060482705808678
8.80550e-06;0.014051796609401196
8.80575e-06;0.014043110512993716
8.80600e-06;0.014034424416586295
8.80625e-06;0.014025738320178815
8.80650e-06;0.014015411258199205
8.80675e-06;0.013991848610797079
8.80700e-06;0.013968285963394791
8.80725e-06;0.013944723315992506
8.80750e-06;0.01392116066859038
8.80775e-06;0.013897598021188092
8.80800e-06;0.013874035373785806
8.80825e-06;0.013850472726383678
8.80850e-06;0.013826910078981392
8.80875e-06;0.013803347431579106
8.80900e-06;0.013779732628149242
8.80925e-06;0.013755697148275823
8.80950e-06;0.013731661668402404
8.80975e-06;0.013707626188529148
8.81000e-06;0.013683590708655729
8.81025e-06;0.013659555228782311
8.81050e-06;0.013635519748909055
8.81075e-06;0.013611484269035636
8.81100e-06;0.013587448789162217
8.81125e-06;0.01356341330928896
8.81150e-06;0.013541261755880428
8.81175e-06;0.013534305444889894
8.81200e-06;0.01352734913389936
8.81225e-06;0.013520392822908872
8.81250e-06;0.013513436511918338
8.81275e-06;0.013506480200927805
8.81300e-06;0.013499523889937318
8.81325e-06;0.013492567578946783
8.81350e-06;0.013485611267956249
8.81375e-06;0.013478654956965763
8.81400e-06;0.013471698645975229
8.81425e-06;0.013464742334984695
8.81450e-06;0.013457786023994207
8.81475e-06;0.013450829713003674
8.81500e-06;0.01344387340201314
8.81525e-06;0.013436917091022653
8.81550e-06;0.013429960780032118
8.81575e-06;0.013423004469041586
8.81600e-06;0.013416048158051098
8.81625e-06;0.013409091847060564
8.81650e-06;0.013408995552695131
8.81675e-06;0.013413279541018073
8.81700e-06;0.013417563529341042
8.81725e-06;0.013421847517664013
8.81750e-06;0.013426131505986953
8.81775e-06;0.013430415494309924
8.81800e-06;0.013434699482632893
8.81825e-06;0.013438983470955835
8.81850e-06;0.013443267459278804
8.81875e-06;0.013447551447601775
8.81900e-06;0.013451835435924715
8.81925e-06;0.013456119424247686
8.81950e-06;0.013460403412570656
8.81975e-06;0.013464687400893597
8.82000e-06;0.013468971389216567
8.82025e-06;0.013473255377539538
8.82050e-06;0.013477539365862507
8.82075e-06;0.013481823354185449
8.82100e-06;0.013486107342508418
8.82125e-06;0.01349074656463178
8.82150e-06;0.013498251006717551
8.82175e-06;0.013505755448803374
8.82200e-06;0.013513259890889197
8.82225e-06;0.013520764332974968
8.82250e-06;0.013528268775060791
8.82275e-06;0.013536688541564122
8.82300e-06;0.013552491067789661
8.82325e-06;0.013568293594015308
8.82350e-06;0.013584096120240953
8.82375e-06;0.013599898646466492
8.82400e-06;0.01361570117269214
8.82425e-06;0.013632930268257156
8.82450e-06;0.013661665687109968
8.82475e-06;0.013690401105962974
8.82500e-06;0.013719136524815982
8.82525e-06;0.013747871943668794
8.82550e-06;0.0137766073625218
8.82575e-06;0.013805342781374807
8.82600e-06;0.013834078200227619
8.82625e-06;0.013862813619080627
8.82650e-06;0.013891549037933633
8.82675e-06;0.013926503375581416
8.82700e-06;0.01396542863980818
8.82725e-06;0.014004353904034943
8.82750e-06;0.014043279168261442
8.82775e-06;0.014082204432488204
8.82800e-06;0.014121129696714968
8.82825e-06;0.014160054960941467
8.82850e-06;0.01419898022516823
8.82875e-06;0.014237905489394992
8.82900e-06;0.014276831944110233
8.82925e-06;0.014315768000983985
8.82950e-06;0.014354704057857999
8.82975e-06;0.014393640114732015
8.83000e-06;0.014432576171605765
8.83025e-06;0.01447151222847978
8.83050e-06;0.014506410020180029
8.83075e-06;0.014538729284158248
8.83100e-06;0.014571048548136685
8.83125e-06;0.014603367812115124
8.83150e-06;0.014635687076093343
8.83175e-06;0.01466718095111188
8.83200e-06;0.014692017461531726
8.83225e-06;0.014716853971951403
8.83250e-06;0.014741690482371249
8.83275e-06;0.014766526992791094
8.83300e-06;0.014791363503210772
8.83325e-06;0.014816200013630617
8.83350e-06;0.014841036524050463
8.83375e-06;0.01486587303447014
8.83400e-06;0.014890709544889986
8.83425e-06;0.01491403425411209
8.83450e-06;0.014936393642551218
8.83475e-06;0.014958753030990497
8.83500e-06;0.014981112419429775
8.83525e-06;0.015003471807868903
8.83550e-06;0.015025831196308181
8.83575e-06;0.01504819058474746
8.83600e-06;0.015070549973186588
8.83625e-06;0.015092909361625866
8.83650e-06;0.015115200699541748
8.83675e-06;0.015136943160300663
8.83700e-06;0.015158685621059724
8.83725e-06;0.015180428081818787
8.83750e-06;0.01520217054257785
8.83775e-06;0.015223913003336765
8.83800e-06;0.015245655464095828
8.83825e-06;0.01526739792485489
8.83850e-06;0.015289140385613806
8.83875e-06;0.015310882846372867
8.83900e-06;0.015330778932865698
8.83925e-06;0.01534949606576646
8.83950e-06;0.01536821319866735
8.83975e-06;0.015386930331568242
8.84000e-06;0.015405647464469005
8.84025e-06;0.015424364597369896
8.84050e-06;0.015443081730270786
8.84075e-06;0.01546179886317155
8.84100e-06;0.01548051599607244
8.84125e-06;0.015498343283264052
8.84150e-06;0.01550899331510572
8.84175e-06;0.01551964334694746
8.84200e-06;0.0155302933787892
8.84225e-06;0.01554094341063087
8.84250e-06;0.01555159344247261
8.84275e-06;0.01556224347431435
8.84300e-06;0.015563465643379694
8.84325e-06;0.015558667899316453
8.84350e-06;0.015553870155253212
8.84375e-06;0.015549072411190005
8.84400e-06;0.015544274667126764
8.84425e-06;0.015539476923063523
8.84450e-06;0.015532637500989996
8.84475e-06;0.015509330455068313
8.84500e-06;0.01548602340914663
8.84525e-06;0.015462716363225104
8.84550e-06;0.01543940931730342
8.84575e-06;0.015416102271381737
8.84600e-06;0.015392795225460054
8.84625e-06;0.01536948817953853
8.84650e-06;0.015344643201115709
8.84675e-06;0.015307393674175423
8.84700e-06;0.015270144147235388
8.84725e-06;0.015232894620295102
8.84750e-06;0.015195645093354816
8.84775e-06;0.015158395566414783
8.84800e-06;0.015121146039474497
8.84825e-06;0.01508389651253421
8.84850e-06;0.015046242302110054
8.84875e-06;0.015005324023912605
8.84900e-06;0.014964405745715158
8.84925e-06;0.014923634131733204
8.84950e-06;0.01488404547173145
8.84975e-06;0.014844456811729695
8.85000e-06;0.014805240993188673
8.85025e-06;0.014769032413251056
8.85050e-06;0.01473282383331344
8.85075e-06;0.014697924962591966
8.85100e-06;0.01467358985296321
8.85125e-06;0.014649254743334452
8.85150e-06;0.014624919633705859
8.85175e-06;0.014600584524077101
8.85200e-06;0.014576249414448343
8.85225e-06;0.01455191430481975
8.85250e-06;0.014527579195190992
8.85275e-06;0.014505284817269962
8.85300e-06;0.014499450430585996
8.85325e-06;0.01449361604390199
8.85350e-06;0.014487781657217985
8.85375e-06;0.014481947270534019
8.85400e-06;0.014476112883850013
8.85425e-06;0.01447027849716601
8.85450e-06;0.014464444110482004
8.85475e-06;0.014460558142757696
8.85500e-06;0.014472387596558403
8.85525e-06;0.01448421705035911
8.85550e-06;0.014496046504159735
8.85575e-06;0.014507875957960442
8.85600e-06;0.014519705411761149
8.85625e-06;0.014531534865561775
8.85650e-06;0.014543364319362482
8.85675e-06;0.014555193773163189
8.85700e-06;0.014567023226963816
8.85725e-06;0.014578852680764523
8.85750e-06;0.01459579835371533
8.85775e-06;0.014617873540943968
8.85800e-06;0.014639948728172755
8.85825e-06;0.01466202391540154
8.85850e-06;0.01468409910263018
8.85875e-06;0.014706174289858966
8.85900e-06;0.014728249477087752
8.85925e-06;0.01475032466431639
8.85950e-06;0.014772399851545177
8.85975e-06;0.014794475038773963
8.86000e-06;0.014816550226002602
8.86025e-06;0.014838764003167481
8.86050e-06;0.014860825141511198
8.86075e-06;0.014880950442826368
8.86100e-06;0.014899196914708234
8.86125e-06;0.014916495606165628
8.86150e-06;0.014924020199515355
8.86175e-06;0.014931544792865133
8.86200e-06;0.01493906938621491
8.86225e-06;0.014946593979564635
8.86250e-06;0.014954118572914413
8.86275e-06;0.01496164316626419
8.86300e-06;0.014969167759613967
8.86325e-06;0.014976692352963695
8.86350e-06;0.014984216946313472
8.86375e-06;0.01499174153966325
8.86400e-06;0.014999266133012975
8.86425e-06;0.015006790726362752
8.86450e-06;0.01501431531971253
8.86475e-06;0.015021839913062256
8.86500e-06;0.015029364506412034
8.86525e-06;0.015036889099761811
8.86550e-06;0.01504339821650682
8.86575e-06;0.01503943511024974
8.86600e-06;0.015035472003992658
8.86625e-06;0.015031508897735602
8.86650e-06;0.015027545791478521
8.86675e-06;0.01502358268522144
8.86700e-06;0.015019619578964383
8.86725e-06;0.015015656472707301
8.86750e-06;0.01501169336645022
8.86775e-06;0.015007730260193164
8.86800e-06;0.015003767153936082
8.86825e-06;0.014999804047679002
8.86850e-06;0.014995840941421945
8.86875e-06;0.014991877835164863
8.86900e-06;0.014987914728907781
8.86925e-06;0.014983951622650727
8.86950e-06;0.014979988516393644
8.86975e-06;0.014975851374600025
8.87000e-06;0.01496991947068148
8.87025e-06;0.014963987566762897
8.87050e-06;0.014958055662844312
8.87075e-06;0.014952123758925769
8.87100e-06;0.014946191855007184
8.87125e-06;0.0149402599510886
8.87150e-06;0.014934328047170016
8.87175e-06;0.014928396143251471
8.87200e-06;0.014922464239332887
8.87225e-06;0.014916532335414304
8.87250e-06;0.014910600431495759
8.87275e-06;0.014904668527577176
8.87300e-06;0.014898736623658591
8.87325e-06;0.014891198142807047
8.87350e-06;0.014882535808060263
8.87375e-06;0.014873873473313478
8.87400e-06;0.014865211138566752
8.87425e-06;0.014856548803819968
8.87450e-06;0.014847886469073182
8.87475e-06;0.014839224134326458
8.87500e-06;0.014830561799579672
8.87525e-06;0.014821899464832887
8.87550e-06;0.014813237130086162
8.87575e-06;0.014804574795339377
8.87600e-06;0.014795912460592593
8.87625e-06;0.014787250125845867
8.87650e-06;0.014778326862128995
8.87675e-06;0.014766712737439212
8.87700e-06;0.014755098612749507
8.87725e-06;0.014743484488059724
8.87750e-06;0.014731870363369941
8.87775e-06;0.014720256238680236
8.87800e-06;0.014708642113990453
8.87825e-06;0.014697027989300669
8.87850e-06;0.014685413864610964
8.87875e-06;0.014673799739921181
8.87900e-06;0.014662185615231398
8.87925e-06;0.014651224117298696
8.87950e-06;0.014640719153446585
8.87975e-06;0.014630214189594475
8.88000e-06;0.014619709225742364
8.88025e-06;0.014609204261890324
8.88050e-06;0.014598699298038215
8.88075e-06;0.014588194334186105
8.88100e-06;0.014577689370334065
8.88125e-06;0.014567184406481954
8.88150e-06;0.014556679442629844
8.88175e-06;0.01454616619748437
8.88200e-06;0.014535567550517336
8.88225e-06;0.0145249689035503
8.88250e-06;0.014514370256583338
8.88275e-06;0.014503771609616302
8.88300e-06;0.014493172962649268
8.88325e-06;0.014482574315682306
8.88350e-06;0.01447197566871527
8.88375e-06;0.014461377021748236
8.88400e-06;0.014450778374781273
8.88425e-06;0.014437140359622706
8.88450e-06;0.014421376205521032
8.88475e-06;0.014405612051419466
8.88500e-06;0.014389847897317794
8.88525e-06;0.01437408374321612
8.88550e-06;0.014358319589114554
8.88575e-06;0.014342555435012882
8.88600e-06;0.01432679128091121
8.88625e-06;0.014311027126809643
8.88650e-06;0.014294908260332155
8.88675e-06;0.014275131380375308
8.88700e-06;0.014255354500418593
8.88725e-06;0.014235577620461745
8.88750e-06;0.014215800740504898
8.88775e-06;0.014196023860548183
8.88800e-06;0.014176246980591336
8.88825e-06;0.014156470100634488
8.88850e-06;0.014136693220677642
8.88875e-06;0.014116916340720927
8.88900e-06;0.014097924409281806
8.88925e-06;0.014079481575387628
8.88950e-06;0.014061038741493576
8.88975e-06;0.014042595907599398
8.89000e-06;0.014024153073705222
8.89025e-06;0.014005710239811169
8.89050e-06;0.01398726740591699
8.89075e-06;0.013968824572022814
8.89100e-06;0.01395038173812876
8.89125e-06;0.013932362540798639
8.89150e-06;0.0139187121458225
8.89175e-06;0.013905061750846453
8.89200e-06;0.013892463678383852
8.89225e-06;0.013890717806757436
8.89250e-06;0.01388897193513103
8.89275e-06;0.013887226063504612
8.89300e-06;0.013885480191878194
8.89325e-06;0.013883734320251789
8.89350e-06;0.01388198844862537
8.89375e-06;0.013891423456560612
8.89400e-06;0.013908679860905384
8.89425e-06;0.013925936265250273
8.89450e-06;0.01394319266959516
8.89475e-06;0.013960449073939932
8.89500e-06;0.01397770547828482
8.89525e-06;0.01399677991987596
8.89550e-06;0.014034603086377852
8.89575e-06;0.014072426252880002
8.89600e-06;0.014110249419382152
8.89625e-06;0.014148072585884044
8.89650e-06;0.014185895752386194
8.89675e-06;0.014223718918888344
8.89700e-06;0.014261542085390494
8.89725e-06;0.014299365251892387
8.89750e-06;0.014337188418394535
8.89775e-06;0.014381118816617447
8.89800e-06;0.014429321426162427
8.89825e-06;0.014477524035707732
8.89850e-06;0.01452572664525304
8.89875e-06;0.014573929254798019
8.89900e-06;0.014622131864343324
8.89925e-06;0.01467033447388863
8.89950e-06;0.014718537083433611
8.89975e-06;0.014766739692978917
8.90000e-06;0.014814356079055901
8.90025e-06;0.014855926966025187
8.90050e-06;0.014897497852994752
8.90075e-06;0.014939068739964319
8.90100e-06;0.014980639626933604
8.90125e-06;0.015021158848731671
8.90150e-06;0.01505083264860407
8.90175e-06;0.015080506448476267
8.90200e-06;0.015110180248348665
