Time(s);Current(A)
6.30000e-06;-0.0008097627146531766
6.30025e-06;-0.0008139045195817784
6.30050e-06;-0.0008200544905724355
6.30075e-06;-0.0008287856991005755
6.30100e-06;-0.0008382283786846018
6.30125e-06;-0.0008497414492352348
6.30150e-06;-0.0008636488641969424
6.30175e-06;-0.0008809662475846166
6.30200e-06;-0.0008992549491244758
6.30225e-06;-0.0009210152949975732
6.30250e-06;-0.0009439661973459575
6.30275e-06;-0.0009698665193628536
6.30300e-06;-0.000996778307517247
6.30325e-06;-0.0010263568937750203
6.30350e-06;-0.0010568500246825399
6.30375e-06;-0.0010901422815268141
6.30400e-06;-0.0011243944631760222
6.30425e-06;-0.0011609738029343046
6.30450e-06;-0.0011983512121056176
6.30475e-06;-0.0012373838677991226
6.30500e-06;-0.0012769841693331943
6.30525e-06;-0.001317717904488214
6.30550e-06;-0.0013588403363550387
6.30575e-06;-0.0014008344068499213
6.30600e-06;-0.0014431273947777157
6.30625e-06;-0.0014856517071887125
6.30650e-06;-0.0015282553494029465
6.30675e-06;-0.0015703248258064685
6.30700e-06;-0.0016122111168076023
6.30725e-06;-0.0016528919805643746
6.30750e-06;-0.0016931594583077022
6.30775e-06;-0.001732224932946752
6.30800e-06;-0.0017698545080646556
6.30825e-06;-0.0018059034528230041
6.30850e-06;-0.0018400951074584047
6.30875e-06;-0.001872153012811891
6.30900e-06;-0.0019007899841685387
6.30925e-06;-0.0019284468303827182
6.30950e-06;-0.0019519062879976218
6.30975e-06;-0.0019739263043288477
6.31000e-06;-0.001990459736198027
6.31025e-06;-0.002005111613382736
6.31050e-06;-0.002019763490567445
6.31075e-06;-0.00202749970336952
6.31100e-06;-0.002032864276619734
6.31125e-06;-0.0020382288498699665
6.31150e-06;-0.0020388816911568602
6.31175e-06;-0.0020356395268065455
6.31200e-06;-0.002029401412753442
6.31225e-06;-0.0020202488796849465
6.31250e-06;-0.0020082612089328414
6.31275e-06;-0.001993517389541748
6.31300e-06;-0.001976096524474129
6.31325e-06;-0.0019560902590888556
6.31350e-06;-0.0019336265938320533
6.31375e-06;-0.0019088683675461875
6.31400e-06;-0.0018819861609035327
6.31425e-06;-0.0018531462449551195
6.31450e-06;-0.0018225134637968484
6.31475e-06;-0.0017902527482114169
6.31500e-06;-0.0017565290587097382
6.31525e-06;-0.0017215149842664456
6.31550e-06;-0.001685406101405356
6.31575e-06;-0.0016484196229038604
6.31600e-06;-0.0016107776122370387
6.31625e-06;-0.0015726995594980548
6.31650e-06;-0.0015344040059744734
6.31675e-06;-0.0014961093765381522
6.31700e-06;-0.0014580342397068772
6.31725e-06;-0.001420401904557826
6.31750e-06;-0.0013834500284939622
6.31775e-06;-0.00134742982780013
6.31800e-06;-0.0013125956699547676
6.31825e-06;-0.0012792001020071819
6.31850e-06;-0.0012474949600266164
6.31875e-06;-0.0012185724816322098
6.31900e-06;-0.0011904506144150863
6.31925e-06;-0.0011647988956518392
6.31950e-06;-0.0011411643852878234
6.31975e-06;-0.0011190318992706832
6.32000e-06;-0.0010972769024195966
6.32025e-06;-0.0010766863731657148
6.32050e-06;-0.0010574193543334694
6.32075e-06;-0.0010400766634985669
6.32100e-06;-0.0010232852085165544
6.32125e-06;-0.0010081728390049134
6.32150e-06;-0.000994448288513352
6.32175e-06;-0.0009817970796422851
6.32200e-06;-0.0009694184638494026
6.32225e-06;-0.0009578612948630284
6.32250e-06;-0.000947217346065593
6.32275e-06;-0.0009378625034266717
6.32300e-06;-0.000928875473412276
6.32325e-06;-0.0009209927068153794
6.32350e-06;-0.0009140234059982636
6.32375e-06;-0.0009075965132390367
6.32400e-06;-0.0009016224976443399
6.32425e-06;-0.0008961240936515861
6.32450e-06;-0.0008913594450212629
6.32475e-06;-0.0008868037933360244
6.32500e-06;-0.0008829226321784007
6.32525e-06;-0.0008797075580774894
6.32550e-06;-0.0008769499319114093
6.32575e-06;-0.0008744898009173108
6.32600e-06;-0.0008722622580784889
6.32625e-06;-0.000870272669803473
6.32650e-06;-0.0008686442003592312
6.32675e-06;-0.0008671183156322151
6.32700e-06;-0.0008660190180447834
6.32725e-06;-0.0008650660131164777
6.32750e-06;-0.0008643268435522407
6.32775e-06;-0.000863701423971891
6.32800e-06;-0.0008630898651825037
6.32825e-06;-0.0008624987428731304
6.32850e-06;-0.0008619311862288778
6.32875e-06;-0.0008613880754317322
6.32900e-06;-0.0008608763233347134
6.32925e-06;-0.0008609283055345941
6.32950e-06;-0.0008631017670578842
6.32975e-06;-0.0008690047187622745
6.33000e-06;-0.0008792219697681327
6.33025e-06;-0.0008936398840076392
6.33050e-06;-0.0009120159683654943
6.33075e-06;-0.0009341077297262134
6.33100e-06;-0.0009596752755869988
6.33125e-06;-0.0009888077159045934
6.33150e-06;-0.0010222363400985035
6.33175e-06;-0.0010626454843374162
6.33200e-06;-0.0011050518607888138
6.33225e-06;-0.0011529269786115374
6.33250e-06;-0.0012059298580674596
6.33275e-06;-0.0012643371850903117
6.33300e-06;-0.0013242154058719956
6.33325e-06;-0.0013894110990640904
6.33350e-06;-0.0014564303521019603
6.33375e-06;-0.001529203763734913
6.33400e-06;-0.0016039504912129254
6.33425e-06;-0.0016834631878734848
6.33450e-06;-0.001764610313329967
6.33475e-06;-0.0018490565324802298
6.33500e-06;-0.0019346341340471405
6.33525e-06;-0.002022408559692901
6.33550e-06;-0.00211093635834585
6.33575e-06;-0.0022012069141321656
6.33600e-06;-0.0022920751264148232
6.33625e-06;-0.0023833393252968055
6.33650e-06;-0.0024747393227695686
6.33675e-06;-0.0025648892058064672
6.33700e-06;-0.002654610377923164
6.33725e-06;-0.002741663841721518
6.33750e-06;-0.0028278024487246047
6.33775e-06;-0.002911354399832443
6.33800e-06;-0.00299183408203759
6.33825e-06;-0.003068939316546934
6.33850e-06;-0.0031420801055136666
6.33875e-06;-0.0032086966382501307
6.33900e-06;-0.0032734361300408832
6.33925e-06;-0.0033323693209551886
6.33950e-06;-0.003386513748919768
6.33975e-06;-0.0034369847012802636
6.34000e-06;-0.0034865248922377502
6.34025e-06;-0.0035320774773381497
6.34050e-06;-0.003576262563491747
6.34075e-06;-0.0036154426841720246
6.34100e-06;-0.003652906415304599
6.34125e-06;-0.0036863228131791504
6.34150e-06;-0.0037163523985713955
6.34175e-06;-0.003743668552612871
6.34200e-06;-0.0037702892442550364
6.34225e-06;-0.003794043454095504
6.34250e-06;-0.003816814640290895
6.34275e-06;-0.0038361648074091014
6.34300e-06;-0.003854341779343837
6.34325e-06;-0.0038698202690454152
6.34350e-06;-0.0038830404478256966
6.34375e-06;-0.0038944525937041263
6.34400e-06;-0.0039054014547219864
6.34425e-06;-0.003914516017045499
6.34450e-06;-0.003923001529853465
6.34475e-06;-0.003929387481490552
6.34500e-06;-0.003935053415203869
6.34525e-06;-0.003939113384001746
6.34550e-06;-0.003941870857071725
6.34575e-06;-0.003943894788145809
6.34600e-06;-0.003945347794607451
6.34625e-06;-0.0039460059518320635
6.34650e-06;-0.003946439482490547
6.34675e-06;-0.003945930377799207
6.34700e-06;-0.0039450980082481445
6.34725e-06;-0.003943589999565527
6.34750e-06;-0.003941627676564802
6.34775e-06;-0.003939559191092123
6.34800e-06;-0.003937533704975067
6.34825e-06;-0.003935526471996121
6.34850e-06;-0.00393358737506509
6.34875e-06;-0.0039317264307661024
6.34900e-06;-0.003929943221930528
6.34925e-06;-0.003927841801921412
6.34950e-06;-0.0039242373295295604
6.34975e-06;-0.003917901954156592
6.35000e-06;-0.003908390376354253
6.35025e-06;-0.0038957922583631468
6.35050e-06;-0.0038802956134257357
6.35075e-06;-0.003862088335871413
6.35100e-06;-0.0038413567596620266
6.35125e-06;-0.003818034424237327
6.35150e-06;-0.003791560930570247
6.35175e-06;-0.0037599271819489808
6.35200e-06;-0.0037268154047923894
6.35225e-06;-0.003689660195296399
6.35250e-06;-0.003648720230380566
6.35275e-06;-0.0036038067879914635
6.35300e-06;-0.003557812724152147
6.35325e-06;-0.0035079140139944944
6.35350e-06;-0.0034566762548141274
6.35375e-06;-0.003402199085996912
6.35400e-06;-0.003344574202932876
6.35425e-06;-0.0032844889968971906
6.35450e-06;-0.0032223132574129816
6.35475e-06;-0.0031579486687464335
6.35500e-06;-0.003093008244110427
6.35525e-06;-0.003026466622348252
6.35550e-06;-0.0029593758903027805
6.35575e-06;-0.002891228009269656
6.35600e-06;-0.002822270287021561
6.35625e-06;-0.002753019774234938
6.35650e-06;-0.002683889804758516
6.35675e-06;-0.002615293999732884
6.35700e-06;-0.002547645232341444
6.35725e-06;-0.0024812945306549763
6.35750e-06;-0.0024164709119297084
6.35775e-06;-0.002353397569865375
6.35800e-06;-0.0022924178339065143
6.35825e-06;-0.0022339568848558076
6.35850e-06;-0.002178455698956862
6.35875e-06;-0.002126354970156726
6.35900e-06;-0.0020780913998018624
6.35925e-06;-0.002033613026410256
6.35950e-06;-0.0019918621454968243
6.35975e-06;-0.001951597139355114
6.36000e-06;-0.0019123994974077263
6.36025e-06;-0.0018744509812216297
6.36050e-06;-0.00183804693397093
6.36075e-06;-0.001804304221205418
6.36100e-06;-0.00177133231705789
6.36125e-06;-0.001740737502780583
6.36150e-06;-0.001711900256669303
6.36175e-06;-0.0016839497823085763
6.36200e-06;-0.0016561925860870757
6.36225e-06;-0.0016290960754751379
6.36250e-06;-0.0016028695301653676
6.36275e-06;-0.0015781318165311346
6.36300e-06;-0.0015538290121541222
6.36325e-06;-0.0015309041423187324
6.36350e-06;-0.0015089871971198385
6.36375e-06;-0.0014875532707062013
6.36400e-06;-0.0014662220256265648
6.36425e-06;-0.00144527991886639
6.36450e-06;-0.0014248767843446774
6.36475e-06;-0.0014054398433309121
6.36500e-06;-0.0013862865542996748
6.36525e-06;-0.0013680578263613231
6.36550e-06;-0.0013505415447345344
6.36575e-06;-0.0013334674658167214
6.36600e-06;-0.0013164985356765263
6.36625e-06;-0.001299920997720036
6.36650e-06;-0.001283849483660587
6.36675e-06;-0.0012686288343851228
6.36700e-06;-0.0012536562523913343
6.36725e-06;-0.0012394968385876916
6.36750e-06;-0.0012260392368024784
6.36775e-06;-0.0012132102196440806
6.36800e-06;-0.0012005470265969913
6.36825e-06;-0.0011884494667721668
6.36850e-06;-0.0011770114800274825
6.36875e-06;-0.001166265075595452
6.36900e-06;-0.0011562995712585988
6.36925e-06;-0.0011471990860719317
6.36950e-06;-0.0011390281548157636
6.36975e-06;-0.001131823199462406
6.37000e-06;-0.0011259785637572227
6.37025e-06;-0.001120515192703866
6.37050e-06;-0.0011173625959016201
6.37075e-06;-0.0011150024498745538
6.37100e-06;-0.0011126423038474954
6.37125e-06;-0.001110282157820437
6.37150e-06;-0.0011110305456055452
6.37175e-06;-0.0011128449657077093
6.37200e-06;-0.0011146593858098735
6.37225e-06;-0.001116473805912044
6.37250e-06;-0.0011208026065535662
6.37275e-06;-0.001125993682169151
6.37300e-06;-0.0011311847577847537
6.37325e-06;-0.0011382891329240895
6.37350e-06;-0.0011460496499128238
6.37375e-06;-0.0011538101669015845
6.37400e-06;-0.001163153936790096
6.37425e-06;-0.0011730406632166775
6.37450e-06;-0.0011829273896432925
6.37475e-06;-0.0011938458368463889
6.37500e-06;-0.0012051180996282855
6.37525e-06;-0.0012170087447229267
6.37550e-06;-0.0012291114562030375
6.37575e-06;-0.0012416271449507453
6.37600e-06;-0.0012542844590240397
6.37625e-06;-0.0012671292339162025
6.37650e-06;-0.0012800382961229914
6.37675e-06;-0.001292908262454911
6.37700e-06;-0.0013057648213515123
6.37725e-06;-0.0013183526936317
6.37750e-06;-0.0013308484232382987
6.37775e-06;-0.0013428287547877446
6.37800e-06;-0.001354632337098461
6.37825e-06;-0.0013658874502294857
6.37850e-06;-0.0013765022262824081
6.37875e-06;-0.0013864447349755732
6.37900e-06;-0.0013956270010491087
6.37925e-06;-0.0014038857106745
6.37950e-06;-0.0014109202390920987
6.37975e-06;-0.0014164496082721234
6.38000e-06;-0.001419766866975373
6.38025e-06;-0.0014224631622442067
6.38050e-06;-0.0014222203897257424
6.38075e-06;-0.0014209697011182442
6.38100e-06;-0.00141971901251075
6.38125e-06;-0.001415490651467927
6.38150e-06;-0.0014102411353607673
6.38175e-06;-0.0014023428087188022
6.38200e-06;-0.0013935361060379164
6.38225e-06;-0.0013828188200284315
6.38250e-06;-0.0013702609644695954
6.38275e-06;-0.0013561779081675963
6.38300e-06;-0.001340658307634027
6.38325e-06;-0.0013237616552993266
6.38350e-06;-0.0013054933336777064
6.38375e-06;-0.0012858664492723967
6.38400e-06;-0.0012649617709291413
6.38425e-06;-0.0012429033786809126
6.38450e-06;-0.0012198229110262373
6.38475e-06;-0.0011958520039657915
6.38500e-06;-0.0011711222365413934
6.38525e-06;-0.0011457466070309249
6.38550e-06;-0.001119804445437677
6.38575e-06;-0.0010933796739904815
6.38600e-06;-0.001066598710046235
6.38625e-06;-0.0010396150327397476
6.38650e-06;-0.0010125868802215283
6.38675e-06;-0.0009856726342882917
6.38700e-06;-0.0009590305628187847
6.38725e-06;-0.0009328070847918746
6.38750e-06;-0.000907127542134353
6.38775e-06;-0.0008821203639435405
6.38800e-06;-0.000857940533525342
6.38825e-06;-0.0008347599326204453
6.38850e-06;-0.0008127533452191958
6.38875e-06;-0.0007920956840939754
6.38900e-06;-0.0007729598409833992
6.38925e-06;-0.0007552690288434959
6.38950e-06;-0.000738438785001974
6.38975e-06;-0.0007218060979508092
6.39000e-06;-0.0007051429238472758
6.39025e-06;-0.0006885335817573347
6.39050e-06;-0.0006721209430090491
6.39075e-06;-0.0006560479358893308
6.39100e-06;-0.0006404562614507767
6.39125e-06;-0.0006253311529353879
6.39150e-06;-0.000610339893807492
6.39175e-06;-0.0005949654594911158
6.39200e-06;-0.0005794573670168708
6.39225e-06;-0.0005636356406732045
6.39250e-06;-0.0005476192803888859
6.39275e-06;-0.0005316251786986766
6.39300e-06;-0.0005156489511115877
6.39325e-06;-0.0004998086705437924
6.39350e-06;-0.00048393064308071914
6.39375e-06;-0.0004676848986504299
6.39400e-06;-0.0004513229725502131
6.39425e-06;-0.0004347196987725332
6.39450e-06;-0.0004179823824543199
6.39475e-06;-0.0004013148407921412
6.39500e-06;-0.00038467725776169707
6.39525e-06;-0.0003682542469356845
6.39550e-06;-0.00035190482093064887
6.39575e-06;-0.0003355721472045178
6.39600e-06;-0.0003192452184604252
6.39625e-06;-0.00030302086220827985
6.39650e-06;-0.0002870019569982528
6.39675e-06;-0.0002712880702332527
6.39700e-06;-0.00025598149631844653
6.39725e-06;-0.000241146034692458
6.39750e-06;-0.0002267673178271734
6.39775e-06;-0.0002128189618675256
6.39800e-06;-0.00019934151735664563
6.39825e-06;-0.000186423633917078
6.39850e-06;-0.0001741629768839388
6.39875e-06;-0.0001626572041604101
6.39900e-06;-0.00015200450460793504
6.39925e-06;-0.0001423763480569096
6.39950e-06;-0.00013407609283359035
6.39975e-06;-0.0001273840024845423
6.40000e-06;-0.000122409184812733
6.40025e-06;-0.00011915248581565803
6.40050e-06;-0.00011759531743570491
6.40075e-06;-0.00011771908232522505
6.40100e-06;-0.00011950554072076808
6.40125e-06;-0.00012298231917846477
6.40150e-06;-0.00012825967015655848
6.40175e-06;-0.00013543337473859025
6.40200e-06;-0.00014449197660704435
6.40225e-06;-0.00015535620121177125
6.40250e-06;-0.0001679346080335316
6.40275e-06;-0.00018213576367296538
6.40300e-06;-0.00019786846600019402
6.40325e-06;-0.000215070251839211
6.40350e-06;-0.00023373038928187263
6.40375e-06;-0.000253829089122442
6.40400e-06;-0.0002757214032768121
6.40425e-06;-0.0002981034567070801
6.40450e-06;-0.0003220494643253091
6.40475e-06;-0.0003465318102324096
6.40500e-06;-0.00037217923054685514
6.40525e-06;-0.00039822619837922673
6.40550e-06;-0.0004251387367442923
6.40575e-06;-0.0004523481115651058
6.40600e-06;-0.00048005996806766685
6.40625e-06;-0.0005079441443015448
6.40650e-06;-0.0005358446610506407
6.40675e-06;-0.0005637507815725885
6.40700e-06;-0.0005911860828702684
6.40725e-06;-0.0006184599226755436
6.40750e-06;-0.0006448380465147835
6.40775e-06;-0.0006709089959035398
6.40800e-06;-0.0006956195432129889
6.40825e-06;-0.0007198635578523963
6.40850e-06;-0.0007422055495125287
6.40875e-06;-0.0007638952664719009
6.40900e-06;-0.0007838194926091049
6.40925e-06;-0.0008020768693651901
6.40950e-06;-0.0008195654682377387
6.40975e-06;-0.0008370826438622812
6.41000e-06;-0.0008549667626190192
6.41025e-06;-0.0008729570334813751
6.41050e-06;-0.0008908483004700668
6.41075e-06;-0.0009087056153336194
6.41100e-06;-0.000926562930197172
6.41125e-06;-0.0009440367269538105
6.41150e-06;-0.0009615720965104112
6.41175e-06;-0.000980175759511086
6.41200e-06;-0.0009991230710329683
6.41225e-06;-0.0010180703825547867
6.41250e-06;-0.0010378716167547305
6.41275e-06;-0.0010579656929263024
6.41300e-06;-0.0010781657239430553
6.41325e-06;-0.001098692911677981
6.41350e-06;-0.0011192200994128373
6.41375e-06;-0.001140699151782776
6.41400e-06;-0.0011625046340785021
6.41425e-06;-0.0011843101163741543
6.41450e-06;-0.0012066596179126127
6.41475e-06;-0.0012291956839630199
6.41500e-06;-0.0012517317500133505
6.41525e-06;-0.0012742268419686953
6.41550e-06;-0.0012967078823769855
6.41575e-06;-0.0013191889227851994
6.41600e-06;-0.0013417023697149416
6.41625e-06;-0.0013642269300510415
6.41650e-06;-0.0013861829242516625
6.41675e-06;-0.001407943935894377
6.41700e-06;-0.001429704947537165
6.41725e-06;-0.001450408405652083
6.41750e-06;-0.0014707491891736849
6.41775e-06;-0.0014901609472171354
6.41800e-06;-0.0015092541077346491
6.41825e-06;-0.0015274655739219468
6.41850e-06;-0.0015446479763768796
6.41875e-06;-0.001560750531375349
6.41900e-06;-0.0015756385981103155
6.41925e-06;-0.0015898217549499712
6.41950e-06;-0.001605084127589458
6.41975e-06;-0.0016233159866762817
6.42000e-06;-0.0016451942183102852
6.42025e-06;-0.0016705546941491684
6.42050e-06;-0.0017001054675600813
6.42075e-06;-0.001730795456776707
6.42100e-06;-0.001764334070257196
6.42125e-06;-0.0018008378383207108
6.42150e-06;-0.0018408395698567297
6.42175e-06;-0.001887013912624523
6.42200e-06;-0.0019349738820035307
6.42225e-06;-0.001989181476205969
6.42250e-06;-0.002045531614244557
6.42275e-06;-0.0021078976625311593
6.42300e-06;-0.002172326791073702
6.42325e-06;-0.0022367559196164624
6.42350e-06;-0.002308350140182756
6.42375e-06;-0.0023824015383457965
6.42400e-06;-0.0024564529365090878
6.42425e-06;-0.0025360310119145702
6.42450e-06;-0.0026175043913104724
6.42475e-06;-0.002701697317902669
6.42500e-06;-0.0027868228787749257
6.42525e-06;-0.0028736180328830397
6.42550e-06;-0.002960985752853979
6.42575e-06;-0.00304980270749322
6.42600e-06;-0.003139116658814469
6.42625e-06;-0.0032286100523990836
6.42650e-06;-0.0033181649834362116
6.42675e-06;-0.0034062680791925154
6.42700e-06;-0.003493873286419686
6.42725e-06;-0.0035786774605919367
6.42750e-06;-0.0036625210559405193
6.42775e-06;-0.003742734109528059
6.42800e-06;-0.003821702114782924
6.42825e-06;-0.0038970460798085737
6.42850e-06;-0.003968160335956317
6.42875e-06;-0.0040309491429837046
6.42900e-06;-0.004091234118900056
6.42925e-06;-0.004151519094816203
6.42950e-06;-0.004201962728821061
6.42975e-06;-0.0042490313992132244
6.43000e-06;-0.004293435170254045
6.43025e-06;-0.004329610533019981
6.43050e-06;-0.004365785895785795
6.43075e-06;-0.0043919730571618295
6.43100e-06;-0.004414734891326367
6.43125e-06;-0.004437496725490828
6.43150e-06;-0.004453047696850879
6.43175e-06;-0.004461594140106953
6.43200e-06;-0.004468586509997166
6.43225e-06;-0.0044711522906350585
6.43250e-06;-0.0044692422652287895
6.43275e-06;-0.0044633542543200755
6.43300e-06;-0.004453482422157051
6.43325e-06;-0.0044397357266679205
6.43350e-06;-0.004422473417878518
6.43375e-06;-0.004402136526007204
6.43400e-06;-0.00437900805394593
6.43425e-06;-0.004353242199417196
6.43450e-06;-0.004324968644094086
6.43475e-06;-0.004294317654224283
6.43500e-06;-0.004261419268219808
6.43525e-06;-0.004226476222730179
6.43550e-06;-0.004189847990492654
6.43575e-06;-0.0041519447791391615
6.43600e-06;-0.004113078141891509
6.43625e-06;-0.0040734790296872705
6.43650e-06;-0.004033362578041052
6.43675e-06;-0.003992944615964125
6.43700e-06;-0.003952440863545738
6.43725e-06;-0.003912111999245408
6.43750e-06;-0.003872317379806923
6.43775e-06;-0.003833448541940405
6.43800e-06;-0.0037958342958736412
6.43825e-06;-0.0037597534257796613
6.43850e-06;-0.003725474563760274
6.43875e-06;-0.0036932668570440496
6.43900e-06;-0.003663395356331723
6.43925e-06;-0.003635597782060829
6.43950e-06;-0.0036085523427727257
6.43975e-06;-0.0035808027025436393
6.44000e-06;-0.0035518391915166287
6.44025e-06;-0.003521822797675733
6.44050e-06;-0.0034910392092161783
6.44075e-06;-0.003459774396629488
6.44100e-06;-0.003428311734789921
6.44125e-06;-0.0033966044097237676
6.44150e-06;-0.003363942063252404
6.44175e-06;-0.003328802309983716
6.44200e-06;-0.003292916704953954
6.44225e-06;-0.0032550694579024718
6.44250e-06;-0.003215536118544086
6.44275e-06;-0.0031745763486382404
6.44300e-06;-0.003133246581083102
6.44325e-06;-0.003091070227466665
6.44350e-06;-0.0030477115377852983
