Time(s);Current(A)
7.75000e-06;0.0015626547973848273
7.75025e-06;0.0015949844964093854
7.75050e-06;0.0016273141954337245
7.75075e-06;0.0016596438944582825
7.75100e-06;0.0016919735934828406
7.75125e-06;0.001721663207278564
7.75150e-06;0.0017505803075590872
7.75175e-06;0.0017794974078396105
7.75200e-06;0.001808414508119938
7.75225e-06;0.0018373316084004613
7.75250e-06;0.0018662487086809846
7.75275e-06;0.001895165808961508
7.75300e-06;0.0019180699921987772
7.75325e-06;0.001939214739932847
7.75350e-06;0.001960359487666917
7.75375e-06;0.0019815042354008436
7.75400e-06;0.0020026489831349134
7.75425e-06;0.0020237937308689832
7.75450e-06;0.0020449384786029095
7.75475e-06;0.0020660832263369793
7.75500e-06;0.0020883777990049566
7.75525e-06;0.0021110088211526374
7.75550e-06;0.0021336398433004717
7.75575e-06;0.002156270865448306
7.75600e-06;0.0021789018875959867
7.75625e-06;0.002201532909743821
7.75650e-06;0.0022241639318916553
7.75675e-06;0.0022467949540393366
7.75700e-06;0.0022731850670425087
7.75725e-06;0.002300675125025013
7.75750e-06;0.002328165183007331
7.75775e-06;0.0023556552409898356
7.75800e-06;0.00238314529897234
7.75825e-06;0.002410635356954658
7.75850e-06;0.0024381254149371625
7.75875e-06;0.002465615472919667
7.75900e-06;0.002493105530901985
7.75925e-06;0.0025205955888844894
7.75950e-06;0.0025488059468478756
7.75975e-06;0.002577227071291095
7.76000e-06;0.0026056481957345066
7.76025e-06;0.0026340693201779186
7.76050e-06;0.0026624904446211376
7.76075e-06;0.0026909115690645496
7.76100e-06;0.0027193326935079616
7.76125e-06;0.002747753817951373
7.76150e-06;0.0027761749423945927
7.76175e-06;0.0028045960668380042
7.76200e-06;0.002824471785111699
7.76225e-06;0.002841847037986424
7.76250e-06;0.0028592222908612667
7.76275e-06;0.0028765975437361094
7.76300e-06;0.002893972796610834
7.76325e-06;0.0029113480494856766
7.76350e-06;0.0029287233023605193
7.76375e-06;0.0029460985552352444
7.76400e-06;0.002963473808110087
7.76425e-06;0.002980849060984929
7.76450e-06;0.0029982243138596543
7.76475e-06;0.003015599566734497
7.76500e-06;0.0030329748196093395
7.76525e-06;0.003050350072484064
7.76550e-06;0.0030574902764801703
7.76575e-06;0.003061635609890546
7.76600e-06;0.0030657809433008937
7.76625e-06;0.0030699262767112695
7.76650e-06;0.0030740716101216453
7.76675e-06;0.003078216943531993
7.76700e-06;0.0030823622769423687
7.76725e-06;0.0030865076103527445
7.76750e-06;0.003090652943763092
7.76775e-06;0.003094798277173468
7.76800e-06;0.0030989436105838437
7.76825e-06;0.0031030889439941913
7.76850e-06;0.003107234277404567
7.76875e-06;0.003111379610814943
7.76900e-06;0.0031110327893443717
7.76925e-06;0.003109371521535478
7.76950e-06;0.0031077102537265845
7.76975e-06;0.003106048985917691
7.77000e-06;0.0031043877181088086
7.77025e-06;0.003102726450299915
7.77050e-06;0.0031010651824910215
7.77075e-06;0.003099403914682139
7.77100e-06;0.0030977426468732456
7.77125e-06;0.003096081379064352
7.77150e-06;0.0030944201112554698
7.77175e-06;0.0030912037956339574
7.77200e-06;0.0030875324585455544
7.77225e-06;0.0030838611214571766
7.77250e-06;0.0030801897843687736
7.77275e-06;0.0030765184472803706
7.77300e-06;0.0030728471101919923
7.77325e-06;0.0030691757731035898
7.77350e-06;0.0030655044360151868
7.77375e-06;0.0030618330989268085
7.77400e-06;0.0030581617618384055
7.77425e-06;0.003054490424750003
7.77450e-06;0.003038415092655236
7.77475e-06;0.0030187102361445626
7.77500e-06;0.0029990053796338893
7.77525e-06;0.0029793005231233496
7.77550e-06;0.0029595956666126763
7.77575e-06;0.002939890810102003
7.77600e-06;0.0029201859535914632
7.77625e-06;0.0029004810970807903
7.77650e-06;0.002880776240570117
7.77675e-06;0.0028610713840595773
7.77700e-06;0.002835935165911633
7.77725e-06;0.002796380942670792
7.77750e-06;0.002756826719430219
7.77775e-06;0.002717272496189378
7.77800e-06;0.002677718272948537
7.77825e-06;0.002638164049707696
7.77850e-06;0.002598609826467123
7.77875e-06;0.002559055603226282
7.77900e-06;0.002519501379985441
7.77925e-06;0.002479947156744868
7.77950e-06;0.002440392933504027
7.77975e-06;0.0024018369775600117
7.78000e-06;0.0023772617022050973
7.78025e-06;-0.0012684291147728177
7.78050e-06;-0.010620383631167378
7.78075e-06;-0.01127000509837538
7.78100e-06;-0.009024708110999485
7.78125e-06;-0.005856138408087879
7.78150e-06;0.000734007074104328
7.78175e-06;0.003292132938591021
7.78200e-06;0.0022441620298291687
7.78225e-06;0.0002578346727543911
7.78250e-06;-0.004515866787286117
7.78275e-06;-0.006995730638233408
7.78300e-06;-0.004746114710748509
7.78325e-06;-0.0026104720056943313
7.78350e-06;0.0008028471913193906
7.78375e-06;0.00410374894837398
7.78400e-06;0.003522369590678587
7.78425e-06;0.003078855290932
7.78450e-06;0.0008999085181859452
7.78475e-06;-0.0018977012634954359
7.78500e-06;-0.002581783792345431
7.78525e-06;-0.0015883348297628915
7.78550e-06;0.000318561100648666
7.78575e-06;0.0024633994554946305
7.78600e-06;0.0032501312146632167
7.78625e-06;0.0029031939448966736
7.78650e-06;0.0015298844021506789
7.78675e-06;-0.00022578522946266376
7.78700e-06;-0.0006562532209471034
7.78725e-06;-3.4883246828957e-05
7.78750e-06;0.001159493921940075
7.78775e-06;0.0025035859759674818
7.78800e-06;0.0029975472714707536
7.78825e-06;0.0027819304529632647
7.78850e-06;0.0019239091679042204
7.78875e-06;0.0008268396352358958
7.78900e-06;0.00056022292657527
7.78925e-06;0.0009526745535009143
7.78950e-06;0.0017041319210471637
7.78975e-06;0.002549351158857374
7.79000e-06;0.0028619804285245553
7.79025e-06;0.002730039309581319
7.79050e-06;0.002195579041399161
7.79075e-06;0.0015112250117554522
7.79100e-06;0.0013468335853492
7.79125e-06;0.0015949488805920122
7.79150e-06;0.0020675257457120786
7.79175e-06;0.0025983474117610037
7.79200e-06;0.002795026139453278
7.79225e-06;0.0027126712555082975
7.79250e-06;0.0023775959669462203
7.79275e-06;0.0019480079557243062
7.79300e-06;0.0018434431399330356
7.79325e-06;0.0019965140190992803
7.79350e-06;0.0022893791032373677
7.79375e-06;0.0026179261481998283
7.79400e-06;0.0027364201577261076
7.79425e-06;0.002679444833311565
7.79450e-06;0.0024635359768220497
7.79475e-06;0.0021878438762198945
7.79500e-06;0.002115196875754877
7.79525e-06;0.002203406203101696
7.79550e-06;0.002378683807738453
7.79575e-06;0.0025758483148362855
7.79600e-06;0.0026410160971151895
7.79625e-06;0.0025959008718046024
7.79650e-06;0.0024509103838281994
7.79675e-06;0.0022681979939703704
7.79700e-06;0.0022124349378281182
7.79725e-06;0.00225722356083648
7.79750e-06;0.002356376637045435
7.79775e-06;0.0024691014113440908
7.79800e-06;0.002499048462298296
7.79825e-06;0.0024598669487593404
7.79850e-06;0.0023581218637473843
7.79875e-06;0.0022327910239638054
7.79900e-06;0.0021870614580201935
7.79925e-06;0.002204431635268844
7.79950e-06;0.002256006175578621
7.79975e-06;0.0023162705770613965
7.80000e-06;0.0023249148553021446
7.80025e-06;0.0022905327866607843
7.80050e-06;0.0022172815779535715
7.80075e-06;0.0021296191292373826
7.80100e-06;0.0020922210409739846
7.80125e-06;0.002094787118638985
7.80150e-06;0.0021192550770898332
7.80175e-06;0.002149681803836102
7.80200e-06;0.0021483310675919276
7.80225e-06;0.0021206293222980573
7.80250e-06;0.002065482700328319
7.80275e-06;0.0020093340772118144
7.80300e-06;0.0019819384102983738
7.80325e-06;0.001980196278158523
7.80350e-06;0.0019940333575680707
7.80375e-06;0.0020084245032370436
7.80400e-06;0.0020029526234750994
7.80425e-06;0.0019795704296024746
7.80450e-06;0.0019369899684723746
7.80475e-06;0.001893707974178146
7.80500e-06;0.001866642655258656
7.80525e-06;0.0018544874286369772
7.80550e-06;0.001850569932325632
7.80575e-06;0.0018469435368430498
7.80600e-06;0.0018295551466886101
7.80625e-06;0.0018001255562306118
7.80650e-06;0.0017576436004056299
7.80675e-06;0.0017146844840061962
7.80700e-06;0.0016810460425139672
7.80725e-06;0.0016562625934326352
7.80750e-06;0.0016361010258831752
7.80775e-06;0.0016161020959543225
7.80800e-06;0.0015871213095193834
7.80825e-06;0.0015504504731394888
7.80850e-06;0.00150555879243541
7.80875e-06;0.0014603667137481594
7.80900e-06;0.0014211330379118575
7.80925e-06;0.0013876362141008202
7.80950e-06;0.0013574789185031365
7.80975e-06;0.0013274400401814888
7.81000e-06;0.001292371999741447
7.81025e-06;0.001251239595916907
7.81050e-06;0.0012098850318983596
7.81075e-06;0.0011683981037970326
7.81100e-06;0.0011269061696987292
7.81125e-06;0.0010945873282933584
7.81150e-06;0.0010626154123580984
7.81175e-06;0.0010306434964226217
7.81200e-06;0.0009981949202241976
7.81225e-06;0.0009643037202940118
7.81250e-06;0.0009296914095038018
7.81275e-06;0.0008950538640355161
7.81300e-06;0.0008675340008310063
7.81325e-06;0.0008402833276749593
7.81350e-06;0.0008185193701073446
7.81375e-06;0.0007999980392294266
7.81400e-06;0.000782796570300742
7.81425e-06;0.0007673572598342649
7.81450e-06;0.0007538204876525476
7.81475e-06;0.0007430896170490114
7.81500e-06;0.0007375891017018019
7.81525e-06;0.0007369058603447932
7.81550e-06;0.0007404210623269041
7.81575e-06;0.0007477283922003724
7.81600e-06;0.0007575220060389744
7.81625e-06;0.0007699286163477194
7.81650e-06;0.0007848855395517653
7.81675e-06;0.0008028083907169044
7.81700e-06;0.0008250651202801483
7.81725e-06;0.0008512463958038701
7.81750e-06;0.000882243375224617
7.81775e-06;0.0009134170992070528
7.81800e-06;0.0009488597892141022
7.81825e-06;0.000984463931099517
7.81850e-06;0.0010247168285804167
7.81875e-06;0.0010651455415444746
7.81900e-06;0.0011055742545085325
7.81925e-06;0.0011525219434318263
7.81950e-06;0.0011997161793899853
7.81975e-06;0.0012469104153481443
7.82000e-06;0.0012941046513059835
7.82025e-06;0.0013412988872641422
7.82050e-06;0.0013899297895189873
7.82075e-06;0.001438615026352977
7.82100e-06;0.0014873002631866368
7.82125e-06;0.0015359855000206264
7.82150e-06;0.001584670736854616
7.82175e-06;0.0016246499224283554
7.82200e-06;0.0016642998459932216
7.82225e-06;0.0017039497695580878
7.82250e-06;0.0017435996931226853
7.82275e-06;0.0017832496166875515
7.82300e-06;0.0018228995402524177
7.82325e-06;0.0018625494638170152
7.82350e-06;0.0019021993873818814
7.82375e-06;0.0019277898336086182
7.82400e-06;0.0019528485517738311
7.82425e-06;0.001977907269939214
7.82450e-06;0.0020029659881045966
7.82475e-06;0.00202802470626981
7.82500e-06;0.0020530834244351925
7.82525e-06;0.0020781421426005753
7.82550e-06;0.002103200860765788
7.82575e-06;0.0021179194036156286
7.82600e-06;0.0021322468820435462
7.82625e-06;0.002146574360471367
7.82650e-06;0.002160901838899284
7.82675e-06;0.0021752293173272017
7.82700e-06;0.0021895567957550223
7.82725e-06;0.0022038842741829395
7.82750e-06;0.002218211752610857
7.82775e-06;0.0022325392310386777
7.82800e-06;0.002246866709466595
7.82825e-06;0.0022611941878945127
7.82850e-06;0.002275521666322333
7.82875e-06;0.002289849144750251
7.82900e-06;0.002304176623178168
7.82925e-06;0.002318504101606086
7.82950e-06;0.0023328315800339064
7.82975e-06;0.0023471590584618236
7.83000e-06;0.0023614865368897413
7.83025e-06;0.002375814015317562
7.83050e-06;0.002386224272285619
7.83075e-06;0.002392101419212829
7.83100e-06;0.0023979785661399993
7.83125e-06;0.0024038557130672093
7.83150e-06;0.0024097328599944194
7.83175e-06;0.0024156100069215895
7.83200e-06;0.0024214871538487995
7.83225e-06;0.0024273643007760096
7.83250e-06;0.0024332414477031797
7.83275e-06;0.0024391185946303897
7.83300e-06;0.0024449957415575998
7.83325e-06;0.00245087288848477
7.83350e-06;0.00245675003541198
7.83375e-06;0.00246262718233919
7.83400e-06;0.00246850432926636
7.83425e-06;0.00247438147619357
7.83450e-06;0.0024802586231207797
7.83475e-06;0.0024861357700479503
7.83500e-06;0.00249201291697516
7.83525e-06;0.00249789006390237
7.83550e-06;0.0024986165729553905
7.83575e-06;0.00249914828538592
7.83600e-06;0.0024996799978164496
7.83625e-06;0.0025002117102469754
7.83650e-06;0.002500743422677505
7.83675e-06;0.0025012751351080344
7.83700e-06;0.0025018068475385602
7.83725e-06;0.00250233855996909
7.83750e-06;0.0025028702723996197
7.83775e-06;0.002503401984830149
7.83800e-06;0.002503933697260675
7.83825e-06;0.0025044654096912046
7.83850e-06;0.002504997122121734
7.83875e-06;0.0025055288345522597
7.83900e-06;0.0025060605469827894
7.83925e-06;0.002506592259413319
7.83950e-06;0.002505468509400747
7.83975e-06;0.0025042821499598384
7.84000e-06;0.0025030957905189297
7.84025e-06;0.002501909431078029
7.84050e-06;0.00250072307163712
7.84075e-06;0.002499536712196211
7.84100e-06;0.00249835035275531
7.84125e-06;0.0024971639933144014
7.84150e-06;0.0024959776338734927
7.84175e-06;0.0024947912744325918
7.84200e-06;0.002493604914991683
7.84225e-06;0.002492418555550774
7.84250e-06;0.0024912321961098735
7.84275e-06;0.0024900458366689643
7.84300e-06;0.0024888594772280556
7.84325e-06;0.0024876731177871547
7.84350e-06;0.0024828543831714863
7.84375e-06;0.0024778982724804554
7.84400e-06;0.0024729421617894582
7.84425e-06;0.0024568020339024617
7.84450e-06;0.0024402389275742127
7.84475e-06;0.002423675821246076
7.84500e-06;0.0023967841286517233
7.84525e-06;0.002369501809930508
7.84550e-06;0.002342219491209478
7.84575e-06;0.002302608692057092
7.84600e-06;0.002262531630975166
7.84625e-06;0.0022224545698932402
7.84650e-06;0.0021691514204208854
7.84675e-06;0.0021153480615729893
7.84700e-06;0.0020615447027250927
7.84725e-06;0.00199727250403105
7.84750e-06;0.0019326043748327966
7.84775e-06;0.0018679362456345435
7.84800e-06;0.0017928486326890443
7.84825e-06;0.0017173669558820381
7.84850e-06;0.0016418852790750318
7.84875e-06;0.001558822468109071
7.84900e-06;0.0014754729393866059
7.84925e-06;0.0013921234106641408
7.84950e-06;0.0013039704959337903
7.84975e-06;0.0012156359176115437
7.85000e-06;0.001127301339289297
7.85025e-06;0.0010389667609676488
7.85050e-06;0.0009498623957642917
7.85075e-06;0.0008607289172960077
7.85100e-06;0.0007715954388283277
7.85125e-06;0.0006824619603600436
7.85150e-06;0.0005974393681827647
7.85175e-06;0.0005125722493255388
7.85200e-06;0.00043094967700943123
7.85225e-06;0.0003521847579498949
7.85250e-06;0.00027680943694468767
7.85275e-06;0.0002053958069274581
7.85300e-06;0.000138516074066979
7.85325e-06;7.67396514612943e-05
7.85350e-06;2.0114179090329898e-05
7.85375e-06;-3.2293956162668286e-05
7.85400e-06;-8.144697839308551e-05
7.85425e-06;-0.00012748146024847088
7.85450e-06;-0.00017012770901710946
7.85475e-06;-0.00020910183905849088
7.85500e-06;-0.00024411995732333665
7.85525e-06;-0.00027489986711385267
7.85550e-06;-0.00030148633592183544
7.85575e-06;-0.0003245386670143086
7.85600e-06;-0.00034473403019554894
7.85625e-06;-0.0003622324606177008
7.85650e-06;-0.00037693941209322095
7.85675e-06;-0.00038875150569535945
7.85700e-06;-0.00039756536461827297
7.85725e-06;-0.00040327870574228777
7.85750e-06;-0.00040599397490481844
7.85775e-06;-0.0004061986809741606
7.85800e-06;-0.0004043913781188939
7.85825e-06;-0.0004007466552278483
7.85850e-06;-0.00039440658438506294
7.85875e-06;-0.00038796709996205835
7.85900e-06;-0.0003780540118300711
7.85925e-06;-0.0003680095523436909
7.85950e-06;-0.0003549055755996577
7.85975e-06;-0.00034168588821044784
7.86000e-06;-0.0003266809542732531
7.86025e-06;-0.0003116085024853545
7.86050e-06;-0.00029511318821760394
7.86075e-06;-0.00027856406142925103
7.86100e-06;-0.00026201493464101023
7.86125e-06;-0.00024454830321582797
7.86150e-06;-0.00022704697185450687
7.86175e-06;-0.00020954564049330434
7.86200e-06;-0.00019304901421713503
7.86225e-06;-0.0001765903857895873
7.86250e-06;-0.00016013175736215112
7.86275e-06;-0.00014517489106422558
7.86300e-06;-0.0001312190791498171
7.86325e-06;-0.0001183617896509611
7.86350e-06;-0.00010646984547309534
7.86375e-06;-9.461289037533993e-05
7.86400e-06;-8.226909415099293e-05
7.86425e-06;-6.925267896672808e-05
7.86450e-06;-5.5689367175552524e-05
7.86475e-06;-4.171620157178724e-05
7.86500e-06;-2.747019677395406e-05
7.86525e-06;-1.3087495246615319e-05
7.86550e-06;1.493511462671048e-06
7.86575e-06;1.668626489560936e-05
7.86600e-06;3.286600293224711e-05
7.86625e-06;5.005696800490271e-05
7.86650e-06;6.811988410523415e-05
7.86675e-06;8.69098062852663e-05
7.86700e-06;0.0001062818182364882
7.86725e-06;0.00012609154454329386
7.86750e-06;0.00014661946422900443
7.86775e-06;0.00016717394990162362
7.86800e-06;0.00018915969232963844
7.86825e-06;0.00021119956474919318
7.86850e-06;0.00023455794374927375
7.86875e-06;0.0002579661885399349
7.86900e-06;0.0002813744333307547
7.86925e-06;0.0003055262230753025
7.86950e-06;0.0003297061336175821
7.86975e-06;0.00035388604416002544
7.87000e-06;0.00037806595470246885
7.87025e-06;0.00040224586524474843
7.87050e-06;0.000425952181585145
7.87075e-06;0.00044964058663883507
7.87100e-06;0.00047332899169236464
7.87125e-06;0.0004970173967460547
7.87150e-06;0.0005207058017997448
7.87175e-06;0.0005422270048617051
7.87200e-06;0.0005636662445547444
7.87225e-06;0.0005851054842479291
7.87250e-06;0.0006038784102703986
7.87275e-06;0.0006225504965687377
7.87300e-06;0.0006412225828672034
7.87325e-06;0.0006572135112743656
7.87350e-06;0.0006731030385504163
7.87375e-06;0.0006889925658265746
7.87400e-06;0.0007089959519762351
7.87425e-06;0.0007291549238687682
7.87450e-06;0.0007541360426951124
7.87475e-06;0.0007792995346501394
7.87500e-06;0.0008082113138288889
7.87525e-06;0.0008372648528665933
7.87550e-06;0.0008702247308171192
7.87575e-06;0.000903332346125731
7.87600e-06;0.0009429122846604444
7.87625e-06;0.0009827370058310336
7.87650e-06;0.001028707430635112
7.87675e-06;0.001074910285354125
7.87700e-06;0.0011258845287460723
7.87725e-06;0.0011770392255939692
7.87750e-06;0.001233642031837141
7.87775e-06;0.0012904508850486434
7.87800e-06;0.0013472597382597606
7.87825e-06;0.0014127484766865714
7.87850e-06;0.0014785654875295125
7.87875e-06;0.0015443824983720075
7.87900e-06;0.0016101995092149485
7.87925e-06;0.0016760165200578896
7.87950e-06;0.0017440233246573712
7.87975e-06;0.0018145642152629835
7.88000e-06;0.0018851051058685958
7.88025e-06;0.001955645996474208
7.88050e-06;0.0020261868870793424
7.88075e-06;0.0020967277776849542
7.88100e-06;0.002162963772932044
7.88125e-06;0.002229036957454086
7.88150e-06;0.002295110141976576
7.88175e-06;0.0023611833264990654
7.88200e-06;0.0024272565110211074
7.88225e-06;0.002493329695543597
7.88250e-06;0.0025429846486023254
7.88275e-06;0.0025920186657401763
7.88300e-06;0.0026410526828783594
7.88325e-06;0.0026900867000165425
7.88350e-06;0.002739120717154393
7.88375e-06;0.002788154734292576
7.88400e-06;0.0028150843608736515
7.88425e-06;0.002841178001548622
7.88450e-06;0.002867271642223769
7.88475e-06;0.0028760409931138453
7.88500e-06;0.0028841551410451645
7.88525e-06;0.0028922692889765383
7.88550e-06;0.0028825062092528147
7.88575e-06;0.0028720670145139966
7.88600e-06;0.0028616278197751083
7.88625e-06;0.0028333828889423435
7.88650e-06;0.002804464546898518
7.88675e-06;0.0027755462048544965
7.88700e-06;0.0027306632587635986
7.88725e-06;0.0026851765328971123
7.88750e-06;0.0026396898070303178
7.88775e-06;0.0025800166427467045
7.88800e-06;0.00251980694873908
7.88825e-06;0.0024595972547310475
7.88850e-06;0.002387906285208957
7.88875e-06;0.0023157810949613537
7.88900e-06;0.0022436559047132616
7.88925e-06;0.0021617064577933646
7.88950e-06;0.0020793854584392406
7.88975e-06;0.0019970644590856746
7.89000e-06;0.0019147434597315504
7.89025e-06;0.0018324224603774263
7.89050e-06;0.0017468566789199265
7.89075e-06;0.0016611681801174435
7.89100e-06;0.0015754796813149605
7.89125e-06;0.001489791182513058
7.89150e-06;0.0014041026837105749
7.89175e-06;0.0013239596716418326
7.89200e-06;0.0012440263893440278
7.89225e-06;0.0011640931070456815
7.89250e-06;0.0010918108239576433
7.89275e-06;0.001019817900918188
7.89300e-06;0.000954047267594024
7.89325e-06;0.0008933856510677718
7.89350e-06;0.0008380961877957899
7.89375e-06;0.0007880357355157001
7.89400e-06;0.0007429380778515273
7.89425e-06;0.0007028146811232307
7.89450e-06;0.0006678343864621684
7.89475e-06;0.0006381716961936935
7.89500e-06;0.0006140010047124352
7.89525e-06;0.0005954959169594651
7.89550e-06;0.0005826862024557029
7.89575e-06;0.0005753022427838043
7.89600e-06;0.0005729973446993407
7.89625e-06;0.0005755988245840885
7.89650e-06;0.0005830325438364924
7.89675e-06;0.0005952278944426845
7.89700e-06;0.0006121141583371307
7.89725e-06;0.0006336202766926341
