Time(s);Current(A)
1.47500e-05;0.009536603065203243
1.47503e-05;0.009556751031690337
1.47505e-05;0.009576898998177293
1.47508e-05;0.009597046964664386
1.47510e-05;0.00961719493115148
1.47513e-05;0.009637342897638436
1.47515e-05;0.00965749086412553
1.47518e-05;0.009677638830612621
1.47520e-05;0.009689618188936783
1.47523e-05;0.009690046065136779
1.47525e-05;0.009690473941336774
1.47528e-05;0.009690901817536766
1.47530e-05;0.009691329693736761
1.47533e-05;0.009691757569936756
1.47535e-05;0.009692185446136748
1.47538e-05;0.009692613322336743
1.47540e-05;0.009693041198536739
1.47543e-05;0.009693469074736732
1.47545e-05;0.009693896950936727
1.47548e-05;0.009676269089900321
1.47550e-05;0.009656947250885763
1.47553e-05;0.009637625411871074
1.47555e-05;0.009618303572856386
1.47558e-05;0.009598981733841827
1.47560e-05;0.009579659894827137
1.47563e-05;0.009560338055812448
1.47565e-05;0.00954101621679789
1.47568e-05;0.009521694377783201
1.47570e-05;0.009502372538768513
1.47573e-05;0.009483050699753822
1.47575e-05;0.009463728860739264
1.47578e-05;0.009444407021724575
1.47580e-05;0.009423607646717265
1.47583e-05;0.009400718842241954
1.47585e-05;0.009377830037766488
1.47588e-05;0.00935494123329102
1.47590e-05;0.009332052428815709
1.47593e-05;0.009309163624340243
1.47595e-05;0.009286274819864777
1.47598e-05;0.009263386015389466
1.47600e-05;0.009240497210913998
1.47603e-05;0.009217608406438533
1.47605e-05;0.009194719601963221
1.47608e-05;0.009171830797487755
1.47610e-05;0.009148941993012288
1.47613e-05;0.009126053188536976
1.47615e-05;0.009113991219470596
1.47618e-05;0.009102945017333677
1.47620e-05;0.009091898815196831
1.47623e-05;0.009080852613059912
1.47625e-05;0.009069806410922992
1.47628e-05;0.009058760208786147
1.47630e-05;0.009047714006649226
1.47633e-05;0.009036667804512306
1.47635e-05;0.009025621602375461
1.47638e-05;0.00901457540023854
1.47640e-05;0.009003529198101622
1.47643e-05;0.008992482995964775
1.47645e-05;0.008981436793827857
1.47648e-05;0.008970390591690936
1.47650e-05;0.008959344389554091
1.47653e-05;0.00894829818741717
1.47655e-05;0.00893725198528025
1.47658e-05;0.008926205783143331
1.47660e-05;0.008915159581006485
1.47663e-05;0.00890668383845249
1.47665e-05;0.008901843062510299
1.47668e-05;0.008897002286568142
1.47670e-05;0.00889216151062595
1.47673e-05;0.008887320734683759
1.47675e-05;0.0088824799587416
1.47678e-05;0.008877639182799409
1.47680e-05;0.00887279840685722
1.47683e-05;0.00886795763091506
1.47685e-05;0.00886311685497287
1.47688e-05;0.008858276079030678
1.47690e-05;0.00885343530308852
1.47693e-05;0.008848594527146328
1.47695e-05;0.008843753751204138
1.47698e-05;0.00883891297526198
1.47700e-05;0.008834072199319788
1.47703e-05;0.008829231423377597
1.47705e-05;0.008824390647435438
1.47708e-05;0.008819549871493247
1.47710e-05;0.008814709095551057
1.47713e-05;0.008803112568694517
1.47715e-05;0.008790882221509942
1.47718e-05;0.00877865187432537
1.47720e-05;0.008766421527140878
1.47723e-05;0.008754191179956305
1.47725e-05;0.00874196083277173
1.47728e-05;0.008729730485587239
1.47730e-05;0.008717500138402666
1.47733e-05;0.008696663955335762
1.47735e-05;0.008663657992858974
1.47738e-05;0.008630652030381963
1.47740e-05;0.008597646067904953
1.47743e-05;0.008564640105427943
1.47745e-05;0.008531634142951154
1.47748e-05;0.008498628180474144
1.47750e-05;0.008465622217997133
1.47753e-05;0.008432616255520345
1.47755e-05;0.00838227688298899
1.47758e-05;0.00833031130076015
1.47760e-05;0.008278345718531659
1.47763e-05;0.008226380136302816
1.47765e-05;0.008174414554073974
1.47768e-05;0.008122448971845483
1.47770e-05;0.00807048338961664
1.47773e-05;0.0080185178073878
1.47775e-05;0.00796655222515931
1.47778e-05;0.007914586642930467
1.47780e-05;0.007862369422158564
1.47783e-05;0.007809796351519265
1.47785e-05;0.00775722328087961
1.47788e-05;0.007704650210239954
1.47790e-05;0.007652077139600654
1.47793e-05;0.007599504068960999
1.47795e-05;0.007546930998321343
1.47798e-05;0.007494357927682044
1.47800e-05;0.007441784857042388
1.47803e-05;0.0073892117864027326
1.47805e-05;0.007336638715763432
1.47808e-05;0.007303805874873067
1.47810e-05;0.007272825050000768
1.47813e-05;0.007241844225128679
1.47815e-05;0.007210863400256379
1.47818e-05;0.00717988257538408
1.47820e-05;0.00714890175051199
1.47823e-05;0.007117920925639691
1.47825e-05;0.007086940100767391
1.47828e-05;0.007055959275895092
1.47830e-05;0.007024978451023002
1.47833e-05;0.0069939976261507025
1.47835e-05;0.006963016801278403
1.47838e-05;0.006932035976406314
1.47840e-05;0.0069060079619114
1.47843e-05;0.0068869838701731585
1.47845e-05;0.0068679597784350455
1.47848e-05;0.006848935686696804
1.47850e-05;0.006829911594958562
1.47853e-05;0.0068108875032204495
1.47855e-05;0.006791863411482207
1.47858e-05;0.006772839319743966
1.47860e-05;0.006753815228005853
1.47863e-05;0.006734791136267611
1.47865e-05;0.00671576704452937
1.47868e-05;0.006696742952791257
1.47870e-05;0.006677718861053015
1.47873e-05;0.006658694769314773
1.47875e-05;0.006644092829839174
1.47878e-05;0.006629905773925333
1.47880e-05;0.006615718718011492
1.47883e-05;0.006601531662097746
1.47885e-05;0.006587344606183905
1.47888e-05;0.006573157550270064
1.47890e-05;0.00655897049435632
1.47893e-05;0.006544783438442479
1.47895e-05;0.006532452867583761
1.47898e-05;0.006522747609817432
1.47900e-05;0.006513042352051038
1.47903e-05;0.006503337094284642
1.47905e-05;0.0064936318365183135
1.47908e-05;0.006483926578751919
1.47910e-05;0.006474221320985524
1.47913e-05;0.00646451606321913
1.47915e-05;0.0064548108054528
1.47918e-05;0.0064619969651290195
1.47920e-05;0.006470767867034888
1.47923e-05;0.006479538768940698
1.47925e-05;0.006488309670846567
1.47928e-05;0.006497080572752436
1.47930e-05;0.006505851474658246
1.47933e-05;0.006514622376564115
1.47935e-05;0.006523393278469985
1.47938e-05;0.006532164180375794
1.47940e-05;0.0065516344367319585
1.47943e-05;0.0065862349820411
1.47945e-05;0.006620835527350007
1.47948e-05;0.006655436072659148
1.47950e-05;0.006690036617968289
1.47953e-05;0.006724637163277196
1.47955e-05;0.006759237708586338
1.47958e-05;0.006793838253895478
1.47960e-05;0.006828438799204385
1.47963e-05;0.006863039344513527
1.47965e-05;0.006911967982429585
1.47968e-05;0.006962240873040944
1.47970e-05;0.007012513763652643
1.47973e-05;0.007062786654264341
1.47975e-05;0.007113059544875699
1.47978e-05;0.0071633324354873976
1.47980e-05;0.007213605326099097
1.47983e-05;0.007263878216710455
1.47985e-05;0.007314151107322153
1.47988e-05;0.0073620679808072565
1.47990e-05;0.0074066531374045435
1.47993e-05;0.007451238294002132
1.47995e-05;0.007495823450599722
1.47998e-05;0.007540408607197311
1.48000e-05;0.007584993763794598
1.48003e-05;0.0076295789203921875
1.48005e-05;0.007674164076989776
1.48008e-05;0.007718749233587063
1.48010e-05;0.007763334390184652
1.48013e-05;0.0077933519847742
1.48015e-05;0.007822002859797622
1.48018e-05;0.007850653734821238
1.48020e-05;0.007879304609844854
1.48023e-05;0.007907955484868275
1.48025e-05;0.007936606359891891
1.48028e-05;0.007965257234915507
1.48030e-05;0.007993908109938929
1.48033e-05;0.008013600348156251
1.48035e-05;0.0080331438165787
1.48038e-05;0.008052687285001017
1.48040e-05;0.008072230753423466
1.48043e-05;0.008091774221845914
1.48045e-05;0.008111317690268231
1.48048e-05;0.00813086115869068
1.48050e-05;0.008151440485859963
1.48053e-05;0.00818208412249824
1.48055e-05;-0.00174161752051793
1.48058e-05;-0.00944330740342434
1.48060e-05;-0.0065372363133319265
1.48063e-05;-0.00375578041973762
1.48065e-05;0.003946178224433325
1.48068e-05;0.011468593347508417
1.48070e-05;0.010768105622535268
1.48073e-05;0.009977023616589226
1.48075e-05;0.00518922565035896
1.48078e-05;-0.004167239301433873
1.48080e-05;0.00024060949606346561
1.48083e-05;0.0034620268362451512
1.48085e-05;0.007619443322471451
1.48088e-05;0.010992981383946533
1.48090e-05;0.011737865710174178
1.48093e-05;0.010063446382796914
1.48095e-05;0.0068731530219706405
1.48098e-05;0.004312371089733955
1.48100e-05;0.004156266193458106
1.48103e-05;0.005964917746682909
1.48105e-05;0.008631378203537035
1.48108e-05;0.010707432288866479
1.48110e-05;0.011141789380364777
1.48113e-05;0.010064381836868783
1.48115e-05;0.008039659067721767
1.48118e-05;0.006410286672983067
1.48120e-05;0.006287514440151375
1.48123e-05;0.007395323283671354
1.48125e-05;0.009040010139609984
1.48128e-05;0.010314238378582485
1.48130e-05;0.010559429363380321
1.48133e-05;0.00985698893961274
1.48135e-05;0.008560520543557566
1.48138e-05;0.007511075938556096
1.48140e-05;0.007404703686092532
1.48143e-05;0.00806846536990208
1.48145e-05;0.009067829677978163
1.48148e-05;0.009834506761177215
1.48150e-05;0.009956083968857365
1.48153e-05;0.009483701568096348
1.48155e-05;0.00863899767731985
1.48158e-05;0.007948920945187347
1.48160e-05;0.007849551895319986
1.48163e-05;0.008232628105855296
1.48165e-05;0.008826047979177576
1.48168e-05;0.009273953545928963
1.48170e-05;0.009318161022622813
1.48173e-05;0.00899086556715279
1.48175e-05;0.008431058496278685
1.48178e-05;0.007968956514499612
1.48180e-05;0.007877829088971515
1.48183e-05;0.00808996325463521
1.48185e-05;0.008435028863856674
1.48188e-05;0.00869024824807063
1.48190e-05;0.008694046194752742
1.48193e-05;0.008466748047440525
1.48195e-05;0.008095569214952107
1.48198e-05;0.0077874978349833065
1.48200e-05;0.00771383248854065
1.48203e-05;0.007832274526637824
1.48205e-05;0.008036253161198074
1.48208e-05;0.008186357176074797
1.48210e-05;0.008181539907047843
1.48213e-05;0.008034801745068057
1.48215e-05;0.007801108270448255
1.48218e-05;0.007610270724652269
1.48220e-05;0.0075694984112728994
1.48223e-05;0.0076521113822200695
1.48225e-05;0.007791166582246692
1.48228e-05;0.007899155583342572
1.48230e-05;0.007912608318276495
1.48233e-05;0.007839497584660293
1.48235e-05;0.0077140811916670575
1.48238e-05;0.0076174931474574095
1.48240e-05;0.00761670424538958
1.48243e-05;0.007694814848886018
1.48245e-05;0.007809706564490646
1.48248e-05;0.007906384224923993
1.48250e-05;0.007944913870034265
1.48253e-05;0.007930115810067131
1.48255e-05;0.0078832731239862
1.48258e-05;0.007855028382980024
1.48260e-05;0.007887150105093658
1.48263e-05;0.007968866655101145
1.48265e-05;0.008065372949783899
1.48268e-05;0.008162810711508225
1.48270e-05;0.008223115610093073
1.48273e-05;0.008245522609053844
1.48275e-05;0.008255185238511672
1.48278e-05;0.008263357128442608
1.48280e-05;0.008308594830818678
1.48283e-05;0.008387491417505128
1.48285e-05;0.008473637390122777
1.48288e-05;0.008559606845662957
1.48290e-05;0.008620488638769066
1.48293e-05;0.008655377543008077
1.48295e-05;0.00867931453922885
1.48298e-05;0.008701211329941921
1.48300e-05;0.008743773900005141
1.48303e-05;0.008804332301879164
1.48305e-05;0.008865496700227793
1.48308e-05;0.008925092963099608
1.48310e-05;0.008965780300717806
1.48313e-05;0.008987078784944848
1.48315e-05;0.009000351375832126
1.48318e-05;0.009012149370207395
1.48320e-05;0.00903717492400166
1.48323e-05;0.009073808993997606
1.48325e-05;0.009111193202260975
1.48328e-05;0.009147726658556704
1.48330e-05;0.009172667899821347
1.48333e-05;0.009185739911061072
1.48335e-05;0.009194067638200196
1.48338e-05;0.009201571769845186
1.48340e-05;0.009219252182150138
1.48343e-05;0.0092418097462299
1.48345e-05;0.009260553290559083
1.48348e-05;0.00927746890248171
1.48350e-05;0.00929438451440445
1.48353e-05;0.009311300126327192
1.48355e-05;0.009322651894757724
1.48358e-05;0.009331337098647731
1.48360e-05;0.009340022302537736
1.48363e-05;0.009353733055616873
1.48365e-05;0.009369852386738318
1.48368e-05;0.009385971717859763
1.48370e-05;0.009396306431373487
1.48373e-05;0.009403868770679365
1.48375e-05;0.00941166699411639
1.48378e-05;0.009419578268946837
1.48380e-05;0.009427489543777338
1.48383e-05;0.009435400818607838
1.48385e-05;0.009443036666887433
1.48388e-05;0.009449383112832006
1.48390e-05;0.009455729558776582
1.48393e-05;0.009462076004721112
1.48395e-05;0.009468422450665686
1.48398e-05;0.009472536699614106
1.48400e-05;0.009475581131022337
1.48403e-05;0.00947862556243059
1.48405e-05;0.009481669993838841
1.48408e-05;0.009484714425247074
1.48410e-05;0.009487758856655325
1.48413e-05;0.009490803288063577
1.48415e-05;0.009489684017510724
1.48418e-05;0.00946907248299469
1.48420e-05;0.009448460948478654
1.48423e-05;0.009427849413962618
1.48425e-05;0.009407237879446723
1.48428e-05;0.009386626344930687
1.48430e-05;0.009366014810414653
1.48433e-05;0.009345403275898757
1.48435e-05;0.009297757291713818
1.48438e-05;0.009237154597840525
1.48440e-05;0.009176551903967642
1.48443e-05;0.009115949210094348
1.48445e-05;0.009055346516221056
1.48448e-05;0.008994743822348173
1.48450e-05;0.00893414112847488
1.48453e-05;0.008873538434601586
1.48455e-05;0.0088072431877412
1.48458e-05;0.008714298400035554
1.48460e-05;0.008621353612329909
1.48463e-05;0.008528408824624892
1.48465e-05;0.008435464036919247
1.48468e-05;0.0083425192492136
1.48470e-05;0.008249574461508584
1.48473e-05;0.008156629673802939
1.48475e-05;0.008063684886097293
1.48478e-05;0.00796522849308854
1.48480e-05;0.007864130571558135
1.48483e-05;0.007763032650027729
1.48485e-05;0.007661934728498008
1.48488e-05;0.007560836806967603
1.48490e-05;0.007459738885437197
1.48493e-05;0.007358640963907476
1.48495e-05;0.0072612693002393905
1.48498e-05;0.007181342017210629
1.48500e-05;0.007101414734182409
1.48503e-05;0.007021487451153647
1.48505e-05;0.006941560168124886
1.48508e-05;0.006861632885096124
1.48510e-05;0.006781705602067905
1.48513e-05;0.006701778319039143
1.48515e-05;0.006653197049134517
1.48518e-05;0.006619638877426551
1.48520e-05;0.006586080705718357
1.48523e-05;0.006552522534010164
1.48525e-05;0.006518964362302197
1.48528e-05;0.006485406190594004
1.48530e-05;0.00645184801888581
1.48533e-05;0.006418289847177844
1.48535e-05;0.006419338687022032
1.48538e-05;0.0064369735128030495
1.48540e-05;0.006454608338583948
1.48543e-05;0.006472243164364966
1.48545e-05;0.006489877990145983
1.48548e-05;0.006507512815926882
1.48550e-05;0.006525147641707899
1.48553e-05;0.006542782467488917
1.48555e-05;0.006587273225632457
1.48558e-05;0.006644635136080813
1.48560e-05;0.006701997046529167
1.48563e-05;0.006759358956977134
1.48565e-05;0.006816720867425488
1.48568e-05;0.006874082777873844
1.48570e-05;0.006931444688321809
1.48573e-05;0.006988806598770164
1.48575e-05;0.007048784001845043
1.48578e-05;0.007121005766591387
1.48580e-05;0.007193227531338222
1.48583e-05;0.007265449296085056
1.48585e-05;0.007337671060831401
1.48588e-05;0.0074098928255782355
1.48590e-05;0.00748211459032507
1.48593e-05;0.007554336355071903
1.48595e-05;0.0076265581198182485
1.48598e-05;0.007686983429716561
1.48600e-05;0.007741755092406352
1.48603e-05;0.007796526755095773
1.48605e-05;0.007851298417785564
1.48608e-05;0.007906070080475357
1.48610e-05;0.007960841743164778
1.48613e-05;0.00801561340585457
1.48615e-05;0.00807038506854436
1.48618e-05;0.0080985678258077
1.48620e-05;0.008114007407865009
1.48623e-05;0.00812944698992232
1.48625e-05;0.008144886571979525
1.48628e-05;0.008160326154036834
1.48630e-05;0.008175765736094145
1.48633e-05;0.00819120531815135
1.48635e-05;0.008206644900208662
1.48638e-05;0.008191954900087903
1.48640e-05;0.008162824796531347
1.48643e-05;0.008133694692974593
1.48645e-05;0.008104564589417839
1.48648e-05;0.008075434485861281
1.48650e-05;0.008046304382304527
1.48653e-05;0.008017174278747773
1.48655e-05;0.007988044175191217
1.48658e-05;0.007958914071634463
1.48660e-05;0.007924329155778485
1.48663e-05;0.007864207675991525
1.48665e-05;0.007804086196204157
1.48668e-05;0.0077439647164167895
1.48670e-05;0.0076838432366298295
1.48673e-05;0.007623721756842462
1.48675e-05;0.007563600277055094
1.48678e-05;0.007503478797268134
1.48680e-05;0.007443357317480767
1.48683e-05;0.007383235837693399
1.48685e-05;0.007321239226933377
1.48688e-05;0.007258343928463992
1.48690e-05;0.00719544862999418
1.48693e-05;0.0071325533315243685
1.48695e-05;0.007069658033054983
1.48698e-05;0.007006762734585171
1.48700e-05;0.006943867436115359
1.48703e-05;0.006880972137645974
1.48705e-05;0.006835669028878733
1.48708e-05;0.006798797269657744
1.48710e-05;0.0067619255104370045
1.48713e-05;0.0067250537512160155
1.48715e-05;0.0066881819919950266
1.48718e-05;0.006651310232774287
1.48720e-05;0.006614438473553298
1.48723e-05;0.006577566714332309
1.48725e-05;0.006573125927678782
1.48728e-05;0.006584228224090782
1.48730e-05;0.0065953305205027814
1.48733e-05;0.006606432816914707
1.48735e-05;0.0066175351133267064
1.48738e-05;0.006628637409738706
1.48740e-05;0.0066397397061506306
1.48743e-05;0.006650842002562631
1.48745e-05;0.0066700431792256305
1.48748e-05;0.006727159056162902
1.48750e-05;0.006784274933100562
1.48753e-05;0.006841390810038221
1.48755e-05;0.006898506686975493
1.48758e-05;0.006955622563913152
1.48760e-05;0.007012738440850812
1.48763e-05;0.0070698543177880845
1.48765e-05;0.007126970194725743
1.48768e-05;0.007201010300538387
1.48770e-05;0.007283161624560948
1.48773e-05;0.007365312948582952
1.48775e-05;0.007447464272605514
1.48778e-05;0.007529615596628075
1.48780e-05;0.0076117669206500795
1.48783e-05;0.007693918244672641
1.48785e-05;0.007776069568695202
1.48788e-05;0.007855147932661392
1.48790e-05;0.007932753529404916
1.48793e-05;0.00801035912614844
1.48795e-05;0.008087964722891439
1.48798e-05;0.008165570319634963
1.48800e-05;0.008243175916378487
1.48803e-05;0.008320781513121484
1.48805e-05;0.008398387109865008
1.48808e-05;0.008451872636065581
1.48810e-05;0.008493798217237478
1.48813e-05;0.008535723798409658
1.48815e-05;0.008577649379581838
1.48818e-05;0.008619574960753733
1.48820e-05;0.008661500541925913
1.48823e-05;0.008703426123098093
1.48825e-05;0.008745351704269988
1.48828e-05;0.008754743926783161
1.48830e-05;0.008748543995988614
1.48833e-05;0.008742344065194108
1.48835e-05;0.00873614413439956
1.48838e-05;0.008729944203605013
1.48840e-05;0.008723744272810507
1.48843e-05;0.00871754434201596
1.48845e-05;0.008711344411221412
1.48848e-05;0.008675402452295861
1.48850e-05;0.008625206131649523
1.48853e-05;0.008575009811003183
1.48855e-05;0.008524813490356845
1.48858e-05;0.008474617169710845
1.48860e-05;0.008424420849064506
1.48863e-05;0.008374224528418166
1.48865e-05;0.008324028207772168
1.48868e-05;0.00827383188712583
1.48870e-05;0.008208167807360113
1.48873e-05;0.008135090546740545
1.48875e-05;0.008062013286120481
1.48878e-05;0.007988936025500416
1.48880e-05;0.007915858764880847
1.48883e-05;0.007842781504260784
1.48885e-05;0.007769704243640719
1.48888e-05;0.00769662698302115
1.48890e-05;0.007623549722401086
1.48893e-05;0.007553868965600138
1.48895e-05;0.0074858160397538055
1.48898e-05;0.007417763113907012
1.48900e-05;0.007349710188060219
1.48903e-05;0.007281657262213886
1.48905e-05;0.0072167211624385216
1.48908e-05;0.007166376404025467
1.48910e-05;0.0071160316456127535
1.48913e-05;0.007065686887199698
1.48915e-05;0.007015342128786644
1.48918e-05;0.00696499737037393
1.48920e-05;0.0069282906350866345
1.48923e-05;0.0068981201492436615
1.48925e-05;0.006867949663400893
1.48928e-05;0.00683777917755792
1.48930e-05;0.006807608691714947
1.48933e-05;0.006777438205872178
1.48935e-05;0.006747267720029205
1.48938e-05;0.006717097234186232
1.48940e-05;0.006686926748343259
1.48943e-05;0.006656756262500491
1.48945e-05;0.006626585776657518
1.48948e-05;0.006596415290814545
1.48950e-05;0.0065662448049717765
1.48953e-05;0.0065360743191288035
1.48955e-05;0.0065059038332858305
1.48958e-05;0.006475733347443061
1.48960e-05;0.006455937441532859
1.48963e-05;0.006441113725631857
1.48965e-05;0.006426290009730955
1.48968e-05;0.006411466293829953
1.48970e-05;0.0063966425779289505
1.48973e-05;0.006381818862028049
1.48975e-05;0.0063669951461270465
1.48978e-05;0.006352171430226044
1.48980e-05;0.006337347714325142
1.48983e-05;0.006322523998424139
1.48985e-05;0.006307700282523137
1.48988e-05;0.0062928765666222354
1.48990e-05;0.006278052850721233
1.48993e-05;0.006263229134820231
1.48995e-05;0.006248405418919329
1.48998e-05;0.006233581703018327
1.49000e-05;0.006224158711954853
1.49003e-05;0.006217324108108814
1.49005e-05;0.006210489504262728
1.49008e-05;0.0062036549004166434
1.49010e-05;0.006196820296570604
1.49013e-05;0.006189985692724519
