Time(s);Current(A)
1.37500e-05;0.009435445966223978
1.37503e-05;0.009474790917734408
1.37505e-05;0.009514135869244838
1.37508e-05;0.009553480820755
1.37510e-05;0.009591861450011513
1.37513e-05;0.009628334873254082
1.37515e-05;0.009664808296496404
1.37518e-05;0.009701281719738972
1.37520e-05;0.009737755142981542
1.37523e-05;0.009774228566223864
1.37525e-05;0.009810701989466432
1.37528e-05;0.009847175412709002
1.37530e-05;0.009883648835951324
1.37533e-05;0.009920122259193892
1.37535e-05;0.009956595682436462
1.37538e-05;0.009993069105678784
1.37540e-05;0.010029542528921352
1.37543e-05;0.01004944940991867
1.37545e-05;0.010066102173954698
1.37548e-05;0.010082754937990837
1.37550e-05;0.010099407702026978
1.37553e-05;0.010116060466063006
1.37555e-05;0.010132713230099144
1.37558e-05;0.010137406058176148
1.37560e-05;0.01011844490367867
1.37563e-05;0.010099483749181064
1.37565e-05;0.010080522594683457
1.37568e-05;0.01006156144018598
1.37570e-05;0.010042600285688373
1.37573e-05;0.010023639131190766
1.37575e-05;0.00998060195919799
1.37578e-05;0.009932835606201278
1.37580e-05;0.00988506925320424
1.37583e-05;0.009842876706806617
1.37585e-05;0.0033104663952669084
1.37588e-05;-0.005344218235113385
1.37590e-05;-0.00406488499724737
1.37593e-05;-0.0021787072088832638
1.37595e-05;0.0036394566187275424
1.37598e-05;0.01039633967896772
1.37600e-05;0.010864795170856475
1.37603e-05;0.010148180658744331
1.37605e-05;0.006148000716211965
1.37608e-05;0.0009236510164477415
1.37610e-05;0.0007992320685244885
1.37613e-05;0.002094039689720704
1.37615e-05;0.004256708499472113
1.37618e-05;0.008937923659945151
1.37620e-05;0.01114962444042133
1.37623e-05;0.01075715893340128
1.37625e-05;0.008548842650257559
1.37628e-05;0.005036764220742705
1.37630e-05;0.003452787343770896
1.37633e-05;0.004146760319632437
1.37635e-05;0.005929538348628051
1.37638e-05;0.008516652400805125
1.37640e-05;0.009858227366344879
1.37643e-05;0.009576503240595053
1.37645e-05;0.008165206672626567
1.37648e-05;0.005944442795977037
1.37650e-05;0.004936706015371276
1.37653e-05;0.005358973847956618
1.37655e-05;0.006465368436215591
1.37658e-05;0.008077399950296956
1.37660e-05;0.008910828165910637
1.37663e-05;0.008728918674307072
1.37665e-05;0.00784085282302281
1.37668e-05;0.006447050861221568
1.37670e-05;0.00581425517250867
1.37673e-05;0.006078184460489359
1.37675e-05;0.006771452413872172
1.37678e-05;0.007782119720026994
1.37680e-05;0.00830565750508418
1.37683e-05;0.008193743599250717
1.37685e-05;0.007640019942186676
1.37688e-05;0.006769990638254399
1.37690e-05;0.006377067499282003
1.37693e-05;0.0065461525647039125
1.37695e-05;0.006984376162485004
1.37698e-05;0.007621540648185946
1.37700e-05;0.007953638336431921
1.37703e-05;0.007887738861927143
1.37705e-05;0.0075451186518418895
1.37708e-05;0.007004363907319901
1.37710e-05;0.006762412539605646
1.37713e-05;0.006872368937514213
1.37715e-05;0.007150709129276042
1.37718e-05;0.007553401008777752
1.37720e-05;0.007764692600531605
1.37723e-05;0.007726346799450286
1.37725e-05;0.007514305034768638
1.37728e-05;0.007177763255121696
1.37730e-05;0.007027956016127413
1.37733e-05;0.0070980850272469006
1.37735e-05;0.007273133062114312
1.37738e-05;0.007525466921180014
1.37740e-05;0.007657258691757901
1.37743e-05;0.007631998036179642
1.37745e-05;0.007497265300051539
1.37748e-05;0.007284364126210086
1.37750e-05;0.007189625584702997
1.37753e-05;0.007235195200383258
1.37755e-05;0.0073493818039658985
1.37758e-05;0.007514713672742025
1.37760e-05;0.007607111056607929
1.37763e-05;0.007603551609360391
1.37765e-05;0.007533686160245893
1.37768e-05;0.007416968872879527
1.37770e-05;0.007376219025970572
1.37773e-05;0.00742514076492094
1.37775e-05;0.007518660423096511
1.37778e-05;0.0076456692053827385
1.37780e-05;0.007728284558674327
1.37783e-05;0.007751930081320941
1.37785e-05;0.00773502233165314
1.37788e-05;0.007689590882257811
1.37790e-05;0.007692408119713558
1.37793e-05;0.007751893087162452
1.37795e-05;0.007839647563268137
1.37798e-05;0.007948551871777447
1.37800e-05;0.00802965799597639
1.37803e-05;0.008073680185641878
1.37805e-05;0.00809199632614944
1.37808e-05;0.008091982665540755
1.37810e-05;0.00812156881669412
1.37813e-05;0.008185866588118939
1.37815e-05;0.008266923923533346
1.37818e-05;0.00836011855222362
1.37820e-05;0.008434630372646303
1.37823e-05;0.00848448431196869
1.37825e-05;0.00851664864491955
1.37828e-05;0.008535585861781417
1.37830e-05;0.008571158416232759
1.37833e-05;0.00862640621767759
1.37835e-05;0.00868928215746222
1.37838e-05;0.008752382055860356
1.37840e-05;0.00881312346668083
1.37843e-05;0.008849442150504018
1.37845e-05;0.008872109083923739
1.37848e-05;0.008885739921125764
1.37850e-05;0.008900531383838789
1.37853e-05;0.008926839358328078
1.37855e-05;0.008954018808655272
1.37858e-05;0.008976584288976994
1.37860e-05;0.008997226440866509
1.37863e-05;0.00899729590466583
1.37865e-05;0.008980550724774206
1.37868e-05;0.008963805544882584
1.37870e-05;0.008947142768109415
1.37873e-05;0.008930815436336576
1.37875e-05;0.00890985540091309
1.37878e-05;0.008888895365489749
1.37880e-05;0.008866335163793732
1.37883e-05;0.008826805221882266
1.37885e-05;0.008774720075574675
1.37888e-05;0.00872263492926673
1.37890e-05;0.00867045979461617
1.37893e-05;0.008617055151138364
1.37895e-05;0.00856024633673197
1.37898e-05;0.008503437522325574
1.37900e-05;0.0084454103312695
1.37903e-05;0.008375437272270915
1.37905e-05;0.008304876315292722
1.37908e-05;0.00822855117067449
1.37910e-05;0.008152482889332496
1.37913e-05;0.0080789330859861
1.37915e-05;0.0080052053574129
1.37918e-05;0.007929733118008495
1.37920e-05;0.007854260878603577
1.37923e-05;0.007778788639198661
1.37925e-05;0.007703316399794255
1.37928e-05;0.007628523331027782
1.37930e-05;0.007560389354717291
1.37933e-05;0.007492255378407261
1.37935e-05;0.00742412140209677
1.37938e-05;0.007355987425786278
1.37940e-05;0.007289442881506211
1.37943e-05;0.007238482307207045
1.37945e-05;0.007187521732907879
1.37948e-05;0.007136561158609058
1.37950e-05;0.007085600584309892
1.37953e-05;0.007037072875882525
1.37955e-05;0.00701239878811986
1.37958e-05;0.0069877247003570266
1.37960e-05;0.006963050612594194
1.37963e-05;0.0069383765248315285
1.37965e-05;0.006917355119058272
1.37968e-05;0.0069321473155109095
1.37970e-05;0.0069469395119634465
1.37973e-05;0.006961731708416084
1.37975e-05;0.006976523904868722
1.37978e-05;0.0069913161013212596
1.37980e-05;0.007006108297773897
1.37983e-05;0.007020900494226535
1.37985e-05;0.007035692690679073
1.37988e-05;0.00705048488713171
1.37990e-05;0.007068845759214798
1.37993e-05;0.00712219657290132
1.37995e-05;0.007175547386588204
1.37998e-05;0.007228898200275087
1.38000e-05;0.0072822490139619715
1.38003e-05;0.007335599827648494
1.38005e-05;0.007388950641335377
1.38008e-05;0.007442301455022261
1.38010e-05;0.007495652268708784
1.38013e-05;0.007549003082395668
1.38015e-05;0.007603282396490392
1.38018e-05;0.007666665416950568
1.38020e-05;0.007730048437411174
1.38023e-05;0.0077934314578717795
1.38025e-05;0.007856814478331956
1.38028e-05;0.007920197498792561
1.38030e-05;0.007978715096941088
1.38033e-05;0.008033887154255067
1.38035e-05;0.008089059211569419
1.38038e-05;0.008144231268883771
1.38040e-05;0.00819940332619775
1.38043e-05;0.008253583654618315
1.38045e-05;0.008295914020611203
1.38048e-05;0.008317396397286946
1.38050e-05;0.008338878773962832
1.38053e-05;0.00836036115063872
1.38055e-05;0.008381843527314461
1.38058e-05;0.00840332590399035
1.38060e-05;0.008424808280666236
1.38063e-05;0.008446290657341978
1.38065e-05;0.008467773034017866
1.38068e-05;0.008489255410693753
1.38070e-05;0.00848633496049927
1.38073e-05;0.008466634743095393
1.38075e-05;0.008446934525691514
1.38078e-05;0.00842723430828777
1.38080e-05;0.008407534090883894
1.38083e-05;0.008387833873480015
1.38085e-05;0.008368133656076271
1.38088e-05;0.008348433438672394
1.38090e-05;0.008328733221268515
1.38093e-05;0.008306391494878398
1.38095e-05;0.008258150456022973
1.38098e-05;0.008209909417167219
1.38100e-05;0.008161668378311466
1.38103e-05;0.008113427339456039
1.38105e-05;0.008065186300600286
1.38108e-05;0.008016945261744532
1.38110e-05;0.007968704222889107
1.38113e-05;0.007920463184033352
1.38115e-05;0.007872222145177599
1.38118e-05;0.007821473555169352
1.38120e-05;0.0077690007335854796
1.38123e-05;0.007716527912001606
1.38125e-05;0.007664055090418088
1.38128e-05;0.007611582268834215
1.38130e-05;0.007559109447250341
1.38133e-05;0.007506636625666824
1.38135e-05;0.00745416380408295
1.38138e-05;0.007401690982499077
1.38140e-05;0.007351273997737575
1.38143e-05;0.007321013961348487
1.38145e-05;0.0072907539249594
1.38148e-05;0.007260493888570517
1.38150e-05;0.0072302338521814296
1.38153e-05;0.007199973815792342
1.38155e-05;0.00716971377940346
1.38158e-05;0.007139453743014372
1.38160e-05;0.007131282004498255
1.38163e-05;0.007138298526687201
1.38165e-05;0.007145315048876196
1.38168e-05;0.0071523315710651895
1.38170e-05;0.0071593480932541365
1.38173e-05;0.00716636461544313
1.38175e-05;0.007173381137632124
1.38178e-05;0.0071841494299981785
1.38180e-05;0.007231702858691678
1.38183e-05;0.0072792562873854995
1.38185e-05;0.007326809716079321
1.38188e-05;0.007374363144772821
1.38190e-05;0.007421916573466642
1.38193e-05;0.007469470002160463
1.38195e-05;0.007517023430853963
1.38198e-05;0.0075645768595477845
1.38200e-05;0.007612130288241606
1.38203e-05;0.007673954623229606
1.38205e-05;0.007745591857635073
1.38208e-05;0.00781722909204054
1.38210e-05;0.007888866326445523
1.38213e-05;0.00796050356085099
1.38215e-05;0.008032140795256458
1.38218e-05;0.008103778029661439
1.38220e-05;0.008175415264066907
1.38223e-05;0.008247052498472374
1.38225e-05;0.008318006278766173
1.38228e-05;0.008382258968246953
1.38230e-05;0.008446511657727735
1.38233e-05;0.008510764347208082
1.38235e-05;0.008575017036688863
1.38238e-05;0.008639269726169645
1.38240e-05;0.00870352241564999
1.38243e-05;0.008767775105130772
1.38245e-05;0.008814988804499234
1.38248e-05;0.008850486226518633
1.38250e-05;0.008885983648538274
1.38253e-05;0.008921481070557916
1.38255e-05;0.008956978492577315
1.38258e-05;0.008992475914596955
1.38260e-05;0.009027973336616596
1.38263e-05;0.009059685789693446
1.38265e-05;0.009054287601097293
1.38268e-05;0.009048889412501104
1.38270e-05;0.009043491223904914
1.38273e-05;0.00903809303530876
1.38275e-05;0.00903269484671257
1.38278e-05;0.009027296658116381
1.38280e-05;0.009021898469520229
1.38283e-05;0.00901650028092404
1.38285e-05;0.009011102092327848
1.38288e-05;0.009005703903731696
1.38290e-05;0.009000305715135506
1.38293e-05;0.00897532811943304
1.38295e-05;0.008936887415735428
1.38298e-05;0.008898446712037556
1.38300e-05;0.008860006008339685
1.38303e-05;0.008821565304642074
1.38305e-05;0.008783124600944202
1.38308e-05;0.008744683897246329
1.38310e-05;0.008706243193548718
1.38313e-05;0.008667802489850846
1.38315e-05;0.008629361786152975
1.38318e-05;0.008590921082455363
1.38320e-05;0.008552125727197126
1.38323e-05;0.008509853105102692
1.38325e-05;0.008467580483008543
1.38328e-05;0.008425307860914107
1.38330e-05;0.008383035238819673
1.38333e-05;0.008340762616725525
1.38335e-05;0.00829848999463109
1.38338e-05;0.008256217372536656
1.38340e-05;0.008213944750442508
1.38343e-05;0.00818178786225186
1.38345e-05;0.008156586711652212
1.38348e-05;0.008131385561052565
1.38350e-05;0.008106184410453087
1.38353e-05;0.008080983259853439
1.38355e-05;0.008055782109253791
1.38358e-05;0.008030580958654315
1.38360e-05;0.008005379808054667
1.38363e-05;0.007982664030989326
1.38365e-05;0.007984316698718071
1.38368e-05;0.007985969366446827
1.38370e-05;0.007987622034175582
1.38373e-05;0.007989274701904327
1.38375e-05;0.007990927369633083
1.38378e-05;0.007992580037361838
1.38380e-05;0.007994232705090584
1.38383e-05;0.007995885372819339
1.38385e-05;0.007997538040548095
1.38388e-05;0.00799919070827684
1.38390e-05;0.008000843376005595
1.38393e-05;0.008002496043734353
1.38395e-05;0.008005945468088681
1.38398e-05;0.008027011626525514
1.38400e-05;0.008048077784962348
1.38403e-05;0.008069143943399039
1.38405e-05;0.008090210101835874
1.38408e-05;0.008111276260272707
1.38410e-05;0.008132342418709398
1.38413e-05;0.008153408577146233
1.38415e-05;0.008174474735583066
1.38418e-05;0.008195540894019757
1.38420e-05;0.00821660705245659
1.38423e-05;0.008237673210893425
1.38425e-05;0.008258739369330116
1.38428e-05;0.008279638448947335
1.38430e-05;0.008298899363943634
1.38433e-05;0.008318160278939933
1.38435e-05;0.008337421193936101
1.38438e-05;0.0083566821089324
1.38440e-05;0.0083759430239287
1.38443e-05;0.008395203938924869
1.38445e-05;0.008414464853921166
1.38448e-05;0.008431375793177579
1.38450e-05;0.008425245827991491
1.38453e-05;0.008419115862805361
1.38455e-05;0.008412985897619232
1.38458e-05;0.008406855932433144
1.38460e-05;0.008400725967247015
1.38463e-05;0.008394596002060885
1.38465e-05;0.008388466036874797
1.38468e-05;0.00837840931872511
1.38470e-05;0.008329851803195084
1.38473e-05;0.00828129428766539
1.38475e-05;0.008232736772135364
1.38478e-05;0.00818417925660534
1.38480e-05;0.008135621741075643
1.38483e-05;0.008087064225545617
1.38485e-05;0.008038506710015592
1.38488e-05;0.007989949194485896
1.38490e-05;0.007920747487026158
1.38493e-05;0.007837350508788107
1.38495e-05;0.0077539535305506235
1.38498e-05;0.0076705565523125735
1.38500e-05;0.007587159574074524
1.38503e-05;0.007503762595837039
1.38505e-05;0.007420365617598989
1.38508e-05;0.00733696863936094
1.38510e-05;0.0072525420436627686
1.38513e-05;0.007158020315008066
1.38515e-05;0.007063498586353364
1.38518e-05;0.006968976857698661
1.38520e-05;0.0068744551290445995
1.38523e-05;0.006779933400389897
1.38525e-05;0.006685411671735194
1.38528e-05;0.006590889943081132
1.38530e-05;0.006506717005121321
1.38533e-05;0.006429660058267525
1.38535e-05;0.00635260311141425
1.38538e-05;0.006275546164560454
1.38540e-05;0.006198489217706657
1.38543e-05;0.006121432270853383
1.38545e-05;0.006044375323999586
1.38548e-05;0.0059713786068986705
1.38550e-05;0.00593819139261371
1.38553e-05;0.005905004178328525
1.38555e-05;0.00587181696404334
1.38558e-05;0.005838629749758379
1.38560e-05;0.0058054425354731945
1.38563e-05;0.005772255321188009
1.38565e-05;0.005739068106903049
1.38568e-05;0.005705880892617863
1.38570e-05;0.005677240364222955
1.38573e-05;0.005693178915284554
1.38575e-05;0.005709117466346261
1.38578e-05;0.005725056017407968
1.38580e-05;0.0057409945684695676
1.38583e-05;0.005756933119531275
1.38585e-05;0.005772871670592982
1.38588e-05;0.005788810221654581
1.38590e-05;0.005804748772716289
1.38593e-05;0.005823786592095787
1.38595e-05;0.005873211935913977
1.38598e-05;0.005922637279732501
1.38600e-05;0.005972062623551025
1.38603e-05;0.00602148796736955
1.38605e-05;0.0060709133111877395
1.38608e-05;0.006120338655006263
1.38610e-05;0.006169763998824788
1.38613e-05;0.006219189342642977
1.38615e-05;0.006273816068698754
1.38618e-05;0.006332019346917753
1.38620e-05;0.006390222625136357
1.38623e-05;0.006448425903355356
1.38625e-05;0.006506629181574354
1.38628e-05;0.0065648324597929585
1.38630e-05;0.006623035738011957
1.38633e-05;0.006681239016230956
1.38635e-05;0.006737379959638592
1.38638e-05;0.006773300243499222
1.38640e-05;0.006809220527359852
1.38643e-05;0.006845140811220239
1.38645e-05;0.006881061095080869
1.38648e-05;0.006916981378941501
1.38650e-05;0.006952901662801887
1.38653e-05;0.006988821946662518
1.38655e-05;0.007024742230523148
1.38658e-05;0.007060662514383535
1.38660e-05;0.007096582798244166
1.38663e-05;0.007132503082104796
1.38665e-05;0.007168423365965183
1.38668e-05;0.007204343649825813
1.38670e-05;0.007227724577221728
1.38673e-05;0.00724248324606156
1.38675e-05;0.007257241914901492
1.38678e-05;0.007272000583741423
1.38680e-05;0.007286759252581255
1.38683e-05;0.007301517921421186
1.38685e-05;0.007316276590261118
1.38688e-05;0.007331035259101049
1.38690e-05;0.00734579392794088
1.38693e-05;0.007360552596780812
1.38695e-05;0.007375311265620743
1.38698e-05;0.007390069934460575
1.38700e-05;0.007404828603300506
1.38703e-05;0.007418794831696914
1.38705e-05;0.007424991386447081
1.38708e-05;0.00743118794119729
1.38710e-05;0.007437384495947498
1.38713e-05;0.007443581050697665
1.38715e-05;0.0074497776054478744
1.38718e-05;0.007455974160198083
1.38720e-05;0.00746217071494825
1.38723e-05;0.007468367269698458
1.38725e-05;0.007474249272286776
1.38728e-05;0.007477047172261474
1.38730e-05;0.007479845072236192
1.38733e-05;0.007482642972210908
1.38735e-05;0.007485440872185606
1.38738e-05;0.007488238772160323
1.38740e-05;0.007491036672135041
1.38743e-05;0.0074938345721097385
1.38745e-05;0.007496632472084455
1.38748e-05;0.007498167312507751
1.38750e-05;0.007487318180615691
1.38753e-05;0.0074764690487235585
1.38755e-05;0.007465619916831426
1.38758e-05;0.0074547707849393656
1.38760e-05;0.007443921653047233
1.38763e-05;0.0074330725211551
1.38765e-05;0.0074222233892630406
1.38768e-05;0.007411374257370908
1.38770e-05;0.007398236035056307
1.38773e-05;0.007362653873030377
1.38775e-05;0.00732707171100469
1.38778e-05;0.007291489548978761
1.38780e-05;0.007255907386952832
1.38783e-05;0.007220325224927144
1.38785e-05;0.007184743062901216
1.38788e-05;0.0071491609008752875
1.38790e-05;0.007113578738849599
1.38793e-05;0.007076243791444441
1.38795e-05;0.007021723236603876
1.38798e-05;0.006967202681763681
1.38800e-05;0.006912682126923116
1.38803e-05;0.006858161572082551
1.38805e-05;0.006803641017242356
1.38808e-05;0.006749120462401791
1.38810e-05;0.0066945999075612266
1.38813e-05;0.006640079352721031
1.38815e-05;0.006585558797880467
1.38818e-05;0.0065312485296085635
1.38820e-05;0.006477082857686272
1.38823e-05;0.006422917185763613
1.38825e-05;0.006368751513840955
1.38828e-05;0.006314585841918663
1.38830e-05;0.006260420169996004
1.38833e-05;0.006206254498073346
1.38835e-05;0.006152088826151055
1.38838e-05;0.0060979231542283956
1.38840e-05;0.006046167781277432
1.38843e-05;0.006018044766538005
1.38845e-05;0.005989921751798387
1.38848e-05;0.00596179873705877
1.38850e-05;0.005933675722319343
1.38853e-05;0.0059055527075797245
1.38855e-05;0.0058774296928401065
1.38858e-05;0.005849306678100489
1.38860e-05;0.005821183663361062
1.38863e-05;0.005793060648621444
1.38865e-05;0.005764937633881826
1.38868e-05;0.005757198850853792
1.38870e-05;0.005763476585888425
1.38873e-05;0.005769754320923057
1.38875e-05;0.005776032055957648
1.38878e-05;0.005782309790992281
1.38880e-05;0.005788587526026913
1.38883e-05;0.005794865261061504
1.38885e-05;0.005801142996096137
1.38888e-05;0.005807420731130769
1.38890e-05;0.00581369846616536
1.38893e-05;0.005822117724052227
1.38895e-05;0.005851534059798873
1.38898e-05;0.005880950395545319
1.38900e-05;0.005910366731291965
1.38903e-05;0.005939783067038611
1.38905e-05;0.005969199402785058
1.38908e-05;0.005998615738531703
1.38910e-05;0.006028032074278349
1.38913e-05;0.006057448410024796
1.38915e-05;0.006086864745771442
1.38918e-05;0.006116533294533393
1.38920e-05;0.006148674726699275
1.38923e-05;0.006180816158865374
1.38925e-05;0.006212957591031474
1.38928e-05;0.006245099023197356
1.38930e-05;0.006277240455363455
1.38933e-05;0.006309381887529554
1.38935e-05;0.006341523319695437
1.38938e-05;0.006373664751861536
1.38940e-05;0.006405806184027636
1.38943e-05;0.006437231268384161
1.38945e-05;0.0064616327476812105
1.38948e-05;0.006486034226978425
1.38950e-05;0.006510435706275638
1.38953e-05;0.006534837185572687
1.38955e-05;0.0065592386648699015
1.38958e-05;0.006583640144167115
1.38960e-05;0.006608041623464164
1.38963e-05;0.006632443102761378
1.38965e-05;0.0066575662797496386
1.38968e-05;0.006689765516003318
1.38970e-05;0.006721964752257215
1.38973e-05;0.006754163988511112
1.38975e-05;0.006786363224764791
1.38978e-05;0.006818562461018689
1.38980e-05;0.006850761697272586
1.38983e-05;0.0068829609335262654
1.38985e-05;0.006915160169780162
1.38988e-05;0.006948270733497667
1.38990e-05;0.006990316627373831
1.38993e-05;0.00703236252125028
1.38995e-05;0.007074408415126729
1.38998e-05;0.007116454309002893
1.39000e-05;0.007158500202879342
1.39003e-05;0.00720054609675579
1.39005e-05;0.0072425919906319546
1.39008e-05;0.007284637884508404
1.39010e-05;0.007326683778384853
1.39013e-05;0.007368729672261017
