Time(s);Current(A)
9.50000e-06;0.012638536113265115
9.50025e-06;0.012621490382274076
9.50050e-06;0.012604444651283152
9.50075e-06;0.012587398920292111
9.50100e-06;0.012570353189301072
9.50125e-06;0.012553307458310148
9.50150e-06;0.01253626172731911
9.50175e-06;0.012519343916674162
9.50200e-06;0.012503189025963606
9.50225e-06;0.012487034135252938
9.50250e-06;0.01247087924454227
9.50275e-06;0.012454724353831713
9.50300e-06;0.012438569463121045
9.50325e-06;0.01242241457241038
9.50350e-06;0.012406259681699712
9.50375e-06;0.012390104790989153
9.50400e-06;0.012373949900278486
9.50425e-06;0.012357795009567818
9.50450e-06;0.012343048428896768
9.50475e-06;0.012336701042222321
9.50500e-06;0.012330353655547873
9.50525e-06;0.012324006268873469
9.50550e-06;0.01231765888219902
9.50575e-06;0.012311311495524575
9.50600e-06;0.01230496410885017
9.50625e-06;0.012298616722175722
9.50650e-06;0.012292269335501274
9.50675e-06;0.01228592194882687
9.50700e-06;0.012279574562152423
9.50725e-06;0.012274486108453317
9.50750e-06;0.012276905960449582
9.50775e-06;0.012279325812445865
9.50800e-06;0.012281745664442146
9.50825e-06;0.01228416551643841
9.50850e-06;0.012286585368434693
9.50875e-06;0.012289005220430974
9.50900e-06;0.01229142507242724
9.50925e-06;0.012293844924423522
9.50950e-06;0.012296264776419803
9.50975e-06;0.012298684628416068
9.51000e-06;0.01230110448041235
9.51025e-06;0.012303524332408632
9.51050e-06;0.012305944184404897
9.51075e-06;0.012309697844995205
9.51100e-06;0.01231419013117401
9.51125e-06;0.012318682417352785
9.51150e-06;0.01232317470353159
9.51175e-06;0.012327666989710396
9.51200e-06;0.012332159275889201
9.51225e-06;0.012336651562067976
9.51250e-06;0.01234114384824678
9.51275e-06;0.012345636134425587
9.51300e-06;0.012350128420604362
9.51325e-06;0.012354620706783167
9.51350e-06;0.012359112992961972
9.51375e-06;0.012363605279140747
9.51400e-06;0.012368381856391036
9.51425e-06;0.012374853952238165
9.51450e-06;0.01238132604808525
9.51475e-06;0.01238779814393238
9.51500e-06;0.012394270239779511
9.51525e-06;0.012400742335626597
9.51550e-06;0.012407214431473726
9.51575e-06;0.012413686527320856
9.51600e-06;0.012420158623167941
9.51625e-06;0.012426630719015072
9.51650e-06;0.012433102814862202
9.51675e-06;0.012439574910709288
9.51700e-06;0.012446047006556417
9.51725e-06;0.012457147052815752
9.51750e-06;0.012470809927514297
9.51775e-06;0.012484472802212937
9.51800e-06;0.012498135676911576
9.51825e-06;0.012511798551610121
9.51850e-06;0.01252546142630876
9.51875e-06;0.0125391243010074
9.51900e-06;0.012552787175705946
9.51925e-06;0.012566450050404585
9.51950e-06;0.012580112925103224
9.51975e-06;0.01259377579980177
9.52000e-06;0.012607438674500409
9.52025e-06;0.012621236775768803
9.52050e-06;0.012635841371461063
9.52075e-06;0.012650445967153225
9.52100e-06;0.012665050562845488
9.52125e-06;0.012679655158537749
9.52150e-06;0.01269425975422991
9.52175e-06;0.012708864349922173
9.52200e-06;0.012723468945614434
9.52225e-06;0.012738073541306596
9.52250e-06;0.012752678136998858
9.52275e-06;0.01276728273269112
9.52300e-06;0.012781887328383281
9.52325e-06;0.012791880754630324
9.52350e-06;0.012799320645263783
9.52375e-06;0.01280676053589719
9.52400e-06;0.012814200426530649
9.52425e-06;0.012821640317164108
9.52450e-06;0.012829080207797517
9.52475e-06;0.012836520098430974
9.52500e-06;0.012843959989064433
9.52525e-06;0.012851399879697842
9.52550e-06;0.0128588397703313
9.52575e-06;0.012866279660964758
9.52600e-06;0.012872762512309403
9.52625e-06;0.012873537558955999
9.52650e-06;0.012874312605602593
9.52675e-06;0.012875087652249184
9.52700e-06;0.01287586269889578
9.52725e-06;0.012876637745542374
9.52750e-06;0.012877412792188965
9.52775e-06;0.01287818783883556
9.52800e-06;0.012878962885482155
9.52825e-06;0.012879737932128746
9.52850e-06;0.01288051297877534
9.52875e-06;0.012881288025421937
9.52900e-06;0.01288206307206853
9.52925e-06;0.012882838118715122
9.52950e-06;0.012883613165361716
9.52975e-06;0.012883929791719822
9.53000e-06;0.012881512388756993
9.53025e-06;0.012879094985794148
9.53050e-06;0.012876677582831304
9.53075e-06;0.012874260179868476
9.53100e-06;0.012871842776905632
9.53125e-06;0.012869425373942787
9.53150e-06;0.012867007970979958
9.53175e-06;0.012864590568017113
9.53200e-06;0.012862173165054268
9.53225e-06;0.01285975576209144
9.53250e-06;0.012857338359128596
9.53275e-06;0.012854920956165751
9.53300e-06;0.012852503553202922
9.53325e-06;0.01285008615024008
9.53350e-06;0.012846798240868205
9.53375e-06;0.01283831861091456
9.53400e-06;0.012829838980960857
9.53425e-06;0.012821359351007155
9.53450e-06;0.012812879721053511
9.53475e-06;0.012804400091099809
9.53500e-06;0.012795920461146106
9.53525e-06;0.012787440831192461
9.53550e-06;0.012767460255600783
9.53575e-06;0.012741110780614389
9.53600e-06;0.012714761305628174
9.53625e-06;0.01268841183064178
9.53650e-06;0.012662062355655385
9.53675e-06;0.01263571288066917
9.53700e-06;0.012609363405682776
9.53725e-06;0.012580114380915556
9.53750e-06;0.012533572373439465
9.53775e-06;0.01248703036596369
9.53800e-06;0.012440488358487597
9.53825e-06;0.012393946351011506
9.53850e-06;0.01234740434353573
9.53875e-06;0.01230086233605964
9.53900e-06;0.012254320328583547
9.53925e-06;0.012207778321107771
9.53950e-06;0.01216123631363168
9.53975e-06;0.012113446546721173
9.54000e-06;0.012058215113359779
9.54025e-06;0.012002983679998011
9.54050e-06;0.011947752246636242
9.54075e-06;0.011892520813274847
9.54100e-06;0.01183728937991308
9.54125e-06;0.01178205794655131
9.54150e-06;0.011726826513189915
9.54175e-06;0.011671595079828147
9.54200e-06;0.011616363646466378
9.54225e-06;0.011562930516199178
9.54250e-06;0.01152022250764907
9.54275e-06;0.011477514499098963
9.54300e-06;0.011434806490549145
9.54325e-06;0.011392098481999038
9.54350e-06;0.01134939047344893
9.54375e-06;0.011306682464899112
9.54400e-06;0.011263974456349005
9.54425e-06;0.011224052766617223
9.54450e-06;0.011200748747494065
9.54475e-06;0.011177444728370749
9.54500e-06;0.011154140709247433
9.54525e-06;0.011130836690124275
9.54550e-06;0.01110753267100096
9.54575e-06;0.011084228651877644
9.54600e-06;0.011060924632754328
9.54625e-06;0.011040704982421589
9.54650e-06;0.011038880579705576
9.54675e-06;0.011037056176989564
9.54700e-06;0.011035231774273563
9.54725e-06;0.01103340737155755
9.54750e-06;0.011031582968841538
9.54775e-06;0.01102975856612554
9.54800e-06;0.011027934163409527
9.54825e-06;0.011026109760693514
9.54850e-06;0.011024285357977514
9.54875e-06;0.011022460955261501
9.54900e-06;0.011020636552545489
9.54925e-06;0.011018812149829488
9.54950e-06;0.011016987747113478
9.54975e-06;0.011015163344397465
9.55000e-06;0.011013338941681465
9.55025e-06;0.011012896640293132
9.55050e-06;0.011020697223555136
9.55075e-06;0.011028497806817085
9.55100e-06;0.011036298390079089
9.55125e-06;0.011044098973341092
9.55150e-06;0.011051899556603042
9.55175e-06;0.011059700139865045
9.55200e-06;0.011067500723127049
9.55225e-06;0.011075301306388998
9.55250e-06;0.011083101889651002
9.55275e-06;0.011090902472913005
9.55300e-06;0.011098703056174955
9.55325e-06;0.011106503639436958
9.55350e-06;0.011114304222698962
9.55375e-06;0.011122104805960912
9.55400e-06;0.011129905389222915
9.55425e-06;0.011137370326708486
9.55450e-06;0.01114283346493118
9.55475e-06;0.011148296603153836
9.55500e-06;0.01115375974137653
9.55525e-06;0.011159222879599225
9.55550e-06;0.011164686017821883
9.55575e-06;0.011170149156044577
9.55600e-06;0.011175612294267272
9.55625e-06;0.01118107543248993
9.55650e-06;0.011186538570712624
9.55675e-06;0.011192001708935318
9.55700e-06;0.011197464847157975
9.55725e-06;0.011202927985380669
9.55750e-06;0.011208391123603363
9.55775e-06;0.011213854261826021
9.55800e-06;0.011219317400048716
9.55825e-06;0.01122478053827141
9.55850e-06;0.011230243676494068
9.55875e-06;0.011235706814716763
9.55900e-06;0.011241073920189528
9.55925e-06;0.011246387845433204
9.55950e-06;0.011251701770676917
9.55975e-06;0.01125701569592063
9.56000e-06;0.011262329621164307
9.56025e-06;0.01126764354640802
9.56050e-06;0.011272957471651733
9.56075e-06;0.01127827139689541
9.56100e-06;0.011283585322139123
9.56125e-06;0.011288899247382835
9.56150e-06;0.011294213172626511
9.56175e-06;0.011299527097870224
9.56200e-06;0.011304841023113937
9.56225e-06;0.011310154948357614
9.56250e-06;0.011315468873601327
9.56275e-06;0.01132078279884504
9.56300e-06;0.011326096724088717
9.56325e-06;0.01133141064933243
9.56350e-06;0.011336068615657722
9.56375e-06;0.011336814427645213
9.56400e-06;0.011337560239632699
9.56425e-06;0.01133830605162019
9.56450e-06;0.011339051863607681
9.56475e-06;0.011339797675595169
9.56500e-06;0.01134054348758266
9.56525e-06;0.01134128929957015
9.56550e-06;0.011342035111557637
9.56575e-06;0.01134278092354513
9.56600e-06;0.01134352673553262
9.56625e-06;0.011344272547520106
9.56650e-06;0.011345018359507597
9.56675e-06;0.011345764171495088
9.56700e-06;0.011346509983482576
9.56725e-06;0.011347255795470067
9.56750e-06;0.011348001607457558
9.56775e-06;0.011348747419445044
9.56800e-06;0.011349493231432535
9.56825e-06;0.011350239043420028
9.56850e-06;0.011350984855407514
9.56875e-06;0.011351385775307013
9.56900e-06;0.011349729750723264
9.56925e-06;0.011348073726139525
9.56950e-06;0.011346417701555776
9.56975e-06;0.011344761676972025
9.57000e-06;0.011343105652388288
9.57025e-06;0.01134144962780454
9.57050e-06;0.011339793603220788
9.57075e-06;0.011338137578637051
9.57100e-06;0.0113364815540533
9.57125e-06;0.011334825529469551
9.57150e-06;0.011333169504885814
9.57175e-06;0.011331513480302063
9.57200e-06;0.011329857455718314
9.57225e-06;0.011328201431134565
9.57250e-06;0.011326545406550826
9.57275e-06;0.011324889381967077
9.57300e-06;0.011323233357383328
9.57325e-06;0.01132157733279959
9.57350e-06;0.01131992130821584
9.57375e-06;0.011318265283632091
9.57400e-06;0.011317464882201006
9.57425e-06;0.011321767437275303
9.57450e-06;0.0113260699923496
9.57475e-06;0.011330372547423868
9.57500e-06;0.011334675102498165
9.57525e-06;0.011338977657572462
9.57550e-06;0.011343280212646729
9.57575e-06;0.011347582767721026
9.57600e-06;0.011351885322795323
9.57625e-06;0.01135618787786959
9.57650e-06;0.011360490432943888
9.57675e-06;0.011364792988018185
9.57700e-06;0.01137067159129151
9.57725e-06;0.011385949782907663
9.57750e-06;0.01140122797452382
9.57775e-06;0.01141650616613987
9.57800e-06;0.011431784357756025
9.57825e-06;0.01144706254937218
9.57850e-06;0.011462340740988232
9.57875e-06;0.011477618932604388
9.57900e-06;0.011492897124220542
9.57925e-06;0.011508175315836594
9.57950e-06;0.01152345350745275
9.57975e-06;0.011538731699068903
9.58000e-06;0.011554419206739976
9.58025e-06;0.011572547884942613
9.58050e-06;0.011590676563145252
9.58075e-06;0.011608805241347891
9.58100e-06;0.011626933919550407
9.58125e-06;0.011645062597753046
9.58150e-06;0.011663191275955685
9.58175e-06;0.011681319954158201
9.58200e-06;0.01169944863236084
9.58225e-06;0.01171757731056348
9.58250e-06;0.011735705988765995
9.58275e-06;0.011753834666968634
9.58300e-06;0.011771963345171273
9.58325e-06;0.011782507091108734
9.58350e-06;0.011788850515428963
9.58375e-06;0.01179519393974919
9.58400e-06;0.011801537364069374
9.58425e-06;0.011807880788389603
9.58450e-06;0.01181422421270983
9.58475e-06;0.011820567637030016
9.58500e-06;0.011826911061350243
9.58525e-06;0.011833254485670472
9.58550e-06;0.011839597909990656
9.58575e-06;0.011845941334310883
9.58600e-06;0.011852284758631112
9.58625e-06;0.011856078153888948
9.58650e-06;0.0118446631161358
9.58675e-06;0.011833248078382652
9.58700e-06;0.011821833040629582
9.58725e-06;0.011810418002876433
9.58750e-06;0.011799002965123286
9.58775e-06;0.011787587927370216
9.58800e-06;0.011776172889617067
9.58825e-06;0.011764757851863919
9.58850e-06;0.011753342814110848
9.58875e-06;0.011741927776357701
9.58900e-06;0.011730512738604553
9.58925e-06;0.011719097700851406
9.58950e-06;0.011707682663098335
9.58975e-06;0.011695127985746161
9.59000e-06;0.011677876430549863
9.59025e-06;0.011660624875353682
9.59050e-06;0.011643373320157384
9.59075e-06;0.011626121764961084
9.59100e-06;0.011608870209764902
9.59125e-06;0.011591618654568604
9.59150e-06;0.011574367099372306
9.59175e-06;0.011557115544176124
9.59200e-06;0.011539863988979826
9.59225e-06;0.011522612433783528
9.59250e-06;0.011505360878587346
9.59275e-06;0.011488109323391046
9.59300e-06;0.011470857768194748
9.59325e-06;0.011447868086116217
9.59350e-06;0.009575357464754543
9.59375e-06;0.0039727696465504
9.59400e-06;0.0008377495483852535
9.59425e-06;0.0015102460946644363
9.59450e-06;0.00376514629171955
9.59475e-06;0.0077701484158010205
9.59500e-06;0.010775175346683753
9.59525e-06;0.011249241798195716
9.59550e-06;0.009835754593576244
9.59575e-06;0.0071593876391595635
9.59600e-06;0.0050335707975950475
9.59625e-06;0.004973974723579655
9.59650e-06;0.006549090567397134
9.59675e-06;0.008873168493970697
9.59700e-06;0.010861891790189933
9.59725e-06;0.011337935064232776
9.59750e-06;0.010436546795417764
9.59775e-06;0.00874398601589751
9.59800e-06;0.00799425090476888
9.59825e-06;0.007882806776048754
9.59850e-06;0.008968252860469848
9.59875e-06;0.010379997251045079
9.59900e-06;0.01147995605658822
9.59925e-06;0.01176702291172672
9.59950e-06;0.01117621692241265
9.59975e-06;0.010237127395357516
9.60000e-06;0.009485826557832285
9.60025e-06;0.009442992540226972
9.60050e-06;0.010127627835606522
9.60075e-06;0.01101121526703921
9.60100e-06;0.011699297357337107
9.60125e-06;0.01187800831668751
9.60150e-06;0.011506686666354194
9.60175e-06;0.010917093820871238
9.60200e-06;0.01044502241849502
9.60225e-06;0.01041659134022488
9.60250e-06;0.0108436545201782
9.60275e-06;0.01139511424385039
9.60300e-06;0.01182387267116479
9.60325e-06;0.011933335783048251
9.60350e-06;0.01169805401066524
9.60375e-06;0.011325926997147621
9.60400e-06;0.011027591247079258
9.60425e-06;0.011007775419694475
9.60450e-06;0.011274181599422407
9.60475e-06;0.011619434004581573
9.60500e-06;0.011888699224732388
9.60525e-06;0.011958790691827256
9.60550e-06;0.011813732935502164
9.60575e-06;0.011583714238163153
9.60600e-06;0.011400625922107508
9.60625e-06;0.011392646282061393
9.60650e-06;0.011564530267256165
9.60675e-06;0.011786314652522991
9.60700e-06;0.011960958072608071
9.60725e-06;0.012011251216530955
9.60750e-06;0.011927145675385458
9.60775e-06;0.011790145656232574
9.60800e-06;0.01168281525519489
9.60825e-06;0.011685385058015843
9.60850e-06;0.011800769723804677
9.60875e-06;0.01194750060497509
9.60900e-06;0.012064737343357038
9.60925e-06;0.012104066667796483
9.60950e-06;0.012059147675591032
9.60975e-06;0.01198098651948771
9.61000e-06;0.011921248795380708
9.61025e-06;0.011930132499227059
9.61050e-06;0.012009402139192464
9.61075e-06;0.012107968760023546
9.61100e-06;0.01218766817280368
9.61125e-06;0.012218123561657798
9.61150e-06;0.01219531386963049
9.61175e-06;0.012151138297062632
9.61200e-06;0.012117906948427392
9.61225e-06;0.012127007818915313
9.61250e-06;0.012179487992648761
9.61275e-06;0.012243288793348024
9.61300e-06;0.01229445068404627
9.61325e-06;0.01231389366303063
9.61350e-06;0.012299047557890467
9.61375e-06;0.012269943790183306
9.61400e-06;0.012247202992813684
9.61425e-06;0.01225112697770659
9.61450e-06;0.012282812167873887
9.61475e-06;0.012322264628410658
9.61500e-06;0.012354437865114429
9.61525e-06;0.01236734389360672
9.61550e-06;0.01235933769629335
9.61575e-06;0.01235059689704103
9.61600e-06;0.012347810069456917
9.61625e-06;0.012345023241872801
9.61650e-06;0.012359248158853139
9.61675e-06;0.012382203467481482
9.61700e-06;0.012400008182022162
9.61725e-06;0.012417812896562722
9.61750e-06;0.01242325698710551
9.61775e-06;0.01242253701847256
9.61800e-06;0.012425714380656276
9.61825e-06;0.012428891742840013
9.61850e-06;0.012442850983158872
9.61875e-06;0.012460471417864345
9.61900e-06;0.012473210513701243
9.61925e-06;0.012485949609538142
9.61950e-06;0.012498688705374955
9.61975e-06;0.01250992517761724
9.62000e-06;0.012519863786472284
9.62025e-06;0.012529802395327258
9.62050e-06;0.012539741004182302
9.62075e-06;0.012550666537413586
9.62100e-06;0.012562444508353381
9.62125e-06;0.012574222479293256
9.62150e-06;0.01258600045023313
9.62175e-06;0.012594678379272748
9.62200e-06;0.012600678704356482
9.62225e-06;0.012606914227895862
9.62250e-06;0.012619348129324954
9.62275e-06;0.012631782030754131
9.62300e-06;0.012640580152752157
9.62325e-06;0.012646237937392946
9.62350e-06;0.012651895722033697
9.62375e-06;0.012654793741308049
9.62400e-06;0.012655308064199882
9.62425e-06;0.012655822387091712
9.62450e-06;0.012656336709983545
9.62475e-06;0.012652121791206212
9.62500e-06;0.01264382207725191
9.62525e-06;0.012635522363297553
9.62550e-06;0.012627222649343196
9.62575e-06;0.012612701994309201
9.62600e-06;0.012592808116273125
9.62625e-06;0.012572914238237051
9.62650e-06;0.01255302036020111
9.62675e-06;0.012532694165220033
9.62700e-06;0.012500974767052635
9.62725e-06;0.012469255368885452
9.62750e-06;0.012437535970718052
9.62775e-06;0.012405816572550655
9.62800e-06;0.012367187093578197
9.62825e-06;0.012322589159888445
9.62850e-06;0.01227799122619869
9.62875e-06;0.01223339329250924
9.62900e-06;0.012188795358819487
9.62925e-06;0.012144197425129732
9.62950e-06;0.012099599491440282
9.62975e-06;0.012055001557750529
9.63000e-06;0.012010403624060776
9.63025e-06;0.011962777567635665
9.63050e-06;0.011912536026104315
9.63075e-06;0.011862294484572964
9.63100e-06;0.011812052943041954
9.63125e-06;0.011761811401510601
9.63150e-06;0.01171156985997925
9.63175e-06;0.0116613283184479
9.63200e-06;0.01161108677691689
9.63225e-06;0.01156084523538554
9.63250e-06;0.011521973566646682
9.63275e-06;0.011492922415615775
9.63300e-06;0.011463871264584672
9.63325e-06;0.01143482011355357
9.63350e-06;0.011405768962522664
9.63375e-06;0.011376717811491561
9.63400e-06;0.011347666660460458
9.63425e-06;0.011318615509429553
9.63450e-06;0.01128956435839845
9.63475e-06;0.011260513207367347
9.63500e-06;0.01123146205633644
9.63525e-06;0.011202410905305337
9.63550e-06;0.011173359754274234
9.63575e-06;0.011144308603243329
9.63600e-06;0.011115257452212226
9.63625e-06;0.011086206301181123
9.63650e-06;0.011057155150150218
9.63675e-06;0.011028103999119115
9.63700e-06;0.010999052848088012
9.63725e-06;0.010970751103385327
9.63750e-06;0.010962199078623492
9.63775e-06;0.010953647053861657
9.63800e-06;0.010945095029099879
9.63825e-06;0.010936543004338044
9.63850e-06;0.010927990979576207
9.63875e-06;0.010919438954814429
9.63900e-06;0.010910886930052594
9.63925e-06;0.010902334905290759
9.63950e-06;0.01089378288052898
9.63975e-06;0.010885230855767144
9.64000e-06;0.010876678831005309
9.64025e-06;0.010868126806243474
9.64050e-06;0.010859574781481696
9.64075e-06;0.010851022756719859
9.64100e-06;0.010842470731958024
9.64125e-06;0.010833918707196246
9.64150e-06;0.01082536668243441
9.64175e-06;0.010816814657672575
9.64200e-06;0.010808262632910797
9.64225e-06;0.010802729580665358
9.64250e-06;0.010799804110193973
9.64275e-06;0.01079687863972261
9.64300e-06;0.010793953169251224
9.64325e-06;0.01079102769877984
9.64350e-06;0.010788102228308474
9.64375e-06;0.01078517675783709
9.64400e-06;0.010782251287365706
9.64425e-06;0.01077932581689434
9.64450e-06;0.010776400346422955
9.64475e-06;0.01077347487595157
9.64500e-06;0.010770549405480206
9.64525e-06;0.01076762393500882
9.64550e-06;0.010764698464537436
9.64575e-06;0.01076177299406607
9.64600e-06;0.010762747049194667
9.64625e-06;0.010767089247566558
9.64650e-06;0.01077143144593842
9.64675e-06;0.010775773644310312
9.64700e-06;0.010780115842682203
9.64725e-06;0.010784458041054065
9.64750e-06;0.010788800239425956
9.64775e-06;0.010793142437797847
9.64800e-06;0.010797484636169708
9.64825e-06;0.0108018268345416
9.64850e-06;0.01080616903291349
9.64875e-06;0.010810511231285382
9.64900e-06;0.010814853429657243
9.64925e-06;0.010819195628029134
9.64950e-06;0.010823537826401025
9.64975e-06;0.010829580832775805
9.65000e-06;0.010837092880662653
9.65025e-06;0.010844604928549502
9.65050e-06;0.010852116976436298
9.65075e-06;0.010859629024323147
9.65100e-06;0.010867141072209995
9.65125e-06;0.010874653120096793
9.65150e-06;0.010882165167983642
9.65175e-06;0.01088967721587049
9.65200e-06;0.010897189263757288
