Time(s);Current(A)
6.25000e-06;-0.002806635138709002
6.25025e-06;-0.0028296649299002228
6.25050e-06;-0.002852694721091521
6.25075e-06;-0.002875724512282741
6.25100e-06;-0.0028987543034740396
6.25125e-06;-0.0029263117684825233
6.25150e-06;-0.0029540508233163727
6.25175e-06;-0.002981789878150316
6.25200e-06;-0.0030115048804441407
6.25225e-06;-0.003041299131369523
6.25250e-06;-0.0030710933822950055
6.25275e-06;-0.0031015432230539815
6.25300e-06;-0.003132019357324411
6.25325e-06;-0.003162495491594944
6.25350e-06;-0.003192072708186642
6.25375e-06;-0.0032216138722023723
6.25400e-06;-0.003251155036218203
6.25425e-06;-0.0032788709429251942
6.25450e-06;-0.003306513644677678
6.25475e-06;-0.0033288272726161154
6.25500e-06;-0.003350927169260668
6.25525e-06;-0.0033730270659052953
6.25550e-06;-0.003395126962549848
6.25575e-06;-0.0034172268591944003
6.25600e-06;-0.003439326755839028
6.25625e-06;-0.0034552024664859364
6.25650e-06;-0.0034708285458888003
6.25675e-06;-0.0034864546252917172
6.25700e-06;-0.003502080704694581
6.25725e-06;-0.003517706784097445
6.25750e-06;-0.003533332863500362
6.25775e-06;-0.003543360338543442
6.25800e-06;-0.003553163272325783
6.25825e-06;-0.0035629662061081565
6.25850e-06;-0.0035727691398904967
6.25875e-06;-0.0035825720736728374
6.25900e-06;-0.003592375007455211
6.25925e-06;-0.0036021779412375513
6.25950e-06;-0.003611980875019925
6.25975e-06;-0.0036217838088022656
6.26000e-06;-0.003631586742584606
6.26025e-06;-0.0036413896763669794
6.26050e-06;-0.0036511926101493197
6.26075e-06;-0.0036590372448288876
6.26100e-06;-0.003664596290650334
6.26125e-06;-0.0036701553364717615
6.26150e-06;-0.003675714382293189
6.26175e-06;-0.0036812734281146354
6.26200e-06;-0.003686832473936063
6.26225e-06;-0.0036923915197574907
6.26250e-06;-0.0036979505655789367
6.26275e-06;-0.0037035096114003646
6.26300e-06;-0.003709068657221792
6.26325e-06;-0.0037146277030432385
6.26350e-06;-0.003720186748864666
6.26375e-06;-0.0037257457946861124
6.26400e-06;-0.0037281297033534525
6.26425e-06;-0.003730386267909082
6.26450e-06;-0.00373264283246472
6.26475e-06;-0.0037348993970203496
6.26500e-06;-0.0037371559615759797
6.26525e-06;-0.003739412526131617
6.26550e-06;-0.0037416690906872468
6.26575e-06;-0.003743925655242877
6.26600e-06;-0.0037461822197985143
6.26625e-06;-0.003748438784354144
6.26650e-06;-0.003750695348909774
6.26675e-06;-0.0037529519134654114
6.26700e-06;-0.0037552084780210415
6.26725e-06;-0.003757465042576671
6.26750e-06;-0.0037597216071323086
6.26775e-06;-0.0037604113193608233
6.26800e-06;-0.0037592723118520647
6.26825e-06;-0.0037581333043433104
6.26850e-06;-0.0037569942968345557
6.26875e-06;-0.003755855289325797
6.26900e-06;-0.0037547162818170427
6.26925e-06;-0.003753577274308288
6.26950e-06;-0.0037524382667995294
6.26975e-06;-0.0037512992592907747
6.27000e-06;-0.0037501602517820204
6.27025e-06;-0.0037490212442732617
6.27050e-06;-0.003747882236764507
6.27075e-06;-0.0037467432292557527
6.27100e-06;-0.003745604221746994
6.27125e-06;-0.0037444652142382393
6.27150e-06;-0.003743326206729485
6.27175e-06;-0.003740811609680387
6.27200e-06;-0.0037382418423443373
6.27225e-06;-0.0037356720750082784
6.27250e-06;-0.0037331023076722283
6.27275e-06;-0.003730532540336178
6.27300e-06;-0.0037279627730001192
6.27325e-06;-0.003725393005664069
6.27350e-06;-0.0037228540800075508
6.27375e-06;-0.0037203511505882626
6.27400e-06;-0.003717848221168983
6.27425e-06;-0.0037153452917497035
6.27450e-06;-0.0037128423623304153
6.27475e-06;-0.0037103394329111358
6.27500e-06;-0.003707836503491856
6.27525e-06;-0.003705333574072568
6.27550e-06;-0.003702980775172904
6.27575e-06;-0.003700633997505302
6.27600e-06;-0.003698287219837692
6.27625e-06;-0.0036936120013825098
6.27650e-06;-0.0036888433969698184
6.27675e-06;-0.0036840747925571435
6.27700e-06;-0.0036749044010288175
6.27725e-06;-0.003665557468569452
6.27750e-06;-0.0036562105361101186
6.27775e-06;-0.003646863603650785
6.27800e-06;-0.0036375166711914196
6.27825e-06;-0.003628169738732086
6.27850e-06;-0.003615646330359289
6.27875e-06;-0.003599415562909722
6.27900e-06;-0.003583184795460211
6.27925e-06;-0.0035669540280106994
6.27950e-06;-0.0035507232605611326
6.27975e-06;-0.003534492493111621
6.28000e-06;-0.0035182617256621094
6.28025e-06;-0.003496895264660797
6.28050e-06;-0.003475322828200764
6.28075e-06;-0.0034537503917406575
6.28100e-06;-0.0034321779552806244
6.28125e-06;-0.0034106055188205912
6.28150e-06;-0.0033878956334576944
6.28175e-06;-0.0033638581978068616
6.28200e-06;-0.0033398207621560287
6.28225e-06;-0.0033157833265051143
6.28250e-06;-0.0032917458908542814
6.28275e-06;-0.0032677084552034485
6.28300e-06;-0.0032434518677950225
6.28325e-06;-0.00321918649094406
6.28350e-06;-0.003195611251854517
6.28375e-06;-0.0031720636918778594
6.28400e-06;-0.0031495720449147835
6.28425e-06;-0.003127122747084321
6.28450e-06;-0.0031061215521336573
6.28475e-06;-0.0030851784357369917
6.28500e-06;-0.003066884391759562
6.28525e-06;-0.0030486965931998964
6.28550e-06;-0.0030305087946402307
6.28575e-06;-0.003018041237501348
6.28600e-06;-0.0030058031000773588
6.28625e-06;-0.002993564962653369
6.28650e-06;-0.0029813268252293383
6.28675e-06;-0.002969088687805349
6.28700e-06;-0.00295685055038136
6.28725e-06;-0.002944612412957329
6.28750e-06;-0.0029356906800446806
6.28775e-06;-0.0029306396210171666
6.28800e-06;-0.0029255885619896356
6.28825e-06;-0.0029205375029621216
6.28850e-06;-0.0029154864439346075
6.28875e-06;-0.0029104353849070765
6.28900e-06;-0.0029053843258795625
6.28925e-06;-0.0029003332668520315
6.28950e-06;-0.0029009960900741117
6.28975e-06;-0.0029018880779658695
6.29000e-06;-0.0029027800658576308
6.29025e-06;-0.0029036720537493886
6.29050e-06;-0.002904564041641147
6.29075e-06;-0.0029054560295329076
6.29100e-06;-0.002906348017424666
6.29125e-06;-0.0029072400053164237
6.29150e-06;-0.0029096842858391623
6.29175e-06;-0.002913940293045954
6.29200e-06;-0.0029181963002527455
6.29225e-06;-0.002922452307459551
6.29250e-06;-0.0029267083146663425
6.29275e-06;-0.002930964321873134
6.29300e-06;-0.00293522032907994
6.29325e-06;-0.0029394763362867314
6.29350e-06;-0.002943732343493537
6.29375e-06;-0.0029478907831270228
6.29400e-06;-0.0029520453096520964
6.29425e-06;-0.002956199836177184
6.29450e-06;-0.0029603543627022577
6.29475e-06;-0.002964508889227331
6.29500e-06;-0.002968663415752419
6.29525e-06;-0.0029728179422774926
6.29550e-06;-0.002976972468802566
6.29575e-06;-0.002981126995327654
6.29600e-06;-0.00298134942545637
6.29625e-06;-0.002981414152375306
6.29650e-06;-0.002981478879294242
6.29675e-06;-0.002981543606213178
6.29700e-06;-0.0029816083331321136
6.29725e-06;-0.0029816730600510494
6.29750e-06;-0.002981737786969985
6.29775e-06;-0.002981802513888921
6.29800e-06;-0.002981867240807857
6.29825e-06;-0.0029770110466047373
6.29850e-06;-0.0029719574907457334
6.29875e-06;-0.002966903934886747
6.29900e-06;-0.0029618503790277604
6.29925e-06;-0.0029567968231687565
6.29950e-06;-0.0029517432673097695
6.29975e-06;-0.002946689711450783
6.30000e-06;-0.002938190903206217
6.30025e-06;-0.002929553917433795
6.30050e-06;-0.0029209169316613726
6.30075e-06;-0.002912279945888921
6.30100e-06;-0.0029036429601164986
6.30125e-06;-0.0028950059743440763
6.30150e-06;-0.0028863689885716246
6.30175e-06;-0.0028760270169957644
6.30200e-06;-0.002865616664152882
6.30225e-06;-0.0028552063113099647
6.30250e-06;-0.0028447959584670824
6.30275e-06;-0.0028343856056241646
6.30300e-06;-0.0028239752527812823
6.30325e-06;-0.0028135648999384
6.30350e-06;-0.0028031545470954826
6.30375e-06;-0.0027939729215224083
6.30400e-06;-0.002784840576082542
6.30425e-06;-0.002775708230642645
6.30450e-06;-0.002766575885202779
6.30475e-06;-0.002757443539762913
6.30500e-06;-0.002748311194323016
6.30525e-06;-0.0027391788488831496
6.30550e-06;-0.0027300465034432835
6.30575e-06;-0.002725248710946878
6.30600e-06;-0.0027206247628435132
6.30625e-06;-0.0027160008147401487
6.30650e-06;-0.002711376866636768
6.30675e-06;-0.002706752918533403
6.30700e-06;-0.002702128970430023
6.30725e-06;-0.002697505022326658
6.30750e-06;-0.0026928810742232936
6.30775e-06;-0.002688257126119913
6.30800e-06;-0.002683633178016548
6.30825e-06;-0.0026790092299131835
6.30850e-06;-0.002674385281809803
6.30875e-06;-0.002669761333706438
6.30900e-06;-0.0026651373856030735
6.30925e-06;-0.002660513437499693
6.30950e-06;-0.002655889489396328
6.30975e-06;-0.0026512655412929634
6.31000e-06;-0.002649630552959203
6.31025e-06;-0.0026481154417854263
6.31050e-06;-0.0026466003306116494
6.31075e-06;-0.002645085219437867
6.31100e-06;-0.00264357010826409
6.31125e-06;-0.002642054997090308
6.31150e-06;-0.002640539885916531
6.31175e-06;-0.0026390247747427537
6.31200e-06;-0.0026375096635689716
6.31225e-06;-0.0026359945523951947
6.31250e-06;-0.002634479441221418
6.31275e-06;-0.0026329643300476357
6.31300e-06;-0.0026314492188738584
6.31325e-06;-0.0026299341077000815
6.31350e-06;-0.0026284189965262994
6.31375e-06;-0.0026269038853525225
6.31400e-06;-0.002625388774178745
6.31425e-06;-0.002624469767400895
6.31450e-06;-0.0026235746683727344
6.31475e-06;-0.002622679569344574
6.31500e-06;-0.00262178447031641
6.31525e-06;-0.00262088937128825
6.31550e-06;-0.0026199942722600865
6.31575e-06;-0.002619099173231926
6.31600e-06;-0.0026182040742037654
6.31625e-06;-0.0026173089751756018
6.31650e-06;-0.002615727181896321
6.31675e-06;-0.0026133439274278795
6.31700e-06;-0.0026109606729594298
6.31725e-06;-0.0026085774184909883
6.31750e-06;-0.002606194164022547
6.31775e-06;-0.0026038109095540976
6.31800e-06;-0.002601427655085656
6.31825e-06;-0.0025990444006172148
6.31850e-06;-0.002596661146148765
6.31875e-06;-0.0025942778916803236
6.31900e-06;-0.0025899025163963153
6.31925e-06;-0.0025854472438223224
6.31950e-06;-0.0025809919712483447
6.31975e-06;-0.0025765366986743522
6.32000e-06;-0.0025720814261003745
6.32025e-06;-0.002567626153526397
6.32050e-06;-0.002563170880952404
6.32075e-06;-0.0025587156083784262
6.32100e-06;-0.0025531475642142257
6.32125e-06;-0.0025475348905106255
6.32150e-06;-0.0025419222168070444
6.32175e-06;-0.0025363095431034633
6.32200e-06;-0.0025306968693998635
6.32225e-06;-0.0025250841956962825
6.32250e-06;-0.0025194715219927014
6.32275e-06;-0.002513858848289101
6.32300e-06;-0.0025085853449486146
6.32325e-06;-0.0025033254445947658
6.32350e-06;-0.002498065544240899
6.32375e-06;-0.00249280564388705
6.32400e-06;-0.0024875457435331832
6.32425e-06;-0.0024822858431793344
6.32450e-06;-0.0024770259428254855
6.32475e-06;-0.0024717660424716185
6.32500e-06;-0.0024665061421177696
6.32525e-06;-0.0024612462417639208
6.32550e-06;-0.0024587431317315686
6.32575e-06;-0.0024563505873204457
6.32600e-06;-0.002453958042909323
6.32625e-06;-0.002451565498498192
6.32650e-06;-0.0024491729540870692
6.32675e-06;-0.0024467804096759463
6.32700e-06;-0.0024443878652648156
6.32725e-06;-0.0024419953208536928
6.32750e-06;-0.00243960277644257
6.32775e-06;-0.002437210232031439
6.32800e-06;-0.002438305588202609
6.32825e-06;-0.002439540832377412
6.32850e-06;-0.0024407760765522103
6.32875e-06;-0.0024420113207270088
6.32900e-06;-0.0024432465649018116
6.32925e-06;-0.0024444818090766105
6.32950e-06;-0.002445717053251409
6.32975e-06;-0.002448108538097334
6.33000e-06;-0.0024518495056591342
6.33025e-06;-0.0024555904732209348
6.33050e-06;-0.002459331440782748
6.33075e-06;-0.0024630724083445485
6.33100e-06;-0.0024668133759063486
6.33125e-06;-0.0024705543434681617
6.33150e-06;-0.0024742953110299623
6.33175e-06;-0.0024791823499615948
6.33200e-06;-0.002484115353975128
6.33225e-06;-0.002489048357988645
6.33250e-06;-0.0024939813620021784
6.33275e-06;-0.0024989143660156953
6.33300e-06;-0.0025038473700292117
6.33325e-06;-0.002508780374042745
6.33350e-06;-0.002513713378056262
6.33375e-06;-0.0025186463820697784
6.33400e-06;-0.0025235793860833118
6.33425e-06;-0.0025285123900968287
6.33450e-06;-0.0025316892496148845
6.33475e-06;-0.002534795676062525
6.33500e-06;-0.0025379021025101547
6.33525e-06;-0.0025410085289577847
6.33550e-06;-0.0025441149554054254
6.33575e-06;-0.0025472213818530554
6.33600e-06;-0.0025503278083006853
6.33625e-06;-0.0025534342347483256
6.33650e-06;-0.0025565406611959556
6.33675e-06;-0.002559647087643596
6.33700e-06;-0.002562753514091226
6.33725e-06;-0.0025627638592223543
6.33750e-06;-0.0025626500309076784
6.33775e-06;-0.0025625362025930034
6.33800e-06;-0.002562422374278328
6.33825e-06;-0.0025623085459636524
6.33850e-06;-0.0025621947176489774
6.33875e-06;-0.002562080889334302
6.33900e-06;-0.0025619670610196265
6.33925e-06;-0.002561853232704951
6.33950e-06;-0.002559476925520147
6.33975e-06;-0.0025570098778900535
6.34000e-06;-0.0025545428302599688
6.34025e-06;-0.002552075782629884
6.34050e-06;-0.0025496087349997907
6.34075e-06;-0.0025471416873697056
6.34100e-06;-0.0025446746397396127
6.34125e-06;-0.0025422075921095275
6.34150e-06;-0.002539740544479443
6.34175e-06;-0.0025362011217817315
6.34200e-06;-0.002532618689713912
6.34225e-06;-0.0025290362576460917
6.34250e-06;-0.0025254538255782594
6.34275e-06;-0.0025218713935104397
6.34300e-06;-0.0025182889614426196
6.34325e-06;-0.0025147065293747873
6.34350e-06;-0.0025112188829204914
6.34375e-06;-0.0025077350379994986
6.34400e-06;-0.0025042511930784936
6.34425e-06;-0.0025007673481575008
6.34450e-06;-0.002497283503236508
6.34475e-06;-0.0024937996583155033
6.34500e-06;-0.0024903158133945105
6.34525e-06;-0.002487405031292118
6.34550e-06;-0.002484517232818879
6.34575e-06;-0.0024822553263928434
6.34600e-06;-0.002480018522399253
6.34625e-06;-0.002479124162828807
6.34650e-06;-0.0024782836442052165
6.34675e-06;-0.0024792466318740653
6.34700e-06;-0.0024802819521361793
6.34725e-06;-0.002481317272398294
6.34750e-06;-0.002484402486117844
6.34775e-06;-0.0024875699141941113
6.34800e-06;-0.0024907373422703785
6.34825e-06;-0.0024974680570446248
6.34850e-06;-0.0025043416833065743
6.34875e-06;-0.002511215309568524
6.34900e-06;-0.002518088935830497
6.34925e-06;-0.0025249625620924463
6.34950e-06;-0.002531836188354419
6.34975e-06;-0.0025426544716354543
6.35000e-06;-0.0025536309618896576
6.35025e-06;-0.0025646074521438983
6.35050e-06;-0.0025755839423981016
6.35075e-06;-0.0025865604326523054
6.35100e-06;-0.002597536922906546
6.35125e-06;-0.002611034964180269
6.35150e-06;-0.002624634136414804
6.35175e-06;-0.0026382333086493854
6.35200e-06;-0.0026518324808839206
6.35225e-06;-0.002665431653118456
6.35250e-06;-0.002679030825353037
6.35275e-06;-0.002692629997587572
6.35300e-06;-0.0027060489044700635
6.35325e-06;-0.002719460581513462
6.35350e-06;-0.0027328722585568143
6.35375e-06;-0.0027462839356002127
6.35400e-06;-0.0027596956126435656
6.35425e-06;-0.0027731072896869185
6.35450e-06;-0.0027865189667303164
6.35475e-06;-0.002797737697804518
6.35500e-06;-0.002808868477165249
6.35525e-06;-0.0028199992565260184
6.35550e-06;-0.002828653479252547
6.35575e-06;-0.002837208375592321
6.35600e-06;-0.0028457632719321242
6.35625e-06;-0.002850894864106054
6.35650e-06;-0.0028558891590226444
6.35675e-06;-0.002860883453939251
6.35700e-06;-0.0028622019388855197
6.35725e-06;-0.0028633729994128844
6.35750e-06;-0.0028645440599402525
6.35775e-06;-0.002860332963044134
6.35800e-06;-0.002855906005851374
6.35825e-06;-0.0028514790486586297
6.35850e-06;-0.002847052091465885
6.35875e-06;-0.0028426251342731253
6.35900e-06;-0.002835142073060337
6.35925e-06;-0.002824092142376742
6.35950e-06;-0.0028130422116931105
6.35975e-06;-0.0028019922810095157
6.36000e-06;-0.0027909423503259213
6.36025e-06;-0.002779892419642289
6.36050e-06;-0.0027641694506460074
6.36075e-06;-0.0027482590617441778
6.36100e-06;-0.0027323486728422944
6.36125e-06;-0.0027164382839404643
6.36150e-06;-0.0027005278950386347
6.36175e-06;-0.002682132159554548
6.36200e-06;-0.002663636745148487
6.36225e-06;-0.002645141330742363
6.36250e-06;-0.002626645916336302
6.36275e-06;-0.0026081505019302405
6.36300e-06;-0.002589148106011731
6.36325e-06;-0.0025701253767639225
6.36350e-06;-0.002551297399333394
6.36375e-06;-0.002532741378888479
6.36400e-06;-0.0025145554598378075
6.36425e-06;-0.002496845095910092
6.36450e-06;-0.0024797267371453433
6.36475e-06;-0.002464168949294015
6.36500e-06;-0.002448672828195417
6.36525e-06;-0.0024331767070967666
6.36550e-06;-0.0024218695408910395
6.36575e-06;-0.002410730379627137
6.36600e-06;-0.002399591218363196
6.36625e-06;-0.002388452057099293
6.36650e-06;-0.0023773128958353524
6.36675e-06;-0.0023661737345714493
6.36700e-06;-0.002355034573307546
6.36725e-06;-0.0023438954120436058
6.36750e-06;-0.0023327562507797026
6.36775e-06;-0.0023248279326316145
6.36800e-06;-0.00231702839063997
6.36825e-06;-0.002309228848648352
6.36850e-06;-0.002301429306656734
6.36875e-06;-0.0022936297646650896
6.36900e-06;-0.002285830222673472
6.36925e-06;-0.002278030680681854
6.36950e-06;-0.0022702311386902096
6.36975e-06;-0.0022624315966985917
6.37000e-06;-0.0022563070417720476
6.37025e-06;-0.0022502496649630483
6.37050e-06;-0.0022441922881540695
6.37075e-06;-0.0022381349113450703
6.37100e-06;-0.0022320775345360915
6.37125e-06;-0.002226020157727113
6.37150e-06;-0.0022199627809181134
6.37175e-06;-0.002213905404109135
6.37200e-06;-0.0022084206556918476
6.37225e-06;-0.002203604238821685
6.37250e-06;-0.0021987878219515387
6.37275e-06;-0.0021939714050813928
6.37300e-06;-0.0021891549882112303
6.37325e-06;-0.002184338571341084
6.37350e-06;-0.002179522154470938
6.37375e-06;-0.0021747057376007755
6.37400e-06;-0.002169889320730629
6.37425e-06;-0.0021659160866157974
6.37450e-06;-0.002161976669735375
6.37475e-06;-0.0021580372528549664
6.37500e-06;-0.0021545055089836522
6.37525e-06;-0.0021509901155104443
6.37550e-06;-0.0021480586417101156
6.37575e-06;-0.0021451505869708692
6.37600e-06;-0.0021422425322316324
6.37625e-06;-0.002140266749218545
6.37650e-06;-0.0021383283564999052
6.37675e-06;-0.002136389963781272
6.37700e-06;-0.002135452565556503
6.37725e-06;-0.0021345553138660727
6.37750e-06;-0.002133658062175645
6.37775e-06;-0.002134392862857085
6.37800e-06;-0.002135193119689376
6.37825e-06;-0.002135993376521664
6.37850e-06;-0.002136793633353952
6.37875e-06;-0.002137593890186243
6.37900e-06;-0.002138394147018531
6.37925e-06;-0.0021401397202274863
6.37950e-06;-0.002142988600163135
6.37975e-06;-0.002145837480098784
6.38000e-06;-0.0021486863600344427
6.38025e-06;-0.0021515352399700915
6.38050e-06;-0.002154384119905741
6.38075e-06;-0.002157232999841399
6.38100e-06;-0.0021614048514786073
6.38125e-06;-0.0021656297630768297
6.38150e-06;-0.002169854674675067
6.38175e-06;-0.0021740795862732892
6.38200e-06;-0.0021783044978715116
6.38225e-06;-0.002182529409469749
6.38250e-06;-0.002186754321067971
6.38275e-06;-0.002191232793776105
6.38300e-06;-0.0021957214359705616
6.38325e-06;-0.0022002100781650033
6.38350e-06;-0.0022046987203594597
6.38375e-06;-0.002209187362553901
6.38400e-06;-0.0022136760047483427
6.38425e-06;-0.002218164646942799
6.38450e-06;-0.0022219874873578996
6.38475e-06;-0.002225783624695075
6.38500e-06;-0.002229579762032264
6.38525e-06;-0.002233028047953273
6.38550e-06;-0.002236070346189335
6.38575e-06;-0.0022391126444254077
6.38600e-06;-0.00224215494266147
6.38625e-06;-0.002245793381859909
6.38650e-06;-0.0022494557302743822
6.38675e-06;-0.0022531180786888433
6.38700e-06;-0.0022576286048455563
6.38725e-06;-0.002262173148568837
6.38750e-06;-0.0022667176922921022
6.38775e-06;-0.0022728487544596437
6.38800e-06;-0.0022790434465647003
6.38825e-06;-0.002285238138669757
6.38850e-06;-0.0022914328307748343
6.38875e-06;-0.0022976275228798904
6.38900e-06;-0.002303822214984947
6.38925e-06;-0.0023111479413086035
6.38950e-06;-0.002319793731149648
6.38975e-06;-0.0023284395209906923
6.39000e-06;-0.002337085310831766
6.39025e-06;-0.0023457311006728106
6.39050e-06;-0.002354376890513855
6.39075e-06;-0.002363022680354929
6.39100e-06;-0.0023728963278848154
6.39125e-06;-0.002382819220671378
6.39150e-06;-0.0023931642156367213
6.39175e-06;-0.0024035261397057236
6.39200e-06;-0.002413888063774761
6.39225e-06;-0.0024242499878437632
6.39250e-06;-0.0024346119119127655
6.39275e-06;-0.002444973835981803
6.39300e-06;-0.002455335760050805
6.39325e-06;-0.0024656976841198074
6.39350e-06;-0.0024747710283125634
6.39375e-06;-0.0024837926918852026
6.39400e-06;-0.002492814355457842
6.39425e-06;-0.002501836019030512
