Time(s);Current(A)
1.00000e-05;-0.007958771680445472
1.00003e-05;-0.007940154365273433
1.00005e-05;-0.007923865533443519
1.00008e-05;-0.007909559517791475
1.00010e-05;-0.007898435800960267
1.00013e-05;-0.007889374508505591
1.00015e-05;-0.00788362328116647
1.00018e-05;-0.007877872053827348
1.00020e-05;-0.007875208575859837
1.00023e-05;-0.007877500746980485
1.00025e-05;-0.007879792918101132
1.00028e-05;-0.007882085089221762
1.00030e-05;-0.007884377260342409
1.00033e-05;-0.007889791884288835
1.00035e-05;-0.007900217854247098
1.00038e-05;-0.007910643824205432
1.00040e-05;-0.007921069794163765
1.00042e-05;-0.007931495764122028
1.00045e-05;-0.00794372633753366
1.00048e-05;-0.007958853189231424
1.00050e-05;-0.007973980040929083
1.00053e-05;-0.007989887481998486
1.00055e-05;-0.008007047721317492
1.00057e-05;-0.008024207960636381
1.00060e-05;-0.008041683176704886
1.00063e-05;-0.008059663911212128
1.00065e-05;-0.008077644645719249
1.00068e-05;-0.008095515501844718
1.00070e-05;-0.008113210009880694
1.00073e-05;-0.008130904517916673
1.00075e-05;-0.008147897329735742
1.00078e-05;-0.008163763961998608
1.00080e-05;-0.008179630594261474
1.00083e-05;-0.008194342550124037
1.00085e-05;-0.008207201320911753
1.00088e-05;-0.008220060091699469
1.00090e-05;-0.008232367802142955
1.00093e-05;-0.00824379109440233
1.00095e-05;-0.008255214386661705
1.00098e-05;-0.008266986882428872
1.00100e-05;-0.008279319828490958
1.00103e-05;-0.008291652774553047
1.00105e-05;-0.008303985720615052
1.00108e-05;-0.00831631866667714
1.00110e-05;-0.008328651612739227
1.00113e-05;-0.008340984558801232
1.00115e-05;-0.00835331750486332
1.00118e-05;-0.008367725311461308
1.00120e-05;-0.008382405687116701
1.00123e-05;-0.008397086062772193
1.00125e-05;-0.008411766438427686
1.00127e-05;-0.008426446814083078
1.00130e-05;-0.00844112718973857
1.00133e-05;-0.008455807565394062
1.00135e-05;-0.008471414706208474
1.00138e-05;-0.008488509248480863
1.00140e-05;-0.008505603790753252
1.00142e-05;-0.008522698333025524
1.00145e-05;-0.008539792875297913
1.00148e-05;-0.008556887417570302
1.00150e-05;-0.008573981959842575
1.00153e-05;-0.008591076502114964
1.00155e-05;-0.00860792390740887
1.00157e-05;-0.008624374672951445
1.00160e-05;-0.008640825438494131
1.00163e-05;-0.008657276204036817
1.00165e-05;-0.008673726969579503
1.00168e-05;-0.008690177735122076
1.00170e-05;-0.008706628500664762
1.00173e-05;-0.008723079266207448
1.00175e-05;-0.008737397607575397
1.00178e-05;-0.008748293538426898
1.00180e-05;-0.008759189469278396
1.00183e-05;-0.008770085400129822
1.00185e-05;-0.00878098133098132
1.00188e-05;-0.008791877261832821
1.00190e-05;-0.008802773192684245
1.00193e-05;-0.008813669123535746
1.00195e-05;-0.008824565054387244
1.00198e-05;-0.00883546098523867
1.00200e-05;-0.008846356916090169
1.00203e-05;-0.008857252846941667
1.00205e-05;-0.008867309822979803
1.00208e-05;-0.008876020327799753
1.00210e-05;-0.008884730832619703
1.00212e-05;-0.008893441337439592
1.00215e-05;-0.008902151842259542
1.00218e-05;-0.008910862347079492
1.00220e-05;-0.008919572851899382
1.00223e-05;-0.008928283356719332
1.00225e-05;-0.008936993861539282
1.00227e-05;-0.008945704366359171
1.00230e-05;-0.008954414871179121
1.00233e-05;-0.008963125375999071
1.00235e-05;-0.008972079412785414
1.00238e-05;-0.008981424303499106
1.00240e-05;-0.008990769194212798
1.00242e-05;-0.009000114084926425
1.00245e-05;-0.009009458975640117
1.00248e-05;-0.009018803866353809
1.00250e-05;-0.0090281487570675
1.00253e-05;-0.00903749364778113
1.00255e-05;-0.009046838538494821
1.00258e-05;-0.009056183429208513
1.00260e-05;-0.009064255852094449
1.00263e-05;-0.009072161114175695
1.00265e-05;-0.009080066376256943
1.00268e-05;-0.009087971638338136
1.00270e-05;-0.009095876900419382
1.00273e-05;-0.009103782162500629
1.00275e-05;-0.009111687424581821
1.00278e-05;-0.00911959268666307
1.00280e-05;-0.009127497948744316
1.00283e-05;-0.009134545261880078
1.00285e-05;-0.009140215619375624
1.00288e-05;-0.009145170039367718
1.00290e-05;-0.009148975423407585
1.00293e-05;-0.009150634246263575
1.00295e-05;-0.009148847969565454
1.00297e-05;-0.009147061692867345
1.00300e-05;-0.009142530840105153
1.00303e-05;-0.009133595110442556
1.00305e-05;-0.009124659380780019
1.00308e-05;-0.009112991588318093
1.00310e-05;-0.009096939001981164
1.00312e-05;-0.009080886415644342
1.00315e-05;-0.009060923056695248
1.00318e-05;-0.009034683146635743
1.00320e-05;-0.009008443236576416
1.00323e-05;-0.00898220332651691
1.00325e-05;-0.008955963416457406
1.00327e-05;-0.008920739102714426
1.00330e-05;-0.008884334531114996
1.00333e-05;-0.008847929959515565
1.00335e-05;-0.008811525387916136
1.00338e-05;-0.008772387243981111
1.00340e-05;-0.008728861883456457
1.00343e-05;-0.008685336522931802
1.00345e-05;-0.008640644926134729
1.00348e-05;-0.008594081591371679
1.00350e-05;-0.008546877577454521
1.00353e-05;-0.008498645312638086
1.00355e-05;-0.008450053380840844
1.00358e-05;-0.008400779451612151
1.00360e-05;-0.008351341689033492
1.00363e-05;-0.008302024504011303
1.00365e-05;-0.008253112881253752
1.00368e-05;-0.00820488179485721
1.00370e-05;-0.008157562265792518
1.00373e-05;-0.008111336625834584
1.00375e-05;-0.008066410926785655
1.00378e-05;-0.008023060513497104
1.00380e-05;-0.007985072378853719
1.00382e-05;-0.00795394431878127
1.00385e-05;-0.00792281625870861
1.00388e-05;-0.007891688198635949
1.00390e-05;-0.0078605601385635
1.00393e-05;-0.00782943207849084
1.00395e-05;-0.007798304018418178
1.00397e-05;-0.007767175958345729
1.00400e-05;-0.007736047898273068
1.00403e-05;-0.007704919838200408
1.00405e-05;-0.007678511870963412
1.00408e-05;-0.007659679364351469
1.00410e-05;-0.007640846857739526
1.00412e-05;-0.00762201435112771
1.00415e-05;-0.007603181844515767
1.00418e-05;-0.007584349337903824
1.00420e-05;-0.00756551683129188
1.00423e-05;-0.007546684324680065
1.00425e-05;-0.007527851818068121
1.00428e-05;-0.007509019311456178
1.00430e-05;-0.007492553057946422
1.00433e-05;-0.007479884496098651
1.00435e-05;-0.00746721593425088
1.00438e-05;-0.007454547372403195
1.00440e-05;-0.007441878810555424
1.00443e-05;-0.007429210248707653
1.00445e-05;-0.007416541686859968
1.00448e-05;-0.007403873125012198
1.00450e-05;-0.007391204563164427
1.00453e-05;-0.0073816398375445985
1.00455e-05;-0.007372482854856256
1.00458e-05;-0.007363325872167913
1.00460e-05;-0.007354168889479633
1.00463e-05;-0.00734501190679129
1.00465e-05;-0.007335854924102947
1.00467e-05;-0.007326697941414666
1.00470e-05;-0.007317540958726323
1.00473e-05;-0.007309103513295489
1.00475e-05;-0.007301820881202904
1.00478e-05;-0.0072945382491102695
1.00480e-05;-0.007287453743709113
1.00482e-05;-0.007280813424756084
1.00485e-05;-0.007274517772394142
1.00488e-05;-0.007268629145506086
1.00490e-05;-0.007263296204789902
1.00493e-05;-0.007258759575748367
1.00495e-05;-0.007255206399061744
1.00497e-05;-0.007252679054330788
1.00500e-05;-0.0072513402261296595
1.00503e-05;-0.0072509078596243925
1.00505e-05;-0.007251204480169805
1.00508e-05;-0.007252671080394175
1.00510e-05;-0.007255165883663592
1.00513e-05;-0.007259310890002356
1.00515e-05;-0.007263455896341093
1.00518e-05;-0.00726920557991336
1.00520e-05;-0.007277530672407848
1.00523e-05;-0.0072858557649022795
1.00525e-05;-0.007294180857396767
1.00528e-05;-0.007302505949891255
1.00530e-05;-0.007312482614568364
1.00533e-05;-0.0073251099516962875
1.00535e-05;-0.0073377372888242115
1.00538e-05;-0.0073503646259520505
1.00540e-05;-0.007362991963079974
1.00543e-05;-0.0073767763004990725
1.00545e-05;-0.007392417552698776
1.00548e-05;-0.007408058804898585
1.00550e-05;-0.007423700057098393
1.00552e-05;-0.007439341309298096
1.00555e-05;-0.007454982561497904
1.00558e-05;-0.007470840144209995
1.00560e-05;-0.0074870449241775505
1.00563e-05;-0.007503249704145216
1.00565e-05;-0.007519454484112882
1.00567e-05;-0.007535659264080437
1.00570e-05;-0.007551864044048103
1.00573e-05;-0.007567426565807109
1.00575e-05;-0.007581958302379594
1.00578e-05;-0.0075964900389521774
1.00580e-05;-0.007608896084309991
1.00582e-05;-0.007617890525136089
1.00585e-05;-0.007626884965962246
1.00588e-05;-0.007635879406788405
1.00590e-05;-0.0076448738476145636
1.00593e-05;-0.0076538682884406605
1.00595e-05;-0.007662862729266819
1.00598e-05;-0.007671857170092978
1.00600e-05;-0.007680851610919075
1.00603e-05;-0.007689846051745233
1.00605e-05;-0.007698840492571391
1.00608e-05;-0.007707834933397489
1.00610e-05;-0.007713078139155676
1.00613e-05;-0.007716066505055163
1.00615e-05;-0.007719054870954631
1.00618e-05;-0.007722043236854118
1.00620e-05;-0.007725031602753606
1.00623e-05;-0.007728019968653074
1.00625e-05;-0.007731008334552561
1.00628e-05;-0.00773399670045205
1.00630e-05;-0.007736985066351516
1.00633e-05;-0.007739973432251005
1.00635e-05;-0.007742961798150492
1.00637e-05;-0.007745950164049959
1.00640e-05;-0.008213932197773189
1.00643e-05;-0.013769577563637475
1.00645e-05;-0.020873468518084616
1.00648e-05;-0.02077104515943159
1.00650e-05;-0.01871514491013026
1.00652e-05;-0.013632922640974146
1.00655e-05;-0.007623071633033107
1.00658e-05;-0.006606705154009799
1.00660e-05;-0.0070055131716220955
1.00663e-05;-0.010588762526160062
1.00665e-05;-0.015416002526521365
1.00667e-05;-0.015313223162151024
1.00670e-05;-0.014138267776845482
1.00673e-05;-0.012770558021556622
1.00675e-05;-0.008329124208147196
1.00678e-05;-0.006201571687143401
1.00680e-05;-0.006140585490400233
1.00683e-05;-0.007846880217936062
1.00685e-05;-0.010148049622907024
1.00688e-05;-0.011186207904492396
1.00690e-05;-0.010775994293478234
1.00693e-05;-0.009231527074995785
1.00695e-05;-0.007335386910175531
1.00698e-05;-0.006245674991531974
1.00700e-05;-0.0062356228721755416
1.00703e-05;-0.007332309562393902
1.00705e-05;-0.008801439160799967
1.00708e-05;-0.009479379453119016
1.00710e-05;-0.009250190571809046
1.00713e-05;-0.00831077240200511
1.00715e-05;-0.007151412519905403
1.00718e-05;-0.0064975467908422275
1.00720e-05;-0.0065202706720337775
1.00722e-05;-0.007236464709711455
1.00725e-05;-0.008186091657238633
1.00728e-05;-0.008640220733814227
1.00730e-05;-0.008526221152864479
1.00733e-05;-0.007967412593249555
1.00735e-05;-0.007270865931965163
1.00737e-05;-0.006890905902068119
1.00740e-05;-0.00693458820114232
1.00743e-05;-0.0074123588740018145
1.00745e-05;-0.008035930596705761
1.00748e-05;-0.00834861335323498
1.00750e-05;-0.008304840920533225
1.00752e-05;-0.007981785755423547
1.00755e-05;-0.007571708521016659
1.00758e-05;-0.00735908521617228
1.00760e-05;-0.007410845004897008
1.00763e-05;-0.00773339570172165
1.00765e-05;-0.00814602604540224
1.00768e-05;-0.008362557681866715
1.00770e-05;-0.00835435211520115
1.00773e-05;-0.00816965448975298
1.00775e-05;-0.007928790592114309
1.00778e-05;-0.007809836776796637
1.00780e-05;-0.007854587001678839
1.00783e-05;-0.008066922059154595
1.00785e-05;-0.00833351689150906
1.00788e-05;-0.008475073489427222
1.00790e-05;-0.00847397917813414
1.00793e-05;-0.008361237676695296
1.00795e-05;-0.008212934432777187
1.00798e-05;-0.00814085132346425
1.00800e-05;-0.008171171124117268
1.00803e-05;-0.00830632130816897
1.00805e-05;-0.008475316035890326
1.00808e-05;-0.008565851728364896
1.00810e-05;-0.008566910820372085
1.00813e-05;-0.00849792822353735
1.00815e-05;-0.00840657407253224
1.00818e-05;-0.008362874471037016
1.00820e-05;-0.008383230793372706
1.00822e-05;-0.008469164776062594
1.00825e-05;-0.008576213144492362
1.00828e-05;-0.008634036302034527
1.00830e-05;-0.00863574491637783
1.00833e-05;-0.008593523074959987
1.00835e-05;-0.008537240764290108
1.00837e-05;-0.008510767694178785
1.00840e-05;-0.008524380681819753
1.00843e-05;-0.008579035015560439
1.00845e-05;-0.008646882637226667
1.00848e-05;-0.00868387080230397
1.00850e-05;-0.008685692163949337
1.00853e-05;-0.008659988684596167
1.00855e-05;-0.008625478356831248
1.00858e-05;-0.008609646169823806
1.00860e-05;-0.008618934178896073
1.00863e-05;-0.008653945176165627
1.00865e-05;-0.008697239204549784
1.00868e-05;-0.008721227807755952
1.00870e-05;-0.008720927044522599
1.00873e-05;-0.008703556947183387
1.00875e-05;-0.008687340093178975
1.00878e-05;-0.008678419143926799
1.00880e-05;-0.008687578683099656
1.00883e-05;-0.008712783531597849
1.00885e-05;-0.008736647940429412
1.00888e-05;-0.008752923970933475
1.00890e-05;-0.008753952341053303
1.00893e-05;-0.008744170194390862
1.00895e-05;-0.008734987614001086
1.00898e-05;-0.008730053929388075
1.00900e-05;-0.008736169694037897
1.00903e-05;-0.008752111608208931
1.00905e-05;-0.008767106780492973
1.00907e-05;-0.008777075400145462
1.00910e-05;-0.008777277618393128
1.00913e-05;-0.008770535774275464
1.00915e-05;-0.008764090152924429
1.00918e-05;-0.008760104965623077
1.00920e-05;-0.008762672078512617
1.00922e-05;-0.008770854368212294
1.00925e-05;-0.008779036657912026
1.00928e-05;-0.008784761606755368
1.00930e-05;-0.008783491449309282
1.00933e-05;-0.008777906307829337
1.00935e-05;-0.008772321166349356
1.00938e-05;-0.008768011428447733
1.00940e-05;-0.008767980800326472
1.00943e-05;-0.008771449666476064
1.00945e-05;-0.008774918532625657
1.00948e-05;-0.008776853855200483
1.00950e-05;-0.008774445403398095
1.00953e-05;-0.008769386148731902
1.00955e-05;-0.008764326894065744
1.00958e-05;-0.008760561187677322
1.00960e-05;-0.008759308558814459
1.00963e-05;-0.008758934787454629
1.00965e-05;-0.008760268441381483
1.00968e-05;-0.008760035954570113
1.00970e-05;-0.008756760803516063
1.00973e-05;-0.008753485652461993
1.00975e-05;-0.008750957788741978
1.00978e-05;-0.008749881738639274
1.00980e-05;-0.008748805688536561
1.00983e-05;-0.008747729638433848
1.00985e-05;-0.008746653588331144
1.00988e-05;-0.008744969585306824
1.00990e-05;-0.008742104464538273
1.00992e-05;-0.008739239343769741
1.00995e-05;-0.00873637422300119
1.00998e-05;-0.00873350910223264
1.01000e-05;-0.008729093453606812
1.01003e-05;-0.008721665473104366
1.01005e-05;-0.00871423749260192
1.01007e-05;-0.008706809512099524
1.01010e-05;-0.008699381531597078
1.01013e-05;-0.00869195355109463
1.01015e-05;-0.008684525570592185
1.01018e-05;-0.008677097590089788
1.01020e-05;-0.00866324460168458
1.01023e-05;-0.008648166116672525
1.01025e-05;-0.008633087631660572
1.01028e-05;-0.008618009146648517
1.01030e-05;-0.008602930661636464
1.01033e-05;-0.008587852176624512
1.01035e-05;-0.008572773691612457
1.01038e-05;-0.008556029532239861
1.01040e-05;-0.008536049336862443
1.01043e-05;-0.008516069141484887
1.01045e-05;-0.008496088946107334
1.01048e-05;-0.008476108750729915
1.01050e-05;-0.008456128555352362
1.01053e-05;-0.008436148359974806
1.01055e-05;-0.008415835185251295
1.01058e-05;-0.008394875105479163
1.01060e-05;-0.008373915025707031
1.01063e-05;-0.008352954945935041
1.01065e-05;-0.00833199486616291
1.01068e-05;-0.008311034786390777
1.01070e-05;-0.008290074706618787
1.01073e-05;-0.00826979264181747
1.01075e-05;-0.008250827809789718
1.01077e-05;-0.008231862977762093
1.01080e-05;-0.00821397205875544
1.01083e-05;-0.008198167514664215
1.01085e-05;-0.008182362970573098
1.01088e-05;-0.008167798068123396
1.01090e-05;-0.00815564151455694
1.01092e-05;-0.008143484960990566
1.01095e-05;-0.008133918900835474
1.01098e-05;-0.008129385595071271
1.01100e-05;-0.00812485228930707
1.01103e-05;-0.008120318983542898
1.01105e-05;-0.008115785677778695
1.01108e-05;-0.008111252372014493
1.01110e-05;-0.008106719066250321
1.01113e-05;-0.008102185760486118
1.01115e-05;-0.008106520863616629
1.01118e-05;-0.008112547514085107
1.01120e-05;-0.008118574164553626
1.01123e-05;-0.008124600815022144
1.01125e-05;-0.008130627465490623
1.01128e-05;-0.008136654115959143
1.01130e-05;-0.008142680766427662
1.01133e-05;-0.008151444212495335
1.01135e-05;-0.008165524645670302
1.01138e-05;-0.00817960507884527
1.01140e-05;-0.008193685512020142
1.01143e-05;-0.00820776594519511
1.01145e-05;-0.008221846378370078
1.01148e-05;-0.00823592681154495
1.01150e-05;-0.008250007244719918
1.01153e-05;-0.008265135099127312
1.01155e-05;-0.008282297860778175
1.01158e-05;-0.008299460622429155
1.01160e-05;-0.008316623384080134
1.01162e-05;-0.008333786145730998
1.01165e-05;-0.008350948907381977
1.01168e-05;-0.008368111669032957
1.01170e-05;-0.00838527443068382
1.01173e-05;-0.008401573723541552
1.01175e-05;-0.008416195487963015
1.01177e-05;-0.00843081725238438
1.01180e-05;-0.008445439016805842
1.01183e-05;-0.008460060781227305
1.01185e-05;-0.008474682545648768
1.01188e-05;-0.008486161534960662
1.01190e-05;-0.008497041075945943
1.01193e-05;-0.008507920616931224
1.01195e-05;-0.008518800157916432
1.01198e-05;-0.008529679698901713
1.01200e-05;-0.008540018464070797
1.01203e-05;-0.008549306621717588
1.01205e-05;-0.008558594779364444
1.01208e-05;-0.008567882937011299
1.01210e-05;-0.00857717109465809
1.01213e-05;-0.008586459252304945
1.01215e-05;-0.008595747409951799
1.01218e-05;-0.008605035567598592
1.01220e-05;-0.008614323725245445
1.01223e-05;-0.0086236118828923
1.01225e-05;-0.008632900040539092
1.01228e-05;-0.008642188198185947
1.01230e-05;-0.008651342828779164
1.01233e-05;-0.008660238045909686
1.01235e-05;-0.008669133263040267
1.01238e-05;-0.00867802848017085
1.01240e-05;-0.00868692369730137
1.01243e-05;-0.008695818914431953
1.01245e-05;-0.008704714131562534
1.01247e-05;-0.008713609348693054
1.01250e-05;-0.008722504565823637
1.01253e-05;-0.008731399782954218
1.01255e-05;-0.00874029500008474
1.01258e-05;-0.00874919021721532
1.01260e-05;-0.008757287152779188
1.01262e-05;-0.008763833204235525
1.01265e-05;-0.008770379255691907
1.01268e-05;-0.008776925307148289
1.01270e-05;-0.00878347135860467
1.01273e-05;-0.008790017410061007
1.01275e-05;-0.008796563461517389
1.01278e-05;-0.00880310951297377
1.01280e-05;-0.008809655564430106
1.01283e-05;-0.008816201615886489
1.01285e-05;-0.00882274766734287
1.01288e-05;-0.008829293718799208
1.01290e-05;-0.008835839770255588
1.01293e-05;-0.008839793799472816
1.01295e-05;-0.008838712104122506
1.01298e-05;-0.008837630408772189
1.01300e-05;-0.00883654871342187
1.01303e-05;-0.008835467018071561
1.01305e-05;-0.008834385322721244
1.01308e-05;-0.008833303627370925
1.01310e-05;-0.008832221932020616
1.01313e-05;-0.008831140236670297
1.01315e-05;-0.00883005854131998
1.01318e-05;-0.00882897684596967
1.01320e-05;-0.008827895150619353
1.01323e-05;-0.008826813455269035
1.01325e-05;-0.008823180845648492
1.01328e-05;-0.008814592375129902
1.01330e-05;-0.008806003904611314
1.01332e-05;-0.008797415434092784
1.01335e-05;-0.008788826963574194
1.01338e-05;-0.008780238493055604
1.01340e-05;-0.008771650022537074
1.01343e-05;-0.008763061552018486
1.01345e-05;-0.008754473081499896
1.01347e-05;-0.008745884610981365
1.01350e-05;-0.008736463045580147
1.01353e-05;-0.008725422961516141
1.01355e-05;-0.008714382877452133
1.01358e-05;-0.008703342793388202
1.01360e-05;-0.008692302709324196
1.01363e-05;-0.008681262625260188
1.01365e-05;-0.008670222541196256
1.01368e-05;-0.00865918245713225
1.01370e-05;-0.008648142373068242
1.01373e-05;-0.00863710228900431
1.01375e-05;-0.008626840428410689
1.01378e-05;-0.0086180904834908
1.01380e-05;-0.008609340538570969
1.01383e-05;-0.00860059059365108
1.01385e-05;-0.00859184064873119
1.01388e-05;-0.00858309070381136
1.01390e-05;-0.00857434075889147
1.01393e-05;-0.008565590813971579
1.01395e-05;-0.00855684086905175
1.01398e-05;-0.008548090924131859
1.01400e-05;-0.00853934097921197
1.01403e-05;-0.008530276772318908
1.01405e-05;-0.008520602024082426
1.01408e-05;-0.008510927275845943
1.01410e-05;-0.008501252527609526
1.01413e-05;-0.008491577779373042
1.01415e-05;-0.00848190303113656
1.01417e-05;-0.008472228282900143
1.01420e-05;-0.00846255353466366
1.01423e-05;-0.008452878786427177
1.01425e-05;-0.00844320403819076
1.01428e-05;-0.008433529289954278
1.01430e-05;-0.00842295214981174
1.01432e-05;-0.008410621862252358
1.01435e-05;-0.008398291574692893
1.01438e-05;-0.008385961287133427
1.01440e-05;-0.008373630999573962
1.01443e-05;-0.008361300712014578
1.01445e-05;-0.008348970424455112
1.01448e-05;-0.008336640136895647
1.01450e-05;-0.008324309849336265
1.01453e-05;-0.0083119795617768
1.01455e-05;-0.008299649274217332
1.01458e-05;-0.008287579879047666
1.01460e-05;-0.008276017339952438
1.01463e-05;-0.00826445480085721
1.01465e-05;-0.00825289226176206
1.01468e-05;-0.008241329722666831
1.01470e-05;-0.008229767183571603
