Time(s);Current(A)
1.20000e-05;-0.001968570942992284
1.20003e-05;-0.0019860726594942944
1.20005e-05;-0.0020035743759963054
1.20008e-05;-0.002028790973680353
1.20010e-05;-0.0020550018368235587
1.20013e-05;-0.0020812126999667645
1.20015e-05;-0.0021074235631097925
1.20018e-05;-0.002133634426252998
1.20020e-05;-0.0021598452893962037
1.20023e-05;-0.0021860561525392317
1.20025e-05;-0.002214625976266122
1.20028e-05;-0.0022469507237589917
1.20030e-05;-0.0022792754712516426
1.20033e-05;-0.002311600218744512
1.20035e-05;-0.002343924966237382
1.20038e-05;-0.0023762497137300325
1.20040e-05;-0.0024085744612229024
1.20043e-05;-0.002440899208715772
1.20045e-05;-0.0024733385486609936
1.20048e-05;-0.002505792656859477
1.20050e-05;-0.002538246765057961
1.20052e-05;-0.0025687815115506512
1.20055e-05;-0.002599068897779292
1.20058e-05;-0.002629356284007933
1.20060e-05;-0.002656059184220019
1.20063e-05;-0.002682300129082385
1.20065e-05;-0.0027085410739447506
1.20068e-05;-0.0027325324322681616
1.20070e-05;-0.002752942965198091
1.20073e-05;-0.0027733534981281586
1.20075e-05;-0.002793764031058226
1.20078e-05;-0.0028101672577897337
1.20080e-05;-0.0028260540376642967
1.20083e-05;-0.00284194081753886
1.20085e-05;-0.0028578275974133153
1.20088e-05;-0.0028737143772878788
1.20090e-05;-0.0028851179440181865
1.20093e-05;-0.002895943730757701
1.20095e-05;-0.0029067695174972885
1.20098e-05;-0.0029175953042368764
1.20100e-05;-0.002928421090976391
1.20103e-05;-0.0029342061793025636
1.20105e-05;-0.002939341640990608
1.20108e-05;-0.002944477102678618
1.20110e-05;-0.0029496125643666622
1.20113e-05;-0.0029547480260547067
1.20115e-05;-0.0029598834877427164
1.20118e-05;-0.002965018949430761
1.20120e-05;-0.0029701544111188057
1.20123e-05;-0.002975289872806815
1.20125e-05;-0.00298042533449486
1.20128e-05;-0.0029855607961829043
1.20130e-05;-0.0029906962578709136
1.20133e-05;-0.002994139702970643
1.20135e-05;-0.002994889846051593
1.20137e-05;-0.002995639989132538
1.20140e-05;-0.0029963901322134882
1.20143e-05;-0.0029971402752944384
1.20145e-05;-0.002997890418375384
1.20148e-05;-0.002998640561456334
1.20150e-05;-0.002999390704537284
1.20153e-05;-0.0030001408476182344
1.20155e-05;-0.0030008909906991794
1.20158e-05;-0.0030016411337801295
1.20160e-05;-0.0030023912768610797
1.20163e-05;-0.0030031414199420247
1.20165e-05;-0.0030031715775710433
1.20168e-05;-0.0030031089461279004
1.20170e-05;-0.003003046314684758
1.20173e-05;-0.0030011467527520912
1.20175e-05;-0.0029990104539863523
1.20178e-05;-0.002996874155220628
1.20180e-05;-0.0029908013705845973
1.20183e-05;-0.0029842212661540806
1.20185e-05;-0.0029776411617236085
1.20188e-05;-0.002967492315020581
1.20190e-05;-0.0029568835419629216
1.20193e-05;-0.002946274768905334
1.20195e-05;-0.002932853847011949
1.20198e-05;-0.0029138454735265305
1.20200e-05;-0.002894163717141993
1.20203e-05;-0.002874481960757322
1.20205e-05;-0.0028548002043726514
1.20208e-05;-0.0028351184479881142
1.20210e-05;-0.0028154366916034435
1.20213e-05;-0.002788574619441648
1.20215e-05;-0.0027607871746392143
1.20218e-05;-0.002732999729836592
1.20220e-05;-0.00270521228503397
1.20222e-05;-0.0026774248402315366
1.20225e-05;-0.0026496373954289147
1.20228e-05;-0.0026185255457527507
1.20230e-05;-0.002586985259025715
1.20233e-05;-0.002554547578920035
1.20235e-05;-0.0025219942460622475
1.20238e-05;-0.002488798238470562
1.20240e-05;-0.0024555194053273743
1.20243e-05;-0.0024222446971822534
1.20245e-05;-0.0023889705206517134
1.20248e-05;-0.0023563955313318868
1.20250e-05;-0.0023239106506833334
1.20253e-05;-0.0022926682195203193
1.20255e-05;-0.0022615859106693476
1.20258e-05;-0.0022322153729843596
1.20260e-05;-0.0022030654420601824
1.20263e-05;-0.002176342763256115
1.20265e-05;-0.0021499328997617783
1.20268e-05;-0.002126700213076821
1.20270e-05;-0.002103876989232805
1.20273e-05;-0.00208603126332749
1.20275e-05;-0.002068827019016833
1.20278e-05;-0.002051622774706292
1.20280e-05;-0.0020409995526704133
1.20283e-05;-0.002031224468537442
1.20285e-05;-0.0020214493844045367
1.20288e-05;-0.0020185209724363725
1.20290e-05;-0.0020164749343501522
1.20293e-05;-0.002014428896263946
1.20295e-05;-0.002023573791936429
1.20298e-05;-0.002034160933918586
1.20300e-05;-0.002044748075900671
1.20303e-05;-0.0020553352178828282
1.20305e-05;-0.002065922359864985
1.20307e-05;-0.0020765095018470702
1.20310e-05;-0.002087096643829227
1.20313e-05;-0.0021102992386229534
1.20315e-05;-0.002135127666493168
1.20318e-05;-0.002159956094363551
1.20320e-05;-0.0021847845222339336
1.20323e-05;-0.0022096129501043165
1.20325e-05;-0.002234441377974531
1.20328e-05;-0.0022592698058449137
1.20330e-05;-0.0022898770911435897
1.20333e-05;-0.002321229134295233
1.20335e-05;-0.0023525811774470886
1.20338e-05;-0.00238549865745066
1.20340e-05;-0.0024186178851876242
1.20343e-05;-0.0024517371129248126
1.20345e-05;-0.0024848771719033743
1.20348e-05;-0.002518019915535347
1.20350e-05;-0.0025511626591675444
1.20353e-05;-0.0025827495221940914
1.20355e-05;-0.0026141358690605658
1.20358e-05;-0.002645522215927253
1.20360e-05;-0.0026743578013503277
1.20363e-05;-0.00270286465403654
1.20365e-05;-0.0027284077985753755
1.20368e-05;-0.0027535689913277964
1.20370e-05;-0.0027745349576925476
1.20373e-05;-0.002794960258737727
1.20375e-05;-0.002808122881540863
1.20378e-05;-0.0028203495171310175
1.20380e-05;-0.0028221841132751993
1.20383e-05;-0.002822679421664467
1.20385e-05;-0.002823174730053731
1.20388e-05;-0.0028116134934362993
1.20390e-05;-0.002798498453720076
1.20392e-05;-0.002785383414003941
1.20395e-05;-0.0027588049986136767
1.20398e-05;-0.0027304914729717185
1.20400e-05;-0.0027021779473299524
1.20403e-05;-0.0026629909605663613
1.20405e-05;-0.0026224026421960787
1.20408e-05;-0.002576037985593132
1.20410e-05;-0.0025253725285246135
1.20413e-05;-0.0024707181539065743
1.20415e-05;-0.0024120059968603656
1.20418e-05;-0.002349378141568539
1.20420e-05;-0.0022831964731436036
1.20423e-05;-0.0022138644029474214
1.20425e-05;-0.0021417873157118135
1.20428e-05;-0.0020673705695864156
1.20430e-05;-0.0019909955977322107
1.20433e-05;-0.0019129227749945298
1.20435e-05;-0.0018333374595648636
1.20438e-05;-0.0017525564167922185
1.20440e-05;-0.001671034378177681
1.20443e-05;-0.0015892520639506492
1.20445e-05;-0.001507691343709442
1.20448e-05;-0.0014268343698465203
1.20450e-05;-0.0013471473502554088
1.20453e-05;-0.001269021626604941
1.20455e-05;-0.0011928010013323507
1.20458e-05;-0.0011189118094022076
1.20460e-05;-0.0010478665247287756
1.20463e-05;-0.000980194076278085
1.20465e-05;-0.0009164241154913955
1.20468e-05;-0.0008570860676259237
1.20470e-05;-0.000802604401714007
1.20473e-05;-0.0007528350968833116
1.20475e-05;-0.0007071065916047704
1.20477e-05;-0.0006650630526395556
1.20480e-05;-0.0006268194136567971
1.20483e-05;-0.0005925870308076734
1.20485e-05;-0.0005625825147341904
1.20488e-05;-0.0005370225077046554
1.20490e-05;-0.0005160578133479934
1.20493e-05;-0.000499482908914229
1.20495e-05;-0.00048676209649706036
1.20498e-05;-0.00047755740990401734
1.20500e-05;-0.00047182577543494145
1.20503e-05;-0.0004695845259740972
1.20505e-05;-0.0004708542803238015
1.20508e-05;-0.00047565564399605317
1.20510e-05;-0.0004839679467385687
1.20513e-05;-0.0004955474504836169
1.20515e-05;-0.0005099435358824906
1.20518e-05;-0.0005278632672928108
1.20520e-05;-0.0005461964685894383
1.20523e-05;-0.000568484073716722
1.20525e-05;-0.0005912813078401402
1.20528e-05;-0.0006176583443870187
1.20530e-05;-0.0006444967326810002
1.20533e-05;-0.0006745744821328597
1.20535e-05;-0.000705069708516069
1.20538e-05;-0.0007355649348992782
1.20540e-05;-0.0007679728714274054
1.20543e-05;-0.0008006273109921997
1.20545e-05;-0.000833281750556994
1.20548e-05;-0.0008663249024605328
1.20550e-05;-0.0008994181501784
1.20553e-05;-0.0009325113978962674
1.20555e-05;-0.000963824451038916
1.20558e-05;-0.0009949080792637458
1.20560e-05;-0.0010259917074885757
1.20562e-05;-0.001053180168576929
1.20565e-05;-0.0010798666348759264
1.20568e-05;-0.0011065531011749238
1.20570e-05;-0.001128594235023297
1.20573e-05;-0.0011500366955403854
1.20575e-05;-0.001171479156057474
1.20578e-05;-0.0011905753089528856
1.20580e-05;-0.0012093690783663636
1.20583e-05;-0.001228162847779969
1.20585e-05;-0.0012469566171935743
1.20588e-05;-0.001262624772277039
1.20590e-05;-0.0012778901097013917
1.20593e-05;-0.0012931554471257445
1.20595e-05;-0.0013084207845499938
1.20598e-05;-0.0013207492946924972
1.20600e-05;-0.0013326993173549606
1.20603e-05;-0.0013446493400173431
1.20605e-05;-0.0013565993626798063
1.20608e-05;-0.0013685493853422697
1.20610e-05;-0.0013804994080046523
1.20613e-05;-0.0013924494306671157
1.20615e-05;-0.001404399453329579
1.20618e-05;-0.0014163494759919615
1.20620e-05;-0.0014282994986544249
1.20623e-05;-0.0014402495213168883
1.20625e-05;-0.001450845584338865
1.20628e-05;-0.0014592864544016775
1.20630e-05;-0.00146772732446449
1.20633e-05;-0.0014761681945272454
1.20635e-05;-0.001484609064590058
1.20638e-05;-0.0014930499346528705
1.20640e-05;-0.0015014908047156256
1.20643e-05;-0.0015099316747784382
1.20645e-05;-0.0015183725448412507
1.20647e-05;-0.001526813414904006
1.20650e-05;-0.0015352542849668186
1.20653e-05;-0.0015436951550296312
1.20655e-05;-0.0015502755381304216
1.20658e-05;-0.0015566161485260064
1.20660e-05;-0.001562956758921591
1.20663e-05;-0.0015688548441135034
1.20665e-05;-0.001574048530758414
1.20668e-05;-0.0015792422174033599
1.20670e-05;-0.0015844359040483055
1.20673e-05;-0.0015901640947127902
1.20675e-05;-0.0015959611702861451
1.20678e-05;-0.00160562923019287
1.20680e-05;-0.0016157961682990202
1.20683e-05;-0.0016259631064052392
1.20685e-05;-0.0016408906448823863
1.20688e-05;-0.0016564317119963808
1.20690e-05;-0.0016719727791104806
1.20693e-05;-0.0016875138462245805
1.20695e-05;-0.0017098471355237329
1.20698e-05;-0.001733055781394642
1.20700e-05;-0.001756264427265551
1.20703e-05;-0.001779473073136303
1.20705e-05;-0.0018102983947568905
1.20708e-05;-0.001842105325487179
1.20710e-05;-0.0018739122562172522
1.20713e-05;-0.001905719186947541
1.20715e-05;-0.0019375261176778295
1.20718e-05;-0.0019723146177055093
1.20720e-05;-0.0020118490916665593
1.20723e-05;-0.002051383565627609
1.20725e-05;-0.002090918039588391
1.20728e-05;-0.002130452513549441
1.20730e-05;-0.0021699869875104905
1.20732e-05;-0.002212249747840508
1.20735e-05;-0.0022548641196667592
1.20738e-05;-0.0022974784914930107
1.20740e-05;-0.002340584906865037
1.20743e-05;-0.002383754734996832
1.20745e-05;-0.002426924563128627
1.20748e-05;-0.002468582854386905
1.20750e-05;-0.002510046344341294
1.20753e-05;-0.0025515098342959643
1.20755e-05;-0.0025899958317347305
1.20758e-05;-0.002628098100907141
1.20760e-05;-0.0026662003700798093
1.20763e-05;-0.0026994095662805713
1.20765e-05;-0.0027319881612629746
1.20768e-05;-0.0027645667562455987
1.20770e-05;-0.0027917219409761733
1.20773e-05;-0.002818178176573525
1.20775e-05;-0.0028446344121710564
1.20778e-05;-0.002869154412856867
1.20780e-05;-0.0028934248787203048
1.20783e-05;-0.002917695344583907
1.20785e-05;-0.002940810537585628
1.20788e-05;-0.0029620868013716974
1.20790e-05;-0.0029833630651579113
1.20793e-05;-0.003004639328944125
1.20795e-05;-0.003024339448215472
1.20798e-05;-0.0030438364397884833
1.20800e-05;-0.0030633334313614944
1.20803e-05;-0.0030828304229343732
1.20805e-05;-0.0031023274145073844
1.20808e-05;-0.003121824406080396
1.20810e-05;-0.0031413213976532748
1.20813e-05;-0.003160818389226286
1.20815e-05;-0.003179696367611888
1.20817e-05;-0.003197589019090801
1.20820e-05;-0.0032154816705698345
1.20823e-05;-0.0032333743220488687
1.20825e-05;-0.003251266973527781
1.20828e-05;-0.003269159625006815
1.20830e-05;-0.003287052276485849
1.20833e-05;-0.0033049449279648827
1.20835e-05;-0.0033228375794437954
1.20838e-05;-0.0033392817212292043
1.20840e-05;-0.0033555391844216024
1.20843e-05;-0.00337179664761389
1.20845e-05;-0.003388054110806288
1.20848e-05;-0.003404311573998686
1.20850e-05;-0.003419530614633991
1.20853e-05;-0.0034330967249171273
1.20855e-05;-0.0034466628352002636
1.20858e-05;-0.003460228945483308
1.20860e-05;-0.0034737950557664444
1.20863e-05;-0.003487361166049581
1.20865e-05;-0.0034990918583435704
1.20868e-05;-0.0035098183465470958
1.20870e-05;-0.003519425170449918
1.20873e-05;-0.0035268447534262683
1.20875e-05;-0.003528334546123703
1.20878e-05;-0.003529094272513948
1.20880e-05;-0.0035216429835583625
1.20883e-05;-0.003513133489194072
1.20885e-05;-0.003495232679973239
1.20888e-05;-0.0034761215526911433
1.20890e-05;-0.0034570104254089177
1.20893e-05;-0.0034255151595109718
1.20895e-05;-0.003392423871451246
1.20898e-05;-0.0033593325833912962
1.20900e-05;-0.00331459116578637
1.20902e-05;-0.003268348322404623
1.20905e-05;-0.0032159506721993287
1.20908e-05;-0.0031590850584382146
1.20910e-05;-0.003098328913492646
1.20913e-05;-0.003033665757043884
1.20915e-05;-0.0029648575644826173
1.20918e-05;-0.0028919720418595462
1.20920e-05;-0.002815415699196759
1.20923e-05;-0.002735660055511496
1.20925e-05;-0.0026531800853173085
1.20928e-05;-0.002568450350627997
1.20930e-05;-0.0024819059665605217
1.20933e-05;-0.0023937843338941436
1.20935e-05;-0.0023041837645545026
1.20938e-05;-0.00221339430090586
1.20940e-05;-0.002121918011297305
1.20943e-05;-0.0020302979788963736
1.20945e-05;-0.0019390788743195151
1.20948e-05;-0.0018643213663843382
1.20950e-05;-0.001825291359945665
1.20953e-05;-0.0017129267363552398
1.20955e-05;-0.008647258159505598
1.20958e-05;-0.01619088717576733
1.20960e-05;-0.014279054696681644
1.20963e-05;-0.01219472583377805
1.20965e-05;-0.006198040686783221
1.20968e-05;-9.18151595001044e-05
1.20970e-05;0.00027677464185376824
1.20973e-05;-0.00034545169615098623
1.20975e-05;-0.004316383332278602
1.20978e-05;-0.008848806420375088
1.20980e-05;-0.008482763853781505
1.20983e-05;-0.007171213276214799
1.20985e-05;-0.0035810900265831566
1.20987e-05;-6.379643151547165e-05
1.20990e-05;0.0014126317033002253
1.20993e-05;0.0007549701526327234
1.20995e-05;-0.0014649260752522696
1.20998e-05;-0.003800311377950295
1.21000e-05;-0.004500196636953754
1.21003e-05;-0.0035109111497105172
1.21005e-05;-0.0015313367438366632
1.21008e-05;0.000495963279327766
1.21010e-05;0.0014083651373441495
1.21013e-05;0.0009870519840002889
1.21015e-05;-0.0004101243737051303
1.21018e-05;-0.0018772811488840615
1.21020e-05;-0.0023179989564306026
1.21023e-05;-0.00169906513031945
1.21025e-05;-0.00045860967300916783
1.21028e-05;0.0008126739743098432
1.21030e-05;0.001386334350007893
1.21033e-05;0.0011251813846942897
1.21035e-05;0.000253265268695948
1.21038e-05;-0.0006620971381358154
1.21040e-05;-0.0009342800825202003
1.21043e-05;-0.0005426689909325516
1.21045e-05;0.00023812425268186587
1.21048e-05;0.0010379605720487787
1.21050e-05;0.0014004550259746633
1.21053e-05;0.001239619564748954
1.21055e-05;0.0006957494875086198
1.21058e-05;0.0001241440891170389
1.21060e-05;-4.5194167898086535e-05
1.21063e-05;0.00020053188801165986
1.21065e-05;0.0006892003593183222
1.21068e-05;0.001188872269932494
1.21070e-05;0.0014135424072100932
1.21072e-05;0.001309047589483765
1.21075e-05;0.0009628786671645876
1.21078e-05;0.0005973928495294489
1.21080e-05;0.00048196345074707673
1.21083e-05;0.0006246921484002435
1.21085e-05;0.0009178530242575238
1.21088e-05;0.0012162630316961672
1.21090e-05;0.0013408875868146904
1.21093e-05;0.0012579279388272963
1.21095e-05;0.0010223167301388362
1.21098e-05;0.0007734582295867733
1.21100e-05;0.0006801938024331068
1.21103e-05;0.0007476969460747393
1.21105e-05;0.0009085900170393242
1.21108e-05;0.0010720397330482665
1.21110e-05;0.0011260176345209746
1.21113e-05;0.0010494771254895422
1.21115e-05;0.0008769522999296186
1.21118e-05;0.0006958847621401562
1.21120e-05;0.0006121467854112604
1.21123e-05;0.0006290842914512943
1.21125e-05;0.0007045991125215092
1.21128e-05;0.0007819052068341851
1.21130e-05;0.0007909457250918216
1.21133e-05;0.0007186585365199891
1.21135e-05;0.0005867968492346917
1.21138e-05;0.0004502515953124578
1.21140e-05;0.00037545313462941405
1.21143e-05;0.0003646063885442445
1.21145e-05;0.00039145129466046624
1.21148e-05;0.00042053012260036135
1.21150e-05;0.00040807599966822747
1.21153e-05;0.00034602583371471274
1.21155e-05;0.00024812461366426113
1.21158e-05;0.00014887253180156782
1.21160e-05;8.999460938562984e-05
1.21163e-05;7.298319101721957e-05
1.21165e-05;8.15008671081109e-05
1.21168e-05;9.34505905740919e-05
1.21170e-05;8.15514331475637e-05
1.21173e-05;4.092524946200516e-05
1.21175e-05;-1.9679306670327166e-05
1.21178e-05;-7.864553636562373e-05
1.21180e-05;-0.00010994320985188611
1.21183e-05;-0.00011277469895485083
1.21185e-05;-9.751047388969228e-05
1.21188e-05;-7.812772197847145e-05
1.21190e-05;-7.184938336747712e-05
1.21193e-05;-8.186440076831499e-05
1.21195e-05;-0.00010282600993388411
1.21198e-05;-0.00012132778546124834
1.21200e-05;-0.00012120001080317342
1.21203e-05;-0.00010207940670196614
1.21205e-05;-7.059809624538756e-05
1.21208e-05;-3.564673136704546e-05
1.21210e-05;-8.148211701607019e-06
1.21213e-05;9.76604555724039e-06
1.21215e-05;2.1311319790296118e-05
1.21218e-05;3.47509283600332e-05
1.21220e-05;6.007826220985004e-05
1.21223e-05;9.738511993280967e-05
1.21225e-05;0.00014238158000047264
1.21228e-05;0.00018936344067854287
1.21230e-05;0.00023135406321666234
1.21233e-05;0.0002668841618956238
1.21235e-05;0.00029783359885626455
1.21238e-05;0.00032924400909064563
1.21240e-05;0.00036724022604279013
1.21243e-05;0.00041174442762658846
1.21245e-05;0.0004599342624152472
1.21248e-05;0.0005081017449249588
1.21250e-05;0.0005517422087667606
1.21253e-05;0.0005898010250084831
1.21255e-05;0.0006233214680597789
1.21258e-05;0.000655327170433887
1.21260e-05;0.0006895199299816434
1.21263e-05;0.0007257161144059029
1.21265e-05;0.0007620129650006552
1.21268e-05;0.0007959530853926265
1.21270e-05;0.0008245896856998845
1.21273e-05;0.0008471867657398208
1.21275e-05;0.000864418228288133
1.21278e-05;0.0008782801647394057
1.21280e-05;0.0008912211208802032
1.21283e-05;0.0009032573707183386
1.21285e-05;0.0009133284274387086
1.21288e-05;0.0009200265783959865
1.21290e-05;0.0009216375718821344
1.21293e-05;0.0009178321050307914
1.21295e-05;0.0009091641662422359
1.21298e-05;0.0008970157306127645
1.21300e-05;0.0008830521159760186
1.21303e-05;0.0008674150155593324
1.21305e-05;0.0008495716492214493
1.21308e-05;0.0008287717722350779
1.21310e-05;0.0008040732218520353
1.21313e-05;0.0007754014960595906
1.21315e-05;0.000743235260036129
1.21318e-05;0.0007085718231615185
1.21320e-05;0.0006725859026271553
1.21323e-05;0.0006354977347736328
1.21325e-05;0.0005971050359400013
1.21328e-05;0.0005570694036053244
1.21330e-05;0.0005149322886607203
1.21333e-05;0.00047077858235253765
1.21335e-05;0.00042503969751554423
1.21338e-05;0.000378471886304683
1.21340e-05;0.0003319424324864785
1.21343e-05;0.00028572071816976476
1.21345e-05;0.0002398114629221939
1.21348e-05;0.00019413410617011764
1.21350e-05;0.00014853284631378394
1.21353e-05;0.00010319231416059206
1.21355e-05;5.851416710600392e-05
1.21358e-05;1.510351030944828e-05
1.21360e-05;-2.6365041319293072e-05
1.21363e-05;-6.559145032285449e-05
1.21365e-05;-0.00010244146722995415
1.21368e-05;-0.00013683430305421926
1.21370e-05;-0.00016883017011121902
1.21373e-05;-0.00019857599004032418
1.21375e-05;-0.00022633081399531677
1.21378e-05;-0.00025210960445948435
1.21380e-05;-0.0002756368694394975
1.21383e-05;-0.00029678342474531364
1.21385e-05;-0.0003155239357519727
1.21388e-05;-0.00033186658673065435
1.21390e-05;-0.0003459078772039455
1.21393e-05;-0.00035779860482880677
1.21395e-05;-0.0003677598093409627
1.21398e-05;-0.00037585956519743896
1.21400e-05;-0.0003819840489333706
1.21403e-05;-0.0003861111380031103
1.21405e-05;-0.00038784824281927607
1.21408e-05;-0.00038808558455665155
1.21410e-05;-0.000386714083135087
1.21413e-05;-0.0003835692105274344
1.21415e-05;-0.0003791227977589762
1.21418e-05;-0.00037324174308283833
1.21420e-05;-0.0003661155765383638
1.21423e-05;-0.000357616967006693
1.21425e-05;-0.0003480241456034802
1.21427e-05;-0.000337225212968328
1.21430e-05;-0.0003254388290556655
1.21433e-05;-0.00031256401235609107
1.21435e-05;-0.0002996891956565167
1.21438e-05;-0.0002861132477332251
1.21440e-05;-0.00027176446754016947
1.21443e-05;-0.0002574156873471138
