Time(s);Current(A)
7.50000e-06;-0.002489816392328245
7.50025e-06;-0.002479437052822575
7.50050e-06;-0.002461460470747431
7.50075e-06;-0.002438229244892229
7.50100e-06;-0.00240990317488165
7.50125e-06;-0.0023766423436889514
7.50150e-06;-0.0023386168123491584
7.50175e-06;-0.0022960361360379712
7.50200e-06;-0.002249171808094566
7.50225e-06;-0.0021983340599712057
7.50250e-06;-0.0021438397486259015
7.50275e-06;-0.0020860050319451203
7.50300e-06;-0.002025146637407263
7.50325e-06;-0.001961581188271128
7.50350e-06;-0.0018956312917298385
7.50375e-06;-0.0018276444359370163
7.50400e-06;-0.0017580071763938555
7.50425e-06;-0.0016871299014997421
7.50450e-06;-0.0016154271662154576
7.50475e-06;-0.0015433134221509166
7.50500e-06;-0.0014712028619572144
7.50525e-06;-0.0013995101956225347
7.50550e-06;-0.0013286534929314048
7.50575e-06;-0.001259066484296185
7.50600e-06;-0.0011912072460220538
7.50625e-06;-0.0011255488502071162
7.50650e-06;-0.0010625670087575424
7.50675e-06;-0.0010027371360101965
7.50700e-06;-0.0009465346073996819
7.50725e-06;-0.0008944251094377508
7.50750e-06;-0.0008467721361154429
7.50775e-06;-0.000803628941684454
7.50800e-06;-0.0007648158092722969
7.50825e-06;-0.0007302827591166249
7.50850e-06;-0.0007001468192653313
7.50875e-06;-0.0006745479533049386
7.50900e-06;-0.0006536260213258372
7.50925e-06;-0.0006375147145471842
7.50950e-06;-0.0006262838573455254
7.50975e-06;-0.0006198087613568486
7.51000e-06;-0.0006178189298241505
7.51025e-06;-0.000620125145703596
7.51050e-06;-0.000626642763457296
7.51075e-06;-0.0006373015458893438
7.51100e-06;-0.0006520311328567051
7.51125e-06;-0.0006707573467388599
7.51150e-06;-0.0006937415386180736
7.51175e-06;-0.0007209376711960294
7.51200e-06;-0.0007495144196557084
7.51225e-06;-0.0007829310594364472
7.51250e-06;-0.0008175349700941509
7.51275e-06;-0.0008563009812242155
7.51300e-06;-0.0008960738307172946
7.51325e-06;-0.0009393762559006503
7.51350e-06;-0.0009834556073544396
7.51375e-06;-0.0010302585539537987
7.51400e-06;-0.001077537479884794
7.51425e-06;-0.0011264850004388597
7.51450e-06;-0.0011756473760494025
7.51475e-06;-0.00122556294821212
7.51500e-06;-0.00127544033195884
7.51525e-06;-0.001325183842276066
7.51550e-06;-0.0013746052185765758
7.51575e-06;-0.0014228973208689193
7.51600e-06;-0.0014705388248425278
7.51625e-06;-0.0015158995893311056
7.51650e-06;-0.00156030631520525
7.51675e-06;-0.00160136856035069
7.51700e-06;-0.0016411923949556373
7.51725e-06;-0.0016766748537260325
7.51750e-06;-0.0017112680236587667
7.51775e-06;-0.0017422759908316862
7.51800e-06;-0.0017716443557048173
7.51825e-06;-0.0018010127205778492
7.51850e-06;-0.001829714076620808
7.51875e-06;-0.001856077164438906
7.51900e-06;-0.0018824402522569148
7.51925e-06;-0.001906045637134677
7.51950e-06;-0.0019285889054130097
7.51975e-06;-0.0019506611091585958
7.52000e-06;-0.001971081947616508
7.52025e-06;-0.00199150278607435
7.52050e-06;-0.002011384568427283
7.52075e-06;-0.002029376634025904
7.52100e-06;-0.0020473686996244646
7.52125e-06;-0.002065360765223025
7.52150e-06;-0.002083352830821647
7.52175e-06;-0.0020994846880082797
7.52200e-06;-0.00211490009448375
7.52225e-06;-0.0021303155009592726
7.52250e-06;-0.002145730907434743
7.52275e-06;-0.002160712753950438
7.52300e-06;-0.0021741747113256976
7.52325e-06;-0.0021876366687009112
7.52350e-06;-0.002201098626076125
7.52375e-06;-0.002214560583451384
7.52400e-06;-0.002226792225877492
7.52425e-06;-0.0022385500181616187
7.52450e-06;-0.0022503078104457058
7.52475e-06;-0.0022620656027297925
7.52500e-06;-0.0022731522532983416
7.52525e-06;-0.0022818861473861097
7.52550e-06;-0.0022906200414738774
7.52575e-06;-0.002299353935561675
7.52600e-06;-0.002308087829649443
7.52625e-06;-0.002316821723737211
7.52650e-06;-0.002325555617825008
7.52675e-06;-0.0023342895119127763
7.52700e-06;-0.002343023406000544
7.52725e-06;-0.0023517573000883417
7.52750e-06;-0.0023568695736460206
7.52775e-06;-0.0023605869967195754
7.52800e-06;-0.0023643044197931423
7.52825e-06;-0.002368021842866697
7.52850e-06;-0.002371739265940264
7.52875e-06;-0.002375456689013819
7.52900e-06;-0.0023791741120873736
7.52925e-06;-0.0023828915351609406
7.52950e-06;-0.0023866089582344954
7.52975e-06;-0.0023891100205330864
7.53000e-06;-0.002387347004724986
7.53025e-06;-0.0023855839889168917
7.53050e-06;-0.002383820973108797
7.53075e-06;-0.002382057957300697
7.53100e-06;-0.0023802949414926024
7.53125e-06;-0.0023785319256845083
7.53150e-06;-0.0023767689098764077
7.53175e-06;-0.0023750058940683132
7.53200e-06;-0.002373242878260219
7.53225e-06;-0.0023714798624521185
7.53250e-06;-0.002367152384458592
7.53275e-06;-0.0023618372156535093
7.53300e-06;-0.002356522046848444
7.53325e-06;-0.0023512068780433795
7.53350e-06;-0.0023458917092382967
7.53375e-06;-0.002340576540433232
7.53400e-06;-0.0023352613716281674
7.53425e-06;-0.0023299462028230846
7.53450e-06;-0.00232463103401802
7.53475e-06;-0.0023193158652129553
7.53500e-06;-0.0023138681504422678
7.53525e-06;-0.0023079557821234008
7.53550e-06;-0.0023020434138045333
7.53575e-06;-0.0022961310454856464
7.53600e-06;-0.002290561294898592
7.53625e-06;-0.002285123501954538
7.53650e-06;-0.0022796857090104654
7.53675e-06;-0.0022743698266602798
7.53700e-06;-0.0022695505083619736
7.53725e-06;-0.002265029307884402
7.53750e-06;-0.0022606118994564633
7.53775e-06;-0.002255538680613057
7.53800e-06;-0.002248829610697963
7.53825e-06;-0.0022400881685328148
7.53850e-06;-0.002229213389533674
7.53875e-06;-0.0022162541523232213
7.53900e-06;-0.0022026016584211832
7.53925e-06;-0.0021865188817107375
7.53950e-06;-0.0021696249241337125
7.53975e-06;-0.002149887288394565
7.54000e-06;-0.002129062936424413
7.54025e-06;-0.0021044289886645463
7.54050e-06;-0.0020788332250817484
7.54075e-06;-0.002049865716966776
7.54100e-06;-0.002020293782860064
7.54125e-06;-0.001988253746066833
7.54150e-06;-0.0019546263389937624
7.54175e-06;-0.0019193097857792862
7.54200e-06;-0.0018821155730239247
7.54225e-06;-0.0018430843940067268
7.54250e-06;-0.0018024464067752893
7.54275e-06;-0.0017604542325778312
7.54300e-06;-0.0017173604668251046
7.54325e-06;-0.001673412240066836
7.54350e-06;-0.0016288052094814284
7.54375e-06;-0.001583596138634735
7.54400e-06;-0.0015377875751235006
7.54425e-06;-0.0014915256313159963
7.54450e-06;-0.001445074836513545
7.54475e-06;-0.0013987140959891876
7.54500e-06;-0.0013527221469248458
7.54525e-06;-0.0013073741733573559
7.54550e-06;-0.0012629133148599474
7.54575e-06;-0.001219495483432976
7.54600e-06;-0.0011772429036166294
7.54625e-06;-0.0011363673221754173
7.54650e-06;-0.0010971550790042394
7.54675e-06;-0.0010599010668873217
7.54700e-06;-0.0010249004764686274
7.54725e-06;-0.0009924398676652711
7.54750e-06;-0.0009627225441236973
7.54775e-06;-0.0009359712420046305
7.54800e-06;-0.0009121122128345048
7.54825e-06;-0.0008893561002587248
7.54850e-06;-0.0008704663755160396
7.54875e-06;-0.0008527656398717629
7.54900e-06;-0.0008392330280974822
7.54925e-06;-0.0008269507898121638
7.54950e-06;-0.000819051864707054
7.54975e-06;-0.0008122913380923277
7.55000e-06;-0.0008095215847554213
7.55025e-06;-0.0008077978012815694
7.55050e-06;-0.0008097407730028675
7.55075e-06;-0.0008127084952119505
7.55100e-06;-0.0008192685859083897
7.55125e-06;-0.000827034550770842
7.55150e-06;-0.0008390278318484355
7.55175e-06;-0.0008510211129260291
7.55200e-06;-0.0008641754544854822
7.55225e-06;-0.0008814000132697982
7.55250e-06;-0.0008986245720541143
7.55275e-06;-0.0009167803545882206
7.55300e-06;-0.0009382006379865011
7.55325e-06;-0.0009596209213847816
7.55350e-06;-0.0009817038650951624
7.55375e-06;-0.0010061098328497846
7.55400e-06;-0.0010305158006044897
7.55425e-06;-0.001055201485156952
7.55450e-06;-0.001080867745783119
7.55475e-06;-0.001106602179708221
7.55500e-06;-0.0011325756021610283
7.55525e-06;-0.0011584807221254882
7.55550e-06;-0.0011841464006751331
7.55575e-06;-0.0012095646813332834
7.55600e-06;-0.0012341156831763484
7.55625e-06;-0.0012582451009260013
7.55650e-06;-0.0012808966121704772
7.55675e-06;-0.001302969845377597
7.55700e-06;-0.0013230158653043322
7.55725e-06;-0.0013422973805302012
7.55750e-06;-0.0013588988457069922
7.55775e-06;-0.001374424162353541
7.55800e-06;-0.00138617692937624
7.55825e-06;-0.0013964344614388054
7.55850e-06;-0.0014014502931899335
7.55875e-06;-0.0014064661249410615
7.55900e-06;-0.0014096908304088106
7.55925e-06;-0.0014066365580253592
7.55950e-06;-0.0014035822856419077
7.55975e-06;-0.0013986203924970593
7.56000e-06;-0.0013869711380980181
7.56025e-06;-0.0013753218836989767
7.56050e-06;-0.0013621483568464956
7.56075e-06;-0.0013436313357567033
7.56100e-06;-0.0013242839362402883
7.56125e-06;-0.0013015071995899716
7.56150e-06;-0.0012764071600798862
7.56175e-06;-0.0012490321384653093
7.56200e-06;-0.0012194267099772769
7.56225e-06;-0.0011877224025033546
7.56250e-06;-0.0011541130063361879
7.56275e-06;-0.0011187990792376162
7.56300e-06;-0.0010819811400675126
7.56325e-06;-0.0010438582868907817
7.56350e-06;-0.001004615462546647
7.56375e-06;-0.0009644035658099104
7.56400e-06;-0.0009233714570803705
7.56425e-06;-0.0008817221382967981
7.56450e-06;-0.0008396976742222592
7.56475e-06;-0.0007975443673078361
7.56500e-06;-0.0007555085589066622
7.56525e-06;-0.0007138354919711512
7.56550e-06;-0.0006727617938341673
7.56575e-06;-0.0006325025515199152
7.56600e-06;-0.0005932715196972844
7.56625e-06;-0.0005553165576403363
7.56650e-06;-0.0005189098046015017
7.56675e-06;-0.0004843261042364224
7.56700e-06;-0.00045184026137197746
7.56725e-06;-0.00042171485631450206
7.56750e-06;-0.0003940907882129694
7.56775e-06;-0.0003687614377072925
7.56800e-06;-0.0003453228065735213
7.56825e-06;-0.00032362390835136287
7.56850e-06;-0.0003037564318933322
7.56875e-06;-0.00028584258098989787
7.56900e-06;-0.00027000445266925284
7.56925e-06;-0.00025635649920730387
7.56950e-06;-0.000244936959789731
7.56975e-06;-0.00023556637286488522
7.57000e-06;-0.00022794166790903787
7.57025e-06;-0.0002219182680809738
7.57050e-06;-0.00021750364143430172
7.57075e-06;-0.0002147243290656529
7.57100e-06;-0.00021360681869046495
7.57125e-06;-0.00021417280349699279
7.57150e-06;-0.00021639623037446594
7.57175e-06;-0.00022011469281629605
7.57200e-06;-0.00022508836545774384
7.57225e-06;-0.00023129253050710032
7.57250e-06;-0.0002387404481035626
7.57275e-06;-0.0002466367469255719
7.57300e-06;-0.0002561048923612479
7.57325e-06;-0.0002659761058055929
7.57350e-06;-0.0002772603157098538
7.57375e-06;-0.00028885118811192373
7.57400e-06;-0.00030151709751652264
7.57425e-06;-0.00031418300692107856
7.57450e-06;-0.0003270340233468075
7.57475e-06;-0.000340533951519531
7.57500e-06;-0.00035403387969220874
7.57525e-06;-0.00036755068216672325
7.57550e-06;-0.0003811266392458308
7.57575e-06;-0.0003947025963249384
7.57600e-06;-0.00040802389290954516
7.57625e-06;-0.00042045245087544964
7.57650e-06;-0.00043288100884135406
7.57675e-06;-0.00044484649350585797
7.57700e-06;-0.00045518862697014966
7.57725e-06;-0.00046553076043444135
7.57750e-06;-0.0004752935866514681
7.57775e-06;-0.0004830255915876317
7.57800e-06;-0.0004907575965237953
7.57825e-06;-0.0004979061364639509
7.57850e-06;-0.0005030092797064492
7.57875e-06;-0.0005081124229489475
7.57900e-06;-0.0005125862539952076
7.57925e-06;-0.0005148539662567353
7.57950e-06;-0.0005171216785182708
7.57975e-06;-0.0005187851585717024
7.58000e-06;-0.0005183304403246464
7.58025e-06;-0.0005178757220775889
7.58050e-06;-0.0005168690287749748
7.58075e-06;-0.00051392733000773
7.58100e-06;-0.0005109856312404752
7.58125e-06;-0.000507532204253075
7.58150e-06;-0.0005022848612319404
7.58175e-06;-0.0004970375182107882
7.58200e-06;-0.0004913742754339048
7.58225e-06;-0.000484253053184983
7.58250e-06;-0.00047713183093603704
7.58275e-06;-0.00046968276449422245
7.58300e-06;-0.0004610844064342996
7.58325e-06;-0.0004524860483743476
7.58350e-06;-0.00044365862441284965
7.58375e-06;-0.00043402818631723745
7.58400e-06;-0.0004243977482216579
7.58425e-06;-0.00041466452696026934
7.58450e-06;-0.0004045709887144281
7.58475e-06;-0.00039447745046862097
7.58500e-06;-0.00038439713046177216
7.58525e-06;-0.0003743631483543223
7.58550e-06;-0.00036432916624690653
7.58575e-06;-0.00035444180130248746
7.58600e-06;-0.0003450684179387469
7.58625e-06;-0.00033569503457503804
7.58650e-06;-0.00032654808164712815
7.58675e-06;-0.00031819490395622134
7.58700e-06;-0.0003100957871053544
7.58725e-06;-0.0003028873067220849
7.58750e-06;-0.0002961040535764558
7.58775e-06;-0.0002908114783521531
7.58800e-06;-0.00028599538306970106
7.58825e-06;-0.0002831791093277509
7.58850e-06;-0.0002818406652218015
7.58875e-06;-0.0002819501126357227
7.58900e-06;-0.0002834774648987348
7.58925e-06;-0.0002863968856613127
7.58950e-06;-0.00029072076278297546
7.58975e-06;-0.00029656075813184953
7.59000e-06;-0.0003040551717856117
7.59025e-06;-0.00031338819607926556
7.59050e-06;-0.00032456527478361526
7.59075e-06;-0.00033637652536271464
7.59100e-06;-0.0003504109308298626
7.59125e-06;-0.00036501150281917073
7.59150e-06;-0.0003815968299219734
7.59175e-06;-0.00039874110185402487
7.59200e-06;-0.0004178448125100792
7.59225e-06;-0.0004375410863329151
7.59250e-06;-0.0004593146514278331
7.59275e-06;-0.00048108821652275113
7.59300e-06;-0.0005033503849176146
7.59325e-06;-0.0005273254025533871
7.59350e-06;-0.0005513004201891597
7.59375e-06;-0.0005755743866332569
7.59400e-06;-0.0006008963489451208
7.59425e-06;-0.0006262183112569847
7.59450e-06;-0.0006515878411426643
7.59475e-06;-0.0006771241240620116
7.59500e-06;-0.0007026604069813589
7.59525e-06;-0.000727952039439197
7.59550e-06;-0.0007523860244812723
7.59575e-06;-0.0007768200095233476
7.59600e-06;-0.0008007482262874318
7.59625e-06;-0.0008229034202098522
7.59650e-06;-0.0008450586141323476
7.59675e-06;-0.0008663874345019845
7.59700e-06;-0.000884819317186414
7.59725e-06;-0.0009032511998709058
7.59750e-06;-0.0009206160031269852
7.59775e-06;-0.000934240049435284
7.59800e-06;-0.0009478640957436291
7.59825e-06;-0.0009603680432529471
7.59850e-06;-0.0009689453689447265
7.59875e-06;-0.0009775226946365351
7.59900e-06;-0.0009849069466873373
7.59925e-06;-0.0009881087560886508
7.59950e-06;-0.000991310565489975
7.59975e-06;-0.0009933450616365037
7.60000e-06;-0.0009912874208232126
7.60025e-06;-0.0009892297800099146
7.60050e-06;-0.0009860989749427792
7.60075e-06;-0.000979206081945044
7.60100e-06;-0.000972313188947332
7.60125e-06;-0.0009644363671894193
7.60150e-06;-0.0009531102817237311
7.60175e-06;-0.0009417841962580814
7.60200e-06;-0.0009297634093306676
7.60225e-06;-0.0009153072748082848
7.60250e-06;-0.0009003904957468456
7.60275e-06;-0.0008838588797631508
7.60300e-06;-0.0008669440295884249
7.60325e-06;-0.0008486857124475626
7.60350e-06;-0.0008301933362308691
7.60375e-06;-0.0008107612386420942
7.60400e-06;-0.0007908205969265897
7.60425e-06;-0.0007704979893700048
7.60450e-06;-0.0007499125481824372
7.60475e-06;-0.0007291819627225328
7.60500e-06;-0.0007084240647466521
7.60525e-06;-0.0006877569247948515
7.60550e-06;-0.0006673024201369358
7.60575e-06;-0.0006471942951498175
7.60600e-06;-0.0006275771248891639
7.60625e-06;-0.0006085936750335827
7.60650e-06;-0.0005903817492438411
7.60675e-06;-0.0005730784136425625
7.60700e-06;-0.0005568207149013746
7.60725e-06;-0.000541762817445386
7.60750e-06;-0.0005282189564620615
7.60775e-06;-0.0005169222451783716
7.60800e-06;-0.0005087285985725475
7.60825e-06;-0.0005039926752736959
7.60850e-06;-0.0005026755376521726
7.60875e-06;-0.0005046925905258748
7.60900e-06;-0.0005099593358219471
7.60925e-06;-0.0005184018494109775
7.60950e-06;-0.0005300466151153273
7.60975e-06;-0.0005451824136175703
7.61000e-06;-0.0005641748375691077
7.61025e-06;-0.0005870755694870123
7.61050e-06;-0.0006136897597074722
7.61075e-06;-0.0006441371020967591
7.61100e-06;-0.0006783676595999379
7.61125e-06;-0.0007139049301345537
7.61150e-06;-0.0007540230179162829
7.61175e-06;-0.0007954446083702684
7.61200e-06;-0.0008414357618265391
7.61225e-06;-0.0008888113271858112
7.61250e-06;-0.0009410400911957836
7.61275e-06;-0.000993268855205756
7.61300e-06;-0.0010464847906328013
7.61325e-06;-0.0011031613572336008
7.61350e-06;-0.0011603788919451814
7.61375e-06;-0.0012194928461390715
7.61400e-06;-0.0012789768894924409
7.61425e-06;-0.001339758318548725
7.61450e-06;-0.0014006057246822457
7.61475e-06;-0.001461684420262609
7.61500e-06;-0.0015225066100917326
7.61525e-06;-0.001582429592564659
7.61550e-06;-0.0016418176142387112
7.61575e-06;-0.0016993302756810665
7.61600e-06;-0.0017560498427851995
7.61625e-06;-0.001809989135923882
7.61650e-06;-0.0018627937964446172
7.61675e-06;-0.001911620885348253
7.61700e-06;-0.001958957256616013
7.61725e-06;-0.0020010677635269865
7.61750e-06;-0.002041281342258322
7.61775e-06;-0.0020748450436943594
7.61800e-06;-0.0021062108958493334
7.61825e-06;-0.0021298719607646924
7.61850e-06;-0.002150702337329016
7.61875e-06;-0.0021616094440514103
7.61900e-06;-0.0021725165507738052
7.61925e-06;-0.0021799354376552437
7.61950e-06;-0.0021751260102697146
7.61975e-06;-0.002170316582884186
7.62000e-06;-0.002162553280653245
7.62025e-06;-0.002144434865625388
7.62050e-06;-0.002124637968942809
7.62075e-06;-0.0020978937521965446
7.62100e-06;-0.002066400902355063
7.62125e-06;-0.0020303463069382415
7.62150e-06;-0.0019899030723102744
7.62175e-06;-0.0019452189916484661
7.62200e-06;-0.001896470975960793
7.62225e-06;-0.0018439282231012522
7.62250e-06;-0.0017879152580585031
7.62275e-06;-0.0017287624030657043
7.62300e-06;-0.0016667995013420769
7.62325e-06;-0.001602355751027371
7.62350e-06;-0.0015357513520126108
7.62375e-06;-0.0014672909097824078
7.62400e-06;-0.0013972973305819917
7.62425e-06;-0.0013261509052687657
7.62450e-06;-0.001254266976715416
7.62475e-06;-0.00118206410967947
7.62500e-06;-0.0011099609983974959
7.62525e-06;-0.001038375510004453
7.62550e-06;-0.0009677201078941776
7.62575e-06;-0.0008983971546302571
7.62600e-06;-0.0008308207094937187
7.62625e-06;-0.000765440742544581
7.62650e-06;-0.0007027289743305548
7.62675e-06;-0.0006431593252394851
7.62700e-06;-0.0005872055150536065
7.62725e-06;-0.000535342038837476
7.62750e-06;-0.00048804137367587777
7.62775e-06;-0.00044573383028284055
7.62800e-06;-0.0004087175253079731
7.62825e-06;-0.0003771366328973815
7.62850e-06;-0.00035106959599842777
7.62875e-06;-0.00033059017990253625
7.62900e-06;-0.00031556372840872856
7.62925e-06;-0.000305231202649825
7.62950e-06;-0.0003018967370700405
7.62975e-06;-0.003783235214647018
7.63000e-06;-0.027098989059496446
7.63025e-06;-0.020618833590786215
7.63050e-06;-0.015608575551636725
7.63075e-06;-0.00985002176765644
7.63100e-06;0.008201451426542139
7.63125e-06;0.006310659808212022
7.63150e-06;0.0045002565587286235
7.63175e-06;-0.00031570429435238707
7.63200e-06;-0.006445854922920288
7.63225e-06;-0.00900460285013651
7.63250e-06;-0.0073970483849059715
7.63275e-06;-0.0030829877754875753
7.63300e-06;0.001685238106368153
7.63325e-06;0.003998140105903846
7.63350e-06;0.0033183090109009414
7.63375e-06;4.865515669585105e-05
7.63400e-06;-0.003946046316187141
7.63425e-06;-0.005675819377797093
7.63450e-06;-0.004774492200899098
7.63475e-06;-0.0021613250660037367
7.63500e-06;0.0007492847777637469
7.63525e-06;0.0021323585251010672
7.63550e-06;0.0016495653304325415
7.63575e-06;-0.0004478930743989911
7.63600e-06;-0.002992782832696163
7.63625e-06;-0.00411289459270658
7.63650e-06;-0.003579443233362553
7.63675e-06;-0.001968656291968004
7.63700e-06;-0.0001667235192059583
7.63725e-06;0.0006831591841355621
7.63750e-06;0.0003689650241608037
7.63775e-06;-0.0009524586428901285
7.63800e-06;-0.002550691725689763
7.63825e-06;-0.003253546123882873
7.63850e-06;-0.0029180610697912912
7.63875e-06;-0.0019054451373998354
7.63900e-06;-0.0007710124273373882
7.63925e-06;-0.0002309973778680102
7.63950e-06;-0.00041830544611036187
7.63975e-06;-0.001234772758699008
7.64000e-06;-0.002222971413893682
7.64025e-06;-0.002648802267108751
7.64050e-06;-0.002422907843727125
7.64075e-06;-0.0017717337258182182
7.64100e-06;-0.001043285364257972
7.64125e-06;-0.0006863310999598581
7.64150e-06;-0.000784217688437434
7.64175e-06;-0.0012755488105345623
7.64200e-06;-0.0018739011048857117
7.64225e-06;-0.002119578525858602
7.64250e-06;-0.0019567734962114983
7.64275e-06;-0.0015274929842165126
7.64300e-06;-0.0010498723170083448
