Time(s);Current(A)
5.00000e-06;-0.005558465312264902
5.00025e-06;-0.0055137154177750565
5.00050e-06;-0.00546896552328506
5.00075e-06;-0.005421230565123382
5.00100e-06;-0.005372751034163061
5.00125e-06;-0.005322950660978543
5.00150e-06;-0.005272107854865614
5.00175e-06;-0.005220581831576541
5.00200e-06;-0.00516866550728118
5.00225e-06;-0.005116659419436484
5.00250e-06;-0.005064864292270733
5.00275e-06;-0.005013580942975357
5.00300e-06;-0.0049630885722499254
5.00325e-06;-0.004913626700701908
5.00350e-06;-0.004865438968066559
5.00375e-06;-0.004818819507490831
5.00400e-06;-0.004774095874932548
5.00425e-06;-0.004731600272816155
5.00450e-06;-0.004692849338691591
5.00475e-06;-0.00465491820004188
5.00500e-06;-0.004621429250576434
5.00525e-06;-0.0045890483288102725
5.00550e-06;-0.004559365555261024
5.00575e-06;-0.004530355788384326
5.00600e-06;-0.004504687757303826
5.00625e-06;-0.004479853264749475
5.00650e-06;-0.004455018772195208
5.00675e-06;-0.004435039045671066
5.00700e-06;-0.004416270257045205
5.00725e-06;-0.004397501468419409
5.00750e-06;-0.0043836984477544595
5.00775e-06;-0.004371134052510494
5.00800e-06;-0.004358569657266571
5.00825e-06;-0.004346005262022605
5.00850e-06;-0.004333440866778683
5.00875e-06;-0.0043208764715347596
5.00900e-06;-0.00431390223787645
5.00925e-06;-0.004308322373891071
5.00950e-06;-0.0043027425099056915
5.00975e-06;-0.004297162645920293
5.01000e-06;-0.004291582781934913
5.01025e-06;-0.004286002917949534
5.01050e-06;-0.004284309110622291
5.01075e-06;-0.004283584613299438
5.01100e-06;-0.004282860115976585
5.01125e-06;-0.00428213561865373
5.01150e-06;-0.0042814111213308765
5.01175e-06;-0.004280686624008024
5.01200e-06;-0.004280707512874311
5.01225e-06;-0.004282464632011818
5.01250e-06;-0.00428422175114933
5.01275e-06;-0.004285978870286837
5.01300e-06;-0.004287735989424344
5.01325e-06;-0.004289493108561856
5.01350e-06;-0.004291250227699363
5.01375e-06;-0.004293145971433901
5.01400e-06;-0.004295076292690227
5.01425e-06;-0.004297006613946547
5.01450e-06;-0.004297981678800316
5.01475e-06;-0.004298718471372161
5.01500e-06;-0.004299455263944004
5.01525e-06;-0.004300192056515846
5.01550e-06;-0.0043009288490876915
5.01575e-06;-0.004301665641659534
5.01600e-06;-0.004302402434231377
5.01625e-06;-0.004303139226803222
5.01650e-06;-0.004301921124432563
5.01675e-06;-0.004300215407137149
5.01700e-06;-0.004298509689841741
5.01725e-06;-0.004296803972546333
5.01750e-06;-0.004295098255250918
5.01775e-06;-0.00429339253795551
5.01800e-06;-0.004291686820660102
5.01825e-06;-0.004289981103364688
5.01850e-06;-0.0042864825837614405
5.01875e-06;-0.0042825368804536535
5.01900e-06;-0.0042785911771458535
5.01925e-06;-0.0042746454738380665
5.01950e-06;-0.00427069977053028
5.01975e-06;-0.00426675406722248
5.02000e-06;-0.004262808363914693
5.02025e-06;-0.004258468327499466
5.02050e-06;-0.00425320976980231
5.02075e-06;-0.004247951212105172
5.02100e-06;-0.004242692654408016
5.02125e-06;-0.004237434096710877
5.02150e-06;-0.004232175539013739
5.02175e-06;-0.0042269169813165825
5.02200e-06;-0.004221658423619445
5.02225e-06;-0.004216206559818013
5.02250e-06;-0.004210706479133174
5.02275e-06;-0.004205206398448354
5.02300e-06;-0.004199877261979156
5.02325e-06;-0.004194590764604762
5.02350e-06;-0.004189304267230386
5.02375e-06;-0.004184228965471243
5.02400e-06;-0.004179351695102691
5.02425e-06;-0.004174680630713745
5.02450e-06;-0.004170246133251206
5.02475e-06;-0.004166079588793168
5.02500e-06;-0.0041627541927112014
5.02525e-06;-0.004161965120510002
5.02550e-06;-0.004165499044366394
5.02575e-06;-0.004174001615641392
5.02600e-06;-0.004187342221715346
5.02625e-06;-0.004205265214541442
5.02650e-06;-0.0042275130825822575
5.02675e-06;-0.004253830458371728
5.02700e-06;-0.004286352365688288
5.02725e-06;-0.004320221773759329
5.02750e-06;-0.004363263842214762
5.02775e-06;-0.004408593873058378
5.02800e-06;-0.004467180052212365
5.02825e-06;-0.004529072749593247
5.02850e-06;-0.004590965446973919
5.02875e-06;-0.004652858144354591
5.02900e-06;-0.004720554690307275
5.02925e-06;-0.0048017701580251575
5.02950e-06;-0.004882985625743314
5.02975e-06;-0.004964201093461196
5.03000e-06;-0.005045416561179078
5.03025e-06;-0.0051358311922608604
5.03050e-06;-0.005228540396442889
5.03075e-06;-0.005324581149338993
5.03100e-06;-0.005421452899768593
5.03125e-06;-0.005520831604267149
5.03150e-06;-0.005620835625345497
5.03175e-06;-0.005722355968825272
5.03200e-06;-0.005824254532851032
5.03225e-06;-0.005925748346691814
5.03250e-06;-0.006027141202559901
5.03275e-06;-0.006126991647156432
5.03300e-06;-0.006224851780179938
5.03325e-06;-0.006319370466926124
5.03350e-06;-0.006413155581512477
5.03375e-06;-0.006501695715110876
5.03400e-06;-0.006588927578400947
5.03425e-06;-0.006666555010505929
5.03450e-06;-0.006741786782422335
5.03475e-06;-0.006817018554338486
5.03500e-06;-0.006878732937249844
5.03525e-06;-0.006937075639936828
5.03550e-06;-0.006995418342623615
5.03575e-06;-0.00703930971616619
5.03600e-06;-0.007079596454177883
5.03625e-06;-0.00711988319218944
5.03650e-06;-0.007160169930200998
5.03675e-06;-0.007193588521203352
5.03700e-06;-0.0072110091169221135
5.03725e-06;-0.007228429712640874
5.03750e-06;-0.007245850308359694
5.03775e-06;-0.007263270904078456
5.03800e-06;-0.007262018927758445
5.03825e-06;-0.007256109399461716
5.03850e-06;-0.007250199871164987
5.03875e-06;-0.007244290342868238
5.03900e-06;-0.007238380814571509
5.03925e-06;-0.00723247128627478
5.03950e-06;-0.00722026954947359
5.03975e-06;-0.007193411352664856
5.04000e-06;-0.007166553155856121
5.04025e-06;-0.007139694959047296
5.04050e-06;-0.0071128367622385604
5.04075e-06;-0.007085978565429826
5.04100e-06;-0.007059120368621
5.04125e-06;-0.007024641689301196
5.04150e-06;-0.0069882622116711375
5.04175e-06;-0.006951882734040955
5.04200e-06;-0.0069136264727875625
5.04225e-06;-0.00687490208013492
5.04250e-06;-0.006836177687482408
5.04275e-06;-0.0067971571240376776
5.04300e-06;-0.006758062685882053
5.04325e-06;-0.006718968247726561
5.04350e-06;-0.006681438085800195
5.04375e-06;-0.006644298105677622
5.04400e-06;-0.006612374696780655
5.04425e-06;-0.006581752471864552
5.04450e-06;-0.006551130246948347
5.04475e-06;-0.0065205080220322445
5.04500e-06;-0.006489885797116143
5.04525e-06;-0.006460842218537157
5.04550e-06;-0.006435475785572347
5.04575e-06;-0.0064101093526075376
5.04600e-06;-0.006384742919642642
5.04625e-06;-0.0063593764866778325
5.04650e-06;-0.006334010053712937
5.04675e-06;-0.006309543081132809
5.04700e-06;-0.006285300463477263
5.04725e-06;-0.006261057845821635
5.04750e-06;-0.00623681522816609
5.04775e-06;-0.0062125726105105444
5.04800e-06;-0.006188329992854917
5.04825e-06;-0.006164087375199372
5.04850e-06;-0.0061398447575438265
5.04875e-06;-0.006114410064872745
5.04900e-06;-0.006088678029589746
5.04925e-06;-0.0060629459943067465
5.04950e-06;-0.00603721395902366
5.04975e-06;-0.00601148192374066
5.05000e-06;-0.005985749888457661
5.05025e-06;-0.005960017853174575
5.05050e-06;-0.005934285817891576
5.05075e-06;-0.00590859827966113
5.05100e-06;-0.005882921840455319
5.05125e-06;-0.005857245401249508
5.05150e-06;-0.00583156896204361
5.05175e-06;-0.005805892522837798
5.05200e-06;-0.005780216083631987
5.05225e-06;-0.005754539644426089
5.05250e-06;-0.005729910906047317
5.05275e-06;-0.0057077225803243105
5.05300e-06;-0.005685534254601228
5.05325e-06;-0.00566334592887822
5.05350e-06;-0.005641157603155213
5.05375e-06;-0.005618969277432131
5.05400e-06;-0.005596780951709124
5.05425e-06;-0.005574592625986116
5.05450e-06;-0.005556511210197604
5.05475e-06;-0.00553945419246395
5.05500e-06;-0.005522397174730239
5.05525e-06;-0.005505933368210073
5.05550e-06;-0.005489617528025384
5.05575e-06;-0.00547330168784064
5.05600e-06;-0.005455599783256183
5.05625e-06;-0.005437552148743997
5.05650e-06;-0.0054195045142317495
5.05675e-06;-0.005399672401003209
5.05700e-06;-0.005379395180247394
5.05725e-06;-0.00535911795949151
5.05750e-06;-0.005338840738735694
5.05775e-06;-0.005318563517979879
5.05800e-06;-0.005298286297223995
5.05825e-06;-0.0052742408497607925
5.05850e-06;-0.005249255482949437
5.05875e-06;-0.005224270116137997
5.05900e-06;-0.005199284749326643
5.05925e-06;-0.005174299382515203
5.05950e-06;-0.005149314015703848
5.05975e-06;-0.005121373638242719
5.06000e-06;-0.005092696184193676
5.06025e-06;-0.00506401873014473
5.06050e-06;-0.005035341276095785
5.06075e-06;-0.005006663822046741
5.06100e-06;-0.004977672683338833
5.06125e-06;-0.004947950878021007
5.06150e-06;-0.00491822907270308
5.06175e-06;-0.004888507267385254
5.06200e-06;-0.004858785462067428
5.06225e-06;-0.004829063656749501
5.06250e-06;-0.004799991311830308
5.06275e-06;-0.004771080963638451
5.06300e-06;-0.004743264857199088
5.06325e-06;-0.0047157216905467664
5.06350e-06;-0.004689428367122326
5.06375e-06;-0.004663446795596991
5.06400e-06;-0.004638672766060217
5.06425e-06;-0.004615196904642533
5.06450e-06;-0.0045931105486523025
5.06475e-06;-0.004572594561440778
5.06500e-06;-0.004553995935923015
5.06525e-06;-0.004537987402297107
5.06550e-06;-0.004525216465517504
5.06575e-06;-0.0045159298482236685
5.06600e-06;-0.004510116672832421
5.06625e-06;-0.00450906882775219
5.06650e-06;-0.004509037162784653
5.06675e-06;-0.004514351107305459
5.06700e-06;-0.0045209984221817765
5.06725e-06;-0.00453506404516146
5.06750e-06;-0.0045509800375207795
5.06775e-06;-0.004566896029880154
5.06800e-06;-0.0045940540393809215
5.06825e-06;-0.004624016176722421
5.06850e-06;-0.004653978314064022
5.06875e-06;-0.004683940451405522
5.06900e-06;-0.004713902588747021
5.06925e-06;-0.004755464508602467
5.06950e-06;-0.0047999197947178746
5.06975e-06;-0.0048443750808332825
5.07000e-06;-0.004888830366948841
5.07025e-06;-0.004933285653064249
5.07050e-06;-0.004984337944805071
5.07075e-06;-0.005037035746146863
5.07100e-06;-0.0050897335474884755
5.07125e-06;-0.005145244847123927
5.07150e-06;-0.0052014579255236166
5.07175e-06;-0.005257671003923116
5.07200e-06;-0.005314753587094243
5.07225e-06;-0.005372053053277031
5.07250e-06;-0.005429352519459819
5.07275e-06;-0.005485095846656222
5.07300e-06;-0.005540451021744072
5.07325e-06;-0.005595806196831921
5.07350e-06;-0.005648275818651442
5.07375e-06;-0.005700025688832526
5.07400e-06;-0.005748177344776184
5.07425e-06;-0.005795431488059116
5.07450e-06;-0.005836425110024559
5.07475e-06;-0.005875857152613349
5.07500e-06;-0.0059152891952022725
5.07525e-06;-0.005945590257480026
5.07550e-06;-0.0059736137537502055
5.07575e-06;-0.006001637250020481
5.07600e-06;-0.006019929473501277
5.07625e-06;-0.0060357943983394766
5.07650e-06;-0.006051659323177622
5.07675e-06;-0.006057270700892979
5.07700e-06;-0.006060324507615154
5.07725e-06;-0.006063378314337318
5.07750e-06;-0.006052585842879432
5.07775e-06;-0.006038339655452561
5.07800e-06;-0.006024093468025738
5.07825e-06;-0.006009847280598916
5.07850e-06;-0.0059956010931720444
5.07875e-06;-0.005975614260325695
5.07900e-06;-0.0059422557250196646
5.07925e-06;-0.005908897189713521
5.07950e-06;-0.0058755386544074905
5.07975e-06;-0.00584218011910146
5.08000e-06;-0.005808821583795316
5.08025e-06;-0.005766670816909828
5.08050e-06;-0.005722326979062365
5.08075e-06;-0.005677983141215053
5.08100e-06;-0.0056300722715416
5.08125e-06;-0.005581271667123514
5.08150e-06;-0.005530653227505029
5.08175e-06;-0.005479581360158265
5.08200e-06;-0.00542764557851201
5.08225e-06;-0.005375494308301267
5.08250e-06;-0.0053232830336892335
5.08275e-06;-0.005271330352449238
5.08300e-06;-0.005219962465784622
5.08325e-06;-0.005169501619761765
5.08350e-06;-0.005120290734624413
5.08375e-06;-0.00507267374644679
5.08400e-06;-0.005026991238710459
5.08425e-06;-0.00498358314415501
5.08450e-06;-0.00494278902282233
5.08475e-06;-0.004904947969092572
5.08500e-06;-0.0048705085576373095
5.08525e-06;-0.004840105836400188
5.08550e-06;-0.004814288949311551
5.08575e-06;-0.004793280534792497
5.08600e-06;-0.0047771118318411495
5.08625e-06;-0.0047657843304044776
5.08650e-06;-0.004761237271469631
5.08675e-06;-0.004758140391078391
5.08700e-06;-0.004762985149102836
5.08725e-06;-0.004769810812252193
5.08750e-06;-0.004786953753907728
5.08775e-06;-0.004806670163253262
5.08800e-06;-0.004826386572598731
5.08825e-06;-0.004860827962635104
5.08850e-06;-0.004898942245869114
5.08875e-06;-0.004937056529102995
5.08900e-06;-0.004975170812336876
5.08925e-06;-0.005013285095570886
5.08950e-06;-0.005066407411313406
5.08975e-06;-0.00512327322266156
5.09000e-06;-0.005180139034009522
5.09025e-06;-0.005237004845357484
5.09050e-06;-0.005293870656705638
5.09075e-06;-0.005358068409574585
5.09100e-06;-0.0054240949891632365
5.09125e-06;-0.005492805368091947
5.09150e-06;-0.005562185174610501
5.09175e-06;-0.005633145780309713
5.09200e-06;-0.005704500689178625
5.09225e-06;-0.005776086111849781
5.09250e-06;-0.005847729032224651
5.09275e-06;-0.005918245845155606
5.09300e-06;-0.005988481769950876
5.09325e-06;-0.00605632534535543
5.09350e-06;-0.006123572190347699
5.09375e-06;-0.006187060001852459
5.09400e-06;-0.006249610187100926
5.09425e-06;-0.006305240548013163
5.09450e-06;-0.006359144877750191
5.09475e-06;-0.006413049207487401
5.09500e-06;-0.006456394874552727
5.09525e-06;-0.006497106864799897
5.09550e-06;-0.006537818855047206
5.09575e-06;-0.006567700734140582
5.09600e-06;-0.006594881228260306
5.09625e-06;-0.006622061722380121
5.09650e-06;-0.006631894111726233
5.09675e-06;-0.006637399314685213
5.09700e-06;-0.006642904517644213
5.09725e-06;-0.006648409720603194
5.09750e-06;-0.006653914923562176
5.09775e-06;-0.006659420126521176
5.09800e-06;-0.006643800053242644
5.09825e-06;-0.006622910643114377
5.09850e-06;-0.006602021232986181
5.09875e-06;-0.006581131822857985
5.09900e-06;-0.0065602424127297184
5.09925e-06;-0.006539353002601522
5.09950e-06;-0.006503246277532279
5.09975e-06;-0.006463343854955001
5.10000e-06;-0.0064234414323778586
5.10025e-06;-0.0063835390098007155
5.10050e-06;-0.006343636587223438
5.10075e-06;-0.0062951006866639545
5.10100e-06;-0.006244411313498586
5.10125e-06;-0.006193721940333045
5.10150e-06;-0.006143032567167675
5.10175e-06;-0.0060923431940023065
5.10200e-06;-0.006038931484508598
5.10225e-06;-0.0059848407350362185
5.10250e-06;-0.005930689049416996
5.10275e-06;-0.0058765221643241414
5.10300e-06;-0.005823317958539059
5.10325e-06;-0.0057703538765511405
5.10350e-06;-0.005718866983659945
5.10375e-06;-0.005669136478075335
5.10400e-06;-0.005622400746598972
5.10425e-06;-0.0055763256576956645
5.10450e-06;-0.005536016643905486
5.10475e-06;-0.005497145878388199
5.10500e-06;-0.0054582751128710435
5.10525e-06;-0.005426216027112023
5.10550e-06;-0.00539585599772246
5.10575e-06;-0.0053654959683329985
5.10600e-06;-0.005341258748297562
5.10625e-06;-0.005318548757756344
5.10650e-06;-0.0052958387672152035
5.10675e-06;-0.005279482584338164
5.10700e-06;-0.005264711249511228
5.10725e-06;-0.005251836406104649
5.10750e-06;-0.005243379065804532
5.10775e-06;-0.005234921725504443
5.10800e-06;-0.005229570078844273
5.10825e-06;-0.005231876935269419
5.10850e-06;-0.005235900847499127
5.10875e-06;-0.005239924759728835
5.10900e-06;-0.005243948671958557
5.10925e-06;-0.0052479725841882655
5.10950e-06;-0.005251996496417974
5.10975e-06;-0.005256020408647696
5.11000e-06;-0.005268718071556886
5.11025e-06;-0.005283579252403066
5.11050e-06;-0.005298440433249296
5.11075e-06;-0.005313301614095477
5.11100e-06;-0.005328162794941708
5.11125e-06;-0.005343023975787888
5.11150e-06;-0.005357885156634068
5.11175e-06;-0.00537612230826534
5.11200e-06;-0.005395201537749342
5.11225e-06;-0.005414280767233344
5.11250e-06;-0.0054333599967174104
5.11275e-06;-0.005452439226201412
5.11300e-06;-0.005471518455685414
5.11325e-06;-0.0054891493180627094
5.11350e-06;-0.0055064189101740185
5.11375e-06;-0.0055236885022853285
5.11400e-06;-0.005540958094396696
5.11425e-06;-0.005558227686508006
5.11450e-06;-0.005575497278619315
5.11475e-06;-0.005588924860751071
5.11500e-06;-0.005601394119567871
5.11525e-06;-0.005613863378384714
5.11550e-06;-0.005626332637201515
5.11575e-06;-0.005638801896018316
5.11600e-06;-0.005651271154835159
5.11625e-06;-0.0056637404136519595
5.11650e-06;-0.00567620967246876
5.11675e-06;-0.005688781544666398
5.11700e-06;-0.005701592434517045
5.11725e-06;-0.005714403324367692
5.11750e-06;-0.005727214214218383
5.11775e-06;-0.00574002510406903
5.11800e-06;-0.005752835993919677
5.11825e-06;-0.005765646883770367
5.11850e-06;-0.005778457773621014
5.11875e-06;-0.005791268663471662
5.11900e-06;-0.005805501827905136
5.11925e-06;-0.005820089754273058
5.11950e-06;-0.005834677680641028
5.11975e-06;-0.0058492656070089485
5.12000e-06;-0.00586385353337687
5.12025e-06;-0.00587844145974484
5.12050e-06;-0.005893029386112762
5.12075e-06;-0.005907617312480682
5.12100e-06;-0.0059222052388486525
5.12125e-06;-0.005936793165216574
5.12150e-06;-0.005951086863645053
5.12175e-06;-0.005964695216059295
5.12200e-06;-0.005978303568473493
5.12225e-06;-0.00599191192088769
5.12250e-06;-0.0060055202733019335
5.12275e-06;-0.00601912862571613
5.12300e-06;-0.006032736978130327
5.12325e-06;-0.006046345330544571
5.12350e-06;-0.0060599536829587675
5.12375e-06;-0.006073562035373011
5.12400e-06;-0.006087170387787208
5.12425e-06;-0.006095902601171259
5.12450e-06;-0.00610341854553397
5.12475e-06;-0.0061109344898966555
5.12500e-06;-0.00611845043425934
5.12525e-06;-0.006125966378622052
5.12550e-06;-0.006133482322984737
5.12575e-06;-0.006140998267347423
5.12600e-06;-0.006148514211710134
5.12625e-06;-0.0061560301560728194
5.12650e-06;-0.006163546100435504
5.12675e-06;-0.006171062044798215
5.12700e-06;-0.006178577989160901
5.12725e-06;-0.006186093933523587
5.12750e-06;-0.006192252884691144
5.12775e-06;-0.006195962987704103
5.12800e-06;-0.006199673090717074
5.12825e-06;-0.0062033831937300336
5.12850e-06;-0.0062070932967429925
5.12875e-06;-0.0062108033997559636
5.12900e-06;-0.006214513502768923
5.12925e-06;-0.006218223605781882
5.12950e-06;-0.006221933708794853
5.12975e-06;-0.006225643811807813
5.13000e-06;-0.006229353914820772
5.13025e-06;-0.006233064017833743
5.13050e-06;-0.006236774120846703
5.13075e-06;-0.006240484223859662
5.13100e-06;-0.006243999792418783
5.13125e-06;-0.017497380991586767
5.13150e-06;-0.026159419908267024
5.13175e-06;-0.02189126381435957
5.13200e-06;-0.018997583628854328
5.13225e-06;-0.009918083534444105
5.13250e-06;-0.0019644222013067087
5.13275e-06;-0.0033871310628219753
5.13300e-06;-0.004029881447584651
5.13325e-06;-0.006909867364552917
5.13350e-06;-0.018444409388394516
5.13375e-06;-0.014134013884074967
5.13400e-06;-0.011467489928706902
5.13425e-06;-0.006965693114905324
5.13450e-06;-0.0027386739984327758
5.13475e-06;-0.0023305759700397257
5.13500e-06;-0.004318642032215296
5.13525e-06;-0.007757574737952364
5.13550e-06;-0.01120010087161507
5.13575e-06;-0.01104163267571417
5.13600e-06;-0.00885222161375653
5.13625e-06;-0.006086392198434061
5.13650e-06;-0.0034865094109154953
5.13675e-06;-0.003273765745657015
5.13700e-06;-0.004557793882187509
5.13725e-06;-0.006747178288642662
5.13750e-06;-0.008935974398849923
5.13775e-06;-0.008866910397743299
5.13800e-06;-0.007524050879053534
5.13825e-06;-0.005818918543299225
5.13850e-06;-0.004216804529763505
5.13875e-06;-0.004109188230639002
5.13900e-06;-0.004938386180205171
5.13925e-06;-0.006333978324963445
5.13950e-06;-0.007728534811279584
5.13975e-06;-0.007708216532922552
5.14000e-06;-0.006889569199063101
5.14025e-06;-0.005843624119873295
5.14050e-06;-0.004861839274688595
5.14075e-06;-0.004815770529977424
5.14100e-06;-0.005355985471396556
5.14125e-06;-0.0062503723456070375
5.14150e-06;-0.007143431342757669
5.14175e-06;-0.007149525279941528
5.14200e-06;-0.006654864125788707
5.14225e-06;-0.006017110371376475
5.14250e-06;-0.005418774629621335
5.14275e-06;-0.0054057034670532585
5.14300e-06;-0.005758901231035331
5.14325e-06;-0.006332876427662808
5.14350e-06;-0.006904862946620958
5.14375e-06;-0.00692005156051778
5.14400e-06;-0.006620329635463828
5.14425e-06;-0.0062296814177359
5.14450e-06;-0.005862357899503173
5.14475e-06;-0.005860170067642982
5.14500e-06;-0.006085673804837395
5.14525e-06;-0.006447108396827012
5.14550e-06;-0.006804262095686373
5.14575e-06;-0.006809446144345535
5.14600e-06;-0.006614361519714115
5.14625e-06;-0.006359495882704595
