Time(s);Current(A)
1.17500e-05;-0.0009882112432769235
1.17503e-05;-0.0010126567922409669
1.17505e-05;-0.0010371023412048448
1.17508e-05;-0.0010645543526861358
1.17510e-05;-0.0010935815818611074
1.17513e-05;-0.0011226088110358823
1.17515e-05;-0.00115409806536449
1.17518e-05;-0.0011868772827517292
1.17520e-05;-0.0012196565001387461
1.17523e-05;-0.0012538667467292758
1.17525e-05;-0.001288826772340299
1.17528e-05;-0.0013237867979510852
1.17530e-05;-0.0013595733212912482
1.17533e-05;-0.001395792883074224
1.17535e-05;-0.0014320124448569545
1.17538e-05;-0.0014680986537344077
1.17540e-05;-0.0015041149931705811
1.17543e-05;-0.0015393746051582985
1.17545e-05;-0.0015742377344164543
1.17548e-05;-0.0016079609216853163
1.17550e-05;-0.0016410868433032852
1.17553e-05;-0.0016725963352017125
1.17555e-05;-0.001703258908610048
1.17558e-05;-0.0017316919777844446
1.17560e-05;-0.0017589569118176
1.17563e-05;-0.0017833045186871274
1.17565e-05;-0.0018061236097872185
1.17568e-05;-0.0018249091510837562
1.17570e-05;-0.001841581338568557
1.17572e-05;-0.0018525506458880543
1.17575e-05;-0.0018605319639372051
1.17578e-05;-0.001868513281986356
1.17580e-05;-0.0018696352901959891
1.17583e-05;-0.0018671634048625194
1.17585e-05;-0.0018646915195290497
1.17588e-05;-0.0018549679811120947
1.17590e-05;-0.0018414449833032028
1.17593e-05;-0.001827921985494219
1.17595e-05;-0.001809655550736861
1.17598e-05;-0.001786701473831693
1.17600e-05;-0.0017604951111021099
1.17603e-05;-0.001731191389823607
1.17605e-05;-0.0016989022214934345
1.17608e-05;-0.0016636845616132077
1.17610e-05;-0.0016256363903442122
1.17613e-05;-0.0015849542580550055
1.17615e-05;-0.0015418839708532766
1.17618e-05;-0.001496678804796894
1.17620e-05;-0.001449592196041798
1.17623e-05;-0.0014008753654092328
1.17625e-05;-0.0013507524765233188
1.17628e-05;-0.0012994131172265014
1.17630e-05;-0.0012470728417779268
1.17633e-05;-0.0011940088204200209
1.17635e-05;-0.001140529141889692
1.17638e-05;-0.0010869464213498225
1.17640e-05;-0.0010335733103306979
1.17643e-05;-0.0009807211253523682
1.17645e-05;-0.0009286842676392243
1.17648e-05;-0.0008777355903920694
1.17650e-05;-0.0008281638670855259
1.17653e-05;-0.0007802966116724918
1.17655e-05;-0.0007344806958694361
1.17657e-05;-0.0006910657730957543
1.17660e-05;-0.0006504015731607761
1.17663e-05;-0.0006128189973670647
1.17665e-05;-0.0005783736028704737
1.17668e-05;-0.0005466527700309966
1.17670e-05;-0.0005172048702135596
1.17673e-05;-0.0004899334972850114
1.17675e-05;-0.00046496155784038295
1.17678e-05;-0.00044244842628400513
1.17680e-05;-0.0004225534360816822
1.17683e-05;-0.0004054241665192247
1.17685e-05;-0.0003910357111989944
1.17688e-05;-0.0003790698988478326
1.17690e-05;-0.00036918413363186723
1.17693e-05;-0.00036125839923437016
1.17695e-05;-0.00035530999494390054
1.17698e-05;-0.0003513790840465588
1.17700e-05;-0.00034950582982829994
1.17703e-05;-0.0003497230047635093
1.17705e-05;-0.0003524946692534088
1.17708e-05;-0.00035622639149841427
1.17710e-05;-0.00036184761199257087
1.17713e-05;-0.0003684588235671849
1.17715e-05;-0.0003767584059147044
1.17718e-05;-0.00038594259982852925
1.17720e-05;-0.00039672238786607743
1.17723e-05;-0.00040833817771073193
1.17725e-05;-0.0004214780566901021
1.17728e-05;-0.00043541647287362334
1.17730e-05;-0.0004493548890572391
1.17733e-05;-0.0004641212512124417
1.17735e-05;-0.0004793214106083836
1.17738e-05;-0.000494947369243807
1.17740e-05;-0.0005107964227930769
1.17742e-05;-0.0005266454763422393
1.17745e-05;-0.0005424915633813907
1.17748e-05;-0.0005583360961356629
1.17750e-05;-0.0005736172466033883
1.17753e-05;-0.0005886032163591869
1.17755e-05;-0.0006024084132334269
1.17758e-05;-0.0006155949513597465
1.17760e-05;-0.0006287814894859768
1.17763e-05;-0.0006401100628565553
1.17765e-05;-0.0006504651669279538
1.17768e-05;-0.0006608202709992823
1.17770e-05;-0.0006695387145161495
1.17773e-05;-0.0006773996397199596
1.17775e-05;-0.0006852605649237165
1.17778e-05;-0.0006913875840610644
1.17780e-05;-0.0006966061336926004
1.17783e-05;-0.0007018246833241011
1.17785e-05;-0.000703919751688195
1.17788e-05;-0.0007043782910969918
1.17790e-05;-0.0007048368305057854
1.17793e-05;-0.000705295369914582
1.17795e-05;-0.0007057539093233787
1.17798e-05;-0.0007062124487321723
1.17800e-05;-0.0007066709881409691
1.17803e-05;-0.0007071295275497657
1.17805e-05;-0.0007067676311228471
1.17808e-05;-0.000701973435883243
1.17810e-05;-0.0006971792406436388
1.17813e-05;-0.0006923850454040671
1.17815e-05;-0.000687590850164463
1.17818e-05;-0.0006827966549248589
1.17820e-05;-0.0006780024596852872
1.17823e-05;-0.000673208264445683
1.17825e-05;-0.0006684140692060789
1.17827e-05;-0.0006622483906577231
1.17830e-05;-0.00065536413179638
1.17833e-05;-0.000648479872935037
1.17835e-05;-0.0006413601393757305
1.17838e-05;-0.0006341170302848559
1.17840e-05;-0.0006268739211939812
1.17843e-05;-0.0006196458610943502
1.17845e-05;-0.0006124256858219244
1.17848e-05;-0.0006052055105494498
1.17850e-05;-0.0005982687515794892
1.17853e-05;-0.0005914804868523152
1.17855e-05;-0.0005849732830440363
1.17858e-05;-0.0005788433139487217
1.17860e-05;-0.0005730956681511169
1.17863e-05;-0.0005677971100505549
1.17865e-05;-0.0005632655740494066
1.17868e-05;-0.000560199782502658
1.17870e-05;-0.0005599625745862565
1.17873e-05;-0.0005608918307889127
1.17875e-05;-0.000564689161174164
1.17878e-05;-0.0005699892015309969
1.17880e-05;-0.0005779282772989128
1.17883e-05;-0.0005872500595711903
1.17885e-05;-0.0005993981302484157
1.17888e-05;-0.0006130270174938472
1.17890e-05;-0.0006300861007596543
1.17893e-05;-0.0006489424143049111
1.17895e-05;-0.0006709559985738672
1.17898e-05;-0.0006946238155777318
1.17900e-05;-0.0007209904629059507
1.17903e-05;-0.0007487711459186299
1.17905e-05;-0.0007790531507940791
1.17908e-05;-0.000810645708000829
1.17910e-05;-0.0008453478680604746
1.17912e-05;-0.0008816792855649264
1.17915e-05;-0.0009180107030696245
1.17918e-05;-0.0009570087585343687
1.17920e-05;-0.000997403982690574
1.17923e-05;-0.001037799206847053
1.17925e-05;-0.0010797906426194706
1.17928e-05;-0.0011226184037306307
1.17930e-05;-0.0011654461648415006
1.17933e-05;-0.0012089826672347934
1.17935e-05;-0.0012528905102993102
1.17938e-05;-0.0012965963378440387
1.17940e-05;-0.0013401963205899843
1.17943e-05;-0.0013829254098097613
1.17945e-05;-0.0014251981996789324
1.17948e-05;-0.0014661103926803204
1.17950e-05;-0.0015063097092527184
1.17953e-05;-0.0015445527715496434
1.17955e-05;-0.0015817708663530363
1.17958e-05;-0.0016154690250222282
1.17960e-05;-0.0016473229346262639
1.17963e-05;-0.0016791768442305152
1.17965e-05;-0.001707951592723262
1.17968e-05;-0.0017342919086272394
1.17970e-05;-0.001760202001144973
1.17973e-05;-0.0017852856977883414
1.17975e-05;-0.0018099364093543842
1.17978e-05;-0.001834587120920594
1.17980e-05;-0.0018576788486631885
1.17983e-05;-0.0018799537563414033
1.17985e-05;-0.0019010779127301423
1.17988e-05;-0.0019215991400005072
1.17990e-05;-0.0019420676066787678
1.17993e-05;-0.0019625084297668575
1.17995e-05;-0.001982949252854947
1.17997e-05;-0.0020026844284889798
1.18000e-05;-0.0020220498844442467
1.18003e-05;-0.0020414153403995137
1.18005e-05;-0.0020607807963546497
1.18008e-05;-0.0020796434479426777
1.18010e-05;-0.0020982426582496798
1.18013e-05;-0.002116841868556682
1.18015e-05;-0.0021354410788635577
1.18018e-05;-0.002153505125652618
1.18020e-05;-0.002171288776781029
1.18023e-05;-0.00218907242790932
1.18025e-05;-0.0022068560790377313
1.18028e-05;-0.002224639730166143
1.18030e-05;-0.002241560776172178
1.18033e-05;-0.0022580298654865196
1.18035e-05;-0.002274498954800861
1.18038e-05;-0.002290968044115091
1.18040e-05;-0.0023074371334294327
1.18043e-05;-0.002322372020101802
1.18045e-05;-0.002336503070658604
1.18048e-05;-0.002350634121215502
1.18050e-05;-0.0023647651717724
1.18053e-05;-0.0023788962223292025
1.18055e-05;-0.002390891477270499
1.18058e-05;-0.0024017676951275024
1.18060e-05;-0.002412643912984432
1.18063e-05;-0.002423520130841435
1.18065e-05;-0.0024343963486984383
1.18068e-05;-0.0024432680265428284
1.18070e-05;-0.0024510894378754916
1.18073e-05;-0.002458910849208155
1.18075e-05;-0.0024667322605407653
1.18078e-05;-0.002474553671873429
1.18080e-05;-0.0024823750832060924
1.18082e-05;-0.0024901964945387026
1.18085e-05;-0.002498017905871366
1.18088e-05;-0.002505549246639475
1.18090e-05;-0.0025115135185827934
1.18093e-05;-0.0025174777905261525
1.18095e-05;-0.002523442062469511
1.18098e-05;-0.00252940633441287
1.18100e-05;-0.0025353706063561882
1.18103e-05;-0.002541334878299547
1.18105e-05;-0.002547299150242906
1.18108e-05;-0.0025532634221862244
1.18110e-05;-0.002558631984809915
1.18113e-05;-0.002563688429169368
1.18115e-05;-0.002568744873528787
1.18118e-05;-0.00257380131788824
1.18120e-05;-0.0025788577622476933
1.18123e-05;-0.002583914206607112
1.18125e-05;-0.0025889706509665653
1.18128e-05;-0.0025940270953260184
1.18130e-05;-0.0025990835396854373
1.18133e-05;-0.0026039583285588715
1.18135e-05;-0.0026078517470905405
1.18138e-05;-0.0026117451656221826
1.18140e-05;-0.0026156385841538516
1.18143e-05;-0.00261953200268552
1.18145e-05;-0.0026234254212171627
1.18148e-05;-0.0026273188397488317
1.18150e-05;-0.0026312122582805002
1.18153e-05;-0.002635105676812143
1.18155e-05;-0.002638999095343812
1.18158e-05;-0.0026423143720790557
1.18160e-05;-0.0026451696754238654
1.18163e-05;-0.0026477439194801484
1.18165e-05;-0.002649669047679745
1.18167e-05;-0.002650092804805658
1.18170e-05;-0.0026482563798253147
1.18173e-05;-0.002643155335161568
1.18175e-05;-0.002636789396118127
1.18178e-05;-0.0026267806590417027
1.18180e-05;-0.002614863300156494
1.18183e-05;-0.0026029459412712855
1.18185e-05;-0.002587298596965766
1.18188e-05;-0.002569696949551499
1.18190e-05;-0.0025482879837449477
1.18193e-05;-0.002524884196690985
1.18195e-05;-0.0024979875922442347
1.18198e-05;-0.0024692609474302202
1.18200e-05;-0.002438258467352745
1.18203e-05;-0.00240472062668228
1.18205e-05;-0.002369145371552313
1.18208e-05;-0.0023314195574798005
1.18210e-05;-0.0022914662612489884
1.18213e-05;-0.002249417964332789
1.18215e-05;-0.002205523472306241
1.18218e-05;-0.0021600499946986596
1.18220e-05;-0.0021132646683076116
1.18223e-05;-0.002065428896961129
1.18225e-05;-0.0020167262596709266
1.18228e-05;-0.0019672217413760104
1.18230e-05;-0.0019170029862347342
1.18233e-05;-0.0018662887736961167
1.18235e-05;-0.0018153707258597514
1.18238e-05;-0.0017645518718086978
1.18240e-05;-0.0017141352406249797
1.18243e-05;-0.0016644204238048276
1.18245e-05;-0.0016156582313884504
1.18248e-05;-0.001568024822359403
1.18250e-05;-0.0015217108559587714
1.18252e-05;-0.001476988978797758
1.18255e-05;-0.0014341775200712877
1.18258e-05;-0.0013936019406531842
1.18260e-05;-0.001355587621368205
1.18263e-05;-0.0013204511580962109
1.18265e-05;-0.0012883743739453167
1.18268e-05;-0.0012602136381974823
1.18270e-05;-0.0012335464968420888
1.18273e-05;-0.0012106605482184543
1.18275e-05;-0.0011897557324626697
1.18278e-05;-0.0011728831296683715
1.18280e-05;-0.0011581231802599
1.18283e-05;-0.0011476100638172046
1.18285e-05;-0.0011393220496027467
1.18288e-05;-0.0011350213305483393
1.18290e-05;-0.0011328097304719245
1.18293e-05;-0.0011351553647203215
1.18295e-05;-0.0011398887340956009
1.18298e-05;-0.0011446221034708802
1.18300e-05;-0.001154587378147718
1.18303e-05;-0.0011672938776945132
1.18305e-05;-0.0011800003772413081
1.18308e-05;-0.0011971862052097618
1.18310e-05;-0.001216718949982494
1.18313e-05;-0.0012362516947552263
1.18315e-05;-0.0012593059798677606
1.18318e-05;-0.0012842053545613927
1.18320e-05;-0.0013091047292550248
1.18323e-05;-0.0013367092810751776
1.18325e-05;-0.0013657311939504525
1.18328e-05;-0.0013947531068257274
1.18330e-05;-0.0014251384939557657
1.18333e-05;-0.0014562382651052222
1.18335e-05;-0.0014878205588594368
1.18337e-05;-0.0015196556673889973
1.18340e-05;-0.0015514962760577022
1.18343e-05;-0.00158333976649065
1.18345e-05;-0.001614653677574468
1.18348e-05;-0.0016456901187888507
1.18350e-05;-0.0016755548776298266
1.18352e-05;-0.0017048057406378295
1.18355e-05;-0.0017317428021459812
1.18358e-05;-0.0017574675614713663
1.18360e-05;-0.0017831923207967514
1.18363e-05;-0.0018065343741036951
1.18365e-05;-0.001827727298985635
1.18368e-05;-0.0018484528783973618
1.18370e-05;-0.0018700243666964645
1.18373e-05;-0.001892037805562007
1.18375e-05;-0.0019149485564446574
1.18378e-05;-0.0019383294484853278
1.18380e-05;-0.0019617103405261565
1.18383e-05;-0.0019853275602956582
1.18385e-05;-0.0020090686025369515
1.18388e-05;-0.002034924906541214
1.18390e-05;-0.002061889489044056
1.18393e-05;-0.0020888540715467154
1.18395e-05;-0.0021158186540495573
1.18398e-05;-0.002145244777895205
1.18400e-05;-0.002175960611313068
1.18403e-05;-0.0022066764447311394
1.18405e-05;-0.0022373922781492106
1.18408e-05;-0.0022708906253029863
1.18410e-05;-0.0023058468535570834
1.18413e-05;-0.00234080308181118
1.18415e-05;-0.00237575931006504
1.18418e-05;-0.002410715538319137
1.18420e-05;-0.0024456717665732337
1.18422e-05;-0.0024806279948270935
1.18425e-05;-0.002516683486958592
1.18428e-05;-0.0025533149316937787
1.18430e-05;-0.002589946376428717
1.18433e-05;-0.002626577821163903
1.18435e-05;-0.00266320926589909
1.18437e-05;-0.002699840710634028
1.18440e-05;-0.0027364721553692142
1.18443e-05;-0.0027713845738793447
1.18445e-05;-0.002805396319083873
1.18448e-05;-0.0028394080642881706
1.18450e-05;-0.0028717307575697537
1.18453e-05;-0.002903168482398474
1.18455e-05;-0.0029332565342467774
1.18458e-05;-0.0029615340441879073
1.18460e-05;-0.0029879771168020517
1.18463e-05;-0.0030123209100342816
1.18465e-05;-0.0030338630182271545
1.18468e-05;-0.003051256684448419
1.18470e-05;-0.0030633459118037725
1.18473e-05;-0.003069767135368329
1.18475e-05;-0.0030688076966532414
1.18478e-05;-0.003065006037903674
1.18480e-05;-0.0030542529674576257
1.18483e-05;-0.003039857747252389
1.18485e-05;-0.0030181313002015653
1.18488e-05;-0.0029925637015606465
1.18490e-05;-0.0029586488781887547
1.18493e-05;-0.0029203605773320666
1.18495e-05;-0.0028761516824827816
1.18498e-05;-0.0028252109423939865
1.18500e-05;-0.0027689769512271875
1.18503e-05;-0.0027077999383465956
1.18505e-05;-0.002641858783129042
1.18507e-05;-0.0025710790090604477
1.18510e-05;-0.002495461125673518
1.18513e-05;-0.0024153169314681516
1.18515e-05;-0.002331126657069659
1.18518e-05;-0.0022433970146901244
1.18520e-05;-0.002152634571078062
1.18522e-05;-0.0020593376354573023
1.18525e-05;-0.0019638973760199826
1.18528e-05;-0.0018665464689236173
1.18530e-05;-0.0017675643201776605
1.18533e-05;-0.0016674253861070885
1.18535e-05;-0.0015667096159915565
1.18538e-05;-0.0014660132127193178
1.18540e-05;-0.0013659325683265798
1.18543e-05;-0.0012670588475637312
1.18545e-05;-0.0011699158632263896
1.18548e-05;-0.0010749283696458198
1.18550e-05;-0.0009825502300185285
1.18553e-05;-0.000893357348561281
1.18555e-05;-0.000807991792245383
1.18558e-05;-0.0007271058943255218
1.18560e-05;-0.0006513517206902866
1.18563e-05;-0.0005813658043924544
1.18565e-05;-0.0005175397638133925
1.18568e-05;-0.00045980607123351566
1.18570e-05;-0.00040795310538067653
1.18573e-05;-0.0003619862318716274
1.18575e-05;-0.00032207045187926777
1.18578e-05;-0.0002883993640840093
1.18580e-05;-0.00026116647167705615
1.18583e-05;-0.00024055542114831294
1.18585e-05;-0.0002265964940078176
1.18588e-05;-0.00021903235860371332
1.18590e-05;-0.00021751540886890737
1.18592e-05;-0.00022183396156959747
1.18595e-05;-0.00023187638548886498
1.18598e-05;-0.0002475489476522423
1.18600e-05;-0.00026875781367887466
1.18603e-05;-0.00029540304564264555
1.18605e-05;-0.00032728858014384184
1.18607e-05;-0.00036403820446724615
1.18610e-05;-0.00040521924724216973
1.18613e-05;-0.0004504841663288765
1.18615e-05;-0.000499548080627958
1.18618e-05;-0.0005521373559250957
1.18620e-05;-0.000608922701304475
1.18623e-05;-0.0006672884542249834
1.18625e-05;-0.0007289070809754514
1.18628e-05;-0.0007922300311299943
1.18630e-05;-0.0008575916421536637
1.18633e-05;-0.0009240213971051823
1.18635e-05;-0.0009914247530380222
1.18638e-05;-0.0010593382212666753
1.18640e-05;-0.0011272106485276678
1.18643e-05;-0.0011950615726246693
1.18645e-05;-0.0012617510507182963
1.18648e-05;-0.0013278319962617934
1.18650e-05;-0.0013914277193098558
1.18653e-05;-0.001453721325188805
1.18655e-05;-0.001512299510831541
1.18658e-05;-0.0015689310247027936
1.18660e-05;-0.001620649157523697
1.18663e-05;-0.00166979295431003
1.18665e-05;-0.0017128814418971665
1.18668e-05;-0.0017527972871609159
1.18670e-05;-0.0017859878375519355
1.18673e-05;-0.0018156547107126852
1.18675e-05;-0.0018383606615215875
1.18678e-05;-0.0018574194795190977
1.18680e-05;-0.00186932357165848
1.18683e-05;-0.0018774789888214329
1.18685e-05;-0.001878321054591614
1.18688e-05;-0.0018753313345041055
1.18690e-05;-0.00186516534634747
1.18692e-05;-0.0018512393963046139
1.18695e-05;-0.0018321837264136153
1.18698e-05;-0.0018071656494904546
1.18700e-05;-0.0017772658610766545
1.18703e-05;-0.0017426502893723788
1.18705e-05;-0.001703488991339469
1.18708e-05;-0.0016599814167612983
1.18710e-05;-0.001612383242728388
1.18713e-05;-0.0015609946550740918
1.18715e-05;-0.001506130244149037
1.18718e-05;-0.0014481059611370624
1.18720e-05;-0.0013872376808300056
1.18723e-05;-0.0013238413143871813
1.18725e-05;-0.0012582353338894852
1.18728e-05;-0.001190756567377597
1.18730e-05;-0.0011217771995809523
1.18733e-05;-0.0010516970904453403
1.18735e-05;-0.000980925215925291
1.18738e-05;-0.0009098713034046333
1.18740e-05;-0.0008389450747799226
1.18743e-05;-0.0007685561210059793
1.18745e-05;-0.0006991157281620443
1.18748e-05;-0.0006310466648361065
1.18750e-05;-0.0005647936852176081
1.18753e-05;-0.0005008190301128087
1.18755e-05;-0.0004395904425670108
1.18758e-05;-0.00038157619229075093
1.18760e-05;-0.0003272445126295178
1.18763e-05;-0.00027705038129261265
1.18765e-05;-0.00023124566102982188
1.18768e-05;-0.00018971039229633967
1.18770e-05;-0.00015222845291851613
1.18773e-05;-0.00011878483693835752
1.18775e-05;-8.950457186253171e-05
1.18777e-05;-6.453722569199345e-05
1.18780e-05;-4.403231003515006e-05
1.18783e-05;-2.813103678309709e-05
1.18785e-05;-1.6847363563432076e-05
1.18788e-05;-9.962352230119988e-06
1.18790e-05;-7.196827116842121e-06
1.18793e-05;-8.397619471349577e-06
1.18795e-05;-1.3499269970445109e-05
1.18798e-05;-2.245169655124231e-05
1.18800e-05;-3.5204779364773046e-05
1.18803e-05;-5.170319632360259e-05
1.18805e-05;-7.181191352431105e-05
1.18808e-05;-9.525003356828705e-05
1.18810e-05;-0.00012169892639873878
1.18813e-05;-0.00015091893355437597
1.18815e-05;-0.00018272534504372377
1.18818e-05;-0.0002169430867744324
1.18820e-05;-0.0002533970655571447
1.18823e-05;-0.0002919089411347659
1.18825e-05;-0.00033270595486019274
1.18828e-05;-0.00037434070145454725
1.18830e-05;-0.000417376388816668
1.18833e-05;-0.0004611460905496253
1.18835e-05;-0.0005056070909941193
1.18838e-05;-0.000550430293182246
1.18840e-05;-0.0005952791149407944
1.18843e-05;-0.0006401413599174788
1.18845e-05;-0.0006842764024982761
1.18848e-05;-0.0007280304318185325
1.18850e-05;-0.000770146508308385
1.18853e-05;-0.0008114043894021552
1.18855e-05;-0.000850203269148671
1.18858e-05;-0.0008877137701366627
1.18860e-05;-0.0009219773939742836
1.18862e-05;-0.0009545398363307835
1.18865e-05;-0.0009834716331631739
1.18868e-05;-0.0010105011754155953
1.18870e-05;-0.0010342204361383984
1.18873e-05;-0.0010562052950422833
1.18875e-05;-0.0010747468760018805
1.18878e-05;-0.0010914843724822263
1.18880e-05;-0.0011045135530735855
1.18883e-05;-0.0011155997841711645
1.18885e-05;-0.0011221337590817003
1.18888e-05;-0.0011262826071260664
1.18890e-05;-0.0011304314551704607
1.18893e-05;-0.0011297602208183888
1.18895e-05;-0.0011265635336912502
1.18898e-05;-0.0011233668465640899
1.18900e-05;-0.001116303472649635
1.18903e-05;-0.0011072141717750452
1.18905e-05;-0.0010952632326473534
1.18908e-05;-0.0010818129556094348
1.18910e-05;-0.0010659985355234687
1.18913e-05;-0.0010489454371056502
1.18915e-05;-0.0010303254866114336
1.18918e-05;-0.0010099288679986426
1.18920e-05;-0.0009881424664788137
1.18923e-05;-0.0009650700515709495
1.18925e-05;-0.0009408513476933767
1.18928e-05;-0.0009156904704918061
1.18930e-05;-0.0008898058178015157
1.18933e-05;-0.0008633778708189238
