Time(s);Current(A)
1.00000e-05;0.014168591598391964
1.00003e-05;0.014161348656163045
1.00005e-05;0.014154105713934176
1.00008e-05;0.014146862771705258
1.00010e-05;0.01413961982947634
1.00013e-05;0.01413410749447421
1.00015e-05;0.0141325104368316
1.00018e-05;0.01413091337918899
1.00020e-05;0.014129316321546391
1.00023e-05;0.014127719263903783
1.00025e-05;0.014126122206261173
1.00028e-05;0.014124525148618575
1.00030e-05;0.014122928090975964
1.00033e-05;0.014121331033333356
1.00035e-05;0.014119733975690758
1.00038e-05;0.014118136918048148
1.00040e-05;0.01411653986040554
1.00042e-05;0.01411494280276294
1.00045e-05;0.014113345745120331
1.00048e-05;0.014111748687477721
1.00050e-05;0.014116315912692077
1.00053e-05;0.014122361866159058
1.00055e-05;0.014128407819626038
1.00057e-05;0.014134453773092977
1.00060e-05;0.014140499726559957
1.00063e-05;0.014146545680026937
1.00065e-05;0.014152591633493876
1.00068e-05;0.014158637586960857
1.00070e-05;0.014164683540427837
1.00073e-05;0.014170729493894817
1.00075e-05;0.014176775447361756
1.00078e-05;0.014182821400828736
1.00080e-05;0.014188867354295715
1.00083e-05;0.014194913307762656
1.00085e-05;0.014201037283258184
1.00088e-05;0.014207337773607725
1.00090e-05;0.014213638263957221
1.00093e-05;0.01421993875430676
1.00095e-05;0.0142262392446563
1.00098e-05;0.014232539735005798
1.00100e-05;0.014238840225355338
1.00103e-05;0.014245140715704877
1.00105e-05;0.014251441206054375
1.00108e-05;0.014257741696403915
1.00110e-05;0.014260063934485626
1.00113e-05;0.01425338588596438
1.00115e-05;0.014246707837443091
1.00118e-05;0.014240029788921802
1.00120e-05;0.014233351740400559
1.00123e-05;0.01422667369187927
1.00125e-05;0.014219995643357979
1.00127e-05;0.014213317594836735
1.00130e-05;0.014206639546315446
1.00133e-05;0.014199961497794157
1.00135e-05;0.014186162697084172
1.00138e-05;0.014156254105889016
1.00140e-05;0.014126345514693859
1.00142e-05;0.014096436923498904
1.00145e-05;0.014066528332303749
1.00148e-05;0.014036619741108591
1.00150e-05;0.014006711149913637
1.00153e-05;0.013976802558718481
1.00155e-05;0.013946893967523324
1.00157e-05;0.01391698537632837
1.00160e-05;0.013874725273666762
1.00163e-05;0.013829502210122538
1.00165e-05;0.013784279146578315
1.00168e-05;0.013739056083034398
1.00170e-05;0.013693833019490176
1.00173e-05;0.013648609955945952
1.00175e-05;0.013603386892402036
1.00178e-05;0.013558163828857812
1.00180e-05;0.01351294076531359
1.00183e-05;0.013467241729372133
1.00185e-05;0.013420465866797557
1.00188e-05;0.013373690004222978
1.00190e-05;0.01332691414164872
1.00193e-05;0.013280138279074141
1.00195e-05;0.013235356338597236
1.00198e-05;0.01319508539167759
1.00200e-05;0.013154814444757672
1.00203e-05;0.013114543497837755
1.00205e-05;0.01307427255091811
1.00208e-05;0.01303692232713719
1.00210e-05;0.013006179865654506
1.00212e-05;0.01297543740417203
1.00215e-05;0.012944694942689346
1.00218e-05;0.012913952481206662
1.00220e-05;0.012883210019724187
1.00223e-05;0.012852467558241504
1.00225e-05;0.01282172509675882
1.00227e-05;0.012792038731570225
1.00230e-05;0.01276260570962745
1.00233e-05;0.012733172687684676
1.00235e-05;0.0127037396657421
1.00238e-05;0.012674306643799328
1.00240e-05;0.012644873621856553
1.00242e-05;0.012615440599913978
1.00245e-05;0.012585346981487886
1.00248e-05;0.012553758848063366
1.00250e-05;0.012522170714638845
1.00253e-05;0.01249058258121454
1.00255e-05;0.01245899444779002
1.00258e-05;0.012427406314365499
1.00260e-05;0.012395818180941192
1.00263e-05;0.012364230047516672
1.00265e-05;0.012332641914092151
1.00268e-05;0.012301053780667846
1.00270e-05;0.012269465647243325
1.00273e-05;0.012237877513818805
1.00275e-05;0.012206289380394498
1.00278e-05;0.012174701246969977
1.00280e-05;0.012144819555111035
1.00283e-05;0.012118798468899496
1.00285e-05;0.01209277738268778
1.00288e-05;0.012066756296476066
1.00290e-05;0.012040735210264527
1.00293e-05;0.01201471412405281
1.00295e-05;0.011988693037841095
1.00297e-05;0.011962671951629556
1.00300e-05;0.01193665086541784
1.00303e-05;0.011910629779206126
1.00305e-05;0.011884608692994587
1.00308e-05;0.01185858760678287
1.00310e-05;0.011832566520571155
1.00312e-05;0.011806545434359616
1.00315e-05;0.011783830301511188
1.00318e-05;0.011768594465043752
1.00320e-05;0.01175335862857642
1.00323e-05;0.011738122792108984
1.00325e-05;0.01172288695564155
1.00327e-05;0.011707651119174217
1.00330e-05;0.011692415282706783
1.00333e-05;0.011677179446239347
1.00335e-05;0.011661943609771911
1.00338e-05;0.01164670777330458
1.00340e-05;0.011631471936837145
1.00343e-05;0.01161623610036971
1.00345e-05;0.011601000263902378
1.00348e-05;0.011585764427434942
1.00350e-05;0.011570528590967506
1.00353e-05;0.011555292754500174
1.00355e-05;0.011543214303336382
1.00358e-05;0.01153189326629001
1.00360e-05;0.011520572229243716
1.00363e-05;0.011509251192197345
1.00365e-05;0.011497930155150974
1.00368e-05;0.01148660911810468
1.00370e-05;0.01147528808105831
1.00373e-05;0.011463967044011938
1.00375e-05;0.011452646006965644
1.00378e-05;0.011441324969919273
1.00380e-05;0.011430003932872902
1.00382e-05;0.011418682895826607
1.00385e-05;0.011407361858780237
1.00388e-05;0.011396040821733866
1.00390e-05;0.011384719784687572
1.00393e-05;0.011374065235633451
1.00395e-05;0.011364918530363624
1.00397e-05;0.01135577182509386
1.00400e-05;0.011346625119824035
1.00403e-05;0.011337478414554208
1.00405e-05;0.011329680402917958
1.00408e-05;0.01132493363801965
1.00410e-05;0.011320186873121344
1.00412e-05;0.011315440108223069
1.00415e-05;0.011310693343324763
1.00418e-05;0.011312315814574874
1.00420e-05;0.011328347867466485
1.00423e-05;0.011344379920357988
1.00425e-05;0.011360411973249598
1.00428e-05;0.011376444026141208
1.00430e-05;0.01139247607903271
1.00433e-05;0.011408508131924322
1.00435e-05;0.011433252975372492
1.00438e-05;0.01147770939237934
1.00440e-05;0.01152216580938649
1.00443e-05;0.011566622226393639
1.00445e-05;0.011611078643400486
1.00448e-05;0.011655535060407634
1.00450e-05;0.011699991477414783
1.00453e-05;0.011752598996526668
1.00455e-05;0.011823647340963112
1.00458e-05;0.011894695685399557
1.00460e-05;0.01196574402983552
1.00463e-05;0.012036792374271965
1.00465e-05;0.012107840718708409
1.00467e-05;0.012178889063144373
1.00470e-05;0.012249937407580817
1.00473e-05;0.012320985752017262
1.00475e-05;0.012392034096453225
1.00478e-05;0.012467665710624866
1.00480e-05;0.012544396789343703
1.00482e-05;0.012621127868062021
1.00485e-05;0.01269785894678086
1.00488e-05;0.012774590025499697
1.00490e-05;0.012851321104218015
1.00493e-05;0.012928052182936854
1.00495e-05;0.01300478326165569
1.00497e-05;0.01308151434037401
1.00500e-05;0.013150969885238435
1.00503e-05;0.01320396546588616
1.00505e-05;0.013256961046533884
1.00508e-05;0.01330995662718125
1.00510e-05;0.013362952207828974
1.00513e-05;0.013415947788476698
1.00515e-05;0.013468943369124063
1.00518e-05;0.013511346230989936
1.00520e-05;0.01352978442227611
1.00523e-05;0.013548222613562156
1.00525e-05;0.01356666080484833
1.00528e-05;0.013585098996134503
1.00530e-05;0.01360353718742055
1.00533e-05;0.013621975378706724
1.00535e-05;0.013628654046240451
1.00538e-05;0.013608728296276388
1.00540e-05;0.013588802546312187
1.00543e-05;0.013568876796347988
1.00545e-05;0.013548951046383925
1.00548e-05;0.013529025296419726
1.00550e-05;0.013509099546455525
1.00552e-05;0.013489173796491461
1.00555e-05;0.013469248046527263
1.00558e-05;0.013440334843715667
1.00560e-05;0.013391088679056305
1.00563e-05;0.013341842514396608
1.00565e-05;0.013292596349736912
1.00567e-05;0.01324335018507755
1.00570e-05;0.013194104020417853
1.00573e-05;0.013144857855758158
1.00575e-05;0.013095611691098795
1.00578e-05;0.013046365526439098
1.00580e-05;0.012994698256305278
1.00582e-05;0.012937553544890693
1.00585e-05;0.01288040883347572
1.00588e-05;0.012823261975715433
1.00590e-05;0.012766110262123561
1.00593e-05;0.01271830762427545
1.00595e-05;0.012689843678456799
1.00598e-05;0.012613441941773353
1.00600e-05;0.009008398994787782
1.00603e-05;0.0005038387707690245
1.00605e-05;-0.00044877225532740197
1.00608e-05;0.001551924561376111
1.00610e-05;0.004708159159501251
1.00613e-05;0.01074343829932134
1.00615e-05;0.013314687153075025
1.00618e-05;0.012472714605686176
1.00620e-05;0.010567115003699697
1.00623e-05;0.006249198328270167
1.00625e-05;0.0040250088464090705
1.00628e-05;0.005703827920024162
1.00630e-05;0.007885313495309978
1.00633e-05;0.010943374007740037
1.00635e-05;0.01380021587023868
1.00637e-05;0.012890013262638613
1.00640e-05;0.011795854383519268
1.00643e-05;0.010006799441085094
1.00645e-05;0.008536962538271787
1.00648e-05;0.008805993247054446
1.00650e-05;0.009994216890076806
1.00652e-05;0.011635686154372354
1.00655e-05;0.012950479352714908
1.00658e-05;0.01312161463811649
1.00660e-05;0.012541995731191368
1.00663e-05;0.01137919372518682
1.00665e-05;0.010479496272192579
1.00667e-05;0.010669535687356468
1.00670e-05;0.011435559749476729
1.00673e-05;0.01248543805749928
1.00675e-05;0.013330409822892249
1.00678e-05;0.013458556002179312
1.00680e-05;0.013115845732575994
1.00683e-05;0.012407089028588029
1.00685e-05;0.011862220686749875
1.00688e-05;0.011998819417624646
1.00690e-05;0.012494844747088518
1.00693e-05;0.013167105679763647
1.00695e-05;0.013709268510475135
1.00698e-05;0.013800523521118971
1.00700e-05;0.013594812254333673
1.00703e-05;0.013157645760451886
1.00705e-05;0.012820816921663711
1.00708e-05;0.012908350621237427
1.00710e-05;0.013218331844323425
1.00713e-05;0.013635869183531263
1.00715e-05;0.013969043616809883
1.00718e-05;0.014016998322566657
1.00720e-05;0.013876319670326012
1.00722e-05;0.013588206179727357
1.00725e-05;0.013360644291450906
1.00728e-05;0.013396737183699383
1.00730e-05;0.013570136625434819
1.00733e-05;0.013809015142143319
1.00735e-05;0.013993304965115113
1.00737e-05;0.013997350174854184
1.00740e-05;0.01388181687498613
1.00743e-05;0.01367267339681101
1.00745e-05;0.013500356350029457
1.00748e-05;0.013492230712100093
1.00750e-05;0.013569292940160625
1.00752e-05;0.013686696131492582
1.00755e-05;0.013769382204061535
1.00758e-05;0.013738800121271781
1.00760e-05;0.013633111206571404
1.00763e-05;0.013468740312129574
1.00765e-05;0.013327547285156897
1.00768e-05;0.013289460998480843
1.00770e-05;0.013305138759169154
1.00773e-05;0.013346636882654453
1.00775e-05;0.013367092734334481
1.00778e-05;0.013317458963751088
1.00780e-05;0.013221797730301797
1.00783e-05;0.013090554512688741
1.00785e-05;0.012975159578562389
1.00788e-05;0.01292583019954148
1.00790e-05;0.012911806067202443
1.00793e-05;0.01291573434557491
1.00795e-05;0.012908413410191125
1.00798e-05;0.01285927548558251
1.00800e-05;0.012783548771647953
1.00803e-05;0.01268793278395257
1.00805e-05;0.012604796675678397
1.00808e-05;0.012565746240676155
1.00810e-05;0.012551544530724575
1.00813e-05;0.012550961476838705
1.00815e-05;0.012545036810557
1.00818e-05;0.01251413852673394
1.00820e-05;0.012467643797446876
1.00822e-05;0.012409690257416839
1.00825e-05;0.012360493525930117
1.00828e-05;0.01233979028782676
1.00830e-05;0.01233546878920031
1.00833e-05;0.012340433904537138
1.00835e-05;0.012342748271425754
1.00837e-05;0.012330056480753773
1.00840e-05;0.012308173999130556
1.00843e-05;0.012279633204380403
1.00845e-05;0.012257037502461087
1.00848e-05;0.012252688541300355
1.00850e-05;0.012258939168651235
1.00853e-05;0.012271284432970073
1.00855e-05;0.012282187131183344
1.00858e-05;0.012283848670863778
1.00860e-05;0.012279852146428148
1.00863e-05;0.0122717248272881
1.00865e-05;0.012267302570984925
1.00868e-05;0.012274230205362365
1.00870e-05;0.012287657539843804
1.00873e-05;0.012304701668200848
1.00875e-05;0.01232058186971472
1.00878e-05;0.012330353655969616
1.00880e-05;0.012336203175849289
1.00883e-05;0.012339026442605603
1.00885e-05;0.012343672291852664
1.00888e-05;0.012354870136066015
1.00890e-05;0.01236952118851838
1.00893e-05;0.0123857599002768
1.00895e-05;0.012400531794643437
1.00898e-05;0.01241068043240217
1.00900e-05;0.012417514574197198
1.00903e-05;0.012421537726990119
1.00905e-05;0.01242572695839742
1.00907e-05;0.012432984673374942
1.00910e-05;0.012441271106592254
1.00913e-05;0.012448007646144062
1.00915e-05;0.012453936445654044
1.00918e-05;0.012454585857093074
1.00920e-05;0.012452115523963898
1.00922e-05;0.012446675772861676
1.00925e-05;0.012439481305972755
1.00928e-05;0.012432286839083834
1.00930e-05;0.012423283695658515
1.00933e-05;0.012413211752454953
1.00935e-05;0.012403139809251323
1.00938e-05;0.012387935802476078
1.00940e-05;0.012369699109481368
1.00943e-05;0.01234778853373501
1.00945e-05;0.012323706953394147
1.00948e-05;0.012299625373053447
1.00950e-05;0.012275543792712586
1.00953e-05;0.012251462212371724
1.00955e-05;0.012222335694802584
1.00958e-05;0.012190227976513686
1.00960e-05;0.012158120258224788
1.00963e-05;0.012126012539936106
1.00965e-05;0.012093904821647208
1.00968e-05;0.012058947047499628
1.00970e-05;0.012022305092124206
1.00973e-05;0.011985663136748535
1.00975e-05;0.011949021181372864
1.00978e-05;0.01191237922599744
1.00980e-05;0.011875737270621769
1.00983e-05;0.011839095315246097
1.00985e-05;0.011802453359870674
1.00988e-05;0.011765811404495003
1.00990e-05;0.011729169449119331
1.00992e-05;0.011692527493743908
1.00995e-05;0.011655885538368237
1.00998e-05;0.011621145898810968
1.01000e-05;0.011599300647489312
1.01003e-05;0.011577455396167507
1.01005e-05;0.011555610144845702
1.01007e-05;0.011533764893524047
1.01010e-05;0.011511919642202242
1.01013e-05;0.011490074390880437
1.01015e-05;0.011468229139558634
1.01018e-05;0.011446383888236976
1.01020e-05;0.011424538636915171
1.01023e-05;0.011402693385593368
1.01025e-05;0.01138084813427171
1.01028e-05;0.011359002882949908
1.01030e-05;0.011356655116082569
1.01033e-05;0.01136582898210523
1.01035e-05;0.011375002848127952
1.01038e-05;0.011384176714150675
1.01040e-05;0.011393350580173335
1.01043e-05;0.011402524446196058
1.01045e-05;0.01141169831221878
1.01048e-05;0.011420872178241441
1.01050e-05;0.011430046044264163
1.01053e-05;0.011439219910286886
1.01055e-05;0.011448393776309546
1.01058e-05;0.011470445116283007
1.01060e-05;0.011500106131636444
1.01063e-05;0.011529767146989682
1.01065e-05;0.01155942816234312
1.01068e-05;0.011589089177696557
1.01070e-05;0.011618750193049794
1.01073e-05;0.011648411208403231
1.01075e-05;0.01167807222375667
1.01077e-05;0.011707733239109907
1.01080e-05;0.011737394254463344
1.01083e-05;0.011767055269816782
1.01085e-05;0.01179804902572505
1.01088e-05;0.011829830336943606
1.01090e-05;0.01186161164816216
1.01092e-05;0.011893392959380501
1.01095e-05;0.011925174270599056
1.01098e-05;0.011956955581817611
1.01100e-05;0.011987561601781997
1.01103e-05;0.012010201193888369
1.01105e-05;0.012032840785994895
1.01108e-05;0.01205548037810142
1.01110e-05;0.012078119970207793
1.01113e-05;0.01210075956231432
1.01115e-05;0.012123399154420844
1.01118e-05;0.01213886013198046
1.01120e-05;0.012150079056588011
1.01123e-05;0.01216129798119556
1.01125e-05;0.012172516905803033
1.01128e-05;0.012183735830410583
1.01130e-05;0.012194954755018132
1.01133e-05;0.012206173679625607
1.01135e-05;0.012217392604233155
1.01138e-05;0.012228611528840704
1.01140e-05;0.012239830453448178
1.01143e-05;0.012251049378055727
1.01145e-05;0.012262268302663276
1.01148e-05;0.01227348722727075
1.01150e-05;0.0122847061518783
1.01153e-05;0.012295925076485848
1.01155e-05;0.012307144001093322
1.01158e-05;0.012318362925700871
1.01160e-05;0.0123286103211868
1.01162e-05;0.012332272441205463
1.01165e-05;0.012335934561224149
1.01168e-05;0.012339596681242836
1.01170e-05;0.012343258801261497
1.01173e-05;0.012346920921280183
1.01175e-05;0.01235058304129887
1.01177e-05;0.012354245161317532
1.01180e-05;0.012357907281336218
1.01183e-05;0.012361569401354905
1.01185e-05;0.012365231521373591
1.01188e-05;0.012368893641392254
1.01190e-05;0.01237255576141094
1.01193e-05;0.012376217881429627
1.01195e-05;0.012379880001448289
1.01198e-05;0.012383542121466974
1.01200e-05;0.012387204241485662
1.01203e-05;0.012390866361504323
1.01205e-05;0.012391401704194461
1.01208e-05;0.012390089342858238
1.01210e-05;0.012388776981522026
1.01213e-05;0.012387464620185803
1.01215e-05;0.01238615225884958
1.01218e-05;0.012384839897513366
1.01220e-05;0.012383527536177143
1.01223e-05;0.01238221517484092
1.01225e-05;0.012380902813504705
1.01228e-05;0.012379590452168483
1.01230e-05;0.01237827809083226
1.01233e-05;0.012376965729496045
1.01235e-05;0.012375653368159822
1.01238e-05;0.0123743410068236
1.01240e-05;0.012373028645487385
1.01243e-05;0.012371716284151162
1.01245e-05;0.01237040392281494
1.01247e-05;0.012369091561478725
1.01250e-05;0.012367779200142502
1.01253e-05;0.01236646683880628
1.01255e-05;0.012365154477470065
1.01258e-05;0.012363842116133842
1.01260e-05;0.012362529754797619
1.01262e-05;0.012361217393461407
1.01265e-05;0.012359905032125184
1.01268e-05;0.012358402232569876
1.01270e-05;0.012355608593548112
1.01273e-05;0.012352814954526368
1.01275e-05;0.012350021315504606
1.01278e-05;0.012347227676482843
1.01280e-05;0.0123444340374611
1.01283e-05;0.012341640398439336
1.01285e-05;0.012338846759417575
1.01288e-05;0.01233605312039583
1.01290e-05;0.012333259481374067
1.01293e-05;0.012330465842352305
1.01295e-05;0.01232767220333056
1.01298e-05;0.012324878564308799
1.01300e-05;0.012322084925287035
1.01303e-05;0.01231929128626529
1.01305e-05;0.012316497647243529
1.01308e-05;0.012313704008221765
1.01310e-05;0.012310910369200023
1.01313e-05;0.012308116730178259
1.01315e-05;0.012305323091156496
1.01318e-05;0.012302529452134753
1.01320e-05;0.01229973581311299
1.01323e-05;0.012296942174091227
1.01325e-05;0.012294148535069483
1.01328e-05;0.012291354896047721
1.01330e-05;0.012288561257025958
1.01332e-05;0.012288780051056634
1.01335e-05;0.012290778979742617
1.01338e-05;0.012292777908428601
1.01340e-05;0.01229477683711457
1.01343e-05;0.012296775765800556
1.01345e-05;0.01229877469448654
1.01347e-05;0.01230077362317251
1.01350e-05;0.012302772551858493
1.01353e-05;0.012304771480544478
1.01355e-05;0.012306770409230462
1.01358e-05;0.012308769337916432
1.01360e-05;0.012310768266602415
1.01363e-05;0.0123127671952884
1.01365e-05;0.01231476612397437
1.01368e-05;0.012316765052660354
1.01370e-05;0.012319902302140097
1.01373e-05;0.01232371221861648
1.01375e-05;0.012327522135092889
1.01378e-05;0.012331332051569298
1.01380e-05;0.012335141968045681
1.01383e-05;0.012338951884522088
1.01385e-05;0.012342761800998497
1.01388e-05;0.01234657171747488
1.01390e-05;0.01235038163395129
1.01393e-05;0.012354191550427697
1.01395e-05;0.01235800146690408
1.01398e-05;0.01236181138338049
1.01400e-05;0.012365621299856898
1.01403e-05;0.01236943121633328
1.01405e-05;0.012373241132809689
1.01408e-05;0.012372080355202302
1.01410e-05;0.012367982249313224
1.01413e-05;0.01236388414342412
1.01415e-05;0.012359786037535016
1.01417e-05;0.012355687931645938
1.01420e-05;0.012351589825756834
1.01423e-05;0.01234479805318949
1.01425e-05;0.012319747911699184
1.01428e-05;0.01229469777020871
1.01430e-05;0.012269647628718234
1.01432e-05;0.01224459748722793
1.01435e-05;0.012219547345737453
1.01438e-05;0.012194497204246979
1.01440e-05;0.012152704670653467
1.01443e-05;0.012101018568677254
1.01445e-05;0.012049332466700691
1.01448e-05;0.011997646364724128
1.01450e-05;0.011945960262747916
1.01453e-05;0.011894274160771353
1.01455e-05;0.01184258805879479
1.01458e-05;0.011790901956818577
1.01460e-05;0.011736735345156155
1.01463e-05;0.011665755197752327
1.01465e-05;0.011594775050348978
1.01468e-05;0.011523794902945148
1.01470e-05;0.01145281475554132
1.01473e-05;0.011381834608137971
1.01475e-05;0.011310854460734142
1.01478e-05;0.011239874313330313
1.01480e-05;0.011168894165926964
1.01483e-05;0.011096072181062414
1.01485e-05;0.011022161800659213
1.01488e-05;0.010948251420256513
1.01490e-05;0.010876739014385772
1.01493e-05;0.010806643641689054
1.01495e-05;0.010736548268992811
1.01498e-05;0.01067521269673343
1.01500e-05;0.01061905354634587
1.01502e-05;0.010562894395958691
1.01505e-05;0.01050673524557113
1.01508e-05;0.01045057609518357
1.01510e-05;0.010394416944796392
1.01513e-05;0.010338257794408832
1.01515e-05;0.010296572711589517
1.01517e-05;0.010263440777951714
1.01520e-05;0.010230308844313685
