Time(s);Current(A)
7.30000e-06;-6.419599318924077e-05
7.30025e-06;-7.803955945295116e-05
7.30050e-06;-9.326474426859668e-05
7.30075e-06;-0.0001097845250621337
7.30100e-06;-0.00012757230434669084
7.30125e-06;-0.00014666035972522742
7.30150e-06;-0.00016702647950339703
7.30175e-06;-0.0001886181213161165
7.30200e-06;-0.0002115320545238631
7.30225e-06;-0.00023463946998106188
7.30250e-06;-0.00025911727569061113
7.30275e-06;-0.00028376206501515706
7.30300e-06;-0.0003095895608620544
7.30325e-06;-0.0003354170567090393
7.30350e-06;-0.00036134290035410373
7.30375e-06;-0.0003879653188235427
7.30400e-06;-0.00041458773729307187
7.30425e-06;-0.00044113836691086166
7.30450e-06;-0.0004671805326112079
7.30475e-06;-0.0004932226983116423
7.30500e-06;-0.0005190405436545656
7.30525e-06;-0.0005432695795225646
7.30550e-06;-0.0005674986153906456
7.30575e-06;-0.0005913352898732522
7.30600e-06;-0.0006123929589466668
7.30625e-06;-0.00063345062802001
7.30650e-06;-0.0006539722067741962
7.30675e-06;-0.0006706967811538759
7.30700e-06;-0.0006874213555334988
7.30725e-06;-0.0007037541806509329
7.30750e-06;-0.0007173123358871238
7.30775e-06;-0.0007308704911232686
7.30800e-06;-0.0007440231927384191
7.30825e-06;-0.0007543041596524023
7.30850e-06;-0.0007645851265663509
7.30875e-06;-0.0007744478788904103
7.30900e-06;-0.0007813485135070471
7.30925e-06;-0.0007882491481236605
7.30950e-06;-0.0007945682487317079
7.30975e-06;-0.0007967684777703645
7.31000e-06;-0.0007989687068090137
7.31025e-06;-0.0008011689358476704
7.31050e-06;-0.0008033691648863196
7.31075e-06;-0.0008055693939249687
7.31100e-06;-0.0008077696229636254
7.31125e-06;-0.0008099698520022745
7.31150e-06;-0.0008121700810409237
7.31175e-06;-0.0008112077571242913
7.31200e-06;-0.0008083375168207685
7.31225e-06;-0.0008054672765172457
7.31250e-06;-0.0008025970362137131
7.31275e-06;-0.0007997267959101902
7.31300e-06;-0.0007968565556066674
7.31325e-06;-0.0007939863153031348
7.31350e-06;-0.000791116074999612
7.31375e-06;-0.0007880263514535189
7.31400e-06;-0.000783382078604538
7.31425e-06;-0.0007787378057555729
7.31450e-06;-0.0007740935329065919
7.31475e-06;-0.0007694492600576268
7.31500e-06;-0.0007648049872086616
7.31525e-06;-0.0007603408149531525
7.31550e-06;-0.0007559852944351652
7.31575e-06;-0.0007516297739171779
7.31600e-06;-0.0007472742533991758
7.31625e-06;-0.0007429187328811885
7.31650e-06;-0.0007386725179309415
7.31675e-06;-0.0007352004891651024
7.31700e-06;-0.000731728460399275
7.31725e-06;-0.0007281030364337358
7.31750e-06;-0.000723391149565838
7.31775e-06;-0.0007186792626979561
7.31800e-06;-0.0007139673758300742
7.31825e-06;-0.0007092554889621763
7.31850e-06;-0.0007045436020942944
7.31875e-06;-0.0006998317152263966
7.31900e-06;-0.0006951198283585147
7.31925e-06;-0.0006889126092924704
7.31950e-06;-0.0006818032808089061
7.31975e-06;-0.000674693952325366
7.32000e-06;-0.0006675846238418258
7.32025e-06;-0.0006604752953582615
7.32050e-06;-0.0006533659668747213
7.32075e-06;-0.0006462566383911811
7.32100e-06;-0.0006388642980349594
7.32125e-06;-0.0006294674497079448
7.32150e-06;-0.0006200706013809302
7.32175e-06;-0.0006106737530538837
7.32200e-06;-0.0006012769047268691
7.32225e-06;-0.0005918800563998545
7.32250e-06;-0.0005824832080728081
7.32275e-06;-0.0005730863597457935
7.32300e-06;-0.0005636130747814064
7.32325e-06;-0.0005535984067034774
7.32350e-06;-0.0005435837386255485
7.32375e-06;-0.0005335690705475856
7.32400e-06;-0.0005235544024696566
7.32425e-06;-0.0005135397343917277
7.32450e-06;-0.0005035250663137648
7.32475e-06;-0.0004935103982358359
7.32500e-06;-0.0004836167938790632
7.32525e-06;-0.0004745806560013795
7.32550e-06;-0.0004655445181237265
7.32575e-06;-0.0004566528425275628
7.32600e-06;-0.0004487843600290841
7.32625e-06;-0.00044091587753063204
7.32650e-06;-0.00043319587092164685
7.32675e-06;-0.00042652748487205565
7.32700e-06;-0.0004197509726557615
7.32725e-06;-0.00041220862768138203
7.32750e-06;-0.0004043494225203441
7.32775e-06;-0.0003942459695696281
7.32800e-06;-0.00038414251661887785
7.32825e-06;-0.0003737932799897842
7.32850e-06;-0.0003617032141240068
7.32875e-06;-0.00034940685913039933
7.32900e-06;-0.00033564940571392517
7.32925e-06;-0.00032155492985191215
7.32950e-06;-0.00030507340156037756
7.32975e-06;-0.00028828128014380273
7.33000e-06;-0.0002692892990928718
7.33025e-06;-0.00025010883629885804
7.33050e-06;-0.00022949092766203985
7.33075e-06;-0.00020804525721573354
7.33100e-06;-0.0001857529430747967
7.33125e-06;-0.00016244262814178108
7.33150e-06;-0.00013803930486411587
7.33175e-06;-0.00011265055722273573
7.33200e-06;-8.643947948271309e-05
7.33225e-06;-5.956913680527958e-05
7.33250e-06;-3.220223915746801e-05
7.33275e-06;-4.488662114335801e-06
7.33300e-06;2.351045626064444e-05
7.33325e-06;5.182944583762781e-05
7.33350e-06;8.044229603497506e-05
7.33375e-06;0.00010920862572227715
7.33400e-06;0.00013795330259956515
7.33425e-06;0.00016650120156861285
7.33450e-06;0.00019467745557908098
7.33475e-06;0.00022231524073287114
7.33500e-06;0.000249303321767779
7.33525e-06;0.00027559028424000386
7.33550e-06;0.0003010868867299319
7.33575e-06;0.00032563230425617837
7.33600e-06;0.0003490438955815322
7.33625e-06;0.00037113911428000266
7.33650e-06;0.0003917355105490883
7.33675e-06;0.0004106571245094018
7.33700e-06;0.00042777764000854107
7.33725e-06;0.0004430541076331202
7.33750e-06;0.0004564755340602518
7.33775e-06;0.00046801150357921105
7.33800e-06;0.0004776206632476706
7.33825e-06;0.00048513518676095884
7.33850e-06;0.0004899973745404674
7.33875e-06;0.0004943538171089048
7.33900e-06;0.0004951281827258672
7.33925e-06;0.0004954199683951192
7.33950e-06;0.000492293751342768
7.33975e-06;0.0004887110109881432
7.34000e-06;0.0004818948211355769
7.34025e-06;0.0004746454748847074
7.34050e-06;0.00046432818153971053
7.34075e-06;0.00045360771683260214
7.34100e-06;0.00044003168214328003
7.34125e-06;0.0004261031328895572
7.34150e-06;0.00040967780409463474
7.34175e-06;0.00039295242149618926
7.34200e-06;0.00037410182685361715
7.34225e-06;0.0003550019468275436
7.34250e-06;0.0003341364357947909
7.34275e-06;0.00031304199847707415
7.34300e-06;0.00029032612896210465
7.34325e-06;0.00026761025944721214
7.34350e-06;0.00024475641375644425
7.34375e-06;0.00022092531456219944
7.34400e-06;0.00019709421536803534
7.34425e-06;0.00017327892035531875
7.34450e-06;0.00014957556272366767
7.34475e-06;0.00012587220509201663
7.34500e-06;0.00010226241379605836
7.34525e-06;7.939513194002705e-05
7.34550e-06;5.7192750492637536e-05
7.34575e-06;3.581579731460706e-05
7.34600e-06;1.5423086795585013e-05
7.34625e-06;-3.826579175890367e-06
7.34650e-06;-2.1774947792343566e-05
7.34675e-06;-3.8285305215519196e-05
7.34700e-06;-5.3373937947397775e-05
7.34725e-06;-6.724452247030684e-05
7.34750e-06;-8.004643333684022e-05
7.34775e-06;-9.176578719236239e-05
7.34800e-06;-0.00010233510493112133
7.34825e-06;-0.00011168694660210361
7.34850e-06;-0.00011975421169725019
7.34875e-06;-0.00012648329218692533
7.34900e-06;-0.0001319164166625173
7.34925e-06;-0.00013621322198476685
7.34950e-06;-0.00013949928452128532
7.34975e-06;-0.0001417978999083515
7.35000e-06;-0.00014309884910075163
7.35025e-06;-0.00014339188935052113
7.35050e-06;-0.00014266699950330118
7.35075e-06;-0.0001409226175899851
7.35100e-06;-0.00013821724515075112
7.35125e-06;-0.00013468285563047978
7.35150e-06;-0.00013043013284534712
7.35175e-06;-0.00012550568097183227
7.35200e-06;-0.00011993504852314024
7.35225e-06;-0.00011374384874492056
7.35250e-06;-0.00010695778985505048
7.35275e-06;-9.958353381206997e-05
7.35300e-06;-9.159025045064062e-05
7.35325e-06;-8.352323684660588e-05
7.35350e-06;-7.493400890080011e-05
7.35375e-06;-6.629527593918734e-05
7.35400e-06;-5.7305910342397474e-05
7.35425e-06;-4.831654474557714e-05
7.35450e-06;-3.931383958840503e-05
7.35475e-06;-3.0216653394719982e-05
7.35500e-06;-2.1139693372728244e-05
7.35525e-06;-1.2236004287707889e-05
7.35550e-06;-3.5837425158708145e-06
7.35575e-06;4.746852798356958e-06
7.35600e-06;1.2693796403105701e-05
7.35625e-06;2.0195106459523277e-05
7.35650e-06;2.7188597256332916e-05
7.35675e-06;3.360447462252981e-05
7.35700e-06;3.93224203450439e-05
7.35725e-06;4.4179975044485654e-05
7.35750e-06;4.807577953108049e-05
7.35775e-06;5.099183185190839e-05
7.35800e-06;5.293338708596591e-05
7.35825e-06;5.3905690261268004e-05
7.35850e-06;5.3913874556778894e-05
7.35875e-06;5.2958293150491034e-05
7.35900e-06;5.1007666210026e-05
7.35925e-06;4.80043216893091e-05
7.35950e-06;4.392885589083364e-05
7.35975e-06;3.88140975910337e-05
7.36000e-06;3.270743056366692e-05
7.36025e-06;2.5656233106963233e-05
7.36050e-06;1.770780854098738e-05
7.36075e-06;8.90647002654842e-06
7.36100e-06;-7.23290556163622e-07
7.36125e-06;-1.1173511043922674e-05
7.36150e-06;-2.2412254953606236e-05
7.36175e-06;-3.4374876217959944e-05
7.36200e-06;-4.698761093510118e-05
7.36225e-06;-6.017670546040536e-05
7.36250e-06;-7.389179143257491e-05
7.36275e-06;-8.81563354390603e-05
7.36300e-06;-0.00010251482805829073
7.36325e-06;-0.00011753873708240886
7.36350e-06;-0.0001325626461065779
7.36375e-06;-0.0001476141804919577
7.36400e-06;-0.00016286137895397832
7.36425e-06;-0.00017810857741605058
7.36450e-06;-0.0001933557758780712
7.36475e-06;-0.00020847755839260306
7.36500e-06;-0.000222711048611991
7.36525e-06;-0.00023694453883133074
7.36550e-06;-0.00025117802905067047
7.36575e-06;-0.0002652085428088489
7.36600e-06;-0.00027780142100151207
7.36625e-06;-0.0002901938720462053
7.36650e-06;-0.00030116674372415535
7.36675e-06;-0.00031199349918743314
7.36700e-06;-0.0003217853471267589
7.36725e-06;-0.0003315771950660515
7.36750e-06;-0.0003414465186019672
7.36775e-06;-0.0003518645839599526
7.36800e-06;-0.00036228264931790273
7.36825e-06;-0.0003727007146758528
7.36850e-06;-0.0003831187800338382
7.36875e-06;-0.0003935368453917883
7.36900e-06;-0.00040473627629029776
7.36925e-06;-0.0004164070922180794
7.36950e-06;-0.0004280779081458215
7.36975e-06;-0.0004397487240735636
7.37000e-06;-0.00045141954000134523
7.37025e-06;-0.00046334343630221594
7.37050e-06;-0.00047705984264639114
7.37075e-06;-0.0004907762489905199
7.37100e-06;-0.0005044926553346487
7.37125e-06;-0.0005182090616788239
7.37150e-06;-0.0005319254680229527
7.37175e-06;-0.0005456418743670815
7.37200e-06;-0.0005593582807112567
7.37225e-06;-0.0005738884069815332
7.37250e-06;-0.000588909437151752
7.37275e-06;-0.0006039304673220215
7.37300e-06;-0.0006189514974922403
7.37325e-06;-0.000633972527662459
7.37350e-06;-0.0006489935578327286
7.37375e-06;-0.0006640145880029473
7.37400e-06;-0.0006788776702166013
7.37425e-06;-0.000692622043401584
7.37450e-06;-0.0007063664165865201
7.37475e-06;-0.0007201107897715028
7.37500e-06;-0.0007338551629564389
7.37525e-06;-0.000747599536141375
7.37550e-06;-0.0007613439093263577
7.37575e-06;-0.0007750882825112938
7.37600e-06;-0.0007859619875106854
7.37625e-06;-0.0007951038654251869
7.37650e-06;-0.0008042457433396574
7.37675e-06;-0.0008133876212541279
7.37700e-06;-0.0008225294991686294
7.37725e-06;-0.0008316713770831
7.37750e-06;-0.0008408132549975704
7.37775e-06;-0.0008491144129462689
7.37800e-06;-0.0008514609448481913
7.37825e-06;-0.0008538074767501138
7.37850e-06;-0.0008561540086520443
7.37875e-06;-0.0008585005405539667
7.37900e-06;-0.0008608470724558972
7.37925e-06;-0.0008631936043578197
7.37950e-06;-0.0008655401362597421
7.37975e-06;-0.0008678866681616726
7.38000e-06;-0.0008694346585086859
7.38025e-06;-0.000865326762787522
7.38050e-06;-0.000861218867066344
7.38075e-06;-0.00085711097134518
7.38100e-06;-0.000853003075624016
7.38125e-06;-0.0008488951799028381
7.38150e-06;-0.000844787284181674
7.38175e-06;-0.0008406793884605101
7.38200e-06;-0.0008365714927393321
7.38225e-06;-0.0008320230392291628
7.38250e-06;-0.0008243542162836015
7.38275e-06;-0.0008166853933380142
7.38300e-06;-0.000809016570392453
7.38325e-06;-0.0008013477474468657
7.38350e-06;-0.0007936789245013044
7.38375e-06;-0.0007860101015557432
7.38400e-06;-0.000778341278610156
7.38425e-06;-0.0007706634871591377
7.38450e-06;-0.0007629221738478663
7.38475e-06;-0.0007551808605365687
7.38500e-06;-0.0007474395472252973
7.38525e-06;-0.000739698233914026
7.38550e-06;-0.0007319569206027284
7.38575e-06;-0.000724215607291457
7.38600e-06;-0.0007164742939801856
7.38625e-06;-0.0007089593156325795
7.38650e-06;-0.000703047415746796
7.38675e-06;-0.0006971355158610123
7.38700e-06;-0.0006912011306486669
7.38725e-06;-0.0006851074870429563
7.38750e-06;-0.000679013843437225
7.38775e-06;-0.0006729201998315143
7.38800e-06;-0.0006668265562258036
7.38825e-06;-0.0006607329126200723
7.38850e-06;-0.0006546392690143617
7.38875e-06;-0.000647605810169433
7.38900e-06;-0.0006400053761882199
7.38925e-06;-0.0006324049422070325
7.38950e-06;-0.0006248045082258452
7.38975e-06;-0.000617204074244632
7.39000e-06;-0.0006096036402634447
7.39025e-06;-0.0006017511894715726
7.39050e-06;-0.0005921137616060124
7.39075e-06;-0.0005824763337404849
7.39100e-06;-0.0005728389058749573
7.39125e-06;-0.0005632014780093971
7.39150e-06;-0.0005535640501438695
7.39175e-06;-0.0005439266222783092
7.39200e-06;-0.0005342891944127817
7.39225e-06;-0.0005245057958617345
7.39250e-06;-0.0005136885205373271
7.39275e-06;-0.0005028712452129564
7.39300e-06;-0.0004920539698885857
7.39325e-06;-0.0004812366945641783
7.39350e-06;-0.0004704194192398076
7.39375e-06;-0.0004596021439154369
7.39400e-06;-0.00044878486859102954
7.39425e-06;-0.00043805082600233944
7.39450e-06;-0.0004279063017260829
7.39475e-06;-0.00041776177744979194
7.39500e-06;-0.0004076172531735354
7.39525e-06;-0.00039747272889727886
7.39550e-06;-0.00038755924729247447
7.39575e-06;-0.0003792821877597725
7.39600e-06;-0.00037100512822704247
7.39625e-06;-0.0003627280686943405
7.39650e-06;-0.00035445100916163856
7.39675e-06;-0.00034641318875044567
7.39700e-06;-0.00034006984398069466
7.39725e-06;-0.00033372649921094364
7.39750e-06;-0.00032755326249761334
7.39775e-06;-0.000322584862000842
7.39800e-06;-0.00031761646150407064
7.39825e-06;-0.00031264806100728246
7.39850e-06;-0.00030767966051051113
7.39875e-06;-0.0003027112600137398
7.39900e-06;-0.00029774285951695163
7.39925e-06;-0.00029277445902018025
7.39950e-06;-0.0002878060585234089
7.39975e-06;-0.0002837882583982996
7.40000e-06;-0.00028034393990304776
7.40025e-06;-0.0002768996214077842
7.40050e-06;-0.00027345530291253233
7.40075e-06;-0.0002700109844172805
7.40100e-06;-0.00026656666592201695
7.40125e-06;-0.00026312234742676506
7.40150e-06;-0.0002596780289315132
7.40175e-06;-0.000256343531742063
7.40200e-06;-0.0002537868735881992
7.40225e-06;-0.00025123021543433543
7.40250e-06;-0.00024867355728046297
7.40275e-06;-0.0002461168991265992
7.40300e-06;-0.0002435602409727354
7.40325e-06;-0.00024100358281886296
7.40350e-06;-0.00023844692466499918
7.40375e-06;-0.0002358902665111354
7.40400e-06;-0.00023333360835726293
7.40425e-06;-0.00023126276548868005
7.40450e-06;-0.00022948500702220238
7.40475e-06;-0.00022770724855573072
7.40500e-06;-0.00022592949008925906
7.40525e-06;-0.0002241517316227814
7.40550e-06;-0.00022237397315630976
7.40575e-06;-0.0002205962146898381
7.40600e-06;-0.00021881845622336043
7.40625e-06;-0.00021704069775688878
7.40650e-06;-0.00021535407057304807
7.40675e-06;-0.00021431290529164696
7.40700e-06;-0.00021327174001024935
7.40725e-06;-0.0002123783193715736
7.40750e-06;-0.00021253134003615802
7.40775e-06;-0.00021282142229284468
7.40800e-06;-0.00021408228026376414
7.40825e-06;-0.00021546907538731424
7.40850e-06;-0.00021774785438037319
7.40875e-06;-0.00022015897441524785
7.40900e-06;-0.00022350743559291359
7.40925e-06;-0.0002270183452733733
7.40950e-06;-0.00023167984031402557
7.40975e-06;-0.00023652618846777262
7.41000e-06;-0.0002426818086804393
7.41025e-06;-0.00024883742889312687
7.41050e-06;-0.0002551783478086116
7.41075e-06;-0.0002628316947923275
7.41100e-06;-0.00027048504177606936
7.41125e-06;-0.000278316945105292
7.41150e-06;-0.00028741352193752687
7.41175e-06;-0.0002965100987697925
7.41200e-06;-0.00030577619472823956
7.41225e-06;-0.0003162429556451854
7.41250e-06;-0.0003267097165621667
7.41275e-06;-0.0003371764774791125
7.41300e-06;-0.0003476432383960938
7.41325e-06;-0.00035810999931303966
7.41350e-06;-0.00036863059766810376
7.41375e-06;-0.0003795325142074372
7.41400e-06;-0.0003904344307467337
7.41425e-06;-0.0004013363472860302
7.41450e-06;-0.0004122382638253637
7.41475e-06;-0.0004231401803646602
7.41500e-06;-0.0004339299799334675
7.41525e-06;-0.0004439256808025897
7.41550e-06;-0.00045392138167167813
7.41575e-06;-0.0004637544101928698
7.41600e-06;-0.0004724352679108901
7.41625e-06;-0.00048111612562888096
7.41650e-06;-0.0004896478773300364
7.41675e-06;-0.0004970279442631717
7.41700e-06;-0.0005037308901412816
7.41725e-06;-0.0005104338360194142
7.41750e-06;-0.000517136781897524
7.41775e-06;-0.0005238397277756339
7.41800e-06;-0.0005305426736537664
7.41825e-06;-0.0005372456195318763
7.41850e-06;-0.0005439485654099861
7.41875e-06;-0.0005506416749775357
7.41900e-06;-0.0005573288504600458
7.41925e-06;-0.0005640160259425557
7.41950e-06;-0.0005707032014250884
7.41975e-06;-0.0005773903769075984
7.42000e-06;-0.0005840775523901084
7.42025e-06;-0.0005907647278726411
7.42050e-06;-0.0005975253763861688
7.42075e-06;-0.0006048064174694065
7.42100e-06;-0.0006120874585526689
7.42125e-06;-0.0006193684996359066
7.42150e-06;-0.0006266495407191689
7.42175e-06;-0.0006339305818024067
7.42200e-06;-0.0006412116228856444
7.42225e-06;-0.0006484926639689067
7.42250e-06;-0.0006557737050521445
7.42275e-06;-0.0006630547461353822
7.42300e-06;-0.0006703357872186445
7.42325e-06;-0.0006773673487893022
7.42350e-06;-0.0006842484034575005
7.42375e-06;-0.0006911294581257222
7.42400e-06;-0.0006980105127939206
7.42425e-06;-0.0007048915674621189
7.42450e-06;-0.0007117726221303406
7.42475e-06;-0.0007186536767985388
7.42500e-06;-0.0007255347314667372
7.42525e-06;-0.0007324157861349589
7.42550e-06;-0.0007392968408031572
7.42575e-06;-0.0007460183861030197
7.42600e-06;-0.0007516101632563328
7.42625e-06;-0.0007571101111232705
7.42650e-06;-0.0007619596532884619
7.42675e-06;-0.0007665849603123127
7.42700e-06;-0.0007696220614357947
7.42725e-06;-0.0007721545317708157
7.42750e-06;-0.0007711128183672778
7.42775e-06;-0.0007695412006874005
7.42800e-06;-0.0007642163929708489
7.42825e-06;-0.0007584052029394761
7.42850e-06;-0.0007491490789086774
7.42875e-06;-0.0007393816735505118
7.42900e-06;-0.0007259929802178397
7.42925e-06;-0.0007119754238871687
7.42950e-06;-0.000693503775668996
7.42975e-06;-0.0006744455009556079
7.43000e-06;-0.0006512322857832385
7.43025e-06;-0.000627517770492927
7.43050e-06;-0.0006002526618367888
7.43075e-06;-0.0005725287092094816
7.43100e-06;-0.0005415548703344114
7.43125e-06;-0.0005101065909484845
7.43150e-06;-0.0004752979586127409
7.43175e-06;-0.0004401829279952696
7.43200e-06;-0.00040273070763516413
7.43225e-06;-0.0003639562334932342
7.43250e-06;-0.00032408473229179115
7.43275e-06;-0.00028332954882913375
7.43300e-06;-0.0002418220521021091
7.43325e-06;-0.00019960995188377805
7.43350e-06;-0.00015680628505888245
7.43375e-06;-0.00011363628019859715
7.43400e-06;-7.03585103594166e-05
7.43425e-06;-2.723149714094857e-05
7.43450e-06;1.5486441334825053e-05
7.43475e-06;5.754451778707885e-05
7.43500e-06;9.8743268773716e-05
7.43525e-06;0.00013893568446169538
7.43550e-06;0.00017793382016507677
7.43575e-06;0.0002154794607941011
7.43600e-06;0.00025129353872007987
7.43625e-06;0.00028509704647174263
7.43650e-06;0.0003166116442142226
7.43675e-06;0.0003455872485602415
7.43700e-06;0.00037197619331910643
7.43725e-06;0.0003959905714174585
7.43750e-06;0.00041779673609105173
7.43775e-06;0.0004373626697624632
7.43800e-06;0.0004545889210423486
7.43825e-06;0.00046937602023954564
7.43850e-06;0.0004816249879577416
7.43875e-06;0.0004911067221576068
7.43900e-06;0.0004972630554141196
7.43925e-06;0.0005028682185129703
7.43950e-06;0.00050456957023381
7.43975e-06;0.0005057464835784199
7.44000e-06;0.0005032089206008887
7.44025e-06;0.000500153517575451
7.44050e-06;0.000493430372668878
7.44075e-06;0.0004862223865574488
7.44100e-06;0.00047558038177604613
7.44125e-06;0.00046454126565097085
7.44150e-06;0.0004506895012718547
7.44175e-06;0.00043649463822255635
7.44200e-06;0.0004198696862545868
7.44225e-06;0.0004029430259487363
