Time(s);Current(A)
3.00000e-07;0.0005252038691044749
3.00250e-07;0.0005018807578683845
3.00500e-07;0.000476982822369492
3.00750e-07;0.0004513749731310516
3.01000e-07;0.0004241714164526476
3.01250e-07;0.00039624853212435676
3.01500e-07;0.00036655884274024923
3.01750e-07;0.0003360726967521425
3.02000e-07;0.0003042907105021404
3.02250e-07;0.0002719245734818573
3.02500e-07;0.00023878889338883088
3.02750e-07;0.00020530631160434784
3.03000e-07;0.00017128649955524863
3.03250e-07;0.00013702450991517665
3.03500e-07;0.0001023635031420126
3.03750e-07;6.752262376224832e-05
3.04000e-07;3.271478433713857e-05
3.04250e-07;-1.861570790703976e-06
3.04500e-07;-3.597781028442396e-05
3.04750e-07;-6.943963768611176e-05
3.05000e-07;-0.00010212028674146234
3.05250e-07;-0.0001339452575417816
3.05500e-07;-0.00016479042123417078
3.05750e-07;-0.00019445802055573913
3.06000e-07;-0.00022272746865332926
3.06250e-07;-0.00024937727633401747
3.06500e-07;-0.0002741860035694007
3.06750e-07;-0.00029692861749336803
3.07000e-07;-0.0003173823893693465
3.07250e-07;-0.00033536939309425227
3.07500e-07;-0.0003507915630200195
3.07750e-07;-0.00036360404805861363
3.08000e-07;-0.00037377444119263283
3.08250e-07;-0.0003812706700009192
3.08500e-07;-0.00038606072224437154
3.08750e-07;-0.00038811038607684773
3.09000e-07;-0.00038738687320685587
3.09250e-07;-0.00038388545112894577
3.09500e-07;-0.0003776514359612651
3.09750e-07;-0.0003687634554136541
3.10000e-07;-0.00035730793455398966
3.10250e-07;-0.0003433715355462262
3.10500e-07;-0.00032704092959746526
3.10750e-07;-0.0003084014037272751
3.11000e-07;-0.0002875391455908052
3.11250e-07;-0.0002645579011613595
3.11500e-07;-0.00023959277354995982
3.11750e-07;-0.0002127997136254363
3.12000e-07;-0.0001843395444750119
3.12250e-07;-0.00015437323486337852
3.12500e-07;-0.00012306176309195195
3.12750e-07;-9.056520197677826e-05
3.13000e-07;-5.7044198105507596e-05
3.13250e-07;-2.267038307173468e-05
3.13500e-07;1.23649852686988e-05
3.13750e-07;4.790637010862564e-05
3.14000e-07;8.359181354442125e-05
3.14250e-07;0.00011927725698020929
3.14500e-07;0.0001549627004160049
3.14750e-07;0.00019003171442909378
3.15000e-07;0.00022482284081069227
3.15250e-07;0.00025842317472797176
3.15500e-07;0.00029148671228558114
3.15750e-07;0.0003227205745882743
3.16000e-07;0.00035312963908141635
3.16250e-07;0.000381759109829554
3.16500e-07;0.00040818271256677906
3.16750e-07;0.0004317684255519321
3.17000e-07;0.00045436008476907366
3.17250e-07;0.00047456551500807344
3.17500e-07;0.0004936952590404713
3.17750e-07;0.0005105494388851911
3.18000e-07;0.0005263778190135598
3.18250e-07;0.0005396563451545643
3.18500e-07;0.0005517854247050665
3.18750e-07;0.0005612286989793538
3.19000e-07;0.0005694612412929891
3.19250e-07;0.0005754647802779486
3.19500e-07;0.0005804635086780455
3.19750e-07;0.0005834331786359959
3.20000e-07;0.0005854881710007152
3.20250e-07;0.0005854727999647893
3.20500e-07;0.0005845241315072215
3.20750e-07;0.0005811318170363627
3.21000e-07;0.0005766379333806455
3.21250e-07;0.0005721440497249292
3.21500e-07;0.0005654417115728938
3.21750e-07;0.0005577438260273023
3.22000e-07;0.0005500459404817125
3.22250e-07;0.0005404811136080856
3.22500e-07;0.000530074689782315
3.22750e-07;0.0005196682659565466
3.23000e-07;0.0005076877280163786
3.23250e-07;0.0004949975964638611
3.23500e-07;0.0004823074649113464
3.23750e-07;0.000469617333358829
3.24000e-07;0.00045692720180631155
3.24250e-07;0.0004437575154728749
3.24500e-07;0.00043037165103252317
3.24750e-07;0.0004169857865921715
3.25000e-07;0.00040359992215182255
3.25250e-07;0.00039021405771147086
3.25500e-07;0.0003776958474895294
3.25750e-07;0.0003655687664020494
3.26000e-07;0.00035344168531456944
3.26250e-07;0.0003424614303481838
3.26500e-07;0.00033199815218961596
3.26750e-07;0.0003228898097390616
3.27000e-07;0.0003143922576465658
3.27250e-07;0.00030589470555406826
3.27500e-07;0.00029848164767871997
3.27750e-07;0.00029155746806326855
3.28000e-07;0.0002855433817223355
3.28250e-07;0.00027993955558321327
3.28500e-07;0.00027534870396177035
3.28750e-07;0.0002712144902934761
3.29000e-07;0.0002682187976210576
3.29250e-07;0.00026573633789586643
3.29500e-07;0.00026325387817067525
3.29750e-07;0.0002619202339182264
3.30000e-07;0.00026110446325180086
3.30250e-07;0.0002602886925853753
3.30500e-07;0.00026063168749339977
3.30750e-07;0.00026149704138564667
3.31000e-07;0.0002623623952778936
3.31250e-07;0.00026414436885545715
3.31500e-07;0.00026633954467021007
3.31750e-07;0.000268534720484963
3.32000e-07;0.0002717947768212367
3.32250e-07;0.00027553486977562015
3.32500e-07;0.0002792749627300036
3.32750e-07;0.00028301505568438626
3.33000e-07;0.00028675514863876967
3.33250e-07;0.0002904952415931523
3.33500e-07;0.0002944172605276541
3.33750e-07;0.0002991185007666026
3.34000e-07;0.0003038197410055501
3.34250e-07;0.0003085209812444986
3.34500e-07;0.0003132222214834471
3.34750e-07;0.0003179234617223946
3.35000e-07;0.00032262470196134314
3.35250e-07;0.00032703602944469294
3.35500e-07;0.00033131666739439714
3.35750e-07;0.00033559730534410225
3.36000e-07;0.00033987794329380736
3.36250e-07;0.0003441585812435116
3.36500e-07;0.00034719114744380733
3.36750e-07;0.00034966109640241245
3.37000e-07;0.00035213104536101805
3.37250e-07;0.0003546009943196237
3.37500e-07;0.0003570709432782288
3.37750e-07;0.000357550447946124
3.38000e-07;0.00035713268186247113
3.38250e-07;0.0003567149157788184
3.38500e-07;0.0003547452815474152
3.38750e-07;0.00035207608194473664
3.39000e-07;0.0003494068823420586
3.39250e-07;0.0003452710758630146
3.39500e-07;0.0003404741388713901
3.39750e-07;0.0003342334842494664
3.40000e-07;0.0003273420173394469
3.40250e-07;0.00032045055042942736
3.40500e-07;0.00031208320526131267
3.40750e-07;0.0003030505501420376
3.41000e-07;0.00029401789502276444
3.41250e-07;0.00028361702067596404
3.41500e-07;0.0002725993679042179
3.41750e-07;0.0002615817151324741
3.42000e-07;0.000249503109362038
3.42250e-07;0.00023694623745828823
3.42500e-07;0.0002243893655545411
3.42750e-07;0.0002110881710433549
3.43000e-07;0.00019745144395359407
3.43250e-07;0.00018381471686383614
3.43500e-07;0.00017017798977407532
3.43750e-07;0.00015628749496939776
3.44000e-07;0.00014228260442436224
3.44250e-07;0.00012827771387932373
3.44500e-07;0.00011427282333428521
3.44750e-07;0.00010061727714896906
3.45000e-07;8.711921162144054e-05
3.45250e-07;7.395853679062024e-05
3.45500e-07;6.124071115333859e-05
3.45750e-07;4.9007156706173056e-05
3.46000e-07;3.7348882656675514e-05
3.46250e-07;2.6357073319646546e-05
3.46500e-07;1.6122904223448198e-05
3.46750e-07;6.764855842458754e-06
3.47000e-07;-1.500093695352125e-06
3.47250e-07;-8.399291393357647e-06
3.47500e-07;-1.3771580638131748e-05
3.47750e-07;-1.7589936760924836e-05
3.48000e-07;-1.9867031170907206e-05
3.48250e-07;-2.0617086104429558e-05
3.48500e-07;-1.9854333581386245e-05
3.48750e-07;-1.7575904767953843e-05
3.49000e-07;-1.3717234600274314e-05
3.49250e-07;-8.178899018551827e-06
3.49500e-07;-9.313226352044898e-07
3.49750e-07;7.971048671349859e-06
3.50000e-07;1.8448905088757502e-05
3.50250e-07;3.0421971603555056e-05
3.50500e-07;4.380996773236714e-05
3.50750e-07;5.854333077211965e-05
3.51000e-07;7.45911424570796e-05
3.51250e-07;9.194432921081674e-05
3.51500e-07;0.00011055004736047698
3.51750e-07;0.00013030283501931712
3.52000e-07;0.00015108166589439175
3.52250e-07;0.00017302167960534328
3.52500e-07;0.000195346718631666
3.52750e-07;0.00021872813013270833
3.53000e-07;0.00024258574291641344
3.53250e-07;0.0002664433557001236
3.53500e-07;0.0002910112405794016
3.53750e-07;0.000315899308434896
3.54000e-07;0.0003407873762903957
3.54250e-07;0.0003656754441458954
3.54500e-07;0.0003899591737171451
3.54750e-07;0.00041397047412822046
3.55000e-07;0.0004379817745392958
3.55250e-07;0.00046199307495036607
3.55500e-07;0.0004842607404013589
3.55750e-07;0.0005057423940767959
3.56000e-07;0.0005272240477522284
3.56250e-07;0.0005466524497946974
3.56500e-07;0.0005651552682152228
3.56750e-07;0.0005814020013770527
3.57000e-07;0.0005966317157129265
3.57250e-07;0.0006088616549302289
3.57500e-07;0.000619739327978755
3.57750e-07;0.0006273827164551671
3.58000e-07;0.0006335681244383056
3.58250e-07;0.0006365184053003958
3.58500e-07;0.000638010325857269
3.58750e-07;0.0006362131961612588
3.59000e-07;0.0006329333981955978
3.59250e-07;0.0006261821581933362
3.59500e-07;0.0006178660296786301
3.59750e-07;0.000606214931994087
3.60000e-07;0.0005930604662889307
3.60250e-07;0.0005768539272491788
3.60500e-07;0.0005592715465706741
3.60750e-07;0.0005388866876491943
3.61000e-07;0.0005172385018558839
3.61250e-07;0.000492956949427242
3.61500e-07;0.00046748830380988156
3.61750e-07;0.0004397551273837805
3.62000e-07;0.00041100112496913674
3.62250e-07;0.00038044308486006326
3.62500e-07;0.0003490718040762759
3.62750e-07;0.000316336085504835
3.63000e-07;0.0002829852931406247
3.63250e-07;0.0002485200860417365
3.63500e-07;0.0002135525128373483
3.63750e-07;0.00017858493963296749
3.64000e-07;0.00014335423705883198
3.64250e-07;0.00010800491861161961
3.64500e-07;7.265560016441472e-05
3.64750e-07;3.779395873671961e-05
3.65000e-07;3.6170332080655083e-06
3.65250e-07;-2.975754228299453e-05
3.65500e-07;-6.212465669073147e-05
3.65750e-07;-9.325806594290932e-05
3.66000e-07;-0.0001229255016104263
3.66250e-07;-0.0001508944822955873
3.66500e-07;-0.00017693254666138747
3.66750e-07;-0.0002008530610274872
3.67000e-07;-0.0002226626684769948
3.67250e-07;-0.00024255718521012023
3.67500e-07;-0.0002606654915430835
3.67750e-07;-0.0002769568718111961
3.68000e-07;-0.00029134730355843415
3.68250e-07;-0.0003037505159625945
3.68500e-07;-0.0003140802743740285
3.68750e-07;-0.0003222790509889505
3.69000e-07;-0.00032841038585240976
3.69250e-07;-0.00033265629249701513
3.69500e-07;-0.00033515687653662326
3.69750e-07;-0.0003359522393407072
3.70000e-07;-0.0003350490755445356
3.70250e-07;-0.000332452744201724
3.70500e-07;-0.00032816857838198195
3.70750e-07;-0.0003216942693402134
3.71000e-07;-0.00031446885052761734
3.71250e-07;-0.000305384166943977
3.71500e-07;-0.0002954613469169928
3.71750e-07;-0.00028396581902992646
3.72000e-07;-0.0002717613314547084
3.72250e-07;-0.00025815784152482396
3.72500e-07;-0.00024392369646929893
3.72750e-07;-0.00022850704401399823
3.73000e-07;-0.00021255733001645537
3.73250e-07;-0.00019571205002663554
3.73500e-07;-0.0001784630585766548
3.73750e-07;-0.0001612140671266704
3.74000e-07;-0.00014352418051809037
3.74250e-07;-0.0001256355431420763
3.74500e-07;-0.00010776848253087741
3.74750e-07;-8.999383903799249e-05
3.75000e-07;-7.221919554511132e-05
3.75250e-07;-5.4835381415124215e-05
3.75500e-07;-3.801091310719724e-05
3.75750e-07;-2.1826462243552247e-05
3.76000e-07;-6.4032857241757945e-06
3.76250e-07;8.137726551517654e-06
3.76500e-07;2.1675689329097572e-05
3.76750e-07;3.4145266753050746e-05
3.77000e-07;4.570379211571502e-05
3.77250e-07;5.669799908215716e-05
3.77500e-07;6.734326065197297e-05
3.77750e-07;7.76340749380445e-05
3.78000e-07;8.749478277965815e-05
3.78250e-07;9.684683004083233e-05
3.78500e-07;0.00010561167275912016
3.78750e-07;0.00011357733079210292
3.79000e-07;0.00012126839270211194
3.79250e-07;0.00012856575606918857
3.79500e-07;0.00013568564439254776
3.79750e-07;0.00014241264077984343
3.80000e-07;0.0001489625257330677
3.80250e-07;0.00015551241068629333
3.80500e-07;0.00016136111772293633
3.80750e-07;0.00016689374134084618
3.81000e-07;0.00017242636495875603
3.81250e-07;0.00017756173678420829
3.81500e-07;0.00018251803179949867
3.81750e-07;0.00018747432681478905
3.82000e-07;0.00019167532184649936
3.82250e-07;0.00019553583581722087
3.82500e-07;0.00019939634978794239
3.82750e-07;0.00020325686375866308
3.83000e-07;0.0002071173777293846
3.83250e-07;0.0002109778917001061
3.83500e-07;0.0002148384056708268
3.83750e-07;0.00021869891964154832
3.84000e-07;0.00022255943361226984
3.84250e-07;0.00022641994758299054
3.84500e-07;0.0002293094790731465
3.84750e-07;0.00023176130216614302
3.85000e-07;0.0002342131252591401
3.85250e-07;0.00023666494835213717
3.85500e-07;0.00023911677144513373
3.85750e-07;0.0002415685945381308
3.86000e-07;0.00024402041763112788
3.86250e-07;0.00024647224072412447
3.86500e-07;0.00024892406381712154
3.86750e-07;0.0002513758869101186
3.87000e-07;0.0002528554620274244
3.87250e-07;0.00025389675827605917
3.87500e-07;0.00025493805452469386
3.87750e-07;0.0002550179623172428
3.88000e-07;0.00025466448659506886
3.88250e-07;0.00025431101087289504
3.88500e-07;0.00025303332583811127
3.88750e-07;0.00025133901724424195
3.89000e-07;0.000249644708650373
3.89250e-07;0.00024689134613638204
3.89500e-07;0.00024366057357312574
3.89750e-07;0.0002404298010098701
3.90000e-07;0.0002362013100828834
3.90250e-07;0.00023152305851186142
3.90500e-07;0.00022684480694084045
3.90750e-07;0.0002213165405152017
3.91000e-07;0.0002154050965894286
3.91250e-07;0.00020949365266365676
3.91500e-07;0.0002027975549512359
3.91750e-07;0.0001957477438009781
3.92000e-07;0.00018869793265072183
3.92250e-07;0.00018100496912660347
3.92500e-07;0.0001730220794706277
3.92750e-07;0.0001650391898146502
3.93000e-07;0.00015705630015867272
3.93250e-07;0.0001489785307510037
3.93500e-07;0.00014049437450491359
3.93750e-07;0.00013201021825882348
3.94000e-07;0.0001235260620127352
3.94250e-07;0.00011504190576664509
3.94500e-07;0.0001067195701822583
3.94750e-07;9.847018160142866e-05
3.95000e-07;9.022079302059727e-05
3.95250e-07;8.231595596655016e-05
3.95500e-07;7.456643901307043e-05
3.95750e-07;6.71185269948311e-05
3.96000e-07;6.005826163676793e-05
3.96250e-07;5.3401182800532773e-05
3.96500e-07;4.720246220192066e-05
3.96750e-07;4.1533632035748164e-05
3.97000e-07;3.603706806377421e-05
3.97250e-07;3.047600020035223e-05
3.97500e-07;2.4661958585226912e-05
3.97750e-07;1.8559686649135188e-05
3.98000e-07;1.2228141044920569e-05
3.98250e-07;5.728910564598007e-06
3.98500e-07;-8.764253887899209e-07
3.98750e-07;-7.557362887558013e-06
3.99000e-07;-1.44055506071144e-05
3.99250e-07;-2.1610351028816974e-05
3.99500e-07;-2.9277332919003906e-05
3.99750e-07;-3.738289151867938e-05
4.00000e-07;-4.586304693310357e-05
4.00250e-07;-5.4652170024593e-05
4.00500e-07;-6.368463667064369e-05
4.00750e-07;-7.299925844849322e-05
4.01000e-07;-8.24098437834814e-05
4.01250e-07;-9.227235882617847e-05
4.01500e-07;-0.00010233859889167675
4.01750e-07;-0.0001128749921290447
4.02000e-07;-0.00012362332532970182
4.02250e-07;-0.00013437165853035892
4.02500e-07;-0.0001453965982059224
4.02750e-07;-0.00015654622908776834
4.03000e-07;-0.0001676958599696143
4.03250e-07;-0.0001788454908514579
4.03500e-07;-0.00018999512173330384
4.03750e-07;-0.00020103942998614925
4.04000e-07;-0.00021203625993733126
4.04250e-07;-0.00022303308988851328
4.04500e-07;-0.00023402991983969293
4.04750e-07;-0.00024502674979087497
4.05000e-07;-0.0002553484131834329
4.05250e-07;-0.0002653657187959949
4.05500e-07;-0.00027538302440855897
4.05750e-07;-0.00028474770565864514
4.06000e-07;-0.00029381819090687364
4.06250e-07;-0.00030214550787315984
4.06500e-07;-0.0003101378126182901
4.06750e-07;-0.00031692181191769785
4.07000e-07;-0.00032316112019484353
4.07250e-07;-0.000327582849812558
4.07500e-07;-0.00032965566728647763
4.07750e-07;-0.00032954653733476447
4.08000e-07;-0.00032731829827554364
4.08250e-07;-0.0003230377705291375
4.08500e-07;-0.00031677182762919953
4.08750e-07;-0.0003085411594546676
4.09000e-07;-0.0002981917550023257
4.09250e-07;-0.0002854481247035903
4.09500e-07;-0.00027018916303688754
4.09750e-07;-0.00025250205757606896
4.10000e-07;-0.0002325373423290223
4.10250e-07;-0.00021044807434012427
4.10500e-07;-0.0001863873307144266
4.10750e-07;-0.0001604792099046383
4.11000e-07;-0.00013273843165642526
4.11250e-07;-0.00010310359063965209
4.11500e-07;-7.160999888477809e-05
4.11750e-07;-3.842344961034023e-05
4.12000e-07;-3.7494058000177995e-06
4.12250e-07;3.220510407221491e-05
4.12500e-07;6.923306721472117e-05
4.12750e-07;0.00010714561774295963
4.13000e-07;0.00014605399381634366
4.13250e-07;0.0001852952377559576
4.13500e-07;0.00022524397311693967
4.13750e-07;0.0002655116379563117
4.14000e-07;0.0003057793027956922
4.14250e-07;0.0003458346445443907
4.14500e-07;0.0003849805687618492
4.14750e-07;0.000424126492979316
4.15000e-07;0.0004632724171967828
4.15250e-07;0.0005006586736650251
4.15500e-07;0.0005372516909497835
4.15750e-07;0.000571816361946911
4.16000e-07;0.0006054666763822738
4.16250e-07;0.0006363677135217457
4.16500e-07;0.0006660294062006678
4.16750e-07;0.0006922277613613956
4.17000e-07;0.0007168648814387821
4.17250e-07;0.000737515922565938
4.17500e-07;0.0007563700824277411
4.17750e-07;0.0007710509770509531
4.18000e-07;0.0007838506088551782
4.18250e-07;0.0007923613857312269
4.18500e-07;0.0007989387932067885
4.18750e-07;0.0008011169317223216
4.19000e-07;0.0008013119273863817
4.19250e-07;0.0007971170625535196
4.19500e-07;0.0007909432961025638
4.19750e-07;0.0007805992534556651
4.20000e-07;0.0007683752954178727
4.20250e-07;0.0007522455413069341
4.20500e-07;0.0007343550965830449
4.20750e-07;0.0007128265255583514
4.21000e-07;0.0006896579265581507
4.21250e-07;0.0006631938578846819
4.21500e-07;0.0006352442271362073
4.21750e-07;0.0006044735018254853
4.22000e-07;0.0005724310576075352
4.22250e-07;0.0005380698585387392
4.22500e-07;0.0005026633898697866
4.22750e-07;0.0004651010123357837
4.23000e-07;0.00042656677441020775
4.23250e-07;0.0003880325364846236
4.23500e-07;0.0003480772929721016
4.23750e-07;0.000307481475514838
4.24000e-07;0.00026688565805757427
4.24250e-07;0.00022632209818811169
4.24500e-07;0.00018577307969022244
4.24750e-07;0.00014522406119233321
4.25000e-07;0.0001054585814411312
4.25250e-07;6.672174083042724e-05
4.25500e-07;2.9147594853233112e-05
4.25750e-07;-6.995516497139339e-06
4.26000e-07;-4.143778079487251e-05
4.26250e-07;-7.390938695174009e-05
4.26500e-07;-0.00010414054772137484
4.26750e-07;-0.00013189929590801718
4.27000e-07;-0.00015711894659090373
4.27250e-07;-0.0001799083669472015
4.27500e-07;-0.0002003454108778938
4.27750e-07;-0.0002183893071966635
4.28000e-07;-0.00023395802996099108
4.28250e-07;-0.0002469677310353266
4.28500e-07;-0.00025733459237515545
4.28750e-07;-0.00026499847108327093
4.29000e-07;-0.0002700027916983065
4.29250e-07;-0.00027250090340416713
4.29500e-07;-0.00027262677830196204
4.29750e-07;-0.0002704400291558729
4.30000e-07;-0.0002659744318132234
4.30250e-07;-0.00025926266083247263
4.30500e-07;-0.00025033733963315824
4.30750e-07;-0.00023924596959726645
4.31000e-07;-0.00022610090703743962
4.31250e-07;-0.000211083404436518
4.31500e-07;-0.0001943624828615974
4.31750e-07;-0.00017606062682980802
4.32000e-07;-0.00015628413393746184
4.32250e-07;-0.00013513856829918783
4.32500e-07;-0.00011272948950805656
4.32750e-07;-8.917177033197341e-05
4.33000e-07;-6.462088695251232e-05
4.33250e-07;-3.927545244517672e-05
4.33500e-07;-1.3326420491492307e-05
4.33750e-07;1.3064420794444522e-05
4.34000e-07;3.97741540366073e-05
4.34250e-07;6.657240087242573e-05
4.34500e-07;9.337064770824984e-05
4.34750e-07;0.00011987034134113868
4.35000e-07;0.00014623545042018486
4.35250e-07;0.00017174053770430746
4.35500e-07;0.00019685793646784328
4.35750e-07;0.00022099544580495288
4.36000e-07;0.00024387265517843818
4.36250e-07;0.00026543844811739427
4.36500e-07;0.00028551322685848793
4.36750e-07;0.00030392664868470197
4.37000e-07;0.0003205572259390513
4.37250e-07;0.0003353546935978973
4.37500e-07;0.0003482965247378262
4.37750e-07;0.0003593503413423971
4.38000e-07;0.0003684775441514359
4.38250e-07;0.0003756391430752696
4.38500e-07;0.00038079621922384153
4.38750e-07;0.00038391562723669517
4.39000e-07;0.0003849948328742791
4.39250e-07;0.0003840759520252871
4.39500e-07;0.00038121844223219055
4.39750e-07;0.00037647556959532634
4.40000e-07;0.00036928623970783363
4.40250e-07;0.000361255983567787
4.40500e-07;0.0003508532199609267
4.40750e-07;0.00033938095565616956
4.41000e-07;0.00032572957895618353
4.41250e-07;0.00031109588196423635
4.41500e-07;0.0002945748352367912
4.41750e-07;0.0002772029916678105
4.42000e-07;0.0002582344777458705
4.42250e-07;0.00023854620210317747
4.42500e-07;0.0002175500497852938
4.42750e-07;0.0001959643208121481
4.43000e-07;0.00017339457994099396
4.43250e-07;0.00015038125715224248
4.43500e-07;0.00012669989670502471
4.43750e-07;0.0001027173921088671
