Time(s);Current(A)
6.25000e-06;-0.0006156529458341569
6.25025e-06;-0.000612634164249046
6.25050e-06;-0.0006096153826639249
6.25075e-06;-0.000606596601078814
6.25100e-06;-0.0006048431777837233
6.25125e-06;-0.0006031401722805173
6.25150e-06;-0.0006014371667773112
6.25175e-06;-0.0005997341612740994
6.25200e-06;-0.0005980311557708933
6.25225e-06;-0.0005963281502676873
6.25250e-06;-0.0005946251447644756
6.25275e-06;-0.0005929221392612695
6.25300e-06;-0.0005915166068694051
6.25325e-06;-0.0005904579259327076
6.25350e-06;-0.0005893992449960137
6.25375e-06;-0.0005883405640593198
6.25400e-06;-0.0005872818831226223
6.25425e-06;-0.0005862232021859283
6.25450e-06;-0.0005851645212492344
6.25475e-06;-0.0005841058403125369
6.25500e-06;-0.000583047159375843
6.25525e-06;-0.0005821536300296791
6.25550e-06;-0.0005812666810952334
6.25575e-06;-0.0005803797321607876
6.25600e-06;-0.0005776786347073797
6.25625e-06;-0.0005749052530929431
6.25650e-06;-0.0005721318714785064
6.25675e-06;-0.0005666885795784346
6.25700e-06;-0.0005611389059665154
6.25725e-06;-0.0005555892323545964
6.25750e-06;-0.0005475863364494412
6.25775e-06;-0.0005394856926954359
6.25800e-06;-0.0005313850489414304
6.25825e-06;-0.0005199916731934139
6.25850e-06;-0.0005084670996040493
6.25875e-06;-0.0004969425260146845
6.25900e-06;-0.00048258589466230626
6.25925e-06;-0.0004681164208843465
6.25950e-06;-0.00045364694710633773
6.25975e-06;-0.0004367221238990687
6.26000e-06;-0.0004196994680879079
6.26025e-06;-0.0004026768122766894
6.26050e-06;-0.00038333649244877194
6.26075e-06;-0.0003639038260477036
6.26100e-06;-0.00034447115964656935
6.26125e-06;-0.00032365514575715526
6.26150e-06;-0.00030278401283448603
6.26175e-06;-0.00028191287991174605
6.26200e-06;-0.00026021307821860637
6.26225e-06;-0.00023848025848632775
6.26250e-06;-0.00021674743875397552
6.26275e-06;-0.00019498505369628625
6.26300e-06;-0.00017322149061776854
6.26325e-06;-0.00015145792753917708
6.26350e-06;-0.00013048446839419931
6.26375e-06;-0.0001095424906848294
6.26400e-06;-8.932859176717885e-05
6.26425e-06;-6.973235983116714e-05
6.26450e-06;-5.087588181554404e-05
6.26475e-06;-3.289911380356816e-05
6.26500e-06;-1.594225964452741e-05
6.26525e-06;-1.4551808604648209e-07
6.26550e-06;1.4382960128713165e-05
6.26575e-06;2.7825336276343447e-05
6.26600e-06;4.066501251121371e-05
6.26625e-06;5.318359158316944e-05
6.26650e-06;6.535437279138843e-05
6.26675e-06;7.708495771842264e-05
6.26700e-06;8.828083069898437e-05
6.26725e-06;9.884747704370656e-05
6.26750e-06;0.0001087104779013134
6.26775e-06;0.00011783856193349226
6.26800e-06;0.0001269384420505148
6.26825e-06;0.00013570567027367794
6.26850e-06;0.00014445964408973374
6.26875e-06;0.0001526294694903354
6.26900e-06;0.00016077601968624792
6.26925e-06;0.00016892256988216046
6.26950e-06;0.00017609209289652268
6.26975e-06;0.00018322268657885153
6.27000e-06;0.0001903532802611804
6.27025e-06;0.00019711601001769262
6.27050e-06;0.0002038640823550518
6.27075e-06;0.000210612154692411
6.27100e-06;0.0002163708585076888
6.27125e-06;0.0002220901412542241
6.27150e-06;0.00022780942400075938
6.27175e-06;0.000233528706747314
6.27200e-06;0.0002392479894938493
6.27225e-06;0.00024496727224040395
6.27250e-06;0.00025068655498693924
6.27275e-06;0.0002564058377334745
6.27300e-06;0.0002614486781960785
6.27325e-06;0.0002657027919418985
6.27350e-06;0.0002699569056877185
6.27375e-06;0.000274211019433553
6.27400e-06;0.000278465133179373
6.27425e-06;0.00028271924692519304
6.27450e-06;0.0002869733606710275
6.27475e-06;0.0002912274744168475
6.27500e-06;0.0002954815881626675
6.27525e-06;0.0002986606426209486
6.27550e-06;0.00030179686168968945
6.27575e-06;0.00030493308075843023
6.27600e-06;0.0003091662209806676
6.27625e-06;0.00031344306767139193
6.27650e-06;0.0003177199143621307
6.27675e-06;0.0003238954912192674
6.27700e-06;0.00033014672236562285
6.27725e-06;0.0003363979535119995
6.27750e-06;0.0003442989559391183
6.27775e-06;0.0003522656929691923
6.27800e-06;0.0003602324299992933
6.27825e-06;0.0003707071257583663
6.27850e-06;0.0003812817503216232
6.27875e-06;0.00039185637488491597
6.27900e-06;0.0004045434508120062
6.27925e-06;0.00041731469668026194
6.27950e-06;0.0004300859425485609
6.27975e-06;0.00044466975091348094
6.28000e-06;0.00045932578024466836
6.28025e-06;0.0004739818095759054
6.28050e-06;0.0004908572238097097
6.28075e-06;0.0005078210687169781
6.28100e-06;0.0005247849136241888
6.28125e-06;0.0005417487585313997
6.28150e-06;0.000558712603438668
6.28175e-06;0.0005762207893049295
6.28200e-06;0.0005943636727167976
6.28225e-06;0.0006125065561287273
6.28250e-06;0.0006306494395405956
6.28275e-06;0.0006487923229524638
6.28300e-06;0.0006669352063643935
6.28325e-06;0.0006846846612031384
6.28350e-06;0.0007024184400076791
6.28375e-06;0.0007193739389096772
6.28400e-06;0.0007362984275007074
6.28425e-06;0.0007522161929710589
6.28450e-06;0.0007680938458844447
6.28475e-06;0.0007802353802175963
6.28500e-06;0.000792228050114791
6.28525e-06;0.0008042207200119449
6.28550e-06;0.0008162133899090989
6.28575e-06;0.0008282060598062935
6.28600e-06;0.0008401987297034475
6.28625e-06;0.0008521913996006015
6.28650e-06;0.000864184069497796
6.28675e-06;0.0008722836185809865
6.28700e-06;0.0008802280475250154
6.28725e-06;0.0008881724764690712
6.28750e-06;0.0008961169054131001
6.28775e-06;0.0009040613343571291
6.28800e-06;0.0009120057633011849
6.28825e-06;0.0009199501922452138
6.28850e-06;0.0009278946211892427
6.28875e-06;0.0009336435544976838
6.28900e-06;0.0009393050089929029
6.28925e-06;0.0009449664634881411
6.28950e-06;0.0009506279179833601
6.28975e-06;0.0009562893724785793
6.29000e-06;0.0009619508269738175
6.29025e-06;0.0009676122814690365
6.29050e-06;0.0009732737359642556
6.29075e-06;0.0009789351904594937
6.29100e-06;0.0009845966449547128
6.29125e-06;0.0009894950833052854
6.29150e-06;0.000993503850455997
6.29175e-06;0.0009975126176066948
6.29200e-06;0.0010015213847573928
6.29225e-06;0.0010055301519081043
6.29250e-06;0.001009538919058802
6.29275e-06;0.0010135476862095
6.29300e-06;0.0010175564533602115
6.29325e-06;0.0010215652205109093
6.29350e-06;0.0010255739876616208
6.29375e-06;0.0010295827548123188
6.29400e-06;0.0010326644958068038
6.29425e-06;0.0010357092997440903
6.29450e-06;0.0010387541036813665
6.29475e-06;0.0010415427929726018
6.29500e-06;0.0010441572640724746
6.29525e-06;0.0010465786838653687
6.29550e-06;0.0010487037173373176
6.29575e-06;0.001049728479702631
6.29600e-06;0.0010481925632627167
6.29625e-06;0.0010432645468742559
6.29650e-06;0.001034942790910371
6.29675e-06;0.0010233959436144282
6.29700e-06;0.001008798498171453
6.29725e-06;0.000991324625285215
6.29750e-06;0.0009696177559797227
6.29775e-06;0.0009477466057412833
6.29800e-06;0.0009187306853416244
6.29825e-06;0.0008894300838871727
6.29850e-06;0.0008526164658342484
6.29875e-06;0.0008155034940664652
6.29900e-06;0.0007719812094325164
6.29925e-06;0.0007282035478014843
6.29950e-06;0.0006789636526494084
6.29975e-06;0.0006295061165704188
6.30000e-06;0.0005757619534990418
6.30025e-06;0.0005188926230752409
6.30050e-06;0.00045925824402177613
6.30075e-06;0.00039723235531687696
6.30100e-06;0.00033319065830832357
6.30125e-06;0.0002675087983660146
6.30150e-06;0.00020054274262081234
6.30175e-06;0.00013247614588606248
6.30200e-06;6.333142919254508e-05
6.30225e-06;-6.7143543604359095e-06
6.30250e-06;-7.731922942144787e-05
6.30275e-06;-0.0001479450145778403
6.30300e-06;-0.0002179109905343302
6.30325e-06;-0.0002878506747153387
6.30350e-06;-0.00035557778053226815
6.30375e-06;-0.0004232167268801381
6.30400e-06;-0.0004875804994353755
6.30425e-06;-0.0005518137737510771
6.30450e-06;-0.000611396414914854
6.30475e-06;-0.0006707937531059014
6.30500e-06;-0.0007256189522651477
6.30525e-06;-0.0007766314585539661
6.30550e-06;-0.0008217209149356668
6.30575e-06;-0.0008665801331141357
6.30600e-06;-0.0009063405501635209
6.30625e-06;-0.0009458978071322129
6.30650e-06;-0.0009816201176592499
6.30675e-06;-0.001017189625986421
6.30700e-06;-0.00104799616878558
6.30725e-06;-0.0010786129327647765
6.30750e-06;-0.0011027838773712702
6.30775e-06;-0.0011266979903912548
6.30800e-06;-0.0011506121034111582
6.30825e-06;-0.0011696499622482755
6.30850e-06;-0.0011884935283158562
6.30875e-06;-0.001207337094383373
6.30900e-06;-0.0012211602461518506
6.30925e-06;-0.001234783361137621
6.30950e-06;-0.0012484064761233453
6.30975e-06;-0.0012550094076801282
6.31000e-06;-0.001261332622300503
6.31025e-06;-0.001267655836920856
6.31050e-06;-0.0012739790515412094
6.31075e-06;-0.001280302266161584
6.31100e-06;-0.0012866254807819373
6.31125e-06;-0.0012929486954023118
6.31150e-06;-0.001296316341036223
6.31175e-06;-0.00129623781502114
6.31200e-06;-0.0012961592890060568
6.31225e-06;-0.0012960807629909738
6.31250e-06;-0.0012960022369758908
6.31275e-06;-0.0012959237109608076
6.31300e-06;-0.0012958451849457246
6.31325e-06;-0.0012957666589306417
6.31350e-06;-0.0012934493259371806
6.31375e-06;-0.0012910427884043737
6.31400e-06;-0.0012886362508715667
6.31425e-06;-0.0012862297133387518
6.31450e-06;-0.0012838231758059448
6.31475e-06;-0.001281416638273138
6.31500e-06;-0.001279010100740323
6.31525e-06;-0.001276603563207516
6.31550e-06;-0.0012752481373821476
6.31575e-06;-0.0012751183000585102
6.31600e-06;-0.0012749884627348727
6.31625e-06;-0.0012748586254112345
6.31650e-06;-0.001274728788087597
6.31675e-06;-0.0012745989507639596
6.31700e-06;-0.0012744691134403215
6.31725e-06;-0.001274339276116684
6.31750e-06;-0.0012742094387930465
6.31775e-06;-0.001278887898255017
6.31800e-06;-0.0012837579427458477
6.31825e-06;-0.0012886279872366781
6.31850e-06;-0.001293498031727525
6.31875e-06;-0.0012983680762183555
6.31900e-06;-0.0013032381207091859
6.31925e-06;-0.001308108165200033
6.31950e-06;-0.0013129782096908634
6.31975e-06;-0.0013178482541817103
6.32000e-06;-0.0013227182986725408
6.32025e-06;-0.0013275883431633714
6.32050e-06;-0.001336176224569233
6.32075e-06;-0.0013449122419833476
6.32100e-06;-0.0013536482593974623
6.32125e-06;-0.0013623842768116065
6.32150e-06;-0.0013711202942257212
6.32175e-06;-0.001379856311639836
6.32200e-06;-0.0013885923290539804
6.32225e-06;-0.001397328346468095
6.32250e-06;-0.0014060643638822098
6.32275e-06;-0.001414800381296354
6.32300e-06;-0.0014235363987104687
6.32325e-06;-0.001432373486638578
6.32350e-06;-0.0014412146016886257
6.32375e-06;-0.0014500557167386437
6.32400e-06;-0.0014588968317886914
6.32425e-06;-0.0014677379468387092
6.32450e-06;-0.0014749344498454966
6.32475e-06;-0.0014820654238179008
6.32500e-06;-0.001489196397790281
6.32525e-06;-0.0014963273717626612
6.32550e-06;-0.0015034583457350654
6.32575e-06;-0.0015069836449469363
6.32600e-06;-0.001510365277215365
6.32625e-06;-0.0015137469094838054
6.32650e-06;-0.0015096031210998086
6.32675e-06;-0.0015051594847664094
6.32700e-06;-0.0015007158484329952
6.32725e-06;-0.001496272212099596
6.32750e-06;-0.0014918285757661968
6.32775e-06;-0.0014824204095557267
6.32800e-06;-0.0014672236381101226
6.32825e-06;-0.001452026866664467
6.32850e-06;-0.0014368300952188628
6.32875e-06;-0.0014216333237732585
6.32900e-06;-0.001406436552327603
6.32925e-06;-0.0013812574977168797
6.32950e-06;-0.0013556807022655367
6.32975e-06;-0.001330103906814107
6.33000e-06;-0.0013045271113627638
6.33025e-06;-0.0012789503159114208
6.33050e-06;-0.001253373520459991
6.33075e-06;-0.0012205456913384426
6.33100e-06;-0.00118742894712812
6.33125e-06;-0.001154312202917685
6.33150e-06;-0.0011211954587073622
6.33175e-06;-0.0010880787144970396
6.33200e-06;-0.0010549619702866046
6.33225e-06;-0.00101941521568801
6.33250e-06;-0.0009837716381122057
6.33275e-06;-0.0009479529076745926
6.33300e-06;-0.0009121271983279107
6.33325e-06;-0.0008769410292328015
6.33350e-06;-0.000841780342412056
6.33375e-06;-0.0008079588276885886
6.33400e-06;-0.0007741906718435921
6.33425e-06;-0.0007423779697941151
6.33450e-06;-0.0007106431821679232
6.33475e-06;-0.0006817108683211562
6.33500e-06;-0.0006528902181347665
6.33525e-06;-0.0006277401931295367
6.33550e-06;-0.0006027364229959716
6.33575e-06;-0.0005812325193970281
6.33600e-06;-0.0005598680668468404
6.33625e-06;-0.0005406334092835974
6.33650e-06;-0.0005214836127120148
6.33675e-06;-0.0005046373505633859
6.33700e-06;-0.0004878828719979686
6.33725e-06;-0.00047390955386849545
6.33750e-06;-0.0004600470501759407
6.33775e-06;-0.0004487924572844604
6.33800e-06;-0.00043764177575433496
6.33825e-06;-0.0004281747224211673
6.33850e-06;-0.0004187747527083362
6.33875e-06;-0.0004115829414886605
6.33900e-06;-0.0004044791136290509
6.33925e-06;-0.00039737528576946543
6.33950e-06;-0.000393110391548023
6.33975e-06;-0.00038895861371803403
6.34000e-06;-0.00038480683588805914
6.34025e-06;-0.00038249010475670107
6.34050e-06;-0.0003802464904667839
6.34075e-06;-0.0003780028761768743
6.34100e-06;-0.00037747067346646535
6.34125e-06;-0.0003770066613962168
6.34150e-06;-0.00037654264932596827
6.34175e-06;-0.0003779051334271377
6.34200e-06;-0.00037934039367675
6.34225e-06;-0.0003807756539263622
6.34250e-06;-0.0003822109141759793
6.34275e-06;-0.0003836461744255915
6.34300e-06;-0.00038508143467520377
6.34325e-06;-0.00038751887922256677
6.34350e-06;-0.00038999625547870485
6.34375e-06;-0.00039247363173484294
6.34400e-06;-0.00039495100799098943
6.34425e-06;-0.0003974283842471275
6.34450e-06;-0.0003999057605032656
6.34475e-06;-0.0004021849352586407
6.34500e-06;-0.0004044562127393994
6.34525e-06;-0.0004063983439024253
6.34550e-06;-0.00040832736033701283
6.34575e-06;-0.0004085521769296867
6.34600e-06;-0.0004087090902315947
6.34625e-06;-0.00040582734767878923
6.34650e-06;-0.00040064771497792866
6.34675e-06;-0.0003933136035639711
6.34700e-06;-0.00038393843106424984
6.34725e-06;-0.000372635559128772
6.34750e-06;-0.00035948551651124484
6.34775e-06;-0.00034428173191219366
6.34800e-06;-0.0003265492271333979
6.34825e-06;-0.00030607178185999807
6.34850e-06;-0.0002829737119901929
6.34875e-06;-0.00025744926385043313
6.34900e-06;-0.00022969493250955207
6.34925e-06;-0.00019990719848474392
6.34950e-06;-0.00016826194210173626
6.34975e-06;-0.00013475520760771164
6.35000e-06;-9.921493682072053e-05
6.35025e-06;-6.163115634089351e-05
6.35050e-06;-2.2207187137087875e-05
6.35075e-06;1.880983463760997e-05
6.35100e-06;6.117138998107619e-05
6.35125e-06;0.00010462898227623136
6.35150e-06;0.00014894703599527758
6.35175e-06;0.00019400264436255816
6.35200e-06;0.00023977820538532784
6.35225e-06;0.0002861545687263833
6.35250e-06;0.00033287895836398864
6.35275e-06;0.0003796712746034947
6.35300e-06;0.00042625046454233313
6.35325e-06;0.0004723355564558366
6.35350e-06;0.0005176536986678749
6.35375e-06;0.0005620025863892065
6.35400e-06;0.0006052459391824781
6.35425e-06;0.0006471838866931883
6.35450e-06;0.0006875327574350158
6.35475e-06;0.000725991931417132
6.35500e-06;0.0007622601862248477
6.35525e-06;0.0007960362412357849
6.35550e-06;0.0008270155109381871
6.35575e-06;0.000854882978410549
6.35600e-06;0.0008793730920815107
6.35625e-06;0.0009003475647811805
6.35650e-06;0.0009177511892507305
6.35675e-06;0.0009315414417459917
6.35700e-06;0.0009416759560112981
6.35725e-06;0.0009481125807786229
6.35750e-06;0.0009508068786336113
6.35775e-06;0.0009478743200289104
6.35800e-06;0.0009447232774091796
6.35825e-06;0.0009343827667801316
6.35850e-06;0.0009237557941271598
6.35875e-06;0.0009063648086668659
6.35900e-06;0.0008887043133074153
6.35925e-06;0.0008647407499287086
6.35950e-06;0.000840526042846489
6.35975e-06;0.000810467169362935
6.36000e-06;0.0007801754369622792
6.36025e-06;0.0007446618933915309
6.36050e-06;0.0007089402884463928
6.36075e-06;0.0006688266513178954
6.36100e-06;0.0006285380150896893
6.36125e-06;0.0005847094046163191
6.36150e-06;0.0005407397450159122
6.36175e-06;0.000493601884175052
6.36200e-06;0.00044633778738226463
6.36225e-06;0.0003990736905893172
6.36250e-06;0.00035001545714882337
6.36275e-06;0.0003008857369148217
6.36300e-06;0.00025175601668065356
6.36325e-06;0.00020295094592413896
6.36350e-06;0.00015415881072088175
6.36375e-06;0.00010638110250962428
6.36400e-06;5.9690431231475685e-05
6.36425e-06;1.4386977106598385e-05
6.36450e-06;-2.9206433345696598e-05
6.36475e-06;-7.076510946960334e-05
6.36500e-06;-0.00010996432625954506
6.36525e-06;-0.00014647940488844152
6.36550e-06;-0.00017999361207387963
6.36575e-06;-0.0002102818648761534
6.36600e-06;-0.0002372691910362068
6.36625e-06;-0.0002609269399614553
6.36650e-06;-0.00028119527151632747
6.36675e-06;-0.00029800296264519854
6.36700e-06;-0.0003112783328441293
6.36725e-06;-0.000320949755356002
6.36750e-06;-0.00032695064360782904
6.36775e-06;-0.00032927179253850716
6.36800e-06;-0.00032799802217359984
6.36825e-06;-0.00032324319384733805
6.36850e-06;-0.0003151016087336809
6.36875e-06;-0.0003036604229050793
6.36900e-06;-0.0002890065403993446
6.36925e-06;-0.0002712268652541926
6.36950e-06;-0.000250411492211397
6.36975e-06;-0.00022668639862347874
6.37000e-06;-0.00020023650314791565
6.37025e-06;-0.0001712648857286294
6.37050e-06;-0.0001399623698618412
6.37075e-06;-0.00010651527011741978
6.37100e-06;-7.110975586546085e-05
6.37125e-06;-3.393197954043686e-05
6.37150e-06;4.829944417352079e-06
6.37175e-06;4.496539138453109e-05
6.37200e-06;8.622685288474897e-05
6.37225e-06;0.00012835547356119143
6.37250e-06;0.00017110009843086972
6.37275e-06;0.00021421235913078932
6.37300e-06;0.00025744404141265055
6.37325e-06;0.00030054698923537456
6.37350e-06;0.00034327174731730854
6.37375e-06;0.00038535484219248955
6.37400e-06;0.00042650968507295924
6.37425e-06;0.0004664426308224684
6.37450e-06;0.0005048647989264062
6.37475e-06;0.0005414892717740514
6.37500e-06;0.0005760290340808798
6.37525e-06;0.00060819711984795
6.37550e-06;0.000637713618442464
6.37575e-06;0.0006643787238412738
6.37600e-06;0.0006881245022976983
6.37625e-06;0.0007089245889451809
6.37650e-06;0.0007267262502042406
6.37675e-06;0.0007414666316487481
6.37700e-06;0.0007530825757362866
6.37725e-06;0.0007599491614632254
6.37750e-06;0.0007666312845207696
6.37775e-06;0.0007670932978651076
6.37800e-06;0.0007673074729534395
6.37825e-06;0.0007615956708671221
6.37850e-06;0.0007556477501405098
6.37875e-06;0.0007440902637292313
6.37900e-06;0.0007323092659909891
6.37925e-06;0.0007152168374810654
6.37950e-06;0.0006979127767332184
6.37975e-06;0.0006756915051020087
6.38000e-06;0.000653274308796464
6.38025e-06;0.0006265727525762986
6.38050e-06;0.0005997004874236654
6.38075e-06;0.0005691907076411478
6.38100e-06;0.0005385359922670357
6.38125e-06;0.000504879020254208
6.38150e-06;0.000471102424298379
6.38175e-06;0.00043461750832209567
6.38200e-06;0.00039802468021223525
6.38225e-06;0.00036143185210225085
6.38250e-06;0.00032328655985630725
6.38275e-06;0.0002850794101799495
6.38300e-06;0.00024687226050346237
6.38325e-06;0.0002087854666114812
6.38350e-06;0.00017070346825659682
6.38375e-06;0.00013334235911395862
6.38400e-06;9.680995165867081e-05
6.38425e-06;6.135946859526289e-05
6.38450e-06;2.7246593140804156e-05
6.38475e-06;-5.274543341440732e-06
6.38500e-06;-3.594988753749955e-05
6.38525e-06;-6.452542055448075e-05
6.38550e-06;-9.077000413376241e-05
6.38575e-06;-0.00011467027335116817
6.38600e-06;-0.00013646805783403522
6.38625e-06;-0.00015631220888140428
6.38650e-06;-0.0001741553956854518
6.38675e-06;-0.00018990594773435435
6.38700e-06;-0.0002034707467650336
6.38725e-06;-0.00021475673104924612
6.38750e-06;-0.00022368514328021308
6.38775e-06;-0.00023031366683379012
6.38800e-06;-0.00023485982609399139
6.38825e-06;-0.00023748289670651583
6.38850e-06;-0.00023821923712685257
6.38875e-06;-0.00023707745978049821
6.38900e-06;-0.0002340652626306172
6.38925e-06;-0.00022919037162898108
6.38950e-06;-0.0002224694702049928
6.38975e-06;-0.00021400474007133907
6.39000e-06;-0.0002039984560981412
6.39025e-06;-0.0001926163585680227
6.39050e-06;-0.00017994724712853003
6.39075e-06;-0.00016606249173176565
6.39100e-06;-0.00015103291543403855
6.39125e-06;-0.00013492931441808968
6.39150e-06;-0.00011782813745520528
6.39175e-06;-9.985935594021265e-05
6.39200e-06;-8.121563228413862e-05
6.39225e-06;-6.206674746010954e-05
6.39250e-06;-4.253424726217327e-05
6.39275e-06;-2.2728772891772647e-05
6.39300e-06;-2.760600790730991e-06
6.39325e-06;1.7259992581054277e-05
6.39350e-06;3.72192156012281e-05
6.39375e-06;5.6969762240603904e-05
