Time(s);Current(A)
7.50000e-07;0.0142542673655077
7.50250e-07;0.014261249401039027
7.50500e-07;0.014279145050871056
7.50750e-07;0.014297040700703085
7.51000e-07;0.014314936350535113
7.51250e-07;0.014332832000367134
7.51500e-07;0.014350727650199162
7.51750e-07;0.014368623300031191
7.52000e-07;0.01438651894986322
7.52250e-07;0.014404414599695249
7.52500e-07;0.01442231024952727
7.52750e-07;0.014440205899359298
7.53000e-07;0.014458101549191327
7.53250e-07;0.014475997199023356
7.53500e-07;0.014494246129673597
7.53750e-07;0.014513543778181412
7.54000e-07;0.01453284142668922
7.54250e-07;0.014552139075197035
7.54500e-07;0.01457143672370485
7.54750e-07;0.014590734372212665
7.55000e-07;0.01461003202072048
7.55250e-07;0.014629329669228296
7.55500e-07;0.014648627317736102
7.55750e-07;0.014667924966243917
7.56000e-07;0.014687222614751732
7.56250e-07;0.014706520263259549
7.56500e-07;0.014725817911767363
7.56750e-07;0.01474187809148734
7.57000e-07;0.01474832781075741
7.57250e-07;0.01475477753002748
7.57500e-07;0.014761227249297551
7.57750e-07;0.01476767696856762
7.58000e-07;0.014774126687837692
7.58250e-07;0.014780576407107759
7.58500e-07;0.014787026126377828
7.58750e-07;0.0147934758456479
7.59000e-07;0.01479992556491797
7.59250e-07;0.01480637528418804
7.59500e-07;0.014805254134462962
7.59750e-07;0.014801635990609277
7.60000e-07;0.01479801784675559
7.60250e-07;0.014794399702901903
7.60500e-07;0.014790781559048215
7.60750e-07;0.014787163415194529
7.61000e-07;0.014783545271340843
7.61250e-07;0.014779927127487155
7.61500e-07;0.014776308983633468
7.61750e-07;0.01477269083977978
7.62000e-07;0.014768110504494912
7.62250e-07;0.014760260990637574
7.62500e-07;0.01475118576954938
7.62750e-07;0.014742110548461184
7.63000e-07;0.014733035327372985
7.63250e-07;0.014723960106284788
7.63500e-07;0.01471488488519659
7.63750e-07;0.014705809664108394
7.64000e-07;0.0146967344430202
7.64250e-07;0.014687659221932001
7.64500e-07;0.014678685355712508
7.64750e-07;0.014670012362496258
7.65000e-07;0.01466133936928001
7.65250e-07;0.014652666376063763
7.65500e-07;0.014643993382847513
7.65750e-07;0.014635320389631263
7.66000e-07;0.014626647396415015
7.66250e-07;0.014617974403198765
7.66500e-07;0.014609301409982515
7.66750e-07;0.014600825142661415
7.67000e-07;0.014592932858247552
7.67250e-07;0.014585040573833688
7.67500e-07;0.014577148289419825
7.67750e-07;0.01456925600500596
7.68000e-07;0.014561363720592097
7.68250e-07;0.014553471436178236
7.68500e-07;0.014545579151764373
7.68750e-07;0.014537686867350508
7.69000e-07;0.014529794582936646
7.69250e-07;0.014521902298522781
7.69500e-07;0.014514010014108921
7.69750e-07;0.014506117729695057
7.70000e-07;0.014498225445281194
7.70250e-07;0.01449033316086733
7.70500e-07;0.014481529372651458
7.70750e-07;0.014472424955849446
7.71000e-07;0.014463320539047439
7.71250e-07;0.014454216122245426
7.71500e-07;0.014445111705443414
7.71750e-07;0.014436007288641403
7.72000e-07;0.01442690287183939
7.72250e-07;0.014417798455037384
7.72500e-07;0.014408694038235371
7.72750e-07;0.014399589621433359
7.73000e-07;0.014390485204631348
7.73250e-07;0.014381380787829336
7.73500e-07;0.014372276371027323
7.73750e-07;0.014363171954225316
7.74000e-07;0.014354365316726729
7.74250e-07;0.014346442640250165
7.74500e-07;0.014338519963773598
7.74750e-07;0.014330597287297034
7.75000e-07;0.014322674610820468
7.75250e-07;0.014314751934343907
7.75500e-07;0.01430682925786734
7.75750e-07;0.014298906581390776
7.76000e-07;0.014290983904914211
7.76250e-07;0.014283061228437645
7.76500e-07;0.014275138551961084
7.76750e-07;0.0142690738007567
7.77000e-07;0.014268524320437678
7.77250e-07;0.014267974840118654
7.77500e-07;0.014267425359799631
7.77750e-07;0.014266875879480608
7.78000e-07;0.014266326399161587
7.78250e-07;0.014265776918842564
7.78500e-07;0.01426522743852354
7.78750e-07;0.014264677958204517
7.79000e-07;0.014264128477885494
7.79250e-07;0.014263578997566471
7.79500e-07;0.014265917114066988
7.79750e-07;0.014276827092367321
7.80000e-07;0.014287737070667654
7.80250e-07;0.014298647048967987
7.80500e-07;0.01430955702726832
7.80750e-07;0.014320467005568648
7.81000e-07;0.014331376983868981
7.81250e-07;0.014342286962169314
7.81500e-07;0.014353196940469647
7.81750e-07;0.01436410691876998
7.82000e-07;0.014375016897070313
7.82250e-07;0.014385926875370643
7.82500e-07;0.014396836853670976
7.82750e-07;0.014407746831971309
7.83000e-07;0.014419212561564459
7.83250e-07;0.014432328044767564
7.83500e-07;0.014445443527970668
7.83750e-07;0.014458559011173768
7.84000e-07;0.014471674494376871
7.84250e-07;0.014484789977579977
7.84500e-07;0.01449790546078308
7.84750e-07;0.014511020943986186
7.85000e-07;0.014524136427189284
7.85250e-07;0.01453725191039239
7.85500e-07;0.014550367393595495
7.85750e-07;0.014563482876798598
7.86000e-07;0.014576598360001703
7.86250e-07;0.014589713843204807
7.86500e-07;0.01460148534745818
7.86750e-07;0.01460926723593795
7.87000e-07;0.014617049124417723
7.87250e-07;0.014624831012897493
7.87500e-07;0.014632612901377266
7.87750e-07;0.014640394789857035
7.88000e-07;0.014648176678336806
7.88250e-07;0.014655958566816578
7.88500e-07;0.014663740455296349
7.88750e-07;0.014671522343776121
7.89000e-07;0.014679304232255892
7.89250e-07;0.014687086120735661
7.89500e-07;0.014695112214518746
7.89750e-07;0.014703218851131057
7.90000e-07;0.014711325487743369
7.90250e-07;0.014719432124355681
7.90500e-07;0.014727538760967994
7.90750e-07;0.0147356453975803
7.91000e-07;0.014743752034192613
7.91250e-07;0.014751858670804925
7.91500e-07;0.014759965307417237
7.91750e-07;0.014768071944029548
7.92000e-07;0.014776178580641857
7.92250e-07;0.014784119157333832
7.92500e-07;0.014791566783390175
7.92750e-07;0.014799014409446516
7.93000e-07;0.014806462035502859
7.93250e-07;0.0148139096615592
7.93500e-07;0.01482135728761554
7.93750e-07;0.014828804913671882
7.94000e-07;0.014836252539728223
7.94250e-07;0.014843700165784566
7.94500e-07;0.014851147791840909
7.94750e-07;0.01485859541789725
7.95000e-07;0.01486604304395359
7.95250e-07;0.01487349067000993
7.95500e-07;0.014880938296066274
7.95750e-07;0.014888385922122617
7.96000e-07;0.014890104916796822
7.96250e-07;0.014889934516880239
7.96500e-07;0.014889764116963656
7.96750e-07;0.014889593717047072
7.97000e-07;0.01488942331713049
7.97250e-07;0.014889252917213908
7.97500e-07;0.014889082517297324
7.97750e-07;0.014888912117380741
7.98000e-07;0.014888741717464158
7.98250e-07;0.014888571317547575
7.98500e-07;0.014888400917630992
7.98750e-07;0.014888230517714408
7.99000e-07;0.014888060117797825
7.99250e-07;0.014887889717881242
7.99500e-07;0.014885122561804564
7.99750e-07;0.014874646907511575
8.00000e-07;0.014864171253218586
8.00250e-07;0.014853695598925595
8.00500e-07;0.014843219944632611
8.00750e-07;0.01483274429033962
8.01000e-07;0.014822268636046632
8.01250e-07;0.014811792981753643
8.01500e-07;0.014801317327460652
8.01750e-07;0.014790841673167663
8.02000e-07;0.014780366018874678
8.02250e-07;0.014769890364581689
8.02500e-07;0.0147594147102887
8.02750e-07;0.014748939055995709
8.03000e-07;0.014736518325746552
8.03250e-07;0.014723456078222997
8.03500e-07;0.014710393830699447
8.03750e-07;0.014697331583175892
8.04000e-07;0.014684269335652337
8.04250e-07;0.014671207088128782
8.04500e-07;0.014658144840605226
8.04750e-07;0.014645082593081676
8.05000e-07;0.014632020345558121
8.05250e-07;0.014618958098034566
8.05500e-07;0.014605895850511011
8.05750e-07;0.014592833602987456
8.06000e-07;0.0145797713554639
8.06250e-07;0.014567004504666952
8.06500e-07;0.01455511454218748
8.06750e-07;0.014543224579708008
8.07000e-07;0.014531334617228536
8.07250e-07;0.014519444654749063
8.07500e-07;0.014507554692269596
8.07750e-07;0.014495664729790124
8.08000e-07;0.014483774767310652
8.08250e-07;0.014470405335348553
8.08500e-07;0.014452644082528061
8.08750e-07;0.01443488282970757
8.09000e-07;0.014417121576887085
8.09250e-07;0.014399360324066593
8.09500e-07;0.014381599071246101
8.09750e-07;0.01436383781842561
8.10000e-07;0.014346076565605118
8.10250e-07;0.014326582940302014
8.10500e-07;0.01430194674890141
8.10750e-07;0.014277310557500797
8.11000e-07;0.014252674366100181
8.11250e-07;0.014228038174699567
8.11500e-07;0.014203401983298952
8.11750e-07;0.014178765791898348
8.12000e-07;0.014154129600497733
8.12250e-07;0.014129493409097119
8.12500e-07;0.014104857217696503
8.12750e-07;0.01408022102629589
8.13000e-07;0.014055428304595096
8.13250e-07;0.014030170921037222
8.13500e-07;0.01400491353747934
8.13750e-07;0.013979656153921455
8.14000e-07;0.013954398770363573
8.14250e-07;0.01392914138680569
8.14500e-07;0.013903884003247807
8.14750e-07;0.013878626619689935
8.15000e-07;0.01385336923613205
8.15250e-07;0.013828111852574168
8.15500e-07;0.013802854469016284
8.15750e-07;0.013779010139257678
8.16000e-07;0.013759360474696732
8.16250e-07;0.013739710810135778
8.16500e-07;0.013722960945656022
8.16750e-07;0.013714819168488305
8.17000e-07;0.013706677391320587
8.17250e-07;0.013698535614152869
8.17500e-07;0.013690393836985155
8.17750e-07;0.013682252059817438
8.18000e-07;0.013679165366504285
8.18250e-07;0.013691084743255071
8.18500e-07;0.013703004120005859
8.18750e-07;0.013714923496756647
8.19000e-07;0.013726842873507429
8.19250e-07;0.013738762250258215
8.19500e-07;0.013756632737200588
8.19750e-07;0.013792169157896512
8.20000e-07;0.013827705578592435
8.20250e-07;0.013863241999288343
8.20500e-07;0.013898778419984265
8.20750e-07;0.013934314840680188
8.21000e-07;0.013969851261376112
8.21250e-07;0.014005387682072034
8.21500e-07;0.014040924102767957
8.21750e-07;0.014089278382314167
8.22000e-07;0.014141860197472786
8.22250e-07;0.014194442012631403
8.22500e-07;0.014247023827790022
8.22750e-07;0.01429960564294864
8.23000e-07;0.014352187458107258
8.23250e-07;0.014404769273265854
8.23500e-07;0.014457351088424473
8.23750e-07;0.014509854250918306
8.24000e-07;0.014562123932142108
8.24250e-07;0.014614393613365908
8.24500e-07;0.014666663294589688
8.24750e-07;0.01471893297581349
8.25000e-07;0.01477120265703729
8.25250e-07;0.014823472338261092
8.25500e-07;0.014871562435849684
8.25750e-07;0.014907245395065665
8.26000e-07;0.014942928354281633
8.26250e-07;0.014978611313497614
8.26500e-07;0.015014294272713596
8.26750e-07;0.015049977231929577
8.27000e-07;0.015085660191145558
8.27250e-07;0.015114500338943994
8.27500e-07;0.015123027528437173
8.27750e-07;0.015131554717930353
8.28000e-07;0.01514008190742353
8.28250e-07;0.01514860909691671
8.28500e-07;0.015157136286409889
8.28750e-07;0.015165663475903065
8.29000e-07;0.015174190665396244
8.29250e-07;0.015182717854889423
8.29500e-07;0.015170467622286025
8.29750e-07;0.015151364662337597
8.30000e-07;0.015132261702389169
8.30250e-07;0.01511315874244075
8.30500e-07;0.015094055782492321
8.30750e-07;0.015074952822543893
8.31000e-07;0.015055849862595465
8.31250e-07;0.015036746902647037
8.31500e-07;0.015012919124571113
8.31750e-07;0.014975065673746296
8.32000e-07;0.014937212222921478
8.32250e-07;0.014899358772096662
8.32500e-07;0.014861505321271845
8.32750e-07;0.014823651870447027
8.33000e-07;0.014785798419622227
8.33250e-07;0.01474794496879741
8.33500e-07;0.014710091517972593
8.33750e-07;0.014672238067147776
8.34000e-07;0.014634384616322958
8.34250e-07;0.014596531165498142
8.34500e-07;0.01456048229156598
8.34750e-07;0.014529790323288883
8.35000e-07;0.014499098355011786
8.35250e-07;0.014468406386734689
8.35500e-07;0.014437714418457592
8.35750e-07;0.014407022450180508
8.36000e-07;0.014376330481903411
8.36250e-07;0.014345638513626314
8.36500e-07;0.014314946545349217
8.36750e-07;0.01428425457707212
8.37000e-07;0.014253562608795024
8.37250e-07;0.014222870640517941
8.37500e-07;0.014199030158367048
8.37750e-07;0.014195528385486494
8.38000e-07;0.01419202661260594
8.38250e-07;0.014188524839725386
8.38500e-07;0.014185023066844831
8.38750e-07;0.014181521293964279
8.39000e-07;0.014178019521083725
8.39250e-07;0.01417451774820317
8.39500e-07;0.014176729096600876
8.39750e-07;0.014195899906138048
8.40000e-07;0.014215070715675213
8.40250e-07;0.014234241525212386
8.40500e-07;0.014253412334749558
8.40750e-07;0.01427258314428673
8.41000e-07;0.014291753953823903
8.41250e-07;0.014310924763361075
8.41500e-07;0.014333991182608627
8.41750e-07;0.0143686217606199
8.42000e-07;0.014403252338631175
8.42250e-07;0.014437882916642449
8.42500e-07;0.014472513494653724
8.42750e-07;0.014507144072664999
8.43000e-07;0.014541774650676258
8.43250e-07;0.014576405228687531
8.43500e-07;0.014611035806698806
8.43750e-07;0.014645666384710081
8.44000e-07;0.014679696421434782
8.44250e-07;0.0147119437449776
8.44500e-07;0.014744191068520434
8.44750e-07;0.014776438392063268
8.45000e-07;0.0148086857156061
8.45250e-07;0.014840933039148935
8.45500e-07;0.014873180362691767
8.45750e-07;0.014905427686234587
8.46000e-07;0.014937675009777421
8.46250e-07;0.014969922333320253
8.46500e-07;0.014996066916279565
8.46750e-07;0.01500409544905708
8.47000e-07;0.01501212398183459
8.47250e-07;0.015020152514612103
8.47500e-07;0.015028181047389616
8.47750e-07;0.015036209580167131
8.48000e-07;0.015044238112944645
8.48250e-07;0.015052266645722158
8.48500e-07;0.01506029517849967
8.48750e-07;0.015068323711277183
8.49000e-07;0.015076352244054696
8.49250e-07;0.015084380776832211
8.49500e-07;0.015092409309609724
8.49750e-07;0.015100437842387238
8.50000e-07;0.015108466375164747
8.50250e-07;0.015116494907942262
8.50500e-07;0.015124523440719776
8.50750e-07;0.015132551973497289
8.51000e-07;0.015140580506274804
8.51250e-07;0.015148609039052314
8.51500e-07;0.015156637571829827
8.51750e-07;0.01516092558136803
8.52000e-07;0.015154109807977443
8.52250e-07;0.015147294034586853
8.52500e-07;0.015140478261196265
8.52750e-07;0.01513366248780568
8.53000e-07;0.015126846714415092
8.53250e-07;0.015120030941024503
8.53500e-07;0.015113215167633915
8.53750e-07;0.015106399394243327
8.54000e-07;0.015099583620852739
8.54250e-07;0.015092767847462153
8.54500e-07;0.015085952074071565
8.54750e-07;0.015079136300680977
8.55000e-07;0.015072320527290389
8.55250e-07;0.015065504753899799
8.55500e-07;0.015058688980509214
8.55750e-07;0.015051873207118626
8.56000e-07;0.015045057433728038
8.56250e-07;0.015038241660337449
8.56500e-07;0.01503142588694686
8.56750e-07;0.015024610113556273
8.57000e-07;0.015019249074016548
8.57250e-07;0.01501820642735018
8.57500e-07;0.015017163780683813
8.57750e-07;0.015016121134017445
8.58000e-07;0.015015078487351077
8.58250e-07;0.01501403584068471
8.58500e-07;0.015012993194018342
8.58750e-07;0.015011950547351974
8.59000e-07;0.015010907900685606
8.59250e-07;0.015009865254019239
8.59500e-07;0.015008822607352871
8.59750e-07;0.015007779960686503
8.60000e-07;0.015006737314020135
8.60250e-07;0.015005694667353768
8.60500e-07;0.0150046520206874
8.60750e-07;0.01500516866926309
8.61000e-07;0.015010314102311498
8.61250e-07;0.015015459535359904
8.61500e-07;0.01502060496840831
8.61750e-07;0.015025750401456718
8.62000e-07;0.015030895834505125
8.62250e-07;0.015036041267553533
8.62500e-07;0.015041186700601939
8.62750e-07;0.015046332133650345
8.63000e-07;0.015051477566698751
8.63250e-07;0.015056622999747159
8.63500e-07;0.015061768432795566
8.63750e-07;0.015066913865843974
8.64000e-07;0.015072059298892378
8.64250e-07;0.015077204731940786
8.64500e-07;0.015082145239460963
8.64750e-07;0.015086477423375988
8.65000e-07;0.015090809607291015
8.65250e-07;0.015095141791206041
8.65500e-07;0.015099473975121066
8.65750e-07;0.01510380615903609
8.66000e-07;0.015108138342951117
8.66250e-07;0.015112470526866144
8.66500e-07;0.01511680271078117
8.66750e-07;0.015113101425045235
8.67000e-07;0.01510675057205789
8.67250e-07;0.015100399719070543
8.67500e-07;0.015094048866083199
8.67750e-07;0.015087698013095853
8.68000e-07;0.015081347160108508
8.68250e-07;0.015074996307121166
8.68500e-07;0.01506864545413382
8.68750e-07;0.015057671770598462
8.69000e-07;0.01503297516552538
8.69250e-07;0.015008278560452299
8.69500e-07;0.01498358195537922
8.69750e-07;0.014958885350306149
8.70000e-07;0.014934188745233067
8.70250e-07;0.014909492140159986
8.70500e-07;0.014884795535086905
8.70750e-07;0.014860098930013823
8.71000e-07;0.014831891696849318
8.71250e-07;0.014793263126941706
8.71500e-07;0.014754634557034093
8.71750e-07;0.01471600598712648
8.72000e-07;0.014677377417218869
8.72250e-07;0.014638748847311256
8.72500e-07;0.01460012027740366
8.72750e-07;0.014561491707496049
8.73000e-07;0.014522863137588436
8.73250e-07;0.014483468213271037
8.73500e-07;0.014441798357755876
8.73750e-07;0.014400128502240714
8.74000e-07;0.01435845864672557
8.74250e-07;0.014316788791210407
8.74500e-07;0.014275118935695245
8.74750e-07;0.014234950902752683
8.75000e-07;0.014199241046053773
8.75250e-07;0.014163531189354877
8.75500e-07;0.014127821332655967
8.75750e-07;0.014092111475957058
8.76000e-07;0.014056401619258146
8.76250e-07;0.014022893375702911
8.76500e-07;0.013995920644127541
8.76750e-07;0.013968947912552184
8.77000e-07;0.013941975180976814
8.77250e-07;0.013915002449401444
8.77500e-07;0.013888029717826074
8.77750e-07;0.013861056986250704
8.78000e-07;0.013834084254675335
8.78250e-07;0.013807282046082524
8.78500e-07;0.013780986036772934
8.78750e-07;0.013754690027463344
8.79000e-07;0.013728394018153754
8.79250e-07;0.013702098008844164
8.79500e-07;0.013675801999534585
8.79750e-07;0.013649505990224995
8.80000e-07;0.013623209980915405
8.80250e-07;0.013596472011796389
8.80500e-07;0.013568422080293128
8.80750e-07;0.01354037214878987
8.81000e-07;0.013512322217286621
8.81250e-07;0.013484272285783363
8.81500e-07;0.013456222354280104
8.81750e-07;0.013428172422776845
8.82000e-07;0.013400122491273585
8.82250e-07;0.013372072559770338
8.82500e-07;0.013344022628267078
8.82750e-07;0.013315972696763819
8.83000e-07;0.01328792276526056
8.83250e-07;0.013259872833757302
8.83500e-07;0.013233001564041433
8.83750e-07;0.01320962916434909
8.84000e-07;0.013186256764656738
8.84250e-07;0.013162884364964387
8.84500e-07;0.013139511965272034
8.84750e-07;0.013116139565579683
8.85000e-07;0.01309276716588733
8.85250e-07;0.013069394766194987
8.85500e-07;0.013046022366502636
8.85750e-07;0.013022649966810284
8.86000e-07;0.012999277567117933
8.86250e-07;0.01297590516742558
8.86500e-07;0.012952532767733237
8.86750e-07;0.0129315074440048
8.87000e-07;0.012917449440181838
8.87250e-07;0.012903391436358875
8.87500e-07;0.012889333432535913
8.87750e-07;0.01287527542871295
8.88000e-07;0.012861217424889994
8.88250e-07;0.01284715942106703
8.88500e-07;0.012833101417244069
8.88750e-07;0.012819043413421107
8.89000e-07;0.012804985409598143
8.89250e-07;0.012790927405775181
8.89500e-07;0.012776869401952225
8.89750e-07;0.012762811398129263
8.90000e-07;0.0127487533943063
8.90250e-07;0.012734695390483337
8.90500e-07;0.012721503223729015
8.90750e-07;0.012710881303501015
8.91000e-07;0.012700259383273009
8.91250e-07;0.012689637463045005
8.91500e-07;0.012679015542817001
8.91750e-07;0.012668393622588996
8.92000e-07;0.012657771702360992
8.92250e-07;0.012647149782132992
8.92500e-07;0.012636527861904988
8.92750e-07;0.012625905941676983
8.93000e-07;0.012615284021448979
8.93250e-07;0.012604662101220973
8.93500e-07;0.01259404018099297
8.93750e-07;0.01258341826076497
8.94000e-07;0.012572796340536966
8.94250e-07;0.012562641148136497
8.94500e-07;0.012553871442244888
8.94750e-07;0.012545101736353278
8.95000e-07;0.012536332030461674
8.95250e-07;0.012527562324570064
8.95500e-07;0.012519238225475984
8.95750e-07;0.012512236914889055
8.96000e-07;0.012505235604302124
8.96250e-07;0.012498234293715195
8.96500e-07;0.01249123298312827
8.96750e-07;0.01248770820852224
8.97000e-07;0.012494503567867821
8.97250e-07;0.012501298927213404
8.97500e-07;0.012508094286558987
8.97750e-07;0.012514889645904569
8.98000e-07;0.012521685005250149
8.98250e-07;0.012528480364595732
8.98500e-07;0.01255240430171619
8.98750e-07;0.012581977518750532
8.99000e-07;0.012611550735784873
8.99250e-07;0.012641123952819201
8.99500e-07;0.01267069716985354
8.99750e-07;0.012700270386887882
9.00000e-07;0.012735681030502643
9.00250e-07;0.012788420136867077
9.00500e-07;0.012841159243231511
9.00750e-07;0.012893898349595924
9.01000e-07;0.012946637455960358
9.01250e-07;0.012999376562324793
9.01500e-07;0.013052115668689227
9.01750e-07;0.013104854775053661
