Time(s);Current(A)
1.47500e-05;-0.004459736024964211
1.47503e-05;-0.004463114687863483
1.47505e-05;-0.004467105405095683
1.47508e-05;-0.0044720043877365485
1.47510e-05;-0.004477926667988528
1.47513e-05;-0.004485270710105603
1.47515e-05;-0.004494216580836216
1.47518e-05;-0.004503162451566828
1.47520e-05;-0.004512108322297379
1.47523e-05;-0.004521054193027991
1.47525e-05;-0.004533378488638445
1.47528e-05;-0.004545806470995174
1.47530e-05;-0.0045582344533519874
1.47533e-05;-0.0045706624357088
1.47535e-05;-0.004584420174961758
1.47538e-05;-0.004599676085390845
1.47540e-05;-0.004614931995819933
1.47543e-05;-0.004630187906248917
1.47545e-05;-0.004645443816678005
1.47548e-05;-0.004660699727107092
1.47550e-05;-0.004677042082023813
1.47553e-05;-0.004693417780850344
1.47555e-05;-0.004709793479676873
1.47558e-05;-0.004726169178503292
1.47560e-05;-0.004742544877329821
1.47563e-05;-0.004758637335416056
1.47565e-05;-0.004774410680200924
1.47568e-05;-0.00478978682309316
1.47570e-05;-0.004804715458302959
1.47573e-05;-0.004818887132684094
1.47575e-05;-0.0048322059768235795
1.47578e-05;-0.0048455248209631555
1.47580e-05;-0.0048577974519585865
1.47583e-05;-0.0048688913664673315
1.47585e-05;-0.004879620923782382
1.47588e-05;-0.004889939977909121
1.47590e-05;-0.0049009531500070844
1.47593e-05;-0.0049127483504145895
1.47595e-05;-0.0049252680318928686
1.47598e-05;-0.004938603950279555
1.47600e-05;-0.004951939868666332
1.47603e-05;-0.004965947935570202
1.47605e-05;-0.0049807132788884855
1.47608e-05;-0.004995478622206868
1.47610e-05;-0.005012329348450199
1.47613e-05;-0.0050315295722585555
1.47615e-05;-0.0050507297960670425
1.47618e-05;-0.00506993001987553
1.47620e-05;-0.005089130243683887
1.47623e-05;-0.005108330467492374
1.47625e-05;-0.005129699499761095
1.47628e-05;-0.00515351202100999
1.47630e-05;-0.0051773245422590455
1.47633e-05;-0.005201137063508101
1.47635e-05;-0.005224949584756996
1.47638e-05;-0.005248762106006052
1.47640e-05;-0.005273751023311038
1.47643e-05;-0.0053000653277360255
1.47645e-05;-0.005326379632161192
1.47648e-05;-0.005352693936586358
1.47650e-05;-0.0053790082410113465
1.47653e-05;-0.0054053225454365125
1.47655e-05;-0.0054316368498616785
1.47658e-05;-0.005456638098121391
1.47660e-05;-0.005481599047565076
1.47663e-05;-0.00550655999700893
1.47665e-05;-0.005531520946452783
1.47668e-05;-0.005556481895896468
1.47670e-05;-0.005581442845340322
1.47673e-05;-0.005604546194057563
1.47675e-05;-0.005625556676120316
1.47678e-05;-0.005646567158183212
1.47680e-05;-0.00566595770319969
1.47683e-05;-0.00568352314544875
1.47685e-05;-0.005700578947452533
1.47688e-05;-0.005717060563055503
1.47690e-05;-0.005735055881350681
1.47693e-05;-0.0057547566134328095
1.47695e-05;-0.005774457345514938
1.47698e-05;-0.0057955162423926464
1.47700e-05;-0.0058181053162195155
1.47703e-05;-0.0058406943900463845
1.47705e-05;-0.005866386636644377
1.47708e-05;-0.005895575074175005
1.47710e-05;-0.005924763511705632
1.47713e-05;-0.005953951949236062
1.47715e-05;-0.00598314038676669
1.47718e-05;-0.006012328824297318
1.47720e-05;-0.006041517261827748
1.47723e-05;-0.00607983599588957
1.47725e-05;-0.006118434946555301
1.47728e-05;-0.00615703389722077
1.47730e-05;-0.006195632847886501
1.47733e-05;-0.006234231798552231
1.47735e-05;-0.0062728307492177
1.47738e-05;-0.006314094083517949
1.47740e-05;-0.006358359246782053
1.47743e-05;-0.006402624410046158
1.47745e-05;-0.006446889573309962
1.47748e-05;-0.006491154736574066
1.47750e-05;-0.00653541989983817
1.47753e-05;-0.006579685063101974
1.47755e-05;-0.006623115439241504
1.47758e-05;-0.006665605302109268
1.47760e-05;-0.006708095164976745
1.47763e-05;-0.006750585027844509
1.47765e-05;-0.006793074890712273
1.47768e-05;-0.006835564753579749
1.47770e-05;-0.006878054616447513
1.47773e-05;-0.006914872536534428
1.47775e-05;-0.00694530015985525
1.47778e-05;-0.006975727783176278
1.47780e-05;-0.007006155406497306
1.47783e-05;-0.007036583029818129
1.47785e-05;-0.007067010653139157
1.47788e-05;-0.007097438276460186
1.47790e-05;-0.007127865899781007
1.47793e-05;-0.007158293523102036
1.47795e-05;-0.007180083989576786
1.47798e-05;-0.007201609374325324
1.47800e-05;-0.007223134759074007
1.47803e-05;-0.00724466014382269
1.47805e-05;-0.007266185528571227
1.47808e-05;-0.007287710913319911
1.47810e-05;-0.007309236298068594
1.47813e-05;-0.007330761682817132
1.47815e-05;-0.007351059464345517
1.47818e-05;-0.007369974166179192
1.47820e-05;-0.00738888886801274
1.47823e-05;-0.007407803569846417
1.47825e-05;-0.007426718271680093
1.47828e-05;-0.0074456329735137685
1.47830e-05;-0.0074645476753473165
1.47833e-05;-0.007483462377180993
1.47835e-05;-0.007502377079014669
1.47838e-05;-0.007521291780848217
1.47840e-05;-0.007540206482681893
1.47843e-05;-0.007559121184515569
1.47845e-05;-0.007575171248680282
1.47848e-05;-0.007591127588087074
1.47850e-05;-0.007607083927493867
1.47853e-05;-0.007623040266900551
1.47855e-05;-0.007638996606307343
1.47858e-05;-0.007654952945714136
1.47860e-05;-0.00767090928512082
1.47863e-05;-0.007686865624527612
1.47865e-05;-0.007702821963934405
1.47868e-05;-0.007718778303341089
1.47870e-05;-0.007734734642747881
1.47873e-05;-0.007743085323110937
1.47875e-05;-0.009750763291700635
1.47878e-05;-0.016322403344405528
1.47880e-05;-0.019628686183552197
1.47883e-05;-0.018273464056143482
1.47885e-05;-0.01579223268163392
1.47888e-05;-0.011130488603627742
1.47890e-05;-0.0073889846527805825
1.47893e-05;-0.0074762686060610775
1.47895e-05;-0.00896762463626573
1.47898e-05;-0.012094752420226115
1.47900e-05;-0.015098844283660524
1.47903e-05;-0.014586734226439357
1.47905e-05;-0.012601243866657515
1.47908e-05;-0.010119209666278519
1.47910e-05;-0.007566018704186179
1.47913e-05;-0.0068652575931054845
1.47915e-05;-0.007650346206121106
1.47918e-05;-0.008504115782409062
1.47920e-05;-0.010032653341085756
1.47923e-05;-0.011103762392793912
1.47925e-05;-0.010765042507012552
1.47928e-05;-0.009645233389829486
1.47930e-05;-0.008304877093505766
1.47933e-05;-0.0073242455865192
1.47935e-05;-0.007317006153290357
1.47938e-05;-0.00795546108551236
1.47940e-05;-0.008918717509168608
1.47943e-05;-0.009594862378118726
1.47945e-05;-0.00938742539592597
1.47948e-05;-0.008690360266401133
1.47950e-05;-0.00785486508469505
1.47953e-05;-0.007244458079952006
1.47955e-05;-0.007243534924195189
1.47958e-05;-0.007646812396692975
1.47960e-05;-0.008253283337710153
1.47963e-05;-0.00867967093962013
1.47965e-05;-0.008552400208652389
1.47968e-05;-0.008118304352862333
1.47970e-05;-0.007597408370252199
1.47973e-05;-0.007217431189942882
1.47975e-05;-0.007219149062682091
1.47978e-05;-0.007473955047223609
1.47980e-05;-0.007855933187398358
1.47983e-05;-0.008124992026194237
1.47985e-05;-0.00804698433996462
1.47988e-05;-0.007776071690862161
1.47990e-05;-0.0074495994627619576
1.47993e-05;-0.007210081899393543
1.47995e-05;-0.007208399444784744
1.47998e-05;-0.007364050846806686
1.48000e-05;-0.007598226321459449
1.48003e-05;-0.007760608094039709
1.48005e-05;-0.007704613674372032
1.48008e-05;-0.007526899679889282
1.48010e-05;-0.007313580541296082
1.48013e-05;-0.007153998825720788
1.48015e-05;-0.007142730528975661
1.48018e-05;-0.00722941147289122
1.48020e-05;-0.007364741574063818
1.48023e-05;-0.00745463453711659
1.48025e-05;-0.0074073526185714144
1.48028e-05;-0.007283523196768088
1.48030e-05;-0.007137165139000376
1.48033e-05;-0.007024315082378513
1.48035e-05;-0.007004281346361035
1.48038e-05;-0.007045580534124203
1.48040e-05;-0.007117399286165621
1.48043e-05;-0.007160874143666703
1.48045e-05;-0.00711861820971782
1.48048e-05;-0.007028686296696847
1.48050e-05;-0.006924989924897465
1.48053e-05;-0.0068427018918178935
1.48055e-05;-0.006819041501160573
1.48058e-05;-0.006834354867986809
1.48060e-05;-0.006869409733155415
1.48063e-05;-0.006887405756873428
1.48065e-05;-0.006852470363206389
1.48068e-05;-0.006788516934799686
1.48070e-05;-0.006716860940327867
1.48073e-05;-0.006659606138943475
1.48075e-05;-0.006640135310426258
1.48078e-05;-0.006646207136869882
1.48080e-05;-0.0066658437060885985
1.48083e-05;-0.006676038241610233
1.48085e-05;-0.006654066383978991
1.48088e-05;-0.006614364300499736
1.48090e-05;-0.006571102271432908
1.48093e-05;-0.00653062797170018
1.48095e-05;-0.006515472721187289
1.48098e-05;-0.006515047638196551
1.48100e-05;-0.006520461649153416
1.48103e-05;-0.006523301403224088
1.48105e-05;-0.006502930817169764
1.48108e-05;-0.006470665524682711
1.48110e-05;-0.0064352608313472965
1.48113e-05;-0.006401999278702069
1.48115e-05;-0.006386930712275535
1.48118e-05;-0.006372715692120996
1.48120e-05;-0.006365746372464505
1.48123e-05;-0.006356670276045465
1.48125e-05;-0.006329709884494209
1.48128e-05;-0.0063020500639633485
1.48130e-05;-0.006268452834914967
1.48133e-05;-0.006236181515137307
1.48135e-05;-0.006215165755579822
1.48138e-05;-0.006194694129930554
1.48140e-05;-0.0061788416227267365
1.48143e-05;-0.0061617051646297065
1.48145e-05;-0.006133669328335603
1.48148e-05;-0.006105257412477433
1.48150e-05;-0.006073652980907856
1.48153e-05;-0.006042967290586576
1.48155e-05;-0.006020080736807332
1.48158e-05;-0.0059974700695848895
1.48160e-05;-0.005977201385952812
1.48163e-05;-0.005956932702320597
1.48165e-05;-0.005936053078537021
1.48168e-05;-0.00591023817104049
1.48170e-05;-0.005886553551425175
1.48173e-05;-0.005862868931809699
1.48175e-05;-0.005839946695098062
1.48178e-05;-0.005823760608401554
1.48180e-05;-0.005809818399018702
1.48183e-05;-0.005795876189635851
1.48185e-05;-0.005781801120236268
1.48188e-05;-0.005767186523417942
1.48190e-05;-0.005757566077637486
1.48193e-05;-0.005747945631857095
1.48195e-05;-0.005738325186076639
1.48198e-05;-0.005729622082931382
1.48200e-05;-0.005728706243594574
1.48203e-05;-0.00572779040425776
1.48205e-05;-0.005726874564920946
1.48208e-05;-0.005726579672767475
1.48210e-05;-0.005731555962114306
1.48213e-05;-0.005736532251461137
1.48215e-05;-0.005741508540807934
1.48218e-05;-0.00574727450645147
1.48220e-05;-0.005759743984403016
1.48223e-05;-0.005772213462354477
1.48225e-05;-0.0057846829403060225
1.48228e-05;-0.005797152418257567
1.48230e-05;-0.0058128789612707475
1.48233e-05;-0.005830728586255542
1.48235e-05;-0.005848578211240336
1.48238e-05;-0.005866427836225009
1.48240e-05;-0.00588473059372641
1.48243e-05;-0.005906879964600086
1.48245e-05;-0.005929029335473611
1.48248e-05;-0.005951178706347288
1.48250e-05;-0.005973328077220963
1.48253e-05;-0.005995477448094639
1.48255e-05;-0.006017626818968164
1.48258e-05;-0.0060397761898418395
1.48260e-05;-0.006061925560715515
1.48263e-05;-0.006082972385452796
1.48265e-05;-0.006103300527639971
1.48268e-05;-0.006123628669827145
1.48270e-05;-0.006143956812014182
1.48273e-05;-0.006164284954201357
1.48275e-05;-0.006184613096388531
1.48278e-05;-0.006204941238575568
1.48280e-05;-0.006225269380762743
1.48283e-05;-0.006244881376725722
1.48285e-05;-0.006258414052528338
1.48288e-05;-0.006271946728331045
1.48290e-05;-0.0062854794041337534
1.48293e-05;-0.006299012079936369
1.48295e-05;-0.006312544755739077
1.48298e-05;-0.006326077431541784
1.48300e-05;-0.006339610107344401
1.48303e-05;-0.006351322881129763
1.48305e-05;-0.0063618493718379555
1.48308e-05;-0.006372375862546077
1.48310e-05;-0.006382902353254269
1.48313e-05;-0.006393428843962461
1.48315e-05;-0.006403955334670581
1.48318e-05;-0.006414481825378774
1.48320e-05;-0.006424897091216534
1.48323e-05;-0.006434225274247525
1.48325e-05;-0.006442340372127888
1.48328e-05;-0.006450455470008252
1.48330e-05;-0.00645857056788856
1.48333e-05;-0.006466685665768923
1.48335e-05;-0.006474800763649287
1.48338e-05;-0.00648291586152965
1.48340e-05;-0.006491030959409959
1.48343e-05;-0.006499146057290323
1.48345e-05;-0.006507261155170686
1.48348e-05;-0.006515376253050994
1.48350e-05;-0.006523491350931358
1.48353e-05;-0.006531606448811721
1.48355e-05;-0.006538246237547588
1.48358e-05;-0.006543924362273407
1.48360e-05;-0.0065496024869992255
1.48363e-05;-0.006555280611725006
1.48365e-05;-0.006560958736450824
1.48368e-05;-0.006566636861176643
1.48370e-05;-0.006572314985902423
1.48373e-05;-0.006577993110628242
1.48375e-05;-0.00658367123535406
1.48378e-05;-0.0065893493600798405
1.48380e-05;-0.006595027484805659
1.48383e-05;-0.0066007056095314775
1.48385e-05;-0.006605794967946838
1.48388e-05;-0.006605886326256538
1.48390e-05;-0.006605977684566239
1.48393e-05;-0.006606069042875939
1.48395e-05;-0.006606160401185639
1.48398e-05;-0.0066062517594953395
1.48400e-05;-0.006606343117805039
1.48403e-05;-0.006606434476114739
1.48405e-05;-0.00660652583442444
1.48408e-05;-0.00660661719273414
1.48410e-05;-0.00660670855104384
1.48413e-05;-0.006602419646197472
1.48415e-05;-0.006595275515076334
1.48418e-05;-0.006588131383955149
1.48420e-05;-0.006580987252833963
1.48423e-05;-0.006573843121712776
1.48425e-05;-0.006566698990591639
1.48428e-05;-0.006559554859470454
1.48430e-05;-0.006552410728349267
1.48433e-05;-0.00654526659722813
1.48435e-05;-0.006538122466106944
1.48438e-05;-0.006530558582955957
1.48440e-05;-0.006519431451275384
1.48443e-05;-0.006508304319594737
1.48445e-05;-0.0064971771879140895
1.48448e-05;-0.006486050056233517
1.48450e-05;-0.00647492292455287
1.48453e-05;-0.006463795792872222
1.48455e-05;-0.00645266866119165
1.48458e-05;-0.006441541529511003
1.48460e-05;-0.006430414397830355
1.48463e-05;-0.006419287266149783
1.48465e-05;-0.006408160134469135
1.48468e-05;-0.006397033002788488
1.48470e-05;-0.006385905871107916
1.48473e-05;-0.006377743751146795
1.48475e-05;-0.006371514341405765
1.48478e-05;-0.006365284931664776
1.48480e-05;-0.006359055521923745
1.48483e-05;-0.006352826112182714
1.48485e-05;-0.006346596702441726
1.48488e-05;-0.006340367292700695
1.48490e-05;-0.006334137882959664
1.48493e-05;-0.006327908473218675
1.48495e-05;-0.006321679063477644
1.48498e-05;-0.006315449653736614
1.48500e-05;-0.006309220243995626
1.48503e-05;-0.006302990834254595
1.48505e-05;-0.006297706369607564
1.48508e-05;-0.006300443484321516
1.48510e-05;-0.00630318059903545
1.48513e-05;-0.006305917713749403
1.48515e-05;-0.006308654828463355
1.48518e-05;-0.006311391943177288
1.48520e-05;-0.006314129057891241
1.48523e-05;-0.006316866172605193
1.48525e-05;-0.006319603287319127
1.48528e-05;-0.006322340402033079
1.48530e-05;-0.006325077516747032
1.48533e-05;-0.006328348531181637
1.48535e-05;-0.00633615178670444
1.48538e-05;-0.006343955042227243
1.48540e-05;-0.006351758297749992
1.48543e-05;-0.0063595615532727945
1.48545e-05;-0.006367364808795598
1.48548e-05;-0.006375168064318347
1.48550e-05;-0.0063829713198411495
1.48553e-05;-0.006390774575363953
1.48555e-05;-0.006398577830886702
1.48558e-05;-0.006406381086409505
1.48560e-05;-0.006414112305576965
1.48563e-05;-0.006421232012662786
1.48565e-05;-0.006428351719748655
1.48568e-05;-0.006435471426834525
1.48570e-05;-0.006442591133920346
1.48573e-05;-0.006449710841006216
1.48575e-05;-0.006456830548092086
1.48578e-05;-0.006463950255177907
1.48580e-05;-0.006471069962263777
1.48583e-05;-0.006478189669349646
1.48585e-05;-0.006485309376435467
1.48588e-05;-0.006491958667874427
1.48590e-05;-0.006494614630525854
1.48593e-05;-0.006497270593177282
1.48595e-05;-0.006499926555828692
1.48598e-05;-0.00650258251848012
1.48600e-05;-0.006505238481131547
1.48603e-05;-0.006507894443782957
1.48605e-05;-0.006510550406434385
1.48608e-05;-0.006513206369085813
1.48610e-05;-0.006515862331737223
1.48613e-05;-0.00651851829438865
1.48615e-05;-0.006520701896480836
1.48618e-05;-0.006518875659546684
1.48620e-05;-0.00651704942261252
1.48623e-05;-0.006515223185678356
1.48625e-05;-0.006513396948744205
1.48628e-05;-0.006511570711810041
1.48630e-05;-0.006509744474875877
1.48633e-05;-0.006507918237941725
1.48635e-05;-0.006506092001007561
1.48638e-05;-0.006504265764073397
1.48640e-05;-0.006502439527139245
1.48643e-05;-0.006500613290205081
1.48645e-05;-0.006498787053270918
1.48648e-05;-0.006496960816336766
1.48650e-05;-0.006495134579402602
1.48653e-05;-0.006493308342468438
1.48655e-05;-0.006491482105534286
1.48658e-05;-0.006489655868600122
1.48660e-05;-0.006487829631665958
1.48663e-05;-0.006486003394731807
1.48665e-05;-0.006484177157797643
1.48668e-05;-0.006482350920863479
1.48670e-05;-0.0064808558105826294
1.48673e-05;-0.006479576541562404
1.48675e-05;-0.006478297272542179
1.48678e-05;-0.006477018003521962
1.48680e-05;-0.006475738734501737
1.48683e-05;-0.006474459465481512
1.48685e-05;-0.006473180196461288
1.48688e-05;-0.006471900927441071
1.48690e-05;-0.006470621658420846
1.48693e-05;-0.006469342389400621
1.48695e-05;-0.006468063120380404
1.48698e-05;-0.006466783851360179
1.48700e-05;-0.0064655045823399536
1.48703e-05;-0.006464225313319737
1.48705e-05;-0.006462946044299512
1.48708e-05;-0.006461666775279287
1.48710e-05;-0.006460387506259071
1.48713e-05;-0.006459108237238846
1.48715e-05;-0.00645782896821862
1.48718e-05;-0.006456549699198404
1.48720e-05;-0.006455270430178179
1.48723e-05;-0.0064542983614350674
1.48725e-05;-0.006455934096491286
1.48728e-05;-0.006457569831547516
1.48730e-05;-0.0064592055666037465
1.48733e-05;-0.006460841301659965
1.48735e-05;-0.0064624770367161955
1.48738e-05;-0.006464112771772426
1.48740e-05;-0.0064657485068286445
1.48743e-05;-0.006467384241884874
1.48745e-05;-0.006469019976941104
1.48748e-05;-0.006470655711997323
1.48750e-05;-0.006472291447053553
1.48753e-05;-0.006473927182109783
1.48755e-05;-0.006475562917166002
1.48758e-05;-0.006477193646661411
1.48760e-05;-0.006478781884266337
1.48763e-05;-0.006480370121871251
1.48765e-05;-0.006481958359476177
1.48768e-05;-0.006483546597081101
1.48770e-05;-0.006485134834686027
1.48773e-05;-0.006486723072290941
1.48775e-05;-0.006488311309895867
1.48778e-05;-0.0064898995475007925
1.48780e-05;-0.006491487785105707
1.48783e-05;-0.006493076022710632
1.48785e-05;-0.006494664260315558
1.48788e-05;-0.006496252497920472
1.48790e-05;-0.006497840735525398
1.48793e-05;-0.0064995451557602725
1.48795e-05;-0.006502235843022033
1.48798e-05;-0.006504926530283812
1.48800e-05;-0.00650761721754559
1.48803e-05;-0.0065103079048073505
1.48805e-05;-0.00651299859206913
1.48808e-05;-0.006515689279330908
1.48810e-05;-0.006518379966592669
1.48813e-05;-0.0065210706538544475
1.48815e-05;-0.006523761341116226
1.48818e-05;-0.006526452028377987
1.48820e-05;-0.006529142715639765
1.48823e-05;-0.0065318334029015445
1.48825e-05;-0.006534524090163305
1.48828e-05;-0.006537214777425084
1.48830e-05;-0.006541014653024765
1.48833e-05;-0.006545537540821925
1.48835e-05;-0.006550060428619117
1.48838e-05;-0.006554583316416307
1.48840e-05;-0.0065591062042134685
1.48843e-05;-0.006563629092010659
1.48845e-05;-0.006568151979807851
1.48848e-05;-0.006572674867605011
1.48850e-05;-0.0065771977554022025
1.48853e-05;-0.006581720643199393
1.48855e-05;-0.006586243530996585
1.48858e-05;-0.006590766418793745
1.48860e-05;-0.0065952893065909365
1.48863e-05;-0.006599812194388128
1.48865e-05;-0.006604286077863346
1.48868e-05;-0.006608343966736274
1.48870e-05;-0.006612401855609203
1.48873e-05;-0.0066164597444821035
1.48875e-05;-0.0066204036218926
1.48878e-05;-0.006623379663179784
1.48880e-05;-0.006626355704466948
1.48883e-05;-0.006629331745754132
1.48885e-05;-0.006631737480269057
1.48888e-05;-0.006629301916516014
1.48890e-05;-0.006626866352762955
1.48893e-05;-0.006623475283067282
1.48895e-05;-0.006611972983609545
1.48898e-05;-0.006600470684151731
1.48900e-05;-0.0065880947343929025
1.48903e-05;-0.006568302422257737
1.48905e-05;-0.006548510110122438
1.48908e-05;-0.006527280694933471
1.48910e-05;-0.006493851802440449
1.48913e-05;-0.006460422909947201
1.48915e-05;-0.006426994017453953
1.48918e-05;-0.006393565124960932
1.48920e-05;-0.006358593911217206
1.48923e-05;-0.006310530029521935
1.48925e-05;-0.006262466147826991
1.48928e-05;-0.00621440226613172
1.48930e-05;-0.006166338384436449
1.48933e-05;-0.006117249903701907
1.48935e-05;-0.006059463666253453
1.48938e-05;-0.006001677428804999
1.48940e-05;-0.005943497960387787
1.48943e-05;-0.005881980379044554
1.48945e-05;-0.00582024819654949
1.48948e-05;-0.005756694278396443
1.48950e-05;-0.005693001750375972
1.48953e-05;-0.005628132571916924
1.48955e-05;-0.005563255713357214
1.48958e-05;-0.005498362585810396
1.48960e-05;-0.00543397420872023
1.48963e-05;-0.005370469992458998
1.48965e-05;-0.00530817706250587
