Time(s);Current(A)
1.50000e-06;0.008902214651666683
1.50025e-06;0.00888927348333959
1.50050e-06;0.00887633231501251
1.50075e-06;0.008854747122782976
1.50100e-06;0.00882911604715603
1.50125e-06;0.008803484971529106
1.50150e-06;0.00877785389590216
1.50175e-06;0.008752222820275235
1.50200e-06;0.00872659174464829
1.50225e-06;0.008700960669021365
1.50250e-06;0.008675329593394442
1.50275e-06;0.008649698517767496
1.50300e-06;0.008621190384156815
1.50325e-06;0.008579679150422733
1.50350e-06;0.008538167916688686
1.50375e-06;0.008496656682954639
1.50400e-06;0.008455145449220557
1.50425e-06;0.008413634215486512
1.50450e-06;0.00837212298175243
1.50475e-06;0.008330611748018383
1.50500e-06;0.008289100514284338
1.50525e-06;0.008247589280550256
1.50550e-06;0.00820607804681621
1.50575e-06;0.008164566813082128
1.50600e-06;0.008122421297761886
1.50625e-06;0.008079978903422328
1.50650e-06;0.008037536509082807
1.50675e-06;0.007995094114743284
1.50700e-06;0.007952651720403728
1.50725e-06;0.007910209326064205
1.50750e-06;0.007867766931724647
1.50775e-06;0.007825324537385126
1.50800e-06;0.0077828821430456045
1.50825e-06;0.007740439748706048
1.50850e-06;0.0076979973543665255
1.50875e-06;0.007659668899616325
1.50900e-06;0.0076399337331074235
1.50925e-06;0.007620198566598522
1.50950e-06;0.007600463400089604
1.50975e-06;0.007580728233580703
1.51000e-06;0.007560993067071785
1.51025e-06;0.007541257900562883
1.51050e-06;0.007521522734053965
1.51075e-06;0.007501787567545064
1.51100e-06;0.007482052401036162
1.51125e-06;0.007483987995573433
1.51150e-06;0.007496066710179441
1.51175e-06;0.00750814542478546
1.51200e-06;0.007520224139391469
1.51225e-06;0.007532302853997477
1.51250e-06;0.007544381568603496
1.51275e-06;0.0075564602832095045
1.51300e-06;0.0075685389978155234
1.51325e-06;0.007580617712421532
1.51350e-06;0.007597265107334559
1.51375e-06;0.00763456102855242
1.51400e-06;0.007671856949770249
1.51425e-06;0.00770915287098811
1.51450e-06;0.007746448792205938
1.51475e-06;0.0077837447134238
1.51500e-06;0.007821040634641629
1.51525e-06;0.007858336555859458
1.51550e-06;0.007895632477077318
1.51575e-06;0.007932928398295147
1.51600e-06;0.007970224319513008
1.51625e-06;0.008010107834725671
1.51650e-06;0.00805120248767927
1.51675e-06;0.008092297140632906
1.51700e-06;0.008133391793586506
1.51725e-06;0.008174486446540142
1.51750e-06;0.008215581099493743
1.51775e-06;0.008256675752447342
1.51800e-06;0.008297770405400978
1.51825e-06;0.008338865058354577
1.51850e-06;0.008379959711308213
1.51875e-06;0.008417137507638865
1.51900e-06;0.008436612748401639
1.51925e-06;0.008456087989164397
1.51950e-06;0.008475563229927154
1.51975e-06;0.008495038470689928
1.52000e-06;0.008514513711452686
1.52025e-06;0.00853398895221546
1.52050e-06;0.008553464192978219
1.52075e-06;0.008572939433740977
1.52100e-06;0.008592414674503751
1.52125e-06;0.00861188991526651
1.52150e-06;0.008631365156029283
1.52175e-06;0.0086325403003379
1.52200e-06;0.008628894467627827
1.52225e-06;0.008625248634917749
1.52250e-06;0.008621602802207676
1.52275e-06;0.008617956969497598
1.52300e-06;0.008614311136787525
1.52325e-06;0.008610665304077447
1.52350e-06;0.008607019471367374
1.52375e-06;0.0086033736386573
1.52400e-06;0.008599727805947222
1.52425e-06;0.008596081973237149
1.52450e-06;0.008588121754762819
1.52475e-06;0.007210325945063401
1.52500e-06;-0.005955073457885826
1.52525e-06;-0.007843478397058306
1.52550e-06;-0.005158061710556429
1.52575e-06;-0.0017880022200998666
1.52600e-06;0.007472587090974727
1.52625e-06;0.01145286025840634
1.52650e-06;0.010610687020706127
1.52675e-06;0.009184149558043475
1.52700e-06;0.0015364651964871034
1.52725e-06;-0.0030171525862474767
1.52750e-06;0.001030516546875112
1.52775e-06;0.004514007725844833
1.52800e-06;0.008904627878388813
1.52825e-06;0.011471488406633222
1.52850e-06;0.011291307507863233
1.52875e-06;0.008955041099117989
1.52900e-06;0.00543980648633543
1.52925e-06;0.003551992630018694
1.52950e-06;0.004181296288976774
1.52975e-06;0.006375064694559819
1.53000e-06;0.009151457980678873
1.53025e-06;0.010725775329138633
1.53050e-06;0.010584634301953643
1.53075e-06;0.009097501083508817
1.53100e-06;0.006875826782836499
1.53125e-06;0.005676920902472703
1.53150e-06;0.00605747035882454
1.53175e-06;0.007420198410459109
1.53200e-06;0.009149666460633532
1.53225e-06;0.0101276593325353
1.53250e-06;0.010032427513229603
1.53275e-06;0.009095276863568348
1.53300e-06;0.007699097248398124
1.53325e-06;0.006944501593070652
1.53350e-06;0.007179990348098334
1.53375e-06;0.008031242152237552
1.53400e-06;0.009112608953039442
1.53425e-06;0.009723567029340111
1.53450e-06;0.009662549447060726
1.53475e-06;0.009074433229833229
1.53500e-06;0.008199038497076469
1.53525e-06;0.007725728407095091
1.53550e-06;0.007872708606813102
1.53575e-06;0.008405415011152374
1.53600e-06;0.009082214041097353
1.53625e-06;0.009464267440702825
1.53650e-06;0.009425311514495107
1.53675e-06;0.009056099384418773
1.53700e-06;0.00850684611731159
1.53725e-06;0.008209334624087314
1.53750e-06;0.008300190960026576
1.53775e-06;0.00863242779764993
1.53800e-06;0.009054644317966544
1.53825e-06;0.009291932850754213
1.53850e-06;0.009265195656850383
1.53875e-06;0.009031277037538954
1.53900e-06;0.00868426236720874
1.53925e-06;0.008494546859934182
1.53950e-06;0.008547517449203191
1.53975e-06;0.00875089184950209
1.54000e-06;0.009009754933815119
1.54025e-06;0.009151936049923648
1.54050e-06;0.009127952200648598
1.54075e-06;0.008973472455815883
1.54100e-06;0.008747488255400572
1.54125e-06;0.008619424571300029
1.54150e-06;0.008642804855904549
1.54175e-06;0.008759861191167567
1.54200e-06;0.008911182587564497
1.54225e-06;0.008988972941191309
1.54250e-06;0.008962292740427898
1.54275e-06;0.008853543558451183
1.54300e-06;0.008699732440747902
1.54325e-06;0.008607035574828205
1.54350e-06;0.008609023023881033
1.54375e-06;0.008669550353056603
1.54400e-06;0.008751449171710904
1.54425e-06;0.008787246342950982
1.54450e-06;0.008757615693973517
1.54475e-06;0.008676644628620693
1.54500e-06;0.008567568732328001
1.54525e-06;0.008496943876507639
1.54550e-06;0.00848584368835324
1.54575e-06;0.008511672599694056
1.54600e-06;0.008551196142669528
1.54625e-06;0.008562198880656775
1.54650e-06;0.008532627802449044
1.54675e-06;0.008471360230931618
1.54700e-06;0.00840691842550008
1.54725e-06;0.008343620155393765
1.54750e-06;0.008323482228284001
1.54775e-06;0.008331460434671636
1.54800e-06;0.008339434718843861
1.54825e-06;0.008345987038817573
1.54850e-06;0.008324417857655388
1.54875e-06;0.008280964965992161
1.54900e-06;0.008236837689820066
1.54925e-06;0.00819377100566341
1.54950e-06;0.00817918530271833
1.54975e-06;0.008183910345812874
1.55000e-06;0.00819088838647971
1.55025e-06;0.00819755619045267
1.55050e-06;0.00818833973499559
1.55075e-06;0.008165723283142313
1.55100e-06;0.008140476059467062
1.55125e-06;0.008126286755510427
1.55150e-06;0.008128513793049253
1.55175e-06;0.008143785031415334
1.55200e-06;0.008161857345975763
1.55225e-06;0.008175711808344104
1.55250e-06;0.008182146541232551
1.55275e-06;0.0081846054808643
1.55300e-06;0.008186418765917077
1.55325e-06;0.008188232050969855
1.55350e-06;0.008203475397979701
1.55375e-06;0.008228011667799195
1.55400e-06;0.008254138991307457
1.55425e-06;0.008280266314815743
1.55450e-06;0.008300928972826015
1.55475e-06;0.008318391414078733
1.55500e-06;0.008335387119742904
1.55525e-06;0.008352382825407062
1.55550e-06;0.008378699792598346
1.55575e-06;0.008407914916102746
1.55600e-06;0.008435364253583318
1.55625e-06;0.008462264574828534
1.55650e-06;0.008489164896073728
1.55675e-06;0.008516065217318944
1.55700e-06;0.00854112924187329
1.55725e-06;0.008565622327093746
1.55750e-06;0.008590115412314223
1.55775e-06;0.00861460849753468
1.55800e-06;0.008632242604572352
1.55825e-06;0.008647744125707985
1.55850e-06;0.008663245646843629
1.55875e-06;0.008678747167979261
1.55900e-06;0.008694248689114894
1.55925e-06;0.008709750210250538
1.55950e-06;0.00872525173138617
1.55975e-06;0.008740753252521816
1.56000e-06;0.008756254773657449
1.56025e-06;0.00876497078287353
1.56050e-06;0.008754654571731484
1.56075e-06;0.008744338360589446
1.56100e-06;0.0087340221494474
1.56125e-06;0.008723705938305362
1.56150e-06;0.008713389727163325
1.56175e-06;0.008703073516021278
1.56200e-06;0.00869275730487924
1.56225e-06;0.008682441093737194
1.56250e-06;0.008672124882595156
1.56275e-06;0.008640726283695353
1.56300e-06;0.008602772772137557
1.56325e-06;0.00856481926057976
1.56350e-06;0.008526865749021933
1.56375e-06;0.008488912237464138
1.56400e-06;0.008450958725906309
1.56425e-06;0.008413005214348514
1.56450e-06;0.008375051702790718
1.56475e-06;0.00833709819123289
1.56500e-06;0.008299144679675094
1.56525e-06;0.008261191168117266
1.56550e-06;0.008215630965155945
1.56575e-06;0.008167705698126053
1.56600e-06;0.008119780431096119
1.56625e-06;0.008071855164066227
1.56650e-06;0.008023929897036293
1.56675e-06;0.007976004630006401
1.56700e-06;0.00792807936297647
1.56725e-06;0.007880154095946577
1.56750e-06;0.007832228828916684
1.56775e-06;0.007784303561886751
1.56800e-06;0.007736378294856859
1.56825e-06;0.007702674180609653
1.56850e-06;0.007673391691439022
1.56875e-06;0.007644109202268392
1.56900e-06;0.007614826713097736
1.56925e-06;0.007585544223927105
1.56950e-06;0.00755626173475645
1.56975e-06;0.007526979245585819
1.57000e-06;0.007497696756415188
1.57025e-06;0.0074684142672445325
1.57050e-06;0.007439131778073902
1.57075e-06;0.007409849288903246
1.57100e-06;0.007380566799732615
1.57125e-06;0.007373204869198065
1.57150e-06;0.007372658454482516
1.57175e-06;0.007372112039766968
1.57200e-06;0.007371565625051419
1.57225e-06;0.007371019210335871
1.57250e-06;0.007370472795620322
1.57275e-06;0.007369926380904774
1.57300e-06;0.007369379966189225
1.57325e-06;0.007368833551473677
1.57350e-06;0.007368287136758128
1.57375e-06;0.007367740722042579
1.57400e-06;0.007367194307327031
1.57425e-06;0.00738011978142569
1.57450e-06;0.007397233920277267
1.57475e-06;0.007414348059128831
1.57500e-06;0.007431462197980408
1.57525e-06;0.007448576336831971
1.57550e-06;0.007465690475683534
1.57575e-06;0.007482804614535112
1.57600e-06;0.0074999187533866755
1.57625e-06;0.007517032892238253
1.57650e-06;0.007534147031089816
1.57675e-06;0.0075512611699413935
1.57700e-06;0.007568375308792957
1.57725e-06;0.00758408175042789
1.57750e-06;0.007599350512402973
1.57775e-06;0.007614619274378042
1.57800e-06;0.007629888036353125
1.57825e-06;0.007645156798328195
1.57850e-06;0.007660425560303265
1.57875e-06;0.0076756943222783475
1.57900e-06;0.007690963084253418
1.57925e-06;0.0077062318462285005
1.57950e-06;0.00772150060820357
1.57975e-06;0.0077367693701786405
1.58000e-06;0.007752038132153723
1.58025e-06;0.0077598803498790244
1.58050e-06;0.007765413514689596
1.58075e-06;0.007770946679500163
1.58100e-06;0.0077764798443107335
1.58125e-06;0.007782013009121301
1.58150e-06;0.007787546173931867
1.58175e-06;0.007793079338742438
1.58200e-06;0.007798612503553006
1.58225e-06;0.0078041456683635765
1.58250e-06;0.007809678833174143
1.58275e-06;0.00781521199798471
1.58300e-06;0.007820745162795281
1.58325e-06;0.007826278327605848
1.58350e-06;0.00783181149241642
1.58375e-06;0.007837344657226986
1.58400e-06;0.007842877822037552
1.58425e-06;0.007848410986848124
1.58450e-06;0.00785394415165869
1.58475e-06;0.007859477316469262
1.58500e-06;0.007865010481279829
1.58525e-06;0.0078705436460904
1.58550e-06;0.00787212577777102
1.58575e-06;0.007872479458605905
1.58600e-06;0.007872833139440788
1.58625e-06;0.007873186820275673
1.58650e-06;0.007873540501110556
1.58675e-06;0.00787389418194544
1.58700e-06;0.007874247862780324
1.58725e-06;0.007874601543615209
1.58750e-06;0.007874955224450092
1.58775e-06;0.007875308905284976
1.58800e-06;0.00787566258611986
1.58825e-06;0.007876016266954743
1.58850e-06;0.007876369947789627
1.58875e-06;0.00787672362862451
1.58900e-06;0.007877077309459395
1.58925e-06;0.007877430990294278
1.58950e-06;0.007877784671129163
1.58975e-06;0.007878138351964046
1.59000e-06;0.007878492032798931
1.59025e-06;0.007878845713633814
1.59050e-06;0.007879199394468697
1.59075e-06;0.007872807107946297
1.59100e-06;0.007864317372723145
1.59125e-06;0.007855827637499993
1.59150e-06;0.007847337902276834
1.59175e-06;0.007838848167053682
1.59200e-06;0.007830358431830524
1.59225e-06;0.007821868696607372
1.59250e-06;0.00781337896138422
1.59275e-06;0.007804889226161061
1.59300e-06;0.007796399490937909
1.59325e-06;0.00778790975571475
1.59350e-06;0.0077794200204915984
1.59375e-06;0.00777093028526844
1.59400e-06;0.007762440550045288
1.59425e-06;0.007753950814822136
1.59450e-06;0.007745461079598977
1.59475e-06;0.007736971344375825
1.59500e-06;0.007728481609152666
1.59525e-06;0.007719187309574293
1.59550e-06;0.007707636342219261
1.59575e-06;0.00769608537486422
1.59600e-06;0.007684534407509188
1.59625e-06;0.007672983440154145
1.59650e-06;0.007661432472799113
1.59675e-06;0.007649881505444081
1.59700e-06;0.00763833053808904
1.59725e-06;0.007626779570734008
1.59750e-06;0.0076152286033789665
1.59775e-06;0.0076036776360239346
1.59800e-06;0.007592126668668892
1.59825e-06;0.00758057570131386
1.59850e-06;0.007569024733958828
1.59875e-06;0.007557473766603787
1.59900e-06;0.007545922799248755
1.59925e-06;0.007534371831893713
1.59950e-06;0.0075228208645386815
1.59975e-06;0.0075112698971836495
1.60000e-06;0.00749911149753821
1.60025e-06;0.007486764235717689
1.60050e-06;0.0074744169738971585
1.60075e-06;0.007462069712076637
1.60100e-06;0.007449722450256116
1.60125e-06;0.007437375188435584
1.60150e-06;0.007425027926615064
1.60175e-06;0.007412680664794532
1.60200e-06;0.007400333402974011
1.60225e-06;0.0073879861411534796
1.60250e-06;0.007375638879332959
1.60275e-06;0.007363291617512438
1.60300e-06;0.007350944355691906
1.60325e-06;0.007338597093871386
1.60350e-06;0.007326249832050854
1.60375e-06;0.007313902570230333
1.60400e-06;0.007301555308409812
1.60425e-06;0.007288434890567456
1.60450e-06;0.007273145900044322
1.60475e-06;0.007257856909521175
1.60500e-06;0.007242567918998042
1.60525e-06;0.007227278928474908
1.60550e-06;0.007211989937951762
1.60575e-06;0.007196700947428628
1.60600e-06;0.0071814119569054815
1.60625e-06;0.007166122966382348
1.60650e-06;0.007150833975859201
1.60675e-06;0.007135544985336068
1.60700e-06;0.007120255994812934
1.60725e-06;0.0071049670042897875
1.60750e-06;0.007089678013766654
1.60775e-06;0.007074389023243507
1.60800e-06;0.007059100032720374
1.60825e-06;0.00704381104219724
1.60850e-06;0.0070285220516740935
1.60875e-06;0.007021177922658292
1.60900e-06;0.007016304001184467
1.60925e-06;0.007011430079710646
1.60950e-06;0.007006556158236824
1.60975e-06;0.007001682236762999
1.61000e-06;0.006996808315289179
1.61025e-06;0.006991934393815354
1.61050e-06;0.006987060472341532
1.61075e-06;0.006982186550867707
1.61100e-06;0.006995560979468438
1.61125e-06;0.007014609164866619
1.61150e-06;0.007033657350264817
1.61175e-06;0.007052705535662999
1.61200e-06;0.007071753721061195
1.61225e-06;0.007090801906459377
1.61250e-06;0.007109850091857558
1.61275e-06;0.0071288982772557555
1.61300e-06;0.0071479464626539365
1.61325e-06;0.007184537434748377
1.61350e-06;0.007226582790655887
1.61375e-06;0.007268628146563397
1.61400e-06;0.007310673502470943
1.61425e-06;0.007352718858378453
1.61450e-06;0.0073947642142859985
1.61475e-06;0.007436809570193508
1.61500e-06;0.007478854926101018
1.61525e-06;0.007520900282008564
1.61550e-06;0.007562945637916074
1.61575e-06;0.007606401146447823
1.61600e-06;0.0076538118960563836
1.61625e-06;0.007701222645664984
1.61650e-06;0.007748633395273544
1.61675e-06;0.007796044144882104
1.61700e-06;0.007843454894490705
1.61725e-06;0.007890865644099264
1.61750e-06;0.007938276393707866
1.61775e-06;0.007985687143316425
1.61800e-06;0.008033097892924985
1.61825e-06;0.008080508642533586
1.61850e-06;0.008111290234561547
1.61875e-06;0.008136901507329541
1.61900e-06;0.008162512780097513
1.61925e-06;0.008188124052865484
1.61950e-06;0.008213735325633477
1.61975e-06;0.008239346598401448
1.62000e-06;0.008264957871169442
1.62025e-06;0.008290569143937413
1.62050e-06;0.008316180416705407
1.62075e-06;0.008332203493551722
1.62100e-06;0.00832133329252872
1.62125e-06;0.008310463091505712
1.62150e-06;0.00829959289048271
1.62175e-06;0.0082887226894597
1.62200e-06;0.0082778524884367
1.62225e-06;0.008266982287413698
1.62250e-06;0.008256112086390687
1.62275e-06;0.008245241885367688
1.62300e-06;0.008234371684344677
1.62325e-06;0.008199618749205053
1.62350e-06;0.008157440220821679
1.62375e-06;0.008115261692438269
1.62400e-06;0.008073083164054895
1.62425e-06;0.008030904635671484
1.62450e-06;0.00798872610728811
1.62475e-06;0.0079465475789047
1.62500e-06;0.007904369050521326
1.62525e-06;0.007862190522137952
1.62550e-06;0.007820011993754542
1.62575e-06;0.007770103364960579
1.62600e-06;0.007717791301907284
1.62625e-06;0.007665479238854034
1.62650e-06;0.007613167175800783
1.62675e-06;0.0075608551127474884
1.62700e-06;0.007508543049694239
1.62725e-06;0.007456230986640944
1.62750e-06;0.007403918923587693
1.62775e-06;0.007351606860534443
1.62800e-06;0.007299294797481148
1.62825e-06;0.007261881287381376
1.62850e-06;0.007229100018867009
1.62875e-06;0.00719631875035267
1.62900e-06;0.007163537481838302
1.62925e-06;0.007130756213323963
1.62950e-06;0.007097974944809624
1.62975e-06;0.007065193676295257
1.63000e-06;0.007032412407780918
1.63025e-06;0.006999631139266551
1.63050e-06;0.006966849870752211
1.63075e-06;0.00694270913521558
1.63100e-06;0.006942803642282557
1.63125e-06;0.006942898149349533
1.63150e-06;0.00694299265641651
1.63175e-06;0.006943087163483486
1.63200e-06;0.006943181670550463
1.63225e-06;0.006943276177617439
1.63250e-06;0.006943370684684416
1.63275e-06;0.006943465191751393
1.63300e-06;0.006943559698818369
1.63325e-06;0.006943654205885346
1.63350e-06;0.006963182742023819
1.63375e-06;0.006988753684959438
1.63400e-06;0.007014324627895078
1.63425e-06;0.007039895570830696
1.63450e-06;0.007065466513766336
1.63475e-06;0.007091037456701955
1.63500e-06;0.007116608399637573
1.63525e-06;0.007142179342573213
1.63550e-06;0.0071677502855088315
1.63575e-06;0.007193321228444472
1.63600e-06;0.00721889217138009
1.63625e-06;0.007248213209690541
1.63650e-06;0.007278700223501982
1.63675e-06;0.007309187237313396
1.63700e-06;0.007339674251124837
1.63725e-06;0.007370161264936252
1.63750e-06;0.007400648278747693
1.63775e-06;0.007431135292559107
1.63800e-06;0.007461622306370522
1.63825e-06;0.007492109320181963
1.63850e-06;0.0075225963339933775
1.63875e-06;0.007553083347804818
1.63900e-06;0.007567740735706326
1.63925e-06;0.007577476393850283
1.63950e-06;0.007587212051994249
1.63975e-06;0.007596947710138206
1.64000e-06;0.007606683368282172
1.64025e-06;0.007616419026426129
1.64050e-06;0.007626154684570087
1.64075e-06;0.007635890342714052
1.64100e-06;0.00764562600085801
1.64125e-06;0.007655361659001976
1.64150e-06;0.007665097317145933
1.64175e-06;0.007674832975289899
1.64200e-06;0.007663507878671683
1.64225e-06;0.007645634595506486
1.64250e-06;0.007627761312341275
1.64275e-06;0.007609888029176078
1.64300e-06;0.007592014746010866
1.64325e-06;0.00757414146284567
1.64350e-06;0.007556268179680473
1.64375e-06;0.007538394896515262
1.64400e-06;0.007520521613350065
1.64425e-06;0.007502648330184853
1.64450e-06;0.007484775047019656
1.64475e-06;0.00746690176385446
1.64500e-06;0.007438811768696321
1.64525e-06;0.0074075452047599
1.64550e-06;0.0073762786408234525
1.64575e-06;0.007345012076887031
1.64600e-06;0.007313745512950583
1.64625e-06;0.007282478949014162
1.64650e-06;0.0072512123850777405
1.64675e-06;0.007219945821141293
1.64700e-06;0.007188679257204872
1.64725e-06;0.007157412693268424
1.64750e-06;0.0071261461293320024
1.64775e-06;0.007097413600518418
1.64800e-06;0.007075788614274116
1.64825e-06;0.007054163628029833
1.64850e-06;0.007032538641785531
1.64875e-06;0.007010913655541247
1.64900e-06;0.006989288669296963
1.64925e-06;0.006967663683052661
1.64950e-06;0.006946038696808377
1.64975e-06;0.006924413710564075
1.65000e-06;0.006902788724319792
1.65025e-06;0.006881163738075508
1.65050e-06;0.006859538751831205
1.65075e-06;0.006856609876716993
1.65100e-06;0.006859493975770007
1.65125e-06;0.006862378074823019
