Time(s);Current(A)
1.00000e-06;-0.00951326311555465
1.00025e-06;-0.009603150955607096
1.00050e-06;-0.009693038795659541
1.00075e-06;-0.009772143921560965
1.00100e-06;-0.009833181298657104
1.00125e-06;-0.009894218675753295
1.00150e-06;-0.009955256052849434
1.00175e-06;-0.010016293429945575
1.00200e-06;-0.010077330807041766
1.00225e-06;-0.010138368184137905
1.00250e-06;-0.010199405561234096
1.00275e-06;-0.010260442938330236
1.00300e-06;-0.010321480315426375
1.00325e-06;-0.010382517692522566
1.00350e-06;-0.010443555069618705
1.00375e-06;-0.010504592446714896
1.00400e-06;-0.010557237390716512
1.00425e-06;-0.010595819792496526
1.00450e-06;-0.010634402194276507
1.00475e-06;-0.01067298459605649
1.00500e-06;-0.010711566997836505
1.00525e-06;-0.010750149399616486
1.00550e-06;-0.0107887318013965
1.00575e-06;-0.010827314203176482
1.00600e-06;-0.010865896604956463
1.00625e-06;-0.010904479006736478
1.00650e-06;-0.01094306140851646
1.00675e-06;-0.010981643810296475
1.00700e-06;-0.011020226212076456
1.00725e-06;-0.011055541275441026
1.00750e-06;-0.011085381515962141
1.00775e-06;-0.011115221756483232
1.00800e-06;-0.011145061997004347
1.00825e-06;-0.011174902237525437
1.00850e-06;-0.011204742478046528
1.00875e-06;-0.011234582718567645
1.00900e-06;-0.011262486655978973
1.00925e-06;-0.01128714608206358
1.00950e-06;-0.011311805508148167
1.00975e-06;-0.011336464934232774
1.01000e-06;-0.011361124360317361
1.01025e-06;-0.011385783786401947
1.01050e-06;-0.011410443212486555
1.01075e-06;-0.011433693150132566
1.01100e-06;-0.011454581318497347
1.01125e-06;-0.011474102936218481
1.01150e-06;-0.011491334732155304
1.01175e-06;-0.011504735301608181
1.01200e-06;-0.01151171618518664
1.01225e-06;-0.011518697068765106
1.01250e-06;-0.011520921594975147
1.01275e-06;-0.011515176266012344
1.01300e-06;-0.011509430937049538
1.01325e-06;-0.011496100834322032
1.01350e-06;-0.01147006152079705
1.01375e-06;-0.011444022207272088
1.01400e-06;-0.011417982893747104
1.01425e-06;-0.011391943580222143
1.01450e-06;-0.011365904266697181
1.01475e-06;-0.011330179534187267
1.01500e-06;-0.011278225704362342
1.01525e-06;-0.011226271874537374
1.01550e-06;-0.01117431804471245
1.01575e-06;-0.011122364214887525
1.01600e-06;-0.011070410385062556
1.01625e-06;-0.01101189683368642
1.01650e-06;-0.010942391671149262
1.01675e-06;-0.010872886508612165
1.01700e-06;-0.010803381346075067
1.01725e-06;-0.01073387618353791
1.01750e-06;-0.010661684770889404
1.01775e-06;-0.010584992219514904
1.01800e-06;-0.010508299668140469
1.01825e-06;-0.010431607116765967
1.01850e-06;-0.010354914565391532
1.01875e-06;-0.010278140215901645
1.01900e-06;-0.010202261664465017
1.01925e-06;-0.01012811379680529
1.01950e-06;-0.010053965929145498
1.01975e-06;-0.009982367610122557
1.02000e-06;-0.00991504136988103
1.02025e-06;-0.009847715129639447
1.02050e-06;-0.009789534614859608
1.02075e-06;-0.009746678875266066
1.02100e-06;-0.00970382313567256
1.02125e-06;-0.009660967396079054
1.02150e-06;-0.009618111656485512
1.02175e-06;-0.009575255916892006
1.02200e-06;-0.009532400177298464
1.02225e-06;-0.009489544437704958
1.02250e-06;-0.009446688698111416
1.02275e-06;-0.009417266258862515
1.02300e-06;-0.009410352947910858
1.02325e-06;-0.009403439636959195
1.02350e-06;-0.00939652632600754
1.02375e-06;-0.009389613015055876
1.02400e-06;-0.009382699704104219
1.02425e-06;-0.009375786393152563
1.02450e-06;-0.0093688730822009
1.02475e-06;-0.009361959771249243
1.02500e-06;-0.009365317496231686
1.02525e-06;-0.009385885590941025
1.02550e-06;-0.009406453685650363
1.02575e-06;-0.00942702178035972
1.02600e-06;-0.00944758987506906
1.02625e-06;-0.009468157969778417
1.02650e-06;-0.009488726064487755
1.02675e-06;-0.009509294159197112
1.02700e-06;-0.009529862253906451
1.02725e-06;-0.009562450987615547
1.02750e-06;-0.009596776688964498
1.02775e-06;-0.009631102390313421
1.02800e-06;-0.009665428091662374
1.02825e-06;-0.009699753793011297
1.02850e-06;-0.009734079494360223
1.02875e-06;-0.009768405195709174
1.02900e-06;-0.009802730897058097
1.02925e-06;-0.009836357641416162
1.02950e-06;-0.009868813198338652
1.02975e-06;-0.00990126875526114
1.03000e-06;-0.009933724312183657
1.03025e-06;-0.009966179869106145
1.03050e-06;-0.00999863542602866
1.03075e-06;-0.01003109098295115
1.03100e-06;-0.010063546539873666
1.03125e-06;-0.010096002096796154
1.03150e-06;-0.01012231594954346
1.03175e-06;-0.01013833863007773
1.03200e-06;-0.010154361310611988
1.03225e-06;-0.010170383991146257
1.03250e-06;-0.010186406671680515
1.03275e-06;-0.010202429352214772
1.03300e-06;-0.010218452032749042
1.03325e-06;-0.010234474713283299
1.03350e-06;-0.01025049739381757
1.03375e-06;-0.01025919757667163
1.03400e-06;-0.0102556280242037
1.03425e-06;-0.010252058471735768
1.03450e-06;-0.010248488919267839
1.03475e-06;-0.010244919366799906
1.03500e-06;-0.010241349814331979
1.03525e-06;-0.010237780261864046
1.03550e-06;-0.010234210709396117
1.03575e-06;-0.010230641156928188
1.03600e-06;-0.010222036862772243
1.03625e-06;-0.010204996246663932
1.03650e-06;-0.010187955630555605
1.03675e-06;-0.010170915014447293
1.03700e-06;-0.010153874398338982
1.03725e-06;-0.010136833782230657
1.03750e-06;-0.010119793166122345
1.03775e-06;-0.010102752550014018
1.03800e-06;-0.010085711933905707
1.03825e-06;-0.010067433110910672
1.03850e-06;-0.01004707952170372
1.03875e-06;-0.010026725932496787
1.03900e-06;-0.010006372343289835
1.03925e-06;-0.009986018754082901
1.03950e-06;-0.00996566516487595
1.03975e-06;-0.009946961577087349
1.04000e-06;-0.009931022767324951
1.04025e-06;-0.00991508395756254
1.04050e-06;-0.009899145147800142
1.04075e-06;-0.009883206338037728
1.04100e-06;-0.00986726752827533
1.04125e-06;-0.009853188172681462
1.04150e-06;-0.00984222455866739
1.04175e-06;-0.009831260944653327
1.04200e-06;-0.009820297330639256
1.04225e-06;-0.009809333716625195
1.04250e-06;-0.009798370102611132
1.04275e-06;-0.00978740648859706
1.04300e-06;-0.009776442874583
1.04325e-06;-0.009765479260568928
1.04350e-06;-0.009754515646554865
1.04375e-06;-0.009743552032540804
1.04400e-06;-0.00973141802514318
1.04425e-06;-0.009717322881304818
1.04450e-06;-0.009703227737466444
1.04475e-06;-0.00968913259362808
1.04500e-06;-0.009675037449789706
1.04525e-06;-0.009660942305951345
1.04550e-06;-0.009646847162112983
1.04575e-06;-0.009632752018274609
1.04600e-06;-0.009618656874436245
1.04625e-06;-0.009604561730597871
1.04650e-06;-0.00959046658675951
1.04675e-06;-0.009575573962948563
1.04700e-06;-0.009559345064465385
1.04725e-06;-0.00954311616598222
1.04750e-06;-0.009526887267499042
1.04775e-06;-0.009510658369015877
1.04800e-06;-0.009494429470532712
1.04825e-06;-0.009478200572049534
1.04850e-06;-0.009461971673566369
1.04875e-06;-0.009445742775083189
1.04900e-06;-0.009432545004177607
1.04925e-06;-0.009419785227501195
1.04950e-06;-0.009407025450824792
1.04975e-06;-0.00939426567414839
1.05000e-06;-0.009381505897471979
1.05025e-06;-0.009368746120795577
1.05050e-06;-0.009355986344119164
1.05075e-06;-0.009343226567442763
1.05100e-06;-0.009335175359198915
1.05125e-06;-0.009335013929952648
1.05150e-06;-0.00933485250070638
1.05175e-06;-0.009334691071460113
1.05200e-06;-0.009334529642213847
1.05225e-06;-0.00933436821296758
1.05250e-06;-0.009334206783721313
1.05275e-06;-0.009334045354475047
1.05300e-06;-0.009353190681899316
1.05325e-06;-0.009375125812058373
1.05350e-06;-0.009397060942217452
1.05375e-06;-0.00941899607237651
1.05400e-06;-0.00944093120253557
1.05425e-06;-0.009462866332694646
1.05450e-06;-0.009484801462853706
1.05475e-06;-0.009514428218156854
1.05500e-06;-0.009556943226734133
1.05525e-06;-0.009599458235311411
1.05550e-06;-0.009641973243888725
1.05575e-06;-0.009684488252466004
1.05600e-06;-0.009727003261043319
1.05625e-06;-0.009769518269620598
1.05650e-06;-0.009816784381260565
1.05675e-06;-0.009872011543843146
1.05700e-06;-0.00992723870642568
1.05725e-06;-0.009982465869008259
1.05750e-06;-0.010037693031590793
1.05775e-06;-0.010092920194173374
1.05800e-06;-0.010148147356755908
1.05825e-06;-0.010204535687925833
1.05850e-06;-0.01026286969826864
1.05875e-06;-0.010321203708611398
1.05900e-06;-0.010378905030835588
1.05925e-06;-0.010435546207178552
1.05950e-06;-0.010492187383521517
1.05975e-06;-0.01054731952966634
1.06000e-06;-0.010599923112207487
1.06025e-06;-0.01065252669474868
1.06050e-06;-0.01069755974344667
1.06075e-06;-0.010729907442070988
1.06100e-06;-0.010762255140695332
1.06125e-06;-0.01079460283931965
1.06150e-06;-0.010826950537943997
1.06175e-06;-0.010859298236568315
1.06200e-06;-0.01089164593519266
1.06225e-06;-0.010923993633816978
1.06250e-06;-0.010956341332441296
1.06275e-06;-0.010988689031065643
1.06300e-06;-0.011021036729689961
1.06325e-06;-0.011053384428314305
1.06350e-06;-0.011085732126938624
1.06375e-06;-0.011118079825562942
1.06400e-06;-0.011150427524187288
1.06425e-06;-0.011182775222811605
1.06450e-06;-0.011215122921435951
1.06475e-06;-0.01124747062006027
1.06500e-06;-0.011279818318684588
1.06525e-06;-0.011312166017308934
1.06550e-06;-0.011330010143910099
1.06575e-06;-0.011345758522086068
1.06600e-06;-0.011361506900262023
1.06625e-06;-0.011377255278437992
1.06650e-06;-0.011393003656613946
1.06675e-06;-0.011408752034789901
1.06700e-06;-0.01142450041296587
1.06725e-06;-0.011440248791141826
1.06750e-06;-0.011455997169317795
1.06775e-06;-0.01147174554749375
1.06800e-06;-0.011487493925669705
1.06825e-06;-0.011503242303845673
1.06850e-06;-0.011518990682021628
1.06875e-06;-0.011534739060197597
1.06900e-06;-0.011550487438373553
1.06925e-06;-0.011566235816549508
1.06950e-06;-0.011581984194725475
1.06975e-06;-0.01159773257290143
1.07000e-06;-0.0116134809510774
1.07025e-06;-0.011627829470309705
1.07050e-06;-0.01163983235565136
1.07075e-06;-0.011651618040890658
1.07100e-06;-0.011663039780945742
1.07125e-06;-0.011673714199494842
1.07150e-06;-0.011683136389982227
1.07175e-06;-0.011689610599593307
1.07200e-06;-0.011691145108755414
1.07225e-06;-0.011692679617917522
1.07250e-06;-0.011690567903566595
1.07275e-06;-0.011682346498318749
1.07300e-06;-0.011674125093070895
1.07325e-06;-0.011660024723834815
1.07350e-06;-0.011636073435522141
1.07375e-06;-0.011612122147209447
1.07400e-06;-0.011588170858896773
1.07425e-06;-0.011564219570584079
1.07450e-06;-0.011540268282271405
1.07475e-06;-0.011508645316946177
1.07500e-06;-0.01146416752386855
1.07525e-06;-0.011419689730790921
1.07550e-06;-0.011375211937713256
1.07575e-06;-0.011330734144635628
1.07600e-06;-0.011286256351557963
1.07625e-06;-0.011236040739750855
1.07650e-06;-0.011176210714912408
1.07675e-06;-0.01111638069007391
1.07700e-06;-0.011056550665235462
1.07725e-06;-0.010996720640396963
1.07750e-06;-0.010936890615558515
1.07775e-06;-0.010877060590720068
1.07800e-06;-0.010816043672739844
1.07825e-06;-0.010753037970968039
1.07850e-06;-0.010690032269196181
1.07875e-06;-0.010627026567424378
1.07900e-06;-0.010564020865652519
1.07925e-06;-0.010501015163880715
1.07950e-06;-0.010438009462108912
1.07975e-06;-0.010377761757424291
1.08000e-06;-0.010322135412246799
1.08025e-06;-0.01026650906706926
1.08050e-06;-0.010213714270982539
1.08075e-06;-0.010165664079729115
1.08100e-06;-0.010120724653403135
1.08125e-06;-0.01008099769199905
1.08150e-06;-0.010046783865564799
1.08175e-06;-0.01002180796719962
1.08200e-06;-0.00999683206883444
1.08225e-06;-0.009979409443259517
1.08250e-06;-0.009974643244763493
1.08275e-06;-0.009969877046267466
1.08300e-06;-0.009972755664835646
1.08325e-06;-0.009988444104045903
1.08350e-06;-0.010004132543256172
1.08375e-06;-0.010030373310644429
1.08400e-06;-0.010074295787114936
1.08425e-06;-0.010118218263585407
1.08450e-06;-0.010162140740055914
1.08475e-06;-0.010206063216526385
1.08500e-06;-0.010261397121836177
1.08525e-06;-0.010335852263857418
1.08550e-06;-0.010410307405878599
1.08575e-06;-0.01048476254789984
1.08600e-06;-0.010559217689921019
1.08625e-06;-0.010640920980358015
1.08650e-06;-0.010734769424879522
1.08675e-06;-0.01082861786940095
1.08700e-06;-0.010925582125967772
1.08725e-06;-0.01102776730451587
1.08750e-06;-0.011131710446392447
1.08775e-06;-0.01123859926960373
1.08800e-06;-0.011346380910543378
1.08825e-06;-0.011455961403224345
1.08850e-06;-0.011566126940669769
1.08875e-06;-0.011676274261019887
1.08900e-06;-0.011785800328231934
1.08925e-06;-0.011894114533480903
1.08950e-06;-0.012000662326300711
1.08975e-06;-0.01210491009626003
1.09000e-06;-0.012206273545980275
1.09025e-06;-0.012304100796414178
1.09050e-06;-0.01239034353060502
1.09075e-06;-0.012461329496035817
1.09100e-06;-0.012532315461466553
1.09125e-06;-0.01260330142689735
1.09150e-06;-0.012674287392328086
1.09175e-06;-0.012745273357758822
1.09200e-06;-0.01281625932318962
1.09225e-06;-0.012887245288620355
1.09250e-06;-0.012958231254051152
1.09275e-06;-0.013029217219481888
1.09300e-06;-0.013090100108228083
1.09325e-06;-0.013134054063401575
1.09350e-06;-0.013178008018575068
1.09375e-06;-0.013221961973748598
1.09400e-06;-0.01326591592892209
1.09425e-06;-0.01330986988409562
1.09450e-06;-0.013353823839269112
1.09475e-06;-0.013397777794442605
1.09500e-06;-0.013441731749616135
1.09525e-06;-0.013485685704789627
1.09550e-06;-0.013525121894619668
1.09575e-06;-0.013556988019232588
1.09600e-06;-0.013588854143845511
1.09625e-06;-0.013620720268458461
1.09650e-06;-0.013652586393071382
1.09675e-06;-0.013684452517684333
1.09700e-06;-0.013708471776531525
1.09725e-06;-0.01782968862802056
1.09750e-06;-0.023638676733740125
1.09775e-06;-0.02477646284827501
1.09800e-06;-0.023255929932890256
1.09825e-06;-0.019962675472594713
1.09850e-06;-0.015489491689357131
1.09875e-06;-0.013561947447354216
1.09900e-06;-0.014236798705968941
1.09925e-06;-0.01641195699740927
1.09950e-06;-0.01943166474797649
1.09975e-06;-0.020938584018642268
1.10000e-06;-0.02000961953638121
1.10025e-06;-0.017861291357093557
1.10050e-06;-0.015439804521110543
1.10075e-06;-0.013935049269570645
1.10100e-06;-0.013996848276974588
1.10125e-06;-0.015004989046276044
1.10150e-06;-0.016677124009896134
1.10175e-06;-0.01736634482671408
1.10200e-06;-0.016855605035343973
1.10225e-06;-0.015623711948264363
1.10250e-06;-0.014295944076685992
1.10275e-06;-0.013653783363604078
1.10300e-06;-0.01378710558194266
1.10325e-06;-0.014560197645660133
1.10350e-06;-0.015506084814151323
1.10375e-06;-0.015869371174420884
1.10400e-06;-0.015552454465193094
1.10425e-06;-0.014783416052688323
1.10450e-06;-0.013953994315529964
1.10475e-06;-0.013553732185906189
1.10500e-06;-0.01363892728843364
1.10525e-06;-0.014124567969193449
1.10550e-06;-0.014718157281524234
1.10575e-06;-0.014946562078156101
1.10600e-06;-0.01474872077313366
1.10625e-06;-0.01426756740077064
1.10650e-06;-0.013748535908841225
1.10675e-06;-0.013498298699934828
1.10700e-06;-0.013552128389001382
1.10725e-06;-0.01385677876785423
1.10750e-06;-0.014229049648034574
1.10775e-06;-0.01437260930681962
1.10800e-06;-0.0142492629531687
1.10825e-06;-0.013948593894230712
1.10850e-06;-0.013624383413473762
1.10875e-06;-0.013468753840091227
1.10900e-06;-0.01350381183886739
1.10925e-06;-0.013696220805679862
1.10950e-06;-0.013931242682722278
1.10975e-06;-0.014023290458224954
1.11000e-06;-0.01394848314408955
1.11025e-06;-0.01376297676582805
1.11050e-06;-0.01356313541814738
1.11075e-06;-0.013469327497738572
1.11100e-06;-0.013495420643087341
1.11125e-06;-0.01362051520886094
1.11150e-06;-0.013772470233927631
1.11175e-06;-0.01383449865010699
1.11200e-06;-0.013791300197966426
1.11225e-06;-0.013678021535898194
1.11250e-06;-0.013555069784770718
1.11275e-06;-0.013497882111111519
1.11300e-06;-0.013515180470225442
1.11325e-06;-0.013593907576098156
1.11350e-06;-0.01368891257937626
1.11375e-06;-0.013727082463193733
1.11400e-06;-0.013698880382354298
1.11425e-06;-0.013626368757152174
1.11450e-06;-0.013547428809293596
1.11475e-06;-0.013509354617646725
1.11500e-06;-0.01351764624435298
1.11525e-06;-0.013564161363433818
1.11550e-06;-0.013620656990392268
1.11575e-06;-0.013641378144139316
1.11600e-06;-0.013620393186930126
1.11625e-06;-0.013571567538971728
1.11650e-06;-0.013518672773627166
1.11675e-06;-0.013491373543211078
1.11700e-06;-0.013493151967693838
1.11725e-06;-0.013518948134312573
1.11750e-06;-0.013551109691725485
1.11775e-06;-0.013561016803795383
1.11800e-06;-0.013544861432916278
1.11825e-06;-0.013510056976980322
1.11850e-06;-0.013476296814085631
1.11875e-06;-0.013457168975965082
1.11900e-06;-0.013456831019162643
1.11925e-06;-0.013474212758033994
1.11950e-06;-0.013490839828294599
1.11975e-06;-0.013496707608948132
1.12000e-06;-0.013486797653103358
1.12025e-06;-0.013466009136254078
1.12050e-06;-0.013445944085665188
1.12075e-06;-0.013435975232488111
1.12100e-06;-0.013438329382632928
1.12125e-06;-0.01345098020043432
1.12150e-06;-0.013466163934673835
1.12175e-06;-0.013470996109294886
1.12200e-06;-0.013463001359001416
1.12225e-06;-0.01344555805757024
1.12250e-06;-0.013424722879478625
1.12275e-06;-0.013408000794754581
1.12300e-06;-0.013396459080380337
1.12325e-06;-0.013388694450411126
1.12350e-06;-0.013377047795954262
1.12375e-06;-0.013364074769691843
1.12400e-06;-0.013334256614820355
1.12425e-06;-0.013304034249399695
1.12450e-06;-0.013268678347019279
1.12475e-06;-0.013233322444638831
1.12500e-06;-0.013197966542258415
1.12525e-06;-0.013162610639877968
1.12550e-06;-0.01312114396354002
1.12575e-06;-0.013075123382877403
1.12600e-06;-0.013029102802214747
1.12625e-06;-0.01298308222155213
1.12650e-06;-0.0129366412966631
1.12675e-06;-0.012884861934600488
1.12700e-06;-0.012833082572537876
1.12725e-06;-0.012781190591970335
1.12750e-06;-0.012727868338842442
1.12775e-06;-0.012674546085714503
1.12800e-06;-0.012620855069297174
1.12825e-06;-0.0125624807016428
1.12850e-06;-0.012504106333988477
1.12875e-06;-0.012446100140472463
1.12900e-06;-0.012392769815882212
1.12925e-06;-0.012339690741590234
1.12950e-06;-0.012289802585235763
1.12975e-06;-0.012239977105497941
1.13000e-06;-0.01219094762855731
1.13025e-06;-0.012142436649932309
1.13050e-06;-0.012100510680709128
1.13075e-06;-0.01205858471148591
1.13100e-06;-0.012017595628520929
1.13125e-06;-0.011988505147021098
1.13150e-06;-0.011959414665521242
1.13175e-06;-0.01193087787278742
1.13200e-06;-0.011909373013657814
1.13225e-06;-0.011887868154528226
1.13250e-06;-0.011867538040096668
1.13275e-06;-0.01186212736637901
1.13300e-06;-0.011856716692661352
1.13325e-06;-0.01185130601894369
1.13350e-06;-0.011845895345226032
1.13375e-06;-0.01184048467150837
1.13400e-06;-0.011836386241299195
1.13425e-06;-0.011848953508121056
1.13450e-06;-0.011861520774942928
1.13475e-06;-0.01187408804176479
1.13500e-06;-0.011886655308586661
1.13525e-06;-0.011899222575408522
1.13550e-06;-0.011912730426544997
1.13575e-06;-0.011938183845038289
1.13600e-06;-0.01196363726353156
1.13625e-06;-0.011989090682024852
1.13650e-06;-0.012014544100518124
1.13675e-06;-0.01204058473500884
1.13700e-06;-0.012074083104166154
1.13725e-06;-0.01210758147332347
1.13750e-06;-0.012141079842480812
1.13775e-06;-0.012174578211638126
1.13800e-06;-0.012208263822089182
1.13825e-06;-0.012244327426146017
1.13850e-06;-0.012280449730049324
1.13875e-06;-0.01231731753114937
1.13900e-06;-0.012354201647203819
1.13925e-06;-0.012391292965721773
1.13950e-06;-0.012428332110374998
1.13975e-06;-0.01246464079579805
1.14000e-06;-0.012500008600823563
1.14025e-06;-0.01253423732416718
1.14050e-06;-0.012566784254182294
1.14075e-06;-0.012598822929380365
1.14100e-06;-0.012624406689207161
1.14125e-06;-0.012649990449033935
1.14150e-06;-0.012675574208860708
1.14175e-06;-0.012701157968687503
1.14200e-06;-0.012726741728514276
1.14225e-06;-0.012752325488341073
1.14250e-06;-0.012777909248167846
1.14275e-06;-0.01280349300799462
1.14300e-06;-0.012824042154444878
1.14325e-06;-0.01284083937883328
1.14350e-06;-0.012857636603221697
1.14375e-06;-0.0128744338276101
1.14400e-06;-0.012891231051998502
1.14425e-06;-0.012908028276386919
1.14450e-06;-0.01292482550077532
1.14475e-06;-0.012941622725163736
1.14500e-06;-0.012957968628127854
1.14525e-06;-0.012968582678680111
1.14550e-06;-0.01297919672923236
1.14575e-06;-0.01298981077978461
1.14600e-06;-0.013000424830336867
1.14625e-06;-0.013011038880889116
1.14650e-06;-0.013021652931441375
1.14675e-06;-0.013032266981993624
1.14700e-06;-0.013042631541203584
1.14725e-06;-0.01304982752149168
1.14750e-06;-0.013057023501779768
