Time(s);Current(A)
8.00000e-06;-0.0005554353546401644
8.00025e-06;-0.0005472119562209538
8.00050e-06;-0.0005389885578016874
8.00075e-06;-0.0005309628490934357
8.00100e-06;-0.0005251363786513589
8.00125e-06;-0.0005193099082092426
8.00150e-06;-0.0005137487224961589
8.00175e-06;-0.0005111387491884688
8.00200e-06;-0.0005087708033689872
8.00225e-06;-0.0005090953401824113
8.00250e-06;-0.0005096506587235903
8.00275e-06;-0.0005127733542124561
8.00300e-06;-0.000516134539035687
8.00325e-06;-0.0005221488455995506
8.00350e-06;-0.0005284373278843505
8.00375e-06;-0.0005377759321706636
8.00400e-06;-0.0005473729753142587
8.00425e-06;-0.0005598450726105264
8.00450e-06;-0.0005725962231912277
8.00475e-06;-0.0005884517571933052
8.00500e-06;-0.00060430729119549
8.00525e-06;-0.000620474022714106
8.00550e-06;-0.0006401027325169978
8.00575e-06;-0.0006597314423200228
8.00600e-06;-0.0006797016607845104
8.00625e-06;-0.0007034710598579452
8.00650e-06;-0.0007272404589315411
8.00675e-06;-0.0007510098580051368
8.00700e-06;-0.0007747792570785716
8.00725e-06;-0.0007985486561521674
8.00750e-06;-0.0008224911695259075
8.00775e-06;-0.0008483595271505908
8.00800e-06;-0.0008742278847754494
8.00825e-06;-0.000900096242400308
8.00850e-06;-0.0009259646000251666
8.00875e-06;-0.0009518329576498499
8.00900e-06;-0.0009775869037641999
8.00925e-06;-0.0010020680564141687
8.00950e-06;-0.0010265492090639717
8.00975e-06;-0.0010508168418885738
8.01000e-06;-0.0010727091312092017
8.01025e-06;-0.0010946014205296811
8.01050e-06;-0.0011161542935165568
8.01075e-06;-0.0011339312624054953
8.01100e-06;-0.0011517082312943133
8.01125e-06;-0.001168986869372357
8.01150e-06;-0.0011807217278380485
8.01175e-06;-0.0011924565863036603
8.01200e-06;-0.0012036162955330113
8.01225e-06;-0.0012083776433906364
8.01250e-06;-0.0012131389912482292
8.01275e-06;-0.0012173134472312681
8.01300e-06;-0.0012149589085422006
8.01325e-06;-0.0012126043698531487
8.01350e-06;-0.001209641796779706
8.01375e-06;-0.0011999150250052927
8.01400e-06;-0.0011901882532309453
8.01425e-06;-0.001179904539870451
8.01450e-06;-0.0011634250197432737
8.01475e-06;-0.0011469454996162081
8.01500e-06;-0.0011299718029285015
8.01525e-06;-0.0011075005414073209
8.01550e-06;-0.0010850292798862927
8.01575e-06;-0.0010621370084584409
8.01600e-06;-0.0010345611291006857
8.01625e-06;-0.0010069852497431174
8.01650e-06;-0.000979103208857567
8.01675e-06;-0.0009478152135352698
8.01700e-06;-0.0009165272182129727
8.01725e-06;-0.0008850656405175974
8.01750e-06;-0.0008516730113970985
8.01775e-06;-0.0008182049216636885
8.01800e-06;-0.0007838973554253537
8.01825e-06;-0.0007495799716499102
8.01850e-06;-0.0007151533707447749
8.01875e-06;-0.000680782662589542
8.01900e-06;-0.0006470337443765918
8.01925e-06;-0.000613403042269652
8.01950e-06;-0.0005810874586030843
8.01975e-06;-0.0005489580024734133
8.02000e-06;-0.0005188991589240723
8.02025e-06;-0.0004891005377111119
8.02050e-06;-0.00046219681131775495
8.02075e-06;-0.00043561769734043855
8.02100e-06;-0.0004126497983552232
8.02125e-06;-0.00038995043420727703
8.02150e-06;-0.00037023843894276175
8.02175e-06;-0.00035067998611446147
8.02200e-06;-0.00033300060963212594
8.02225e-06;-0.0003172231466551412
8.02250e-06;-0.0003016350817272951
8.02275e-06;-0.00028829241370250785
8.02300e-06;-0.0002766249410844064
8.02325e-06;-0.0002665776706327101
8.02350e-06;-0.00025787332690263424
8.02375e-06;-0.00025027366727149454
8.02400e-06;-0.00024378800151696742
8.02425e-06;-0.00023884032123549224
8.02450e-06;-0.0002340375732421977
8.02475e-06;-0.0002309481321474611
8.02500e-06;-0.00022911874738353917
8.02525e-06;-0.0002288100576057988
8.02550e-06;-0.00022863531599676167
8.02575e-06;-0.000229950707269995
8.02600e-06;-0.00023138442986722632
8.02625e-06;-0.000234134552670499
8.02650e-06;-0.00023700162898205305
8.02675e-06;-0.00024116977771665985
8.02700e-06;-0.00024545593892534156
8.02725e-06;-0.00025105495323112366
8.02750e-06;-0.00025665396753694376
8.02775e-06;-0.00026234255170432783
8.02800e-06;-0.0002690275735033403
8.02825e-06;-0.000275712595302398
8.02850e-06;-0.0002823976171014557
8.02875e-06;-0.00028908263890046814
8.02900e-06;-0.0002957755579357842
8.02925e-06;-0.00030255633133704455
8.02950e-06;-0.000309337104738259
8.02975e-06;-0.00031611787813951936
8.03000e-06;-0.0003228986515407797
8.03025e-06;-0.00032958006154735055
8.03050e-06;-0.0003351560838271098
8.03075e-06;-0.00034073210610686906
8.03100e-06;-0.0003463025459126938
8.03125e-06;-0.0003518108823840875
8.03150e-06;-0.0003573192188554812
8.03175e-06;-0.0003630425449819272
8.03200e-06;-0.00037115756602817826
8.03225e-06;-0.0003792725870744293
8.03250e-06;-0.0003875399371666333
8.03275e-06;-0.0003975019018455839
8.03300e-06;-0.00040758767670612093
8.03325e-06;-0.00041905080240803695
8.03350e-06;-0.0004307125580040843
8.03375e-06;-0.0004445840111244575
8.03400e-06;-0.0004586799709897157
8.03425e-06;-0.00047527350052195636
8.03450e-06;-0.0004918670300543094
8.03475e-06;-0.0005086645067130732
8.03500e-06;-0.0005277308334987766
8.03525e-06;-0.0005467971602846093
8.03550e-06;-0.0005660840463973514
8.03575e-06;-0.0005878245883458304
8.03600e-06;-0.0006095651302944569
8.03625e-06;-0.0006315006323626127
8.03650e-06;-0.0006556050068233253
8.03675e-06;-0.0006797093812842013
8.03700e-06;-0.0007038137557450773
8.03725e-06;-0.00072791813020579
8.03750e-06;-0.000752022504666666
8.03775e-06;-0.0007761600227159141
8.03800e-06;-0.0008006662531662938
8.03825e-06;-0.0008251724836168395
8.03850e-06;-0.0008496787140673853
8.03875e-06;-0.000874184944517765
8.03900e-06;-0.0008986911749683107
8.03925e-06;-0.0009228961006519774
8.03950e-06;-0.0009437491018881309
8.03975e-06;-0.0009646021031244255
8.04000e-06;-0.0009854551043607203
8.04025e-06;-0.0010063081055968737
8.04050e-06;-0.0010271611068331684
8.04075e-06;-0.0010472860524982392
8.04100e-06;-0.001059311600022451
8.04125e-06;-0.0010713371475467443
8.04150e-06;-0.0010833626950710377
8.04175e-06;-0.0010953882425952493
8.04200e-06;-0.0011074137901195425
8.04225e-06;-0.0011186673767997239
8.04250e-06;-0.0011213331324491254
8.04275e-06;-0.0011239988880985452
8.04300e-06;-0.0011261218451772722
8.04325e-06;-0.0011222063322429362
8.04350e-06;-0.0011182908193086269
8.04375e-06;-0.0011138347353523033
8.04400e-06;-0.0011033649621888816
8.04425e-06;-0.0010928951890255309
8.04450e-06;-0.0010819415673195664
8.04475e-06;-0.0010656052768433435
8.04500e-06;-0.0010492689863672315
8.04525e-06;-0.0010325026573720197
8.04550e-06;-0.0010109522798515977
8.04575e-06;-0.0009894019023313216
8.04600e-06;-0.000967504249647861
8.04625e-06;-0.000941743265754834
8.04650e-06;-0.0009159822818619816
8.04675e-06;-0.0008899774437956321
8.04700e-06;-0.0008612598017665057
8.04725e-06;-0.0008325421597375738
8.04750e-06;-0.0008036831067717645
8.04775e-06;-0.0007732508998827709
8.04800e-06;-0.0007428186929939835
8.04825e-06;-0.0007123616390153908
8.04850e-06;-0.0006816281686760628
8.04875e-06;-0.0006509432507374015
8.04900e-06;-0.0006207984635767218
8.04925e-06;-0.0005907585704362942
8.04950e-06;-0.0005618855915629389
8.04975e-06;-0.0005331788267087421
8.05000e-06;-0.0005063211425751677
8.05025e-06;-0.00047969589162714276
8.05050e-06;-0.00045565638960435483
8.05075e-06;-0.00043190600804082763
8.05100e-06;-0.0004113720041890315
8.05125e-06;-0.0003910669109710205
8.05150e-06;-0.0003733083793586764
8.05175e-06;-0.0003557182317053438
8.05200e-06;-0.00034000130469581566
8.05225e-06;-0.0003244822658637993
8.05250e-06;-0.000311164673188933
8.05275e-06;-0.0002980738836181288
8.05300e-06;-0.00028750621001971265
8.05325e-06;-0.00027712103098916834
8.05350e-06;-0.00026876604886085816
8.05375e-06;-0.00026054906313456697
8.05400e-06;-0.00025386724566724253
8.05425e-06;-0.0002473353244648415
8.05450e-06;-0.0002424709538980487
8.05475e-06;-0.00023776800740070555
8.05500e-06;-0.00023486085488023256
8.05525e-06;-0.00023208078785379136
8.05550e-06;-0.00023071450853299536
8.05575e-06;-0.0002294408633132157
8.05600e-06;-0.00022919774446549454
8.05625e-06;-0.00022904813945650288
8.05650e-06;-0.00022993884763571298
8.05675e-06;-0.0002309420430237646
8.05700e-06;-0.0002331966246071231
8.05725e-06;-0.00023545120619046628
8.05750e-06;-0.00023780008765560132
8.05775e-06;-0.00024119802680023502
8.05800e-06;-0.0002445959659448457
8.05825e-06;-0.00024799390508947945
8.05850e-06;-0.0002513918442341131
8.05875e-06;-0.00025483541332166316
8.05900e-06;-0.0002587866017313641
8.05925e-06;-0.00026273779014106513
8.05950e-06;-0.00026668897855073936
8.05975e-06;-0.0002706401669604403
8.06000e-06;-0.0002745494308872604
8.06025e-06;-0.0002779922976149702
8.06050e-06;-0.00028143516434265664
8.06075e-06;-0.0002848184573446693
8.06100e-06;-0.00028753901065619783
8.06125e-06;-0.0002900969397104329
8.06150e-06;-0.00029084572306042623
8.06175e-06;-0.000291353207437349
8.06200e-06;-0.0002891763136787688
8.06225e-06;-0.0002868269925282987
8.06250e-06;-0.0002824511998161154
8.06275e-06;-0.00027676754919359644
8.06300e-06;-0.00026982492434102646
8.06325e-06;-0.00026154368749298776
8.06350e-06;-0.000251678682229841
8.06375e-06;-0.0002400678258638024
8.06400e-06;-0.0002267541013173918
8.06425e-06;-0.00021185427795926328
8.06450e-06;-0.0001954851737639076
8.06475e-06;-0.00017776347048625374
8.06500e-06;-0.00015879855561444796
8.06525e-06;-0.00013861927245393773
8.06550e-06;-0.00011715081877632422
8.06575e-06;-9.437038473327118e-05
8.06600e-06;-7.038364651143844e-05
8.06625e-06;-4.534250034006525e-05
8.06650e-06;-1.939883686013355e-05
8.06675e-06;7.295530230526661e-06
8.06700e-06;3.4593359821158416e-05
8.06725e-06;6.24153065844633e-05
8.06750e-06;9.087097472804212e-05
8.06775e-06;0.00011937151144534924
8.06800e-06;0.00014837119748257582
8.06825e-06;0.00017735970947081373
8.06850e-06;0.00020622391353948192
8.06875e-06;0.00023502092749021187
8.06900e-06;0.00026307047168846033
8.06925e-06;0.00029101123805883115
8.06950e-06;0.00031774188397246187
8.06975e-06;0.0003443170875530008
8.07000e-06;0.0003691630421658296
8.07025e-06;0.0003937925212916303
8.07050e-06;0.00041601377605839844
8.07075e-06;0.0004379629746377201
8.07100e-06;0.0004568856303645031
8.07125e-06;0.00047555799291035614
8.07150e-06;0.0004914459194758393
8.07175e-06;0.000507115001383461
8.07200e-06;0.0005203495026222836
8.07225e-06;0.0005333431093516786
8.07250e-06;0.0005436568374774445
8.07275e-06;0.0005537081301216306
8.07300e-06;0.0005608399073597313
8.07325e-06;0.0005676854589922297
8.07350e-06;0.000571346837278992
8.07375e-06;0.0005750082155657793
8.07400e-06;0.0005783655366556149
8.07425e-06;0.0005783403133358858
8.07450e-06;0.0005783150900161566
8.07475e-06;0.000577990365412656
8.07500e-06;0.0005743337795566421
8.07525e-06;0.0005706771937006034
8.07550e-06;0.0005667874593476245
8.07575e-06;0.0005603040184393755
8.07600e-06;0.0005538205775310826
8.07625e-06;0.0005471476365585666
8.07650e-06;0.0005383665646510958
8.07675e-06;0.0005295854927435656
8.07700e-06;0.0005206261180155456
8.07725e-06;0.000509683178304319
8.07750e-06;0.0004987402385931665
8.07775e-06;0.00048779729888193986
8.07800e-06;0.0004768543591707132
8.07825e-06;0.0004659114194595607
8.07850e-06;0.00045460908501506494
8.07875e-06;0.0004430491335149445
8.07900e-06;0.0004314891820149023
8.07925e-06;0.00041992923051478183
8.07950e-06;0.0004083692790146613
8.07975e-06;0.0003969135108051826
8.08000e-06;0.00038661675021257294
8.08025e-06;0.0003763199896199633
8.08050e-06;0.000366147627300591
8.08075e-06;0.00035735915816948637
8.08100e-06;0.0003485723356961477
8.08125e-06;0.0003398038317927958
8.08150e-06;0.00033080877442497525
8.08175e-06;0.00031909986475110985
8.08200e-06;0.00030506071618662114
8.08225e-06;0.0002888859799501514
8.08250e-06;0.00027077036546830176
8.08275e-06;0.0002509082659167671
8.08300e-06;0.0002294615128853868
8.08325e-06;0.00020623112088024326
8.08350e-06;0.00018053831779861603
8.08375e-06;0.0001519004874098805
8.08400e-06;0.00012038358619599686
8.08425e-06;8.625487433224832e-05
8.08450e-06;4.9781604754651924e-05
8.08475e-06;1.123075865236758e-05
8.08500e-06;-2.915101935677115e-05
8.08525e-06;-7.134312321590526e-05
8.08550e-06;-0.0001156254883220774
8.08575e-06;-0.00016215514314157345
8.08600e-06;-0.00021074547648101925
8.08625e-06;-0.0002611311610009726
8.08650e-06;-0.0003133843382740598
8.08675e-06;-0.00036580954607614793
8.08700e-06;-0.00042014854152104677
8.08725e-06;-0.00047448753696594556
8.08750e-06;-0.0005289631001885436
8.08775e-06;-0.0005849579386647246
8.08800e-06;-0.0006409527771409056
8.08825e-06;-0.0006968814308562726
8.08850e-06;-0.0007520737991165469
8.08875e-06;-0.0008072661673768213
8.08900e-06;-0.0008621765394936133
8.08925e-06;-0.0009139497897518305
8.08950e-06;-0.0009657230400100477
8.08975e-06;-0.0010171412426895105
8.09000e-06;-0.001064609648372104
8.09025e-06;-0.0011116638500160655
8.09050e-06;-0.0011541101569224183
8.09075e-06;-0.0011960153279208224
8.09100e-06;-0.0012319005254969578
8.09125e-06;-0.0012670365802037184
8.09150e-06;-0.00129383864691729
8.09175e-06;-0.0013197705198126927
8.09200e-06;-0.0013360217494937123
8.09225e-06;-0.0013513999433117782
8.09250e-06;-0.0013570658770251142
8.09275e-06;-0.0013618566289394281
8.09300e-06;-0.0013569112478605423
8.09325e-06;-0.0013510377662988252
8.09350e-06;-0.0013348394473815758
8.09375e-06;-0.0013177145978271333
8.09400e-06;-0.0012902823749765125
8.09425e-06;-0.0012619992285241644
8.09450e-06;-0.0012242498141922093
8.09475e-06;-0.00118572551536133
8.09500e-06;-0.0011385808606887372
8.09525e-06;-0.0010908827321769654
8.09550e-06;-0.0010366730214157202
8.09575e-06;-0.0009781939054165632
8.09600e-06;-0.0009157777248387925
8.09625e-06;-0.0008498096589768095
8.09650e-06;-0.0007806750911524405
8.09675e-06;-0.0007087592402647561
8.09700e-06;-0.0006344426516971625
8.09725e-06;-0.0005580559586400582
8.09750e-06;-0.0004798783797618021
8.09775e-06;-0.00040025102927677915
8.09800e-06;-0.00031961630768593684
8.09825e-06;-0.00023844989039518633
8.09850e-06;-0.0001572274687105483
8.09875e-06;-7.642458076898444e-05
8.09900e-06;3.486131305525239e-06
8.09925e-06;8.206336997869725e-05
8.09950e-06;0.00015889806912053767
8.09975e-06;0.00023354241946030993
8.10000e-06;0.0003054851582384373
8.10025e-06;0.00037419426983403923
8.10050e-06;0.00043913776773015905
8.10075e-06;0.000499783620103296
8.10100e-06;0.0005555945341268662
8.10125e-06;0.0006059836451623382
8.10150e-06;0.0006503830041200647
8.10175e-06;0.0006884490098573166
8.10200e-06;0.0007200576591849249
8.10225e-06;0.0007451436479084986
8.10250e-06;0.0007636417300407396
8.10275e-06;0.0007754866649937313
8.10300e-06;0.0007806098936748833
8.10325e-06;0.0007789119049877958
8.10350e-06;0.0007703049958771154
8.10375e-06;0.0007548419321888602
8.10400e-06;0.0007327131592701947
8.10425e-06;0.0007041459102282247
8.10450e-06;0.0006693673209574764
8.10475e-06;0.0006286046053611403
8.10500e-06;0.0005820828950258905
8.10525e-06;0.0005300077644095621
8.10550e-06;0.00047259247455904503
8.10575e-06;0.00041013802827958874
8.10600e-06;0.0003430317859047309
8.10625e-06;0.0002716839731249499
8.10650e-06;0.00019650489214191372
8.10675e-06;0.00011790478469901325
8.10700e-06;3.629256798682741e-05
8.10725e-06;-4.793504135561177e-05
8.10750e-06;-0.0001343766939669164
8.10775e-06;-0.00022260753152513217
8.10800e-06;-0.0003123736908877575
8.10825e-06;-0.0004021796022724206
8.10850e-06;-0.0004924277428952823
8.10875e-06;-0.0005825429135034713
8.10900e-06;-0.0006711788328856664
8.10925e-06;-0.0007595097461238654
8.10950e-06;-0.0008444475581858458
8.10975e-06;-0.000928893838104566
8.11000e-06;-0.0010078719714924295
8.11025e-06;-0.0010861623012139658
8.11050e-06;-0.0011568010230222784
8.11075e-06;-0.0012265852254677331
8.11100e-06;-0.0012868631582569098
8.11125e-06;-0.0013464772047237492
8.11150e-06;-0.0013987057165001705
8.11175e-06;-0.001450458512210131
8.11200e-06;-0.0014969191104516688
8.11225e-06;-0.0015426514682969229
8.11250e-06;-0.001580282371831514
8.11275e-06;-0.0016179132753661053
8.11300e-06;-0.001654656526350776
8.11325e-06;-0.0016815249109926815
8.11350e-06;-0.0017083932956345872
8.11375e-06;-0.0017346594003978188
8.11400e-06;-0.0017542253235372717
8.11425e-06;-0.0017737912466767247
8.11450e-06;-0.0017926970376816458
8.11475e-06;-0.0018042590581995315
8.11500e-06;-0.0018158210787174171
8.11525e-06;-0.0018268476138125593
8.11550e-06;-0.0018319170354168465
8.11575e-06;-0.0018369864570211335
8.11600e-06;-0.001841405214213078
8.11625e-06;-0.0018385855264641269
8.11650e-06;-0.0018357658387151755
8.11675e-06;-0.0018329461509662434
8.11700e-06;-0.001830126463217292
8.11725e-06;-0.0018273067754683407
8.11750e-06;-0.0018244870877194086
8.11775e-06;-0.0018216673999704573
8.11800e-06;-0.001815299014562034
8.11825e-06;-0.0018063868939267673
8.11850e-06;-0.0017974747732914405
8.11875e-06;-0.0017885626526561134
8.11900e-06;-0.001779650532020847
8.11925e-06;-0.00177073841138552
8.11950e-06;-0.0017618262907501932
8.11975e-06;-0.0017529811633217008
8.12000e-06;-0.0017448813150724492
8.12025e-06;-0.001736781466823143
8.12050e-06;-0.0017286816185738368
8.12075e-06;-0.0017205817703245853
8.12100e-06;-0.001712481922075279
8.12125e-06;-0.001704355128808118
8.12150e-06;-0.0016959285803607154
8.12175e-06;-0.0016875020319132555
8.12200e-06;-0.0016790754834657955
8.12225e-06;-0.0016706489350183926
8.12250e-06;-0.0016622223865709327
8.12275e-06;-0.0016534908102157951
8.12300e-06;-0.0016413658905728725
8.12325e-06;-0.0016292409709298677
8.12350e-06;-0.001617116051286863
8.12375e-06;-0.0016049911316439404
8.12400e-06;-0.0015928662120009358
8.12425e-06;-0.001580741292357931
8.12450e-06;-0.0015686163727150085
8.12475e-06;-0.0015537204451516109
8.12500e-06;-0.0015368382366652128
8.12525e-06;-0.0015199560281789293
8.12550e-06;-0.001503073819692531
8.12575e-06;-0.001486191611206133
8.12600e-06;-0.0014693094027198495
8.12625e-06;-0.0014524271942334514
8.12650e-06;-0.0014353357528347733
8.12675e-06;-0.0014159166585201062
8.12700e-06;-0.0013964975642053075
8.12725e-06;-0.0013770784698905088
8.12750e-06;-0.0013576593755758417
8.12775e-06;-0.001338240281261043
8.12800e-06;-0.0013188211869462443
8.12825e-06;-0.0012994020926314455
8.12850e-06;-0.001280133038603302
8.12875e-06;-0.0012625331374188622
8.12900e-06;-0.0012449332362344226
8.12925e-06;-0.0012273333350501022
8.12950e-06;-0.0012097334338656625
8.12975e-06;-0.0011921335326812229
8.13000e-06;-0.0011745336314969025
8.13025e-06;-0.0011569337303124628
8.13050e-06;-0.0011396986702382871
8.13075e-06;-0.0011265223572578238
8.13100e-06;-0.0011133460442772714
8.13125e-06;-0.001100520903067229
8.13150e-06;-0.00109160244167745
8.13175e-06;-0.0010826839802876103
8.13200e-06;-0.0010741671657693436
8.13225e-06;-0.0010701185513170791
8.13250e-06;-0.0010660699368647876
8.13275e-06;-0.0010624325387820267
8.13300e-06;-0.0010633697985380532
8.13325e-06;-0.0010643070582940862
8.13350e-06;-0.0010656673410678317
8.13375e-06;-0.001071733627072884
8.13400e-06;-0.0010777999130779775
8.13425e-06;-0.0010842539045723687
8.13450e-06;-0.0010950210024676399
8.13475e-06;-0.001105788100362984
8.13500e-06;-0.0011170890779431788
8.13525e-06;-0.0011343293056753371
8.13550e-06;-0.0011515695334076122
8.13575e-06;-0.0011688097611398875
8.13600e-06;-0.0011860499888720459
8.13625e-06;-0.0012032902166043212
8.13650e-06;-0.0012205304443365962
8.13675e-06;-0.001238206603621393
8.13700e-06;-0.001260732369687383
8.13725e-06;-0.0012832581357535254
8.13750e-06;-0.001305783901819668
8.13775e-06;-0.0013283096678856578
8.13800e-06;-0.0013508354339518004
8.13825e-06;-0.0013733612000179428
8.13850e-06;-0.0013958868695202458
8.13875e-06;-0.0014184114647808658
8.13900e-06;-0.001440936060041486
8.13925e-06;-0.0014634606553019535
8.13950e-06;-0.0014859852505625735
8.13975e-06;-0.0015081854360020394
8.14000e-06;-0.0015267766602178382
8.14025e-06;-0.001545367884433763
8.14050e-06;-0.0015639591086496875
8.14075e-06;-0.0015825503328654863
8.14100e-06;-0.0016004882693798068
8.14125e-06;-0.0016111585776363286
8.14150e-06;-0.001621828885892778
8.14175e-06;-0.0016324991941492999
8.14200e-06;-0.0016431695024058217
8.14225e-06;-0.0016538398106622713
8.14250e-06;-0.0016645101189187931
8.14275e-06;-0.001675180427175315
