Time(s);Current(A)
1.75000e-06;-0.007176686905823783
1.75025e-06;-0.007119793806724385
1.75050e-06;-0.007062900707624988
1.75075e-06;-0.007006007608525542
1.75100e-06;-0.006945502567069905
1.75125e-06;-0.006882293797062956
1.75150e-06;-0.006819085027056061
1.75175e-06;-0.006755876257049112
1.75200e-06;-0.0066926674870422176
1.75225e-06;-0.006628484759181098
1.75250e-06;-0.006563572972714206
1.75275e-06;-0.006498685420679376
1.75300e-06;-0.006433816009389629
1.75325e-06;-0.00636986697389131
1.75350e-06;-0.006306606888010553
1.75375e-06;-0.0062445441428583374
1.75400e-06;-0.006184283931357391
1.75425e-06;-0.006125643784771574
1.75450e-06;-0.00606880973764907
1.75475e-06;-0.006014129696022789
1.75500e-06;-0.005962896542355953
1.75525e-06;-0.005913498494506417
1.75550e-06;-0.0058680649067894665
1.75575e-06;-0.005825598925693437
1.75600e-06;-0.005786841877944175
1.75625e-06;-0.0057508611615964805
1.75650e-06;-0.005718764523410055
1.75675e-06;-0.0056895753217172905
1.75700e-06;-0.005660386120024551
1.75725e-06;-0.005636523522207763
1.75750e-06;-0.005616648167142894
1.75775e-06;-0.005596772812078025
1.75800e-06;-0.005584083942582141
1.75825e-06;-0.005576774534965486
1.75850e-06;-0.005569465127348824
1.75875e-06;-0.00556215571973217
1.75900e-06;-0.005554846312115514
1.75925e-06;-0.005547536904498853
1.75950e-06;-0.005548131161851164
1.75975e-06;-0.005554641727529448
1.76000e-06;-0.005561152293207727
1.76025e-06;-0.005567662858886011
1.76050e-06;-0.00557417342456429
1.76075e-06;-0.005580683990242568
1.76100e-06;-0.005592875063666068
1.76125e-06;-0.005609318295474355
1.76150e-06;-0.005625761527282657
1.76175e-06;-0.005642204759090944
1.76200e-06;-0.005658647990899233
1.76225e-06;-0.005675091222707534
1.76250e-06;-0.0056915344545158215
1.76275e-06;-0.005710139572664485
1.76300e-06;-0.005730362976280096
1.76325e-06;-0.005750586379895707
1.76350e-06;-0.005770809783511335
1.76375e-06;-0.005791033187126946
1.76400e-06;-0.005811256590742574
1.76425e-06;-0.005831479994358185
1.76450e-06;-0.005850507097131841
1.76475e-06;-0.005868638705896187
1.76500e-06;-0.005886770314660518
1.76525e-06;-0.005903325531323813
1.76550e-06;-0.00591870073570814
1.76575e-06;-0.005933533994277809
1.76600e-06;-0.005947961577942465
1.76625e-06;-0.0059654592114113105
1.76650e-06;-0.005985254938396066
1.76675e-06;-0.006008777441661158
1.76700e-06;-0.006035089632700504
1.76725e-06;-0.0060650845696968315
1.76750e-06;-0.006097836235457905
1.76775e-06;-0.006130587901219006
1.76800e-06;-0.00617195636420709
1.76825e-06;-0.006219774952469382
1.76850e-06;-0.006267593540731632
1.76875e-06;-0.0063154121289938836
1.76900e-06;-0.006363230717256175
1.76925e-06;-0.006412379701638276
1.76950e-06;-0.00647870129881892
1.76975e-06;-0.006545022895999509
1.77000e-06;-0.006611344493180154
1.77025e-06;-0.006677666090360742
1.77050e-06;-0.00674398768754133
1.77075e-06;-0.006817101970858664
1.77100e-06;-0.00689530093649754
1.77125e-06;-0.006973499902136482
1.77150e-06;-0.0070541394437430805
1.77175e-06;-0.007136605884639274
1.77200e-06;-0.007219072325535537
1.77225e-06;-0.0073029041946952
1.77250e-06;-0.007387758158621706
1.77275e-06;-0.007472828501405354
1.77300e-06;-0.007558060815127726
1.77325e-06;-0.007642304443917982
1.77350e-06;-0.007725807990111224
1.77375e-06;-0.007807289292794078
1.77400e-06;-0.00788725684000215
1.77425e-06;-0.007964605736991237
1.77450e-06;-0.00803999443676121
1.77475e-06;-0.008111712818487965
1.77500e-06;-0.008180683774396322
1.77525e-06;-0.008243249561047841
1.77550e-06;-0.008301020742114721
1.77575e-06;-0.008358791923181551
1.77600e-06;-0.008407585356824593
1.77625e-06;-0.0084496584750146
1.77650e-06;-0.008491731593204571
1.77675e-06;-0.008518817808140235
1.77700e-06;-0.008534685538886136
1.77725e-06;-0.008550553269632038
1.77750e-06;-0.008566421000377952
1.77775e-06;-0.008582288731123853
1.77800e-06;-0.008598156461869767
1.77825e-06;-0.008611516550324876
1.77850e-06;-0.008592508256576956
1.77875e-06;-0.008573499962829053
1.77900e-06;-0.00855449166908115
1.77925e-06;-0.008535483375333231
1.77950e-06;-0.008516475081585328
1.77975e-06;-0.008497466787837409
1.78000e-06;-0.008463093242800599
1.78025e-06;-0.008417218000199761
1.78050e-06;-0.008371342757598883
1.78075e-06;-0.008325467514998044
1.78100e-06;-0.008279592272397168
1.78125e-06;-0.008233717029796328
1.78150e-06;-0.008179108159507929
1.78175e-06;-0.00811796171021021
1.78200e-06;-0.008056815260912543
1.78225e-06;-0.007995668811614827
1.78250e-06;-0.00793452236231716
1.78275e-06;-0.007873375913019441
1.78300e-06;-0.0078101037578284654
1.78325e-06;-0.0077452404001355085
1.78350e-06;-0.007680724313863805
1.78375e-06;-0.007616468178489497
1.78400e-06;-0.007553496601167805
1.78425e-06;-0.007491486583012826
1.78450e-06;-0.007431786958428062
1.78475e-06;-0.007373816784771072
1.78500e-06;-0.007319128379307987
1.78525e-06;-0.007266896549694496
1.78550e-06;-0.007218881111781877
1.78575e-06;-0.00717402186449973
1.78600e-06;-0.007134868316851741
1.78625e-06;-0.007099985785039948
1.78650e-06;-0.007065103253228124
1.78675e-06;-0.00703716677123823
1.78700e-06;-0.007014429772342406
1.78725e-06;-0.006991692773446603
1.78750e-06;-0.006980500896806553
1.78775e-06;-0.006977951150517848
1.78800e-06;-0.006975401404229145
1.78825e-06;-0.0069728516579404395
1.78850e-06;-0.006970301911651736
1.78875e-06;-0.006967752165363033
1.78900e-06;-0.006966937873279987
1.78925e-06;-0.006988524641036007
1.78950e-06;-0.007010111408792046
1.78975e-06;-0.007031698176548066
1.79000e-06;-0.007053284944304087
1.79025e-06;-0.007074871712060126
1.79050e-06;-0.007096458479816146
1.79075e-06;-0.007125764074637327
1.79100e-06;-0.007160847616904809
1.79125e-06;-0.00719593115917232
1.79150e-06;-0.0072344010416516835
1.79175e-06;-0.007275405777628141
1.79200e-06;-0.007316410513604633
1.79225e-06;-0.007359419783314403
1.79250e-06;-0.007403929551800463
1.79275e-06;-0.007448439320286486
1.79300e-06;-0.007493506835791968
1.79325e-06;-0.007538991854234081
1.79350e-06;-0.007584476872676156
1.79375e-06;-0.007629074271756882
1.79400e-06;-0.00767300724112836
1.79425e-06;-0.007716940210499838
1.79450e-06;-0.007758887731862872
1.79475e-06;-0.007799349041117042
1.79500e-06;-0.007837370395799074
1.79525e-06;-0.00787356531633893
1.79550e-06;-0.007906522143924977
1.79575e-06;-0.007937055088872458
1.79600e-06;-0.007960736436143152
1.79625e-06;-0.007979289002711226
1.79650e-06;-0.007997841569279282
1.79675e-06;-0.00800635522212186
1.79700e-06;-0.008007354220803564
1.79725e-06;-0.00800835321948527
1.79750e-06;-0.007999454094951234
1.79775e-06;-0.007983145705347142
1.79800e-06;-0.007966837315743037
1.79825e-06;-0.007936195138436493
1.79850e-06;-0.00789482336823338
1.79875e-06;-0.00785345159803023
1.79900e-06;-0.007812079827827117
1.79925e-06;-0.007770708057623968
1.79950e-06;-0.007713862575951626
1.79975e-06;-0.007645434208575241
1.80000e-06;-0.007577005841198913
1.80025e-06;-0.007508577473822585
1.80050e-06;-0.0074401491064462
1.80075e-06;-0.007361754652919456
1.80100e-06;-0.007275900060496739
1.80125e-06;-0.007190045468074095
1.80150e-06;-0.0071000358245823965
1.80175e-06;-0.007006915907144883
1.80200e-06;-0.00691146575586038
1.80225e-06;-0.0068142713021589205
1.80250e-06;-0.006715850612829104
1.80275e-06;-0.006616120009819131
1.80300e-06;-0.006516037376568618
1.80325e-06;-0.006416185987321883
1.80350e-06;-0.006317149315671754
1.80375e-06;-0.006219485269217189
1.80400e-06;-0.006123681486079103
1.80425e-06;-0.00603019372089822
1.80450e-06;-0.005939551221297282
1.80475e-06;-0.005852370885393203
1.80500e-06;-0.005769296722746479
1.80525e-06;-0.005690972476604876
1.80550e-06;-0.005618041424555147
1.80575e-06;-0.00555091122463833
1.80600e-06;-0.005489239140894243
1.80625e-06;-0.0054320997779069785
1.80650e-06;-0.005380119897269323
1.80675e-06;-0.005330692279928043
1.80700e-06;-0.005286373600429358
1.80725e-06;-0.005245879229223755
1.80750e-06;-0.005211096727224198
1.80775e-06;-0.005180589859308781
1.80800e-06;-0.0051562131486713155
1.80825e-06;-0.005136425182708031
1.80850e-06;-0.00511663721674473
1.80875e-06;-0.005105725823689101
1.80900e-06;-0.00510145901164634
1.80925e-06;-0.005097192199603583
1.80950e-06;-0.005092925387560823
1.80975e-06;-0.005088658575518066
1.81000e-06;-0.0050855895595088
1.81025e-06;-0.005097981568355266
1.81050e-06;-0.005110373577201722
1.81075e-06;-0.005122765586048188
1.81100e-06;-0.005135157594894643
1.81125e-06;-0.005147549603741098
1.81150e-06;-0.005166305600257651
1.81175e-06;-0.00518982537577742
1.81200e-06;-0.005213345151297209
1.81225e-06;-0.005236864926816976
1.81250e-06;-0.005260384702336745
1.81275e-06;-0.005283904477856534
1.81300e-06;-0.005309535045773143
1.81325e-06;-0.005336745652656136
1.81350e-06;-0.005363956259539105
1.81375e-06;-0.0053911668664220974
1.81400e-06;-0.005418377473305067
1.81425e-06;-0.005445588080188037
1.81450e-06;-0.005470585601107075
1.81475e-06;-0.005493926510952376
1.81500e-06;-0.005517267420797697
1.81525e-06;-0.005540608330642998
1.81550e-06;-0.005563562347174689
1.81575e-06;-0.005581522385624732
1.81600e-06;-0.00559948242407476
1.81625e-06;-0.005617442462524803
1.81650e-06;-0.00563540250097483
1.81675e-06;-0.005652327188299008
1.81700e-06;-0.005668476860929608
1.81725e-06;-0.005684626533560195
1.81750e-06;-0.005700776206190796
1.81775e-06;-0.005716925878821382
1.81800e-06;-0.005733075551451983
1.81825e-06;-0.0057492252240825695
1.81850e-06;-0.005765374896713157
1.81875e-06;-0.005781524569343758
1.81900e-06;-0.0057976898127716945
1.81925e-06;-0.00581405604240938
1.81950e-06;-0.0058304222720470525
1.81975e-06;-0.0058467885016847245
1.82000e-06;-0.005863154731322411
1.82025e-06;-0.005879520960960083
1.82050e-06;-0.005895887190597769
1.82075e-06;-0.005912253420235442
1.82100e-06;-0.005928619649873114
1.82125e-06;-0.0059449858795108
1.82150e-06;-0.005961294778154002
1.82175e-06;-0.005977560761536876
1.82200e-06;-0.005993826744919736
1.82225e-06;-0.00601009272830261
1.82250e-06;-0.006026358711685469
1.82275e-06;-0.006042624695068329
1.82300e-06;-0.006058890678451203
1.82325e-06;-0.00607497568156595
1.82350e-06;-0.006088724610470496
1.82375e-06;-0.0061024735393750305
1.82400e-06;-0.006116222468279565
1.82425e-06;-0.006129971397184111
1.82450e-06;-0.006143720326088645
1.82475e-06;-0.00615746925499319
1.82500e-06;-0.006171218183897724
1.82525e-06;-0.006183147240114461
1.82550e-06;-0.006193714026046057
1.82575e-06;-0.006202685733620179
1.82600e-06;-0.006210463441271442
1.82625e-06;-0.006214129773093501
1.82650e-06;-0.006214718524181088
1.82675e-06;-0.006215307275268674
1.82700e-06;-0.006210730719047017
1.82725e-06;-0.006202287659026404
1.82750e-06;-0.0061938445990057985
1.82775e-06;-0.00618019397676883
1.82800e-06;-0.00616264522071578
1.82825e-06;-0.006145096464662729
1.82850e-06;-0.006119877129163656
1.82875e-06;-0.006088915962096366
1.82900e-06;-0.00605795479502905
1.82925e-06;-0.006026993627961761
1.82950e-06;-0.005996032460894472
1.82975e-06;-0.005957136727736748
1.83000e-06;-0.0059123015551431546
1.83025e-06;-0.0058674663825495224
1.83050e-06;-0.005822631209955929
1.83075e-06;-0.005777796037362297
1.83100e-06;-0.0057280530283260935
1.83125e-06;-0.0056746362459568775
1.83150e-06;-0.0056212194635876156
1.83175e-06;-0.005565979683797947
1.83200e-06;-0.005509375294696632
1.83225e-06;-0.005451935749784514
1.83250e-06;-0.005393487823285544
1.83275e-06;-0.005334566881399454
1.83300e-06;-0.0052755177797913924
1.83325e-06;-0.005216685839787595
1.83350e-06;-0.005158416582063344
1.83375e-06;-0.005101034222298595
1.83400e-06;-0.005044802287775634
1.83425e-06;-0.004989951614107805
1.83450e-06;-0.004936767696380062
1.83475e-06;-0.004885604460299779
1.83500e-06;-0.004836836763203153
1.83525e-06;-0.004790840793988748
1.83550e-06;-0.004747992140424603
1.83575e-06;-0.00470863962819147
1.83600e-06;-0.004673026393937934
1.83625e-06;-0.004641254087954342
1.83650e-06;-0.004613369877499879
1.83675e-06;-0.004589441498229311
1.83700e-06;-0.004569550440867899
1.83725e-06;-0.004553777929828518
1.83750e-06;-0.004543431092647457
1.83775e-06;-0.004535814736632252
1.83800e-06;-0.004533029687741652
1.83825e-06;-0.004533861125970141
1.83850e-06;-0.004540362489195821
1.83875e-06;-0.004551108089061743
1.83900e-06;-0.0045618536889276565
1.83925e-06;-0.004580824508280853
1.83950e-06;-0.004605952336402038
1.83975e-06;-0.004631080164523223
1.84000e-06;-0.00465620799264443
1.84025e-06;-0.004681335820765615
1.84050e-06;-0.004714521996999409
1.84075e-06;-0.00475374027001324
1.84100e-06;-0.00479295854302707
1.84125e-06;-0.004832176816040933
1.84150e-06;-0.004871395089054763
1.84175e-06;-0.004914843664156469
1.84200e-06;-0.0049614588425428395
1.84225e-06;-0.005008074020929209
1.84250e-06;-0.0050561566696291325
1.84275e-06;-0.005105337796928997
1.84300e-06;-0.005154518924228905
1.84325e-06;-0.00520366489828673
1.84350e-06;-0.005252784558296671
1.84375e-06;-0.005301904218306653
1.84400e-06;-0.005349839409355656
1.84425e-06;-0.00539688796318012
1.84450e-06;-0.005441794406264637
1.84475e-06;-0.005485097366958518
1.84500e-06;-0.005527960189354345
1.84525e-06;-0.005565141753029742
1.84550e-06;-0.005602323316705171
1.84575e-06;-0.00563661198161067
1.84600e-06;-0.005668735159854334
1.84625e-06;-0.005702183109329228
1.84650e-06;-0.005736622719646578
1.84675e-06;-0.005773350530831216
1.84700e-06;-0.005811791180539328
1.84725e-06;-0.005850231830247472
1.84750e-06;-0.005890195875881451
1.84775e-06;-0.005931300263373392
1.84800e-06;-0.005972404650865369
1.84825e-06;-0.006019434756452963
1.84850e-06;-0.0060709005732488336
1.84875e-06;-0.0061223663900446595
1.84900e-06;-0.006173832206840529
1.84925e-06;-0.006225298023636355
1.84950e-06;-0.006276763840432181
1.84975e-06;-0.00633479545727254
1.85000e-06;-0.006397741920276295
1.85025e-06;-0.006460688383280102
1.85050e-06;-0.006523634846283857
1.85075e-06;-0.006586581309287612
1.85100e-06;-0.00664952777229142
1.85125e-06;-0.006715842066792989
1.85150e-06;-0.00678467736004631
1.85175e-06;-0.006853512653299573
1.85200e-06;-0.006923107469630853
1.85225e-06;-0.006993270828875577
1.85250e-06;-0.007063434188120241
1.85275e-06;-0.007133465190082435
1.85300e-06;-0.007203397115667308
1.85325e-06;-0.00727332904125224
1.85350e-06;-0.0073415282937190265
1.85375e-06;-0.00740843054935846
1.85400e-06;-0.007473279003462992
1.85425e-06;-0.007536590079254709
1.85450e-06;-0.007596546195316554
1.85475e-06;-0.007653990947820982
1.85500e-06;-0.0077114357003254105
1.85525e-06;-0.007762939022300186
1.85550e-06;-0.007809994871484778
1.85575e-06;-0.00785705072066941
1.85600e-06;-0.007899670426004292
1.85625e-06;-0.007938969444685341
1.85650e-06;-0.007978268463366424
1.85675e-06;-0.00801379392354773
1.85700e-06;-0.008046494677008086
1.85725e-06;-0.008079195430468413
1.85750e-06;-0.008111896183928768
1.85775e-06;-0.008144596937389096
1.85800e-06;-0.008177297690849425
1.85825e-06;-0.008206107530794924
1.85850e-06;-0.008232004817627257
1.85875e-06;-0.008257902104459612
1.85900e-06;-0.008283799391291945
1.85925e-06;-0.008309696678124277
1.85950e-06;-0.00833559396495663
1.85975e-06;-0.008358327333189851
1.86000e-06;-0.008378692342185513
1.86025e-06;-0.008399057351181159
1.86050e-06;-0.008419422360176804
1.86075e-06;-0.008439787369172468
1.86100e-06;-0.008460152378168113
1.86125e-06;-0.008480517387163777
1.86150e-06;-0.008500882396159423
1.86175e-06;-0.008521247405155086
1.86200e-06;-0.008541612414150732
1.86225e-06;-0.008561575392871864
1.86250e-06;-0.008576349007221696
1.86275e-06;-0.008591122621571516
1.86300e-06;-0.008605896235921348
1.86325e-06;-0.008620669850271167
1.86350e-06;-0.008635443464620987
1.86375e-06;-0.00865021707897082
1.86400e-06;-0.00866499069332064
1.86425e-06;-0.008679764307670472
1.86450e-06;-0.008694537922020292
1.86475e-06;-0.008709311536370112
1.86500e-06;-0.00872184330723941
1.86525e-06;-0.008732696940523978
1.86550e-06;-0.008741751189424274
1.86575e-06;-0.008749458504610933
1.86600e-06;-0.008757165819797599
1.86625e-06;-0.008758885543631516
1.86650e-06;-0.008756123240875206
1.86675e-06;-0.008753360938118895
1.86700e-06;-0.008740814897373066
1.86725e-06;-0.008720945214909317
1.86750e-06;-0.008701075532445587
1.86775e-06;-0.008681205849981855
1.86800e-06;-0.008661336167518107
1.86825e-06;-0.008639747566170562
1.86850e-06;-0.008595971341210542
1.86875e-06;-0.008552195116250556
1.86900e-06;-0.008508418891290573
1.86925e-06;-0.008464642666330553
1.86950e-06;-0.00842086644137057
1.86975e-06;-0.00836525015902285
1.87000e-06;-0.008300770971891917
1.87025e-06;-0.00823629178476093
1.87050e-06;-0.008171812597629996
1.87075e-06;-0.008107333410499063
1.87100e-06;-0.008041862626496072
1.87125e-06;-0.007963592414680245
1.87150e-06;-0.00788532220286435
1.87175e-06;-0.0078070519910485225
1.87200e-06;-0.0077287817792326945
1.87225e-06;-0.0076505115674168
1.87250e-06;-0.0075697441438538
1.87275e-06;-0.007487107426146812
1.87300e-06;-0.007404552333202664
1.87325e-06;-0.007322058340680305
1.87350e-06;-0.007240740383891643
1.87375e-06;-0.007160302751614035
1.87400e-06;-0.007081895751689163
1.87425e-06;-0.007005008786727276
1.87450e-06;-0.0069310331493562605
1.87475e-06;-0.006859236793587222
1.87500e-06;-0.006794639676796061
1.87525e-06;-0.006735431568476828
1.87550e-06;-0.006676223460157647
1.87575e-06;-0.006617015351838414
1.87600e-06;-0.006558698305718362
1.87625e-06;-0.00651188299645874
1.87650e-06;-0.006465067687199078
1.87675e-06;-0.006418252377939456
1.87700e-06;-0.006371437068679794
1.87725e-06;-0.006329845560777917
1.87750e-06;-0.006292164342541233
1.87775e-06;-0.006254483124304515
1.87800e-06;-0.006216801906067831
1.87825e-06;-0.006179120687831114
1.87850e-06;-0.006144848801447657
1.87875e-06;-0.006113128979011086
1.87900e-06;-0.006081409156574488
1.87925e-06;-0.0060496893341379174
1.87950e-06;-0.006017969511701319
1.87975e-06;-0.00598997225780958
1.88000e-06;-0.005964761541979232
1.88025e-06;-0.005939550826148906
1.88050e-06;-0.0059143401103185795
1.88075e-06;-0.005889129394488233
1.88100e-06;-0.005863918678657906
1.88125e-06;-0.005838707962827559
1.88150e-06;-0.0058134972469972325
1.88175e-06;-0.005788286531166907
1.88200e-06;-0.005763075815336559
1.88225e-06;-0.005741502448070378
1.88250e-06;-0.005722651827234341
1.88275e-06;-0.005703801206398323
1.88300e-06;-0.005684950585562303
1.88325e-06;-0.005666099964726268
1.88350e-06;-0.005647249343890248
1.88375e-06;-0.005628398723054213
1.88400e-06;-0.005609548102218193
1.88425e-06;-0.005590697481382158
1.88450e-06;-0.005571846860546138
1.88475e-06;-0.005555222451918702
1.88500e-06;-0.00554026448004779
1.88525e-06;-0.00552627468705149
1.88550e-06;-0.005513009626790587
1.88575e-06;-0.005501525664126539
1.88600e-06;-0.005491374946555161
1.88625e-06;-0.005485149008564146
1.88650e-06;-0.005481860974214466
1.88675e-06;-0.005482934738158742
1.88700e-06;-0.0054872735372032315
1.88725e-06;-0.005496660244157211
1.88750e-06;-0.0055098255752924164
1.88775e-06;-0.00552299090642761
1.88800e-06;-0.005545965016992249
1.88825e-06;-0.0055762815141068185
1.88850e-06;-0.0056065980112214135
1.88875e-06;-0.0056369145083359825
1.88900e-06;-0.0056672310054505515
1.88925e-06;-0.005698998774059504
1.88950e-06;-0.005749499402005278
1.88975e-06;-0.005800000029951094
1.89000e-06;-0.005850500657896868
1.89025e-06;-0.005901001285842642
1.89050e-06;-0.005951501913788459
1.89075e-06;-0.006009174174334482
1.89100e-06;-0.0060722147785285405
1.89125e-06;-0.0061352553827225455
1.89150e-06;-0.006200941889776012
1.89175e-06;-0.006268608994079906
1.89200e-06;-0.0063377420152082005
1.89225e-06;-0.006407972352068083
1.89250e-06;-0.006479115341658838
1.89275e-06;-0.006550941499750325
1.89300e-06;-0.006622711066448309
1.89325e-06;-0.006694438271516182
1.89350e-06;-0.006765123129695034
1.89375e-06;-0.006835027736484384
1.89400e-06;-0.006903111431967175
1.89425e-06;-0.0069698320797045585
1.89450e-06;-0.007033927286254914
1.89475e-06;-0.007096057212191427
1.89500e-06;-0.007151657245876637
1.89525e-06;-0.007202369312268789
1.89550e-06;-0.0072530813786608975
1.89575e-06;-0.007303793445053006
1.89600e-06;-0.007353593087859787
1.89625e-06;-0.007391615263291035
1.89650e-06;-0.007429637438722315
1.89675e-06;-0.007467659614153563
