Time(s);Current(A)
1.25000e-05;-0.0015877666812855796
1.25003e-05;-0.001546193311613038
1.25005e-05;-0.0015035424210957846
1.25008e-05;-0.0014600469097617004
1.25010e-05;-0.0014159590401288153
1.25012e-05;-0.0013715350856198332
1.25015e-05;-0.0013270310726855548
1.25018e-05;-0.0012827033259959135
1.25020e-05;-0.001238807537335698
1.25023e-05;-0.0011955978269928948
1.25025e-05;-0.0011533343242352925
1.25028e-05;-0.0011122944810285076
1.25030e-05;-0.001072767573551209
1.25033e-05;-0.0010350452292542049
1.25035e-05;-0.0010005473804214338
1.25038e-05;-0.0009662573055852035
1.25040e-05;-0.0009367930668932061
1.25043e-05;-0.0009076511977300656
1.25045e-05;-0.0008823888271128169
1.25048e-05;-0.0008573856099521152
1.25050e-05;-0.0008356867446219168
1.25053e-05;-0.0008142086125101106
1.25055e-05;-0.0007965143575968598
1.25058e-05;-0.0007790728685615961
1.25060e-05;-0.0007657880844933478
1.25063e-05;-0.0007527809714817939
1.25065e-05;-0.0007431711853507545
1.25068e-05;-0.0007337883432422109
1.25070e-05;-0.0007280205245832667
1.25073e-05;-0.0007224941922433615
1.25075e-05;-0.0007169678599034937
1.25078e-05;-0.0007160060714433193
1.25080e-05;-0.0007153491979899093
1.25083e-05;-0.0007146923245365037
1.25085e-05;-0.0007177188963125804
1.25088e-05;-0.0007209915250346867
1.25090e-05;-0.0007242641537567707
1.25093e-05;-0.0007303730853214975
1.25095e-05;-0.0007366714840757466
1.25097e-05;-0.0007429698828299528
1.25100e-05;-0.0007517722604607231
1.25103e-05;-0.0007607419057870593
1.25105e-05;-0.0007697115511133956
1.25108e-05;-0.0007800421205536503
1.25110e-05;-0.0007904636007610438
1.25113e-05;-0.0008008850809684375
1.25115e-05;-0.00081199892702192
1.25118e-05;-0.0008231590236411982
1.25120e-05;-0.0008343191202604764
1.25123e-05;-0.0008454266546937121
1.25125e-05;-0.000856530677932977
1.25128e-05;-0.0008676347011722418
1.25130e-05;-0.0008776114746799376
1.25133e-05;-0.0008875129470472839
1.25135e-05;-0.0008974144194146302
1.25138e-05;-0.0009040257769510156
1.25140e-05;-0.0009104173523114326
1.25143e-05;-0.0009168089276718495
1.25145e-05;-0.0009232005030322232
1.25148e-05;-0.0009295920783926402
1.25150e-05;-0.0009359836537530572
1.25153e-05;-0.0009423752291134308
1.25155e-05;-0.000943357485194672
1.25158e-05;-0.0009439783946290167
1.25160e-05;-0.0009445993040633571
1.25163e-05;-0.0009452202134977018
1.25165e-05;-0.0009458411229320465
1.25168e-05;-0.000946462032366387
1.25170e-05;-0.0009470829418007317
1.25173e-05;-0.0009421706821428792
1.25175e-05;-0.0009368888025763051
1.25178e-05;-0.0009316069230096952
1.25180e-05;-0.0009263250434430854
1.25182e-05;-0.0009210431638765113
1.25185e-05;-0.0009157612843099014
1.25188e-05;-0.0009104794047432916
1.25190e-05;-0.0009051975251766817
1.25193e-05;-0.0008981454908579609
1.25195e-05;-0.0008888164531719105
1.25198e-05;-0.0008794874154858602
1.25200e-05;-0.000870158377799873
1.25203e-05;-0.0008608293401138227
1.25205e-05;-0.0008515003024277723
1.25208e-05;-0.0008421712647417851
1.25210e-05;-0.0008328422270557348
1.25213e-05;-0.0008235131893696844
1.25215e-05;-0.0008134342028020689
1.25218e-05;-0.0008033051190779974
1.25220e-05;-0.0007931760353539258
1.25223e-05;-0.0007834614472071225
1.25225e-05;-0.0007737745476804569
1.25228e-05;-0.0007640876481537913
1.25230e-05;-0.0007551643644260677
1.25233e-05;-0.0007462920908151629
1.25235e-05;-0.0007380657046191417
1.25238e-05;-0.0007306969234502709
1.25240e-05;-0.0007233825487798846
1.25243e-05;-0.0007181442349541477
1.25245e-05;-0.0007130446035738752
1.25248e-05;-0.0007117225746672223
1.25250e-05;-0.0007106528924826118
1.25253e-05;-0.0007134352637433719
1.25255e-05;-0.0007164749551077748
1.25258e-05;-0.0007231256140850304
1.25260e-05;-0.0007300174884486528
1.25263e-05;-0.0007407641171174068
1.25265e-05;-0.0007517682463092674
1.25267e-05;-0.0007672875854946981
1.25270e-05;-0.0007831085441463004
1.25273e-05;-0.0008030860440758807
1.25275e-05;-0.00082334120412821
1.25278e-05;-0.0008480234824966064
1.25280e-05;-0.0008730014957401326
1.25283e-05;-0.0008979795089836589
1.25285e-05;-0.0009280044014597415
1.25288e-05;-0.000958366429312227
1.25290e-05;-0.0009887284571647127
1.25293e-05;-0.001023170092714736
1.25295e-05;-0.0010578842491660604
1.25298e-05;-0.0010925984056173851
1.25300e-05;-0.0011298340192355725
1.25303e-05;-0.0011672380681130303
1.25305e-05;-0.0012046421169904882
1.25308e-05;-0.0012434805497285866
1.25310e-05;-0.0012824148004012448
1.25313e-05;-0.001321349051073903
1.25315e-05;-0.001359939737838757
1.25318e-05;-0.001398507474273197
1.25320e-05;-0.0014370752107076366
1.25323e-05;-0.001473530347393589
1.25325e-05;-0.0015098443608076739
1.25328e-05;-0.0015461583742217588
1.25330e-05;-0.001578677288683665
1.25333e-05;-0.0016109426876454672
1.25335e-05;-0.0016432080866072695
1.25338e-05;-0.0016696130018980777
1.25340e-05;-0.0016956264324164863
1.25343e-05;-0.0017216398629348948
1.25345e-05;-0.0017408684791890368
1.25348e-05;-0.0017596438646830701
1.25350e-05;-0.0017784192501771037
1.25352e-05;-0.0017901809485529538
1.25355e-05;-0.001801474127287634
1.25358e-05;-0.001812767306022314
1.25360e-05;-0.0018166156058380162
1.25363e-05;-0.0018199665820716898
1.25365e-05;-0.001823317558305386
1.25368e-05;-0.0018197245059580539
1.25370e-05;-0.0018156675872128326
1.25373e-05;-0.0018116106684675838
1.25375e-05;-0.001801118901403635
1.25378e-05;-0.0017901972815711688
1.25380e-05;-0.0017792756617386284
1.25383e-05;-0.0017634171431368238
1.25385e-05;-0.0017472288359373063
1.25388e-05;-0.0017277160705076449
1.25390e-05;-0.001707981228736221
1.25393e-05;-0.0016854014813844566
1.25395e-05;-0.0016626316921730046
1.25398e-05;-0.0016374639760254057
1.25400e-05;-0.0016121360765323002
1.25403e-05;-0.001585321558369191
1.25405e-05;-0.0015576455994378857
1.25408e-05;-0.001529336871465643
1.25410e-05;-0.0015005667404397872
1.25413e-05;-0.0014714999346993852
1.25415e-05;-0.0014423008326790547
1.25418e-05;-0.0014131335945615278
1.25420e-05;-0.0013841640028354617
1.25423e-05;-0.001355575627689238
1.25425e-05;-0.001327577882634107
1.25428e-05;-0.0013003810647692184
1.25430e-05;-0.0012741822159628529
1.25433e-05;-0.0012491744405138498
1.25435e-05;-0.0012262946572622515
1.25437e-05;-0.0012035519928209394
1.25440e-05;-0.0011841265297539078
1.25443e-05;-0.0011649226582653366
1.25445e-05;-0.0011504366521874743
1.25448e-05;-0.0011362658031126504
1.25450e-05;-0.0011220949540377305
1.25453e-05;-0.0011138831654663216
1.25455e-05;-0.0011060694466755478
1.25458e-05;-0.0010982557278847206
1.25460e-05;-0.0010966765391021006
1.25463e-05;-0.0010955138216728057
1.25465e-05;-0.001094351104243503
1.25468e-05;-0.0010992352570872316
1.25470e-05;-0.0011045233454709934
1.25473e-05;-0.0011098114338547913
1.25475e-05;-0.0011206576914954808
1.25478e-05;-0.0011318752390760045
1.25480e-05;-0.0011430927866566043
1.25483e-05;-0.0011592861362988204
1.25485e-05;-0.0011758118733086508
1.25488e-05;-0.0011923376103185933
1.25490e-05;-0.0012129232942219657
1.25493e-05;-0.0012337801856701234
1.25495e-05;-0.0012546370771184224
1.25498e-05;-0.0012785485772626019
1.25500e-05;-0.00130266412759421
1.25503e-05;-0.0013267796779259813
1.25505e-05;-0.0013528265339332263
1.25508e-05;-0.0013790024026305134
1.25510e-05;-0.0014051782713279779
1.25513e-05;-0.0014319806667319275
1.25515e-05;-0.0014588249145969258
1.25518e-05;-0.0014856691624621058
1.25520e-05;-0.0015118088951594322
1.25522e-05;-0.001537901565706721
1.25525e-05;-0.0015639942362541863
1.25528e-05;-0.0015879380773393687
1.25530e-05;-0.0016117383749796328
1.25533e-05;-0.0016355386726197355
1.25535e-05;-0.0016528182764342049
1.25538e-05;-0.0016696622929340222
1.25540e-05;-0.0016865063094337253
1.25543e-05;-0.0017033503259335427
1.25545e-05;-0.00172019434243336
1.25548e-05;-0.0017370383589330634
1.25550e-05;-0.0017538823754328808
1.25553e-05;-0.00176085617995234
1.25555e-05;-0.001767170646792758
1.25558e-05;-0.0017734851136332185
1.25560e-05;-0.0017797995804736792
1.25563e-05;-0.001786114047314097
1.25565e-05;-0.0017924285141545577
1.25568e-05;-0.0017987429809950182
1.25570e-05;-0.0017953252596223648
1.25573e-05;-0.0017912574206634007
1.25575e-05;-0.0017871895817044366
1.25578e-05;-0.0017831217427455
1.25580e-05;-0.001779053903786536
1.25583e-05;-0.0017749860648275718
1.25585e-05;-0.0017709182258686352
1.25588e-05;-0.0017668503869096711
1.25590e-05;-0.0017594735618478253
1.25593e-05;-0.001747840288305091
1.25595e-05;-0.0017362070147622778
1.25598e-05;-0.0017245737412194646
1.25600e-05;-0.0017129404676767303
1.25603e-05;-0.0017013071941339173
1.25605e-05;-0.001689673920591104
1.25607e-05;-0.0016780406470483697
1.25610e-05;-0.0016664073735055565
1.25613e-05;-0.001652809299133383
1.25615e-05;-0.0016390799745690454
1.25618e-05;-0.0016253506500048007
1.25620e-05;-0.0016117450375473254
1.25623e-05;-0.0015981476891528323
1.25625e-05;-0.0015845503407584311
1.25628e-05;-0.0015719881946130345
1.25630e-05;-0.0015594952007664988
1.25633e-05;-0.0015470022069200477
1.25635e-05;-0.0015368056046585936
1.25638e-05;-0.0015267624031044408
1.25640e-05;-0.0015167192015503562
1.25643e-05;-0.0015066759999962035
1.25645e-05;-0.0014973316873843235
1.25648e-05;-0.0014888863766675529
1.25650e-05;-0.0014804410659507252
1.25653e-05;-0.0014719957552338976
1.25655e-05;-0.001463550444517127
1.25658e-05;-0.001456109191590121
1.25660e-05;-0.0014487350104884016
1.25663e-05;-0.001441360829386732
1.25665e-05;-0.0014339866482850124
1.25668e-05;-0.001426612467183293
1.25670e-05;-0.0014192382860816234
1.25673e-05;-0.0014118641049799038
1.25675e-05;-0.0014046525898664868
1.25678e-05;-0.0013976503169129445
1.25680e-05;-0.0013906480439593546
1.25683e-05;-0.0013836457710057648
1.25685e-05;-0.0013766434980522226
1.25688e-05;-0.0013696412250986329
1.25690e-05;-0.0013626389521450431
1.25692e-05;-0.0013556366791915007
1.25695e-05;-0.0013489404154638195
1.25698e-05;-0.0013422645933855691
1.25700e-05;-0.0013355887713073188
1.25703e-05;-0.0013289129492291137
1.25705e-05;-0.0013222371271508634
1.25708e-05;-0.001315561305072613
1.25710e-05;-0.0013088854829944078
1.25713e-05;-0.0013022096609161574
1.25715e-05;-0.0012964727286109094
1.25718e-05;-0.0012907985148578659
1.25720e-05;-0.001285124301104784
1.25723e-05;-0.0012794500873517022
1.25725e-05;-0.001273775873598659
1.25728e-05;-0.001268101659845577
1.25730e-05;-0.0012624274460924952
1.25733e-05;-0.0012567532323394517
1.25735e-05;-0.0012521133796585106
1.25738e-05;-0.0012475426230852806
1.25740e-05;-0.001243304317791276
1.25743e-05;-0.0012390882204959916
1.25745e-05;-0.0012328540080745686
1.25748e-05;-0.0012264849840251213
1.25750e-05;-0.0012168993178843447
1.25753e-05;-0.0012070987776010224
1.25755e-05;-0.0011939048662435241
1.25758e-05;-0.0011804842751126714
1.25760e-05;-0.0011670636839818188
1.25763e-05;-0.0011491409688427724
1.25765e-05;-0.0011309175083895203
1.25768e-05;-0.0011126940479362685
1.25770e-05;-0.0010887386174494775
1.25773e-05;-0.0010644002869968367
1.25775e-05;-0.001040061956544196
1.25777e-05;-0.0010119341471117953
1.25780e-05;-0.000983553197595946
1.25783e-05;-0.0009524536008723927
1.25785e-05;-0.0009211723964438689
1.25788e-05;-0.0008868692300760556
1.25790e-05;-0.0008523641943478395
1.25793e-05;-0.0008159690478758069
1.25795e-05;-0.0007784666010126123
1.25798e-05;-0.000740126883394117
1.25800e-05;-0.0007011630854856187
1.25803e-05;-0.0006616760879219796
1.25805e-05;-0.0006216452231360081
1.25808e-05;-0.0005811368141394585
1.25810e-05;-0.0005403583833913298
1.25813e-05;-0.0004995539084895236
1.25815e-05;-0.00045896933679340934
1.25818e-05;-0.00041885046108598007
1.25820e-05;-0.00037943689761592113
1.25823e-05;-0.0003408977648201763
1.25825e-05;-0.0003033260766060674
1.25828e-05;-0.0002668694128567914
1.25830e-05;-0.00023176367134180746
1.25833e-05;-0.0001982676266022992
1.25835e-05;-0.0001666412458697274
1.25838e-05;-0.00013714441726565
1.25840e-05;-0.00011004575349595695
1.25843e-05;-8.569590591412342e-05
1.25845e-05;-6.44856827579342e-05
1.25848e-05;-4.664058748144557e-05
1.25850e-05;-3.221763857278764e-05
1.25853e-05;-2.1235634792446997e-05
1.25855e-05;-1.3711497235832298e-05
1.25858e-05;-9.66211795145994e-06
1.25860e-05;-9.109837479912368e-06
1.25862e-05;-1.2128373276044968e-05
1.25865e-05;-1.881658439749587e-05
1.25868e-05;-2.9169777296009755e-05
1.25870e-05;-4.30776993257429e-05
1.25873e-05;-6.0406186166554385e-05
1.25875e-05;-8.101988352435005e-05
1.25878e-05;-0.00010478343664564231
1.25880e-05;-0.0001315648942468223
1.25883e-05;-0.0001612645266667928
1.25885e-05;-0.00019379830034737172
1.25888e-05;-0.00022901735973219337
1.25890e-05;-0.00026670674804989353
1.25893e-05;-0.0003066364736519329
1.25895e-05;-0.0003485759114070204
1.25898e-05;-0.00039301441265037054
1.25900e-05;-0.0004376115071796789
1.25903e-05;-0.00048515955468100955
1.25905e-05;-0.0005329047280899699
1.25908e-05;-0.0005806499014989301
1.25910e-05;-0.0006300211652456284
1.25913e-05;-0.0006795010530664087
1.25915e-05;-0.0007290296109251017
1.25918e-05;-0.0007785614199790812
1.25920e-05;-0.0008270627009997048
1.25923e-05;-0.0008754951419623473
1.25925e-05;-0.0009218560780767329
1.25928e-05;-0.0009680786360889651
1.25930e-05;-0.0010100169303509884
1.25933e-05;-0.0010516690325292897
1.25935e-05;-0.0010933211347078733
1.25938e-05;-0.001128925511798123
1.25940e-05;-0.001164125896243373
1.25943e-05;-0.0011946965706139498
1.25945e-05;-0.0012249579768232697
1.25947e-05;-0.0012524276762053447
1.25950e-05;-0.001279710887444027
1.25953e-05;-0.0013069940986827093
1.25955e-05;-0.00133009859795177
1.25958e-05;-0.0013529239560768408
1.25960e-05;-0.0013757493142019116
1.25963e-05;-0.0013944895174109882
1.25965e-05;-0.0014129568291582353
1.25968e-05;-0.0014314241409056074
1.25970e-05;-0.0014472306147563928
1.25973e-05;-0.0014628593426077225
1.25975e-05;-0.001478488070459158
1.25978e-05;-0.0014941167983105936
1.25980e-05;-0.0015062524960925072
1.25983e-05;-0.0015181548568037539
1.25985e-05;-0.0015300572175150006
1.25988e-05;-0.001541959578226167
1.25990e-05;-0.0015504895139252161
1.25993e-05;-0.0015587941690632056
1.25995e-05;-0.0015670988242011384
1.25998e-05;-0.0015754034793391278
1.26000e-05;-0.001583708134477117
1.26003e-05;-0.0015920127896150498
1.26005e-05;-0.0016003174447530393
1.26008e-05;-0.0016086220998910285
1.26010e-05;-0.0016169267550289615
1.26013e-05;-0.001621868836775604
1.26015e-05;-0.0016265862960568895
1.26018e-05;-0.0016313037553381431
1.26020e-05;-0.0016360212146194287
1.26023e-05;-0.0016407386739007144
1.26025e-05;-0.001645456133181968
1.26028e-05;-0.0016501735924632536
1.26030e-05;-0.0016548910517445391
1.26032e-05;-0.0016596085110257928
1.26035e-05;-0.0016631859710634228
1.26038e-05;-0.0016664427277110528
1.26040e-05;-0.0016693639556809238
1.26043e-05;-0.0016713681580491089
1.26045e-05;-0.0016700428496000104
1.26048e-05;-0.0016684991242249191
1.26050e-05;-0.001661821528292954
1.26053e-05;-0.001654800985894835
1.26055e-05;-0.0016419955475261946
1.26058e-05;-0.0016288036736977138
1.26060e-05;-0.0016156117998691437
1.26063e-05;-0.0015949376170290395
1.26065e-05;-0.0015737636102442273
1.26068e-05;-0.0015525896034592715
1.26070e-05;-0.0015226748507185719
1.26073e-05;-0.001492176209486129
1.26075e-05;-0.0014616775682534796
1.26078e-05;-0.001425153427189625
1.26080e-05;-0.001388226778144676
1.26083e-05;-0.0013481072763997536
1.26085e-05;-0.0013054564426985445
1.26088e-05;-0.0012603188557744123
1.26090e-05;-0.0012129236266986449
1.26093e-05;-0.0011635658111386587
1.26095e-05;-0.0011125434541877062
1.26098e-05;-0.0010601547973202714
1.26100e-05;-0.001006686965775367
1.26103e-05;-0.0009523028110143178
1.26105e-05;-0.0008970343844838508
1.26108e-05;-0.0008410164229811588
1.26110e-05;-0.0007845439546439587
1.26113e-05;-0.0007279531030029997
1.26115e-05;-0.0006715822182570375
1.26117e-05;-0.0006157694432880489
1.26120e-05;-0.0005608459223562044
1.26123e-05;-0.0005070650722265032
1.26125e-05;-0.000454598296837235
1.26128e-05;-0.00040368137940727825
1.26130e-05;-0.000354650368027291
1.26133e-05;-0.0003078671772941534
1.26135e-05;-0.0002636949411680295
1.26138e-05;-0.0002224967062966771
1.26140e-05;-0.00018461100151340377
1.26143e-05;-0.00015007947877392896
1.26145e-05;-0.00011856082264183156
1.26148e-05;-8.981415595846377e-05
1.26150e-05;-6.388784171532825e-05
1.26153e-05;-4.091260427710946e-05
1.26155e-05;-2.1023375373605865e-05
1.26158e-05;-4.355034553347144e-06
1.26160e-05;8.972935020253175e-06
1.26163e-05;1.9027020990103033e-05
1.26165e-05;2.6113584305323146e-05
1.26168e-05;3.0476047289970426e-05
1.26170e-05;3.217664013965201e-05
1.26173e-05;3.122601054086164e-05
1.26175e-05;2.7632174662575238e-05
1.26178e-05;2.140317789151357e-05
1.26180e-05;1.2556720793707174e-05
1.26183e-05;1.2269848069503062e-06
1.26185e-05;-1.230160044686653e-05
1.26188e-05;-2.778405243473878e-05
1.26190e-05;-4.508890069615342e-05
1.26193e-05;-6.41169927896321e-05
1.26195e-05;-8.47708258833555e-05
1.26198e-05;-0.00010695288122890123
1.26200e-05;-0.00013055961679467453
1.26202e-05;-0.0001554144924143476
1.26205e-05;-0.0001815827015016876
1.26208e-05;-0.00020783346890683246
1.26210e-05;-0.00023525226720551602
1.26213e-05;-0.0002627490908584739
1.26215e-05;-0.00029024591451143176
1.26218e-05;-0.0003179639995044836
1.26220e-05;-0.0003456968649235345
1.26223e-05;-0.0003734297303427733
1.26225e-05;-0.000399656534540605
1.26228e-05;-0.0004257827327005796
1.26230e-05;-0.00045190893086073127
1.26233e-05;-0.0004754307545525671
1.26235e-05;-0.0004987786040443926
1.26238e-05;-0.000519233669080782
1.26240e-05;-0.0005394954939102859
1.26243e-05;-0.000557304747138091
1.26245e-05;-0.000574950166713365
1.26248e-05;-0.0005917607205376186
1.26250e-05;-0.000608515504693142
1.26253e-05;-0.000625270288848779
1.26255e-05;-0.0006400852252170578
1.26258e-05;-0.0006547705782742102
1.26260e-05;-0.0006694559313314623
1.26263e-05;-0.0006841412843887144
1.26265e-05;-0.0006982906690824113
1.26268e-05;-0.0007117506215270772
1.26270e-05;-0.0007252105739717432
1.26273e-05;-0.000738670526416318
1.26275e-05;-0.0007521304788609839
1.26278e-05;-0.0007646549213968114
1.26280e-05;-0.0007771168711574421
1.26283e-05;-0.0007895788209181573
1.26285e-05;-0.0008020407706788725
1.26288e-05;-0.0008145027204395031
1.26290e-05;-0.0008269646702002184
1.26293e-05;-0.0008394266199609335
1.26295e-05;-0.0008514684725869125
1.26298e-05;-0.0008629699416154052
1.26300e-05;-0.0008744714106438979
1.26303e-05;-0.0008859728796723908
1.26305e-05;-0.0008974743487008055
1.26308e-05;-0.0009089758177292984
1.26310e-05;-0.0009204772867577912
1.26313e-05;-0.0009319787557862059
1.26315e-05;-0.0009418140154728868
1.26318e-05;-0.0009515379711052072
1.26320e-05;-0.0009612619267374618
1.26323e-05;-0.0009709858823697823
1.26325e-05;-0.0009807098380021028
1.26328e-05;-0.0009904337936343574
1.26330e-05;-0.0010001577492666778
1.26333e-05;-0.001007114450012089
1.26335e-05;-0.0010138862960211953
1.26338e-05;-0.0010206581420303476
1.26340e-05;-0.0010274299880394999
1.26343e-05;-0.0010342018340486062
1.26345e-05;-0.0010409736800577585
1.26348e-05;-0.0010477455260669108
1.26350e-05;-0.0010510878461181016
1.26353e-05;-0.0010542010712205276
1.26355e-05;-0.0010573142963229538
1.26358e-05;-0.0010604275214253587
1.26360e-05;-0.0010635407465277847
1.26363e-05;-0.0010666539716302106
1.26365e-05;-0.0010697671967326156
1.26368e-05;-0.0010728804218350417
1.26370e-05;-0.0010759936469374677
1.26373e-05;-0.0010791068720398726
1.26375e-05;-0.0010822200971422986
1.26378e-05;-0.0010853333222447246
1.26380e-05;-0.0010884465473471295
1.26383e-05;-0.0010915597724495557
1.26385e-05;-0.0010946729975519816
1.26388e-05;-0.0010952167065551436
1.26390e-05;-0.0010955887699237003
1.26393e-05;-0.0010959608332922596
1.26395e-05;-0.0010963328966608187
1.26398e-05;-0.0010967049600293754
1.26400e-05;-0.0010970770233979348
1.26403e-05;-0.0010974490867664939
1.26405e-05;-0.0010978211501350506
1.26408e-05;-0.0010981932135036099
1.26410e-05;-0.001098565276872169
1.26413e-05;-0.0010989373402407257
1.26415e-05;-0.001099309403609285
1.26418e-05;-0.0010996814669778441
1.26420e-05;-0.0011000535303464008
1.26423e-05;-0.0011004255937149602
1.26425e-05;-0.001100103214213249
1.26428e-05;-0.0010997344453983003
