Time(s);Current(A)
3.25000e-06;0.002533227041914467
3.25025e-06;0.0025608657467408986
3.25050e-06;0.0025993407580060883
3.25075e-06;0.0026399610905898734
3.25100e-06;0.0026805814231736585
3.25125e-06;0.0027212017557573746
3.25150e-06;0.0027618220883411596
3.25175e-06;0.0028024424209249447
3.25200e-06;0.0028430627535087297
3.25225e-06;0.0028836830860924463
3.25250e-06;0.0029243034186762313
3.25275e-06;0.002970695724943775
3.25300e-06;0.003018230739592926
3.25325e-06;0.0030657657542421586
3.25350e-06;0.003113300768891391
3.25375e-06;0.003160835783540623
3.25400e-06;0.003208370798189775
3.25425e-06;0.003255905812839007
3.25450e-06;0.0033034408274882393
3.25475e-06;0.003350975842137391
3.25500e-06;0.003392202021698096
3.25525e-06;0.003432179207564512
3.25550e-06;0.0034721563934308605
3.25575e-06;0.0035121335792972766
3.25600e-06;0.003552110765163692
3.25625e-06;0.0035920879510301083
3.25650e-06;0.0036320651368964567
3.25675e-06;0.0036720423227628723
3.25700e-06;0.003704221239109431
3.25725e-06;0.0037209020481759844
3.25750e-06;0.0037375828572425653
3.25775e-06;0.003754263666309146
3.25800e-06;0.0037709444753757275
3.25825e-06;0.0037876252844422803
3.25850e-06;0.0038043060935088616
3.25875e-06;0.0038209869025754425
3.25900e-06;0.0038376677116419952
3.25925e-06;0.0038290110977903494
3.25950e-06;0.003815338299332274
3.25975e-06;0.0038016655008742215
3.26000e-06;0.003787992702416146
3.26025e-06;0.0037743199039580707
3.26050e-06;0.0037606471054999952
3.26075e-06;0.003746974307041943
3.26100e-06;0.0037333015085838674
3.26125e-06;0.003719628710125792
3.26150e-06;0.0036864992305023223
3.26175e-06;0.003649517808048196
3.26200e-06;0.0036125363855940705
3.26225e-06;0.003575554963139945
3.26250e-06;0.003538573540685882
3.26275e-06;0.0035015921182317564
3.26300e-06;0.0034646106957776307
3.26325e-06;0.0034276292733235675
3.26350e-06;0.003390647850869442
3.26375e-06;0.0033472610105480063
3.26400e-06;0.0033026060555249805
3.26425e-06;0.003257951100501879
3.26450e-06;0.003213296145478778
3.26475e-06;0.0031686411904556762
3.26500e-06;0.003123986235432651
3.26525e-06;0.003079331280409549
3.26550e-06;0.0030407354053973742
3.26575e-06;0.0030033390787363276
3.26600e-06;0.0029659427520752177
3.26625e-06;0.0029285464254141078
3.26650e-06;0.002891150098752998
3.26675e-06;0.0028537537720919512
3.26700e-06;0.0028163574454308413
3.26725e-06;0.002790550415276385
3.26750e-06;0.0027670377798963953
3.26775e-06;0.0027435251445163656
3.26800e-06;0.0027298966132154852
3.26825e-06;0.0027182248906593444
3.26850e-06;0.002706553168103184
3.26875e-06;0.00270498490989211
3.26900e-06;0.002705416888346303
3.26925e-06;0.0027058488668004954
3.26950e-06;0.0027168047609069015
3.26975e-06;0.0027298441306638855
3.27000e-06;0.0027428835004208473
3.27025e-06;0.0027657923329634094
3.27050e-06;0.002790655075635773
3.27075e-06;0.0028155178183081374
3.27100e-06;0.0028545970756607823
3.27125e-06;0.002896490852166963
3.27150e-06;0.002938384628673144
3.27175e-06;0.0029802784051792537
3.27200e-06;0.0030221721816854345
3.27225e-06;0.0030640659581916154
3.27250e-06;0.003105959734697725
3.27275e-06;0.0031525420406618653
3.27300e-06;0.0032084422257203857
3.27325e-06;0.0032643424107789065
3.27350e-06;0.0033202425958373323
3.27375e-06;0.0033761427808958527
3.27400e-06;0.0034320429659543735
3.27425e-06;0.0034879431510127993
3.27450e-06;0.0035438433360713197
3.27475e-06;0.0035982675551470026
3.27500e-06;0.0036523995693734505
3.27525e-06;0.003706531583599807
3.27550e-06;0.0037606635978262547
3.27575e-06;0.0038147956120527025
3.27600e-06;0.0038689276262790584
3.27625e-06;0.0039169904901808
3.27650e-06;0.003952991659805042
3.27675e-06;0.003988992829429223
3.27700e-06;0.004024993999053464
3.27725e-06;0.004060995168677705
3.27750e-06;0.004096996338301947
3.27775e-06;0.004132997507926128
3.27800e-06;0.004148419786248687
3.27825e-06;0.004159767951820383
3.27850e-06;0.0041711161173920595
3.27875e-06;0.004168062173691267
3.27900e-06;0.004162156967686485
3.27925e-06;0.0041562517616817035
3.27950e-06;0.0041350708924098485
3.27975e-06;0.004110865818695578
3.28000e-06;0.004086660744981308
3.28025e-06;0.004048051618460062
3.28050e-06;0.004006590844862902
3.28075e-06;0.003965130071265741
3.28100e-06;0.0039046244631024234
3.28125e-06;0.003840348447573166
3.28150e-06;0.0037760724320439086
3.28175e-06;0.003711796416514651
3.28200e-06;0.0036475204009855026
3.28225e-06;0.0035832443854562452
3.28250e-06;0.0035122098268405375
3.28275e-06;0.00342774349011582
3.28300e-06;0.0033432771533909588
3.28325e-06;0.003258810816666098
3.28350e-06;0.0031743444799412373
3.28375e-06;0.0030898781432165193
3.28400e-06;0.0030054118064916585
3.28425e-06;0.002918053908967666
3.28450e-06;0.0028301235537467823
3.28475e-06;0.002742193198525749
3.28500e-06;0.002654262843304716
3.28525e-06;0.0025663324880838318
3.28550e-06;0.002487275961770127
3.28575e-06;0.002409976234643171
3.28600e-06;0.002332676507516215
3.28625e-06;0.00225537678038939
3.28650e-06;0.002178077053262434
3.28675e-06;0.0021152379617114256
3.28700e-06;0.002055261719228865
3.28725e-06;0.0019952854767462027
3.28750e-06;0.001943298586512097
3.28775e-06;0.0018928933909083288
3.28800e-06;0.0018424881953046461
3.28825e-06;0.0017984357986837681
3.28850e-06;0.0017556410995240067
3.28875e-06;0.001712846400364318
3.28900e-06;0.0016777122397999013
3.28925e-06;0.001644094676875079
3.28950e-06;0.001610477113950314
3.28975e-06;0.0015811378212324545
3.29000e-06;0.0015526455204612777
3.29025e-06;0.0015241532196901008
3.29050e-06;0.0015003683215539928
3.29075e-06;0.001477515372997649
3.29100e-06;0.0014546624244413055
3.29125e-06;0.001438432369483503
3.29150e-06;0.0014235134840569071
3.29175e-06;0.0014085945986303113
3.29200e-06;0.0013936757132037155
3.29225e-06;0.0013787568277771449
3.29250e-06;0.001363837942350549
3.29275e-06;0.0013489190569239533
3.29300e-06;0.0013340001714973828
3.29325e-06;0.0013251778867099506
3.29350e-06;0.0013175625784326416
3.29375e-06;0.0013099472701553455
3.29400e-06;0.0013023319618780365
3.29425e-06;0.0012947166536007276
3.29450e-06;0.0012871013453234186
3.29475e-06;0.0012794860370461227
3.29500e-06;0.0012718707287688138
3.29525e-06;0.0012669884382073783
3.29550e-06;0.0012626472177242004
3.29575e-06;0.001258305997241015
3.29600e-06;0.0012539647767578297
3.29625e-06;0.0012496235562746445
3.29650e-06;0.0012469720252916124
3.29675e-06;0.0012446550111412903
3.29700e-06;0.001242337996990968
3.29725e-06;0.0012400209828406495
3.29750e-06;0.0012377039686903273
3.29775e-06;0.001242044434955329
3.29800e-06;0.0012477029180880457
3.29825e-06;0.0012533614012207722
3.29850e-06;0.0012651587973593406
3.29875e-06;0.0012781715468127262
3.29900e-06;0.00129118429626609
3.29925e-06;0.0013108539106821868
3.29950e-06;0.0013318414201215758
3.29975e-06;0.0013528289295609292
3.30000e-06;0.0013814479217540395
3.30025e-06;0.001411577759247141
3.30050e-06;0.001441707596740192
3.30075e-06;0.0014779864212265074
3.30100e-06;0.0015154825934286377
3.30125e-06;0.0015529787656307678
3.30150e-06;0.001596355555097287
3.30175e-06;0.0016408965616946669
3.30200e-06;0.0016854375682920466
3.30225e-06;0.0017362564132396138
3.30250e-06;0.0017883181152927548
3.30275e-06;0.0018403798173458959
3.30300e-06;0.001892441519399037
3.30325e-06;0.00194450322145209
3.30350e-06;0.0019965649235052308
3.30375e-06;0.0020493847177866925
3.30400e-06;0.00210371112769045
3.30425e-06;0.002158037537594299
3.30450e-06;0.0022123639474981487
3.30475e-06;0.002266690357401906
3.30500e-06;0.0023210167673057554
3.30525e-06;0.0023753431772096044
3.30550e-06;0.0024158445030653154
3.30575e-06;0.002453608803374063
3.30600e-06;0.0024913731036828746
3.30625e-06;0.0025291374039916863
3.30650e-06;0.002566901704300434
3.30675e-06;0.0026046660046092455
3.30700e-06;0.0026424303049180572
3.30725e-06;0.0026801946052268685
3.30750e-06;0.0027179589055356165
3.30775e-06;0.0027557232058444277
3.30800e-06;0.0027934875061532394
3.30825e-06;0.002819839447650448
3.30850e-06;0.002823510721239583
3.30875e-06;0.002827181994828718
3.30900e-06;0.002830853268417847
3.30925e-06;0.002834524542006982
3.30950e-06;0.002838195815596117
3.30975e-06;0.0028418670891852517
3.31000e-06;0.0028455383627743807
3.31025e-06;0.002849209636363516
3.31050e-06;0.002852880909952651
3.31075e-06;0.0028565521835417795
3.31100e-06;0.0028602234571309146
3.31125e-06;0.0028439751050258243
3.31150e-06;0.002823783158493247
3.31175e-06;0.002803591211960704
3.31200e-06;0.0027833992654281267
3.31225e-06;0.0027632073188955495
3.31250e-06;0.0027430153723630064
3.31275e-06;0.002722823425830429
3.31300e-06;0.002702631479297852
3.31325e-06;0.00267511221316843
3.31350e-06;0.002646142318539458
3.31375e-06;0.002617172423910486
3.31400e-06;0.0025882025292815144
3.31425e-06;0.0025592326346525916
3.31450e-06;0.0025302627400236198
3.31475e-06;0.002501292845394648
3.31500e-06;0.0024723229507657256
3.31525e-06;0.0024448044214798355
3.31550e-06;0.0024175732267235923
3.31575e-06;0.0023903420319673486
3.31600e-06;0.002363110837211151
3.31625e-06;0.0023358796424549073
3.31650e-06;0.0023108472099630213
3.31675e-06;0.00229018454865988
3.31700e-06;0.0022695218873567033
3.31725e-06;0.0022488592260535268
3.31750e-06;0.0022281965647503853
3.31775e-06;0.0022075339034472088
3.31800e-06;0.002187867586295464
3.31825e-06;0.0021684198563941357
3.31850e-06;0.002148976350433136
3.31875e-06;0.0021295328444721033
3.31900e-06;0.00211008933851107
3.31925e-06;0.0020906458325500705
3.31950e-06;0.002071202326589038
3.31975e-06;0.0020517588206280047
3.32000e-06;0.002032315314666972
3.32025e-06;0.0020128718087059723
3.32050e-06;0.001993428302744939
3.32075e-06;0.0019739847967839065
3.32100e-06;0.0019545412908229067
3.32125e-06;0.0019350977848618738
3.32150e-06;0.0019150988369204273
3.32175e-06;0.001893996015948964
3.32200e-06;0.001872893194977465
3.32225e-06;0.0018517903740059658
3.32250e-06;0.0018306875530344666
3.32275e-06;0.0018095847320630032
3.32300e-06;0.0017884819110915043
3.32325e-06;0.0017673790901200051
3.32350e-06;0.0017462762691485417
3.32375e-06;0.0017251734481770426
3.32400e-06;0.0017040706272055436
3.32425e-06;0.0016829678062340444
3.32450e-06;0.001661864985262581
3.32475e-06;0.001640762164291082
3.32500e-06;0.0016218271120200694
3.32525e-06;0.0016033212244683567
3.32550e-06;0.0015848153369166127
3.32575e-06;0.0015663094493648686
3.32600e-06;0.0015478035618131558
3.32625e-06;0.0015311915708908842
3.32650e-06;0.0015183434679799299
3.32675e-06;0.0015054953650689758
3.32700e-06;0.0014926472621580435
3.32725e-06;0.0014797991592470894
3.32750e-06;0.0014669510563361354
3.32775e-06;0.0014637308378101907
3.32800e-06;0.0014624167028523003
3.32825e-06;0.0014611025678944098
3.32850e-06;0.0014680157709897812
3.32875e-06;0.0014765577840339349
3.32900e-06;0.001485099797078103
3.32925e-06;0.0015007383025992028
3.32950e-06;0.0015177817385452809
3.32975e-06;0.0015429080755355363
3.33000e-06;0.0015696346275103495
3.33025e-06;0.0015963611794851174
3.33050e-06;0.0016314832824282327
3.33075e-06;0.0016682674973271766
3.33100e-06;0.0017050517122261205
3.33125e-06;0.0017492525197418322
3.33150e-06;0.0017949216296128223
3.33175e-06;0.0018405907394838123
3.33200e-06;0.00189494809662581
3.33225e-06;0.0019510255123702735
3.33250e-06;0.002007102928114737
3.33275e-06;0.0020631803438592006
3.33300e-06;0.0021192577596035695
3.33325e-06;0.002175335175348033
3.33350e-06;0.002236264398344015
3.33375e-06;0.0022981541594714414
3.33400e-06;0.002360043920598973
3.33425e-06;0.0024219336817265045
3.33450e-06;0.0024838234428539315
3.33475e-06;0.002545713203981463
3.33500e-06;0.0026014729081426753
3.33525e-06;0.002656019012265876
3.33550e-06;0.002710565116388985
3.33575e-06;0.0027651112205121864
3.33600e-06;0.0028196573246353873
3.33625e-06;0.0028742034287584962
3.33650e-06;0.0029287495328816976
3.33675e-06;0.002975404224389314
3.33700e-06;0.0030063756980930924
3.33725e-06;0.0030373471717968182
3.33750e-06;0.0030683186455005966
3.33775e-06;0.003099290119204375
3.33800e-06;0.0031302615929081003
3.33825e-06;0.0031612330666118786
3.33850e-06;0.003192204540315657
3.33875e-06;0.0031966926953306014
3.33900e-06;0.003195937806643732
3.33925e-06;0.003195182917956863
3.33950e-06;0.0031944280292699936
3.33975e-06;0.003193673140583126
3.34000e-06;0.0031929182518962568
3.34025e-06;0.0031921633632093875
3.34050e-06;0.0031914084745225195
3.34075e-06;0.0031906535858356503
3.34100e-06;0.003166854013668874
3.34125e-06;0.0031384921627333113
3.34150e-06;0.003110130311797797
3.34175e-06;0.003081768460862234
3.34200e-06;0.003053406609926672
3.34225e-06;0.0030250447589911574
3.34250e-06;0.0029966829080555948
3.34275e-06;0.002968321057120032
3.34300e-06;0.0029399592061845176
3.34325e-06;0.002901267540084921
3.34350e-06;0.00286053082544083
3.34375e-06;0.0028197941107967386
3.34400e-06;0.002779057396152716
3.34425e-06;0.0027383206815086245
3.34450e-06;0.002697583966864533
3.34475e-06;0.0026568472522205105
3.34500e-06;0.00261826105855291
3.34525e-06;0.002580100614980849
3.34550e-06;0.0025419401714087872
3.34575e-06;0.0025037797278367907
3.34600e-06;0.0024656192842647294
3.34625e-06;0.002427458840692668
3.34650e-06;0.002389298397120671
3.34675e-06;0.002367030630283833
3.34700e-06;0.0023479092213353966
3.34725e-06;0.002328787812386993
3.34750e-06;0.002309666403438557
3.34775e-06;0.0022905449944901207
3.34800e-06;0.002271423585541685
3.34825e-06;0.002252302176593281
3.34850e-06;0.0022331807676448452
3.34875e-06;0.002214059358696409
3.34900e-06;0.002194937949748005
3.34925e-06;0.0021758165407995693
3.34950e-06;0.00216447415722687
3.34975e-06;0.002168591635559961
3.35000e-06;0.0021727091138930453
3.35025e-06;0.002176826592226137
3.35050e-06;0.002180944070559228
3.35075e-06;0.002185061548892312
3.35100e-06;0.0021891790272254032
3.35125e-06;0.0021932965055584943
3.35150e-06;0.0021974139838915785
3.35175e-06;0.0022015314622246696
3.35200e-06;0.0022056489405577607
3.35225e-06;0.0022097664188908523
3.35250e-06;0.0022242022434194914
3.35275e-06;0.0022406808459200125
3.35300e-06;0.0022571594484205337
3.35325e-06;0.002273638050921027
3.35350e-06;0.0022901166534215482
3.35375e-06;0.0023065952559220694
3.35400e-06;0.0023230738584225905
3.35425e-06;0.002339552460923084
3.35450e-06;0.002356293183118308
3.35475e-06;0.0023735548361612014
3.35500e-06;0.0023908164892040653
3.35525e-06;0.0024080781422469583
3.35550e-06;0.0024253397952898516
3.35575e-06;0.0024426014483327155
3.35600e-06;0.0024598631013756085
3.35625e-06;0.002477124754418502
3.35650e-06;0.002494386407461395
3.35675e-06;0.0024990560234459
3.35700e-06;0.0025012327267642065
3.35725e-06;0.0025034094300825124
3.35750e-06;0.002505586133400815
3.35775e-06;0.002507762836719121
3.35800e-06;0.002509939540037427
3.35825e-06;0.002512116243355733
3.35850e-06;0.0025142929466740356
3.35875e-06;0.002516469649992342
3.35900e-06;0.002518646353310648
3.35925e-06;0.0025208230566289504
3.35950e-06;0.0025133545432545453
3.35975e-06;0.002486717340882814
3.36000e-06;0.0024600801385111274
3.36025e-06;0.002433442936139396
3.36050e-06;0.0024068057337676644
3.36075e-06;0.002380168531395933
3.36100e-06;0.002353531329024247
3.36125e-06;0.0023268941266525152
3.36150e-06;0.002300256924280784
3.36175e-06;0.0022736197219090973
3.36200e-06;0.002246982519537366
3.36225e-06;0.0022203453171656343
3.36250e-06;0.0021805090315245123
3.36275e-06;0.0021380596530444582
3.36300e-06;0.0020956102745643317
3.36325e-06;0.0020531608960842056
3.36350e-06;0.0020107115176041515
3.36375e-06;0.001968262139124025
3.36400e-06;0.0019253553537324536
3.36425e-06;0.0018815395280248847
3.36450e-06;0.0018377237023172416
3.36475e-06;0.0017939078766095985
3.36500e-06;0.0017500920509019556
3.36525e-06;0.0017062762251943866
3.36550e-06;0.0016624603994867435
3.36575e-06;0.001622756808825825
3.36600e-06;0.0015838673392470288
3.36625e-06;0.0015449778696681666
3.36650e-06;0.0015114819999878164
3.36675e-06;0.0014790539300163145
3.36700e-06;0.0014466258600448676
3.36725e-06;0.0014211334874582966
3.36750e-06;0.0013970142118362268
3.36775e-06;0.001380658968023094
3.36800e-06;0.0013658408109536964
3.36825e-06;0.0013589150075617033
3.36850e-06;0.00135355169547748
3.36875e-06;0.001355978507153472
3.36900e-06;0.001359947571135843
3.36925e-06;0.0013720963889667936
3.36950e-06;0.0013858645962486098
3.36975e-06;0.0014082750700128697
3.37000e-06;0.0014323964993183933
3.37025e-06;0.0014645168365828207
3.37050e-06;0.0014982207602738848
3.37075e-06;0.0015391358287835735
3.37100e-06;0.001581478526053788
3.37125e-06;0.0016321699998935865
3.37150e-06;0.0016845143255130258
3.37175e-06;0.0017368586511324652
3.37200e-06;0.0017978124136964677
3.37225e-06;0.0018604706323633788
3.37250e-06;0.00192312885103029
3.37275e-06;0.0019933571190896616
3.37300e-06;0.0020650840701604578
3.37325e-06;0.002136811021231254
3.37350e-06;0.00220853797230205
3.37375e-06;0.002280264923372725
3.37400e-06;0.0023528519004840653
3.37425e-06;0.002427148074208338
3.37450e-06;0.0025014442479324847
3.37475e-06;0.0025757404216567572
3.37500e-06;0.0026500365953810298
3.37525e-06;0.0027243327691053023
3.37550e-06;0.002786805715439484
3.37575e-06;0.002829405269063458
3.37600e-06;-0.00020981219474057455
3.37625e-06;-0.007628919266019147
3.37650e-06;-0.009222747043181996
3.37675e-06;-0.007537146600047296
3.37700e-06;-0.004456654716290584
3.37725e-06;0.0009763674920776597
3.37750e-06;0.0038430690797387284
3.37775e-06;0.003440467466402704
3.37800e-06;0.0017491102198383744
3.37825e-06;-0.0019958413791730956
3.37850e-06;-0.004212568248882147
3.37875e-06;-0.0031137572172878474
3.37900e-06;-0.0009782795251323025
3.37925e-06;0.0018524738228303014
3.37950e-06;0.004254321868101582
3.37975e-06;0.004307776005503047
3.38000e-06;0.003156345038145846
3.38025e-06;0.0018927981110939403
3.38050e-06;0.00035450604804627506
3.38075e-06;0.0002735153228413451
3.38100e-06;0.0014025853713528456
3.38125e-06;0.0027883562428894742
3.38150e-06;0.004138543061457923
3.38175e-06;0.0045030968426230744
3.38200e-06;0.003986003415794314
3.38225e-06;0.0030867513776842064
3.38250e-06;0.0021203001909273944
3.38275e-06;0.0020673025717919233
3.38300e-06;0.0027727206945316798
3.38325e-06;0.003639247163852142
3.38350e-06;0.004483713167112085
3.38375e-06;0.004710969435070357
3.38400e-06;0.004386141966663264
3.38425e-06;0.0038220874721756424
3.38450e-06;0.0032160544373333803
3.38475e-06;0.0031822467358688937
3.38500e-06;0.003623453324306493
3.38525e-06;0.0041654505145201975
3.38550e-06;0.00469345511551252
3.38575e-06;0.004834644713530593
3.38600e-06;0.00462981009437925
3.38625e-06;0.004274910155911857
3.38650e-06;0.003893474397420638
3.38675e-06;0.003870189951637292
3.38700e-06;0.004144054025869589
3.38725e-06;0.004480365688644352
3.38750e-06;0.004806793810693043
3.38775e-06;0.004889541099996934
3.38800e-06;0.004754166973460335
3.38825e-06;0.004523510101741115
3.38850e-06;0.00427503133059222
3.38875e-06;0.004249766761006268
3.38900e-06;0.00440956321327625
3.38925e-06;0.004607472232752026
3.38950e-06;0.004798262572350433
3.38975e-06;0.004835570620685593
3.39000e-06;0.004735498649907855
3.39025e-06;0.00457508178162609
3.39050e-06;0.004402923621757356
3.39075e-06;0.004370082828315197
3.39100e-06;0.00445272889109489
3.39125e-06;0.004558887397636444
3.39150e-06;0.004660304778440697
3.39175e-06;0.004665383930847971
3.39200e-06;0.004584300028904332
3.39225e-06;0.00446539399475005
3.39250e-06;0.004339193787432961
3.39275e-06;0.004300399087174579
3.39300e-06;0.004334156285919862
3.39325e-06;0.0043829293299828525
3.39350e-06;0.00442910039763876
3.39375e-06;0.004415377157794876
3.39400e-06;0.004348219597515082
3.39425e-06;0.0042579922893293395
3.39450e-06;0.004163900751578956
3.39475e-06;0.0041253433668028035
3.39500e-06;0.004133091547328935
3.39525e-06;0.004151184126125798
3.39550e-06;0.004168665598084143
3.39575e-06;0.004149730919563783
3.39600e-06;0.00409851080017103
3.39625e-06;0.004034108957800151
3.39650e-06;0.0039686379294509135
3.39675e-06;0.0039393829589900635
3.39700e-06;0.00394054827269573
3.39725e-06;0.0039492070263503366
3.39750e-06;0.003957723913412977
3.39775e-06;0.003943098688978579
3.39800e-06;0.003907787366092922
3.39825e-06;0.0038637848347204407
3.39850e-06;0.0038187056461458577
