Time(s);Current(A)
2.50000e-06;0.006495089069937895
2.50025e-06;0.006437634848987285
2.50050e-06;0.006380180628036772
2.50075e-06;0.006322726407086162
2.50100e-06;0.006265272186135552
2.50125e-06;0.006212231284206914
2.50150e-06;0.0061716315183299895
2.50175e-06;0.0061310317524530655
2.50200e-06;0.006090431986576141
2.50225e-06;0.006049832220699286
2.50250e-06;0.006009232454822361
2.50275e-06;0.005968632688945437
2.50300e-06;0.005928032923068581
2.50325e-06;0.0059036600868957985
2.50350e-06;0.005884359730388497
2.50375e-06;0.005865059373881228
2.50400e-06;0.005845759017373927
2.50425e-06;0.005826458660866626
2.50450e-06;0.005807158304359324
2.50475e-06;0.005787857947852056
2.50500e-06;0.005768557591344754
2.50525e-06;0.005749257234837453
2.50550e-06;0.005729956878330184
2.50575e-06;0.005710656521822883
2.50600e-06;0.005691356165315581
2.50625e-06;0.00567205580880828
2.50650e-06;0.0056527554523010115
2.50675e-06;0.0056334550957937105
2.50700e-06;0.005625564690213473
2.50725e-06;0.005621240994116742
2.50750e-06;0.0056169172980200036
2.50775e-06;0.0056125936019232655
2.50800e-06;0.005608269905826534
2.50825e-06;0.005603946209729796
2.50850e-06;0.005599622513633058
2.50875e-06;0.00559529881753632
2.50900e-06;0.005590975121439589
2.50925e-06;0.005586651425342851
2.50950e-06;0.005582327729246113
2.50975e-06;0.005578004033149382
2.51000e-06;0.005573680337052644
2.51025e-06;0.005569356640955906
2.51050e-06;0.005565032944859168
2.51075e-06;0.005564084058734205
2.51100e-06;0.005564190126027426
2.51125e-06;0.005564296193320646
2.51150e-06;0.005564402260613866
2.51175e-06;0.005564508327907086
2.51200e-06;0.005564614395200306
2.51225e-06;0.0055647204624935265
2.51250e-06;0.005564826529786747
2.51275e-06;0.005564932597079966
2.51300e-06;0.005577396771992354
2.51325e-06;0.0055937240467486314
2.51350e-06;0.005610051321504937
2.51375e-06;0.005626378596261242
2.51400e-06;0.00564270587101752
2.51425e-06;0.005659033145773825
2.51450e-06;0.005675360420530131
2.51475e-06;0.005691687695286436
2.51500e-06;0.005708014970042714
2.51525e-06;0.005743123333725361
2.51550e-06;0.005784102598029402
2.51575e-06;0.005825081862333375
2.51600e-06;0.005866061126637417
2.51625e-06;0.005907040390941459
2.51650e-06;0.005948019655245431
2.51675e-06;0.005988998919549473
2.51700e-06;0.006029978183853515
2.51725e-06;0.006070957448157556
2.51750e-06;0.006111936712461529
2.51775e-06;0.006162820299581134
2.51800e-06;0.006216799942270361
2.51825e-06;0.006270779584959498
2.51850e-06;0.006324759227648726
2.51875e-06;0.006378738870337954
2.51900e-06;0.006432718513027182
2.51925e-06;0.006486698155716319
2.51950e-06;0.0065406777984055465
2.51975e-06;0.006594657441094775
2.52000e-06;0.006648637083783911
2.52025e-06;0.006682984123749967
2.52050e-06;0.006711194082954329
2.52075e-06;0.006022871719409472
2.52100e-06;0.0009722712777340335
2.52125e-06;-0.0037440362371836166
2.52150e-06;-0.0038259201850157796
2.52175e-06;-0.0020462915627505116
2.52200e-06;0.0019033117843689968
2.52225e-06;0.006026895358876232
2.52250e-06;0.007327814574152779
2.52275e-06;0.006387123276561829
2.52300e-06;0.0038991586343696556
2.52325e-06;0.0008586593822108128
2.52350e-06;9.35735638464368e-05
2.52375e-06;0.001633140364459375
2.52400e-06;0.003958935931479534
2.52425e-06;0.006297418811124913
2.52450e-06;0.00746093921003484
2.52475e-06;0.007126269768254231
2.52500e-06;0.005917162953193282
2.52525e-06;0.004287392383527806
2.52550e-06;0.003768804201606978
2.52575e-06;0.004397943217903514
2.52600e-06;0.0056778754306926575
2.52625e-06;0.006878191128470481
2.52650e-06;0.0074051298717426875
2.52675e-06;0.007132593691326933
2.52700e-06;0.006269464847638716
2.52725e-06;0.005398614488274757
2.52750e-06;0.0050966205580344455
2.52775e-06;0.005461020175686173
2.52800e-06;0.006233476004274484
2.52825e-06;0.006956559158405349
2.52850e-06;0.007258475900228019
2.52875e-06;0.007060398457818215
2.52900e-06;0.006493329727569264
2.52925e-06;0.005922517309636969
2.52950e-06;0.005709234322072555
2.52975e-06;0.0059146653610657705
2.53000e-06;0.006377081731481133
2.53025e-06;0.006810064294429919
2.53050e-06;0.006980861019631931
2.53075e-06;0.006840246750267346
2.53100e-06;0.006470432961167405
2.53125e-06;0.0061003482903387776
2.53150e-06;0.005956410742368363
2.53175e-06;0.006077052190005611
2.53200e-06;0.0063610817953115234
2.53225e-06;0.006629234051454376
2.53250e-06;0.00673585612701466
2.53275e-06;0.006650152910240637
2.53300e-06;0.006423535920238436
2.53325e-06;0.006199265041117145
2.53350e-06;0.006119013738888172
2.53375e-06;0.0062066929695044366
2.53400e-06;0.006398756694454436
2.53425e-06;0.0065827615639758455
2.53450e-06;0.0066673277916936115
2.53475e-06;0.006633027933280464
2.53500e-06;0.006511927974328337
2.53525e-06;0.006393621942100961
2.53550e-06;0.0063667023161097566
2.53575e-06;0.00644599093898678
2.53600e-06;0.006591527741046546
2.53625e-06;0.006732727963569225
2.53650e-06;0.00681220711949074
2.53675e-06;0.006817655667926077
2.53700e-06;0.0067690181856836585
2.53725e-06;0.006722271429028072
2.53750e-06;0.006732760418253306
2.53775e-06;0.006809616635371186
2.53800e-06;0.006927657068528901
2.53825e-06;0.007042518962451167
2.53850e-06;0.007118112138071998
2.53875e-06;0.007146582060096419
2.53900e-06;0.007140279335330487
2.53925e-06;0.007134122795491175
2.53950e-06;0.007162631404125713
2.53975e-06;0.007231374898150225
2.54000e-06;0.0073244290083331045
2.54025e-06;0.007413856987519176
2.54050e-06;0.007476906459522898
2.54075e-06;0.007508513239974615
2.54100e-06;0.007516269148097089
2.54125e-06;0.007521901643848882
2.54150e-06;0.007546885714432928
2.54175e-06;0.007594561499772634
2.54200e-06;0.007654860099760693
2.54225e-06;0.0077104669058366765
2.54250e-06;0.007747716555157985
2.54275e-06;0.007764038633556981
2.54300e-06;0.007764444203139951
2.54325e-06;0.007765664932157405
2.54350e-06;0.007776448017756956
2.54375e-06;0.007795139956740779
2.54400e-06;0.007825251012561985
2.54425e-06;0.007848334390055204
2.54450e-06;0.007861270926277888
2.54475e-06;0.007864582275605634
2.54500e-06;0.007853996397561258
2.54525e-06;0.007847459154801147
2.54550e-06;0.007846767492569066
2.54575e-06;0.007846075830336986
2.54600e-06;0.007847224133521498
2.54625e-06;0.007851029051900086
2.54650e-06;0.007848017987374513
2.54675e-06;0.007835165735844809
2.54700e-06;0.00782010956536783
2.54725e-06;0.0078018712891246445
2.54750e-06;0.0077836330128814284
2.54775e-06;0.007773948616848706
2.54800e-06;0.007765118561254274
2.54825e-06;0.0077525394741593005
2.54850e-06;0.00773454738638639
2.54875e-06;0.007716555298613511
2.54900e-06;0.0076985632108406005
2.54925e-06;0.0076794864348327194
2.54950e-06;0.007660301322841718
2.54975e-06;0.007641116210850749
2.55000e-06;0.007622414533138835
2.55025e-06;0.007604410857052171
2.55050e-06;0.007586407180965538
2.55075e-06;0.0075684035048788735
2.55100e-06;0.0075503998287922095
2.55125e-06;0.007532005268823925
2.55150e-06;0.007515460857085954
2.55175e-06;0.007502402628046841
2.55200e-06;0.007489344399007729
2.55225e-06;0.007472232980660491
2.55250e-06;0.0074492694065043255
2.55275e-06;0.007426305832348161
2.55300e-06;0.007403342258192035
2.55325e-06;0.0073803786840358696
2.55350e-06;0.007357415109879704
2.55375e-06;0.007334451535723539
2.55400e-06;0.007311487961567413
2.55425e-06;0.007288524387411248
2.55450e-06;0.007265560813255083
2.55475e-06;0.007234599248793831
2.55500e-06;0.0071920898680658246
2.55525e-06;0.007149580487337818
2.55550e-06;0.007107071106609812
2.55575e-06;0.007064561725881877
2.55600e-06;0.007022052345153871
2.55625e-06;0.006979542964425865
2.55650e-06;0.00693703358369793
2.55675e-06;0.006894524202969924
2.55700e-06;0.006852014822241917
2.55725e-06;0.006804278852087238
2.55750e-06;0.00674899652439762
2.55775e-06;0.006693714196708003
2.55800e-06;0.006638431869018385
2.55825e-06;0.006583149541328861
2.55850e-06;0.006527867213639243
2.55875e-06;0.006472584885949626
2.55900e-06;0.006417302558260102
2.55925e-06;0.006362020230570484
2.55950e-06;0.006306737902880866
2.55975e-06;0.006256770721349258
2.56000e-06;0.006207334403494531
2.56025e-06;0.00615789808563972
2.56050e-06;0.00610846176778491
2.56075e-06;0.006059025449930183
2.56100e-06;0.006009589132075373
2.56125e-06;0.005960152814220563
2.56150e-06;0.005910716496365836
2.56175e-06;0.005861280178511025
2.56200e-06;0.005824261918831601
2.56225e-06;0.005805173345077761
2.56250e-06;0.005786084771323953
2.56275e-06;0.005766996197570113
2.56300e-06;0.005747907623816273
2.56325e-06;0.005728819050062465
2.56350e-06;0.005709730476308624
2.56375e-06;0.005690641902554784
2.56400e-06;0.005671553328800944
2.56425e-06;0.005652464755047136
2.56450e-06;0.005649610324018393
2.56475e-06;0.005670195393451251
2.56500e-06;0.005690780462884074
2.56525e-06;0.005711365532316933
2.56550e-06;0.005731950601749791
2.56575e-06;0.005752535671182614
2.56600e-06;0.005773120740615472
2.56625e-06;0.00579370581004833
2.56650e-06;0.005814290879481189
2.56675e-06;0.005834875948914012
2.56700e-06;0.005866067661979995
2.56725e-06;0.005912573668664563
2.56750e-06;0.005959079675349053
2.56775e-06;0.006005585682033621
2.56800e-06;0.006052091688718189
2.56825e-06;0.006098597695402757
2.56850e-06;0.006145103702087247
2.56875e-06;0.0061916097087718145
2.56900e-06;0.006238115715456383
2.56925e-06;0.00628554330330938
2.56950e-06;0.006334301506680084
2.56975e-06;0.006383059710050787
2.57000e-06;0.006431817913421408
2.57025e-06;0.006480576116792112
2.57050e-06;0.006529334320162816
2.57075e-06;0.006578092523533519
2.57100e-06;0.00662685072690414
2.57125e-06;0.006675608930274844
2.57150e-06;0.006712809716702905
2.57175e-06;0.006733323445220784
2.57200e-06;0.006753837173738697
2.57225e-06;0.006774350902256612
2.57250e-06;0.006794864630774526
2.57275e-06;0.006815378359292405
2.57300e-06;0.0068358920878103194
2.57325e-06;0.006856405816328234
2.57350e-06;0.006876919544846113
2.57375e-06;0.006897433273364027
2.57400e-06;0.0069179470018819415
2.57425e-06;0.006938460730399821
2.57450e-06;0.006958974458917735
2.57475e-06;0.006979488187435649
2.57500e-06;0.0070000019159535635
2.57525e-06;0.006990858827484079
2.57550e-06;0.006978753689346654
2.57575e-06;0.006966648551209229
2.57600e-06;0.006954543413071825
2.57625e-06;0.0069424382749343995
2.57650e-06;0.006930333136796975
2.57675e-06;0.00691822799865955
2.57700e-06;0.0069061228605221455
2.57725e-06;0.006894017722384721
2.57750e-06;0.006881912584247296
2.57775e-06;0.0068698074461098916
2.57800e-06;0.006857702307972466
2.57825e-06;0.006845597169835042
2.57850e-06;0.006833492031697638
2.57875e-06;0.00681744407477842
2.57900e-06;0.006795703319401703
2.57925e-06;0.006773962564024987
2.57950e-06;0.006752221808648307
2.57975e-06;0.006730481053271591
2.58000e-06;0.006708740297894875
2.58025e-06;0.006686999542518195
2.58050e-06;0.006665258787141478
2.58075e-06;0.006643518031764762
2.58100e-06;0.006621777276388046
2.58125e-06;0.006600036521011366
2.58150e-06;0.006578295765634649
2.58175e-06;0.0065605405116528695
2.58200e-06;0.0065485396829819305
2.58225e-06;0.006536538854310972
2.58250e-06;0.006524538025640013
2.58275e-06;0.006512537196969075
2.58300e-06;0.006500536368298116
2.58325e-06;0.006488535539627157
2.58350e-06;0.006476534710956199
2.58375e-06;0.006464533882285261
2.58400e-06;0.006452533053614302
2.58425e-06;0.006440532224943343
2.58450e-06;0.006428531396272405
2.58475e-06;0.006421554703318969
2.58500e-06;0.006421832057190223
2.58525e-06;0.006422109411061476
2.58550e-06;0.006422386764932729
2.58575e-06;0.006422664118803982
2.58600e-06;0.0064229414726752355
2.58625e-06;0.006423218826546488
2.58650e-06;0.006423496180417741
2.58675e-06;0.006423773534288995
2.58700e-06;0.006424050888160247
2.58725e-06;0.006424328242031501
2.58750e-06;0.006424605595902754
2.58775e-06;0.0064248829497740075
2.58800e-06;0.00642516030364526
2.58825e-06;0.0064254376575165134
2.58850e-06;0.006425715011387767
2.58875e-06;0.006429714410209154
2.58900e-06;0.006434085557691781
2.58925e-06;0.006438456705174408
2.58950e-06;0.006442827852657035
2.58975e-06;0.006447199000139655
2.59000e-06;0.006451570147622282
2.59025e-06;0.006455941295104909
2.59050e-06;0.006460312442587528
2.59075e-06;0.006464683590070156
2.59100e-06;0.006469054737552783
2.59125e-06;0.006473425885035403
2.59150e-06;0.0064777970325180295
2.59175e-06;0.006482168180000657
2.59200e-06;0.006486539327483284
2.59225e-06;0.006490910474965903
2.59250e-06;0.006490254346325191
2.59275e-06;0.006482339636616808
2.59300e-06;0.0064744249269084375
2.59325e-06;0.006466510217200054
2.59350e-06;0.006458595507491671
2.59375e-06;0.006450680797783288
2.59400e-06;0.006442766088074917
2.59425e-06;0.0064348513783665335
2.59450e-06;0.006426936668658151
2.59475e-06;0.00641902195894978
2.59500e-06;0.006411107249241397
2.59525e-06;0.006403192539533013
2.59550e-06;0.0063952778298246435
2.59575e-06;0.00638736312011626
2.59600e-06;0.006379448410407876
2.59625e-06;0.006371533700699493
2.59650e-06;0.006351279095146941
2.59675e-06;0.006329792011260037
2.59700e-06;0.006308304927373134
2.59725e-06;0.006286817843486266
2.59750e-06;0.006265330759599362
2.59775e-06;0.006243843675712459
2.59800e-06;0.006222356591825555
2.59825e-06;0.006200869507938687
2.59850e-06;0.006179382424051784
2.59875e-06;0.00615789534016488
2.59900e-06;0.006136408256278012
2.59925e-06;0.006114921172391109
2.59950e-06;0.006093434088504205
2.59975e-06;0.006071947004617337
2.60000e-06;0.006050459920730434
2.60025e-06;0.00603093699649148
2.60050e-06;0.006014250004014661
2.60075e-06;0.00599756301153787
2.60100e-06;0.00598087601906105
2.60125e-06;0.005964189026584231
2.60150e-06;0.0059475020341074394
2.60175e-06;0.005930815041630621
2.60200e-06;0.005914128049153801
2.60225e-06;0.0058974410566769815
2.60250e-06;0.0058807540642001905
2.60275e-06;0.005864067071723371
2.60300e-06;0.005847380079246551
2.60325e-06;0.005851982619826685
2.60350e-06;0.005858711506412855
2.60375e-06;0.005865440392999025
2.60400e-06;0.005872169279585184
2.60425e-06;0.005878898166171354
2.60450e-06;0.005885627052757524
2.60475e-06;0.005892355939343694
2.60500e-06;0.005899084825929852
2.60525e-06;0.005905813712516022
2.60550e-06;0.005912542599102192
2.60575e-06;0.005919271485688351
2.60600e-06;0.005935303904324463
2.60625e-06;0.005964769132288844
2.60650e-06;0.005994234360253225
2.60675e-06;0.006023699588217556
2.60700e-06;0.006053164816181937
2.60725e-06;0.006082630044146317
2.60750e-06;0.006112095272110649
2.60775e-06;0.006141560500075029
2.60800e-06;0.00617102572803941
2.60825e-06;0.006200490956003741
2.60850e-06;0.006229956183968122
2.60875e-06;0.0062644324852922685
2.60900e-06;0.006299409280253219
2.60925e-06;0.00633438607521411
2.60950e-06;0.00636936287017506
2.60975e-06;0.00640433966513601
2.61000e-06;0.006439316460096901
2.61025e-06;0.0064742932550578515
2.61050e-06;0.006509270050018801
2.61075e-06;0.006544246844979751
2.61100e-06;0.0065792236399406425
2.61125e-06;0.006607314223057421
2.61150e-06;0.006625462219831274
2.61175e-06;0.006643610216605097
2.61200e-06;0.00666175821337895
2.61225e-06;0.006679906210152803
2.61250e-06;0.006698054206926626
2.61275e-06;0.006716202203700479
2.61300e-06;0.0067343502004743325
2.61325e-06;0.006752498197248186
2.61350e-06;0.0067706461940220085
2.61375e-06;0.006758720620101376
2.61400e-06;0.006743791372179353
2.61425e-06;0.006728862124257355
2.61450e-06;0.006713932876335332
2.61475e-06;0.0066990036284133095
2.61500e-06;0.006684074380491286
2.61525e-06;0.0066691451325692885
2.61550e-06;0.006654215884647266
2.61575e-06;0.006639286636725242
2.61600e-06;0.0066125899441966726
2.61625e-06;0.006568902947465179
2.61650e-06;0.006525215950733686
2.61675e-06;0.006481528954002267
2.61700e-06;0.006437841957270774
2.61725e-06;0.006394154960539281
2.61750e-06;0.006350467963807787
2.61775e-06;0.006306780967076368
2.61800e-06;0.006263093970344875
2.61825e-06;0.006214871199615697
2.61850e-06;0.0061600994981209365
2.61875e-06;0.0061053277966260835
2.61900e-06;0.006050556095131231
2.61925e-06;0.005995784393636471
2.61950e-06;0.005941012692141618
2.61975e-06;0.005886240990646765
2.62000e-06;0.005831469289151913
2.62025e-06;0.005776697587657153
2.62050e-06;0.005727518500709602
2.62075e-06;0.00568641425291604
2.62100e-06;0.005645310005122547
2.62125e-06;0.005604205757328985
2.62150e-06;0.005563101509535423
2.62175e-06;0.005521997261741861
2.62200e-06;0.005480893013948368
2.62225e-06;0.005439788766154806
2.62250e-06;0.005398684518361244
2.62275e-06;0.005357580270567751
2.62300e-06;0.005328396552073368
2.62325e-06;0.0053164241675460406
2.62350e-06;0.005304451783018733
2.62375e-06;0.005292479398491406
2.62400e-06;0.0052805070139640775
2.62425e-06;0.00526853462943675
2.62450e-06;0.005256562244909443
2.62475e-06;0.005244589860382115
2.62500e-06;0.005232617475854787
2.62525e-06;0.00522064509132748
2.62550e-06;0.00521913313834532
2.62575e-06;0.005232724372163625
2.62600e-06;0.00524631560598193
2.62625e-06;0.005259906839800212
2.62650e-06;0.005273498073618517
2.62675e-06;0.0052870893074368226
2.62700e-06;0.005300680541255104
2.62725e-06;0.00531427177507341
2.62750e-06;0.005327863008891714
2.62775e-06;0.005341454242709997
2.62800e-06;0.005355045476528301
2.62825e-06;0.005379102070815403
2.62850e-06;0.005404203919471631
2.62875e-06;0.005429305768127818
2.62900e-06;0.005454407616784047
2.62925e-06;0.005479509465440276
2.62950e-06;0.005504611314096463
2.62975e-06;0.005529713162752692
2.63000e-06;0.005554815011408921
2.63025e-06;0.00557991686006515
2.63050e-06;0.005605018708721337
2.63075e-06;0.005626147296227043
2.63100e-06;0.0056415391313716316
2.63125e-06;0.0056569309665161945
2.63150e-06;0.005672322801660783
2.63175e-06;0.005687714636805371
2.63200e-06;0.005703106471949934
2.63225e-06;0.005718498307094523
2.63250e-06;0.005733890142239111
2.63275e-06;0.0057492819773837
2.63300e-06;0.005764673812528263
2.63325e-06;0.005780065647672851
2.63350e-06;0.00579545748281744
2.63375e-06;0.005810849317962003
2.63400e-06;0.005826241153106591
2.63425e-06;0.00584163298825118
2.63450e-06;0.005857024823395769
2.63475e-06;0.005872416658540332
2.63500e-06;0.00588780849368492
2.63525e-06;0.005894476130672846
2.63550e-06;0.005900272416285078
2.63575e-06;0.005906068701897321
2.63600e-06;0.005911864987509563
2.63625e-06;0.005917661273121795
2.63650e-06;0.005923457558734037
2.63675e-06;0.00592925384434628
2.63700e-06;0.005935050129958522
2.63725e-06;0.0059408464155707545
2.63750e-06;0.005946642701182997
2.63775e-06;0.005952438986795239
2.63800e-06;0.005958235272407472
2.63825e-06;0.005964031558019714
2.63850e-06;0.005969827843631956
2.63875e-06;0.005975624129244198
2.63900e-06;0.005981420414856431
2.63925e-06;0.005987216700468674
2.63950e-06;0.005991017644880097
2.63975e-06;0.005991937636363387
2.64000e-06;0.005992857627846677
2.64025e-06;0.005993777619329969
2.64050e-06;0.005994697610813259
2.64075e-06;0.005995617602296549
2.64100e-06;0.00599653759377984
2.64125e-06;0.005997457585263132
2.64150e-06;0.0059983775767464215
2.64175e-06;0.005999297568229712
2.64200e-06;0.006000217559713003
2.64225e-06;0.006001137551196293
2.64250e-06;0.0060020575426795834
2.64275e-06;0.006002977534162875
2.64300e-06;0.006003897525646166
2.64325e-06;0.0060048175171294555
2.64350e-06;0.006005737508612746
2.64375e-06;0.006006657500096038
2.64400e-06;0.00600332621175724
2.64425e-06;0.005993856756649192
2.64450e-06;0.0059843873015411435
2.64475e-06;0.005974917846433111
2.64500e-06;0.0059654483913250626
2.64525e-06;0.005955978936217014
2.64550e-06;0.005946509481108966
2.64575e-06;0.005937040026000933
2.64600e-06;0.005927570570892885
2.64625e-06;0.005918101115784837
2.64650e-06;0.005908631660676805
2.64675e-06;0.005899162205568757
2.64700e-06;0.0058896927504607085
2.64725e-06;0.005880223295352659
2.64750e-06;0.005870753840244628
2.64775e-06;0.005861284385136579
2.64800e-06;0.005851814930028531
2.64825e-06;0.005842345474920498
2.64850e-06;0.005831354613771872
2.64875e-06;0.005818167086115317
2.64900e-06;0.0058049795584587845
2.64925e-06;0.005791792030802229
2.64950e-06;0.005778604503145674
2.64975e-06;0.005765416975489119
2.65000e-06;0.0057522294478325854
2.65025e-06;0.00573904192017603
2.65050e-06;0.005725854392519475
2.65075e-06;0.0057126668648629425
