Time(s);Current(A)
9.25000e-06;0.01303587072147606
9.25025e-06;0.01303446575484922
9.25050e-06;0.013033060788222372
9.25075e-06;0.013031655821595522
9.25100e-06;0.013030250854968683
9.25125e-06;0.013028845888341833
9.25150e-06;0.013027440921714985
9.25175e-06;0.013026035955088146
9.25200e-06;0.013024630988461296
9.25225e-06;0.013023226021834448
9.25250e-06;0.013021821055207607
9.25275e-06;0.013020416088580759
9.25300e-06;0.01301901112195391
9.25325e-06;0.01301760615532707
9.25350e-06;0.013016201188700222
9.25375e-06;0.013014796222073372
9.25400e-06;0.013013391255446533
9.25425e-06;0.013011986288819683
9.25450e-06;0.013005285799815795
9.25475e-06;0.012997623450793496
9.25500e-06;0.012989961101771143
9.25525e-06;0.012982298752748792
9.25550e-06;0.012974636403726493
9.25575e-06;0.01296697405470414
9.25600e-06;0.012952878037408837
9.25625e-06;0.012926636519424889
9.25650e-06;0.012900395001441115
9.25675e-06;0.012874153483457166
9.25700e-06;0.012847911965473215
9.25725e-06;0.012821670447489443
9.25750e-06;0.012795428929505493
9.25775e-06;0.012748278535618959
9.25800e-06;0.012697330327214392
9.25825e-06;0.012646382118809479
9.25850e-06;0.012595433910404567
9.25875e-06;0.012544485702
9.25900e-06;0.01249353749359509
9.25925e-06;0.012442589285190177
9.25950e-06;0.012391641076785611
9.25975e-06;0.0123406928683807
9.26000e-06;0.01227513508878683
9.26025e-06;0.012206923678178735
9.26050e-06;0.012138712267570179
9.26075e-06;0.012070500856961623
9.26100e-06;0.012002289446353528
9.26125e-06;0.011934078035744972
9.26150e-06;0.011865866625136416
9.26175e-06;0.011797655214528321
9.26200e-06;0.011729443803919765
9.26225e-06;0.01166220139637549
9.26250e-06;0.011595134995132735
9.26275e-06;0.011528068593889525
9.26300e-06;0.011461002192646315
9.26325e-06;0.01139393579140356
9.26350e-06;0.01133151494456237
9.26375e-06;0.01127786399100943
9.26400e-06;0.011224213037456854
9.26425e-06;0.011170562083903915
9.26450e-06;0.011116911130350975
9.26475e-06;0.011063260176798035
9.26500e-06;0.01102289318570334
9.26525e-06;0.010984939046726466
9.26550e-06;0.01094698490774959
9.26575e-06;0.010909030768772972
9.26600e-06;0.010871076629796098
9.26625e-06;0.010833221895223951
9.26650e-06;0.01081077126737633
9.26675e-06;0.010788320639528556
9.26700e-06;0.01076587001168078
9.26725e-06;0.010743419383833159
9.26750e-06;0.010720968755985385
9.26775e-06;0.010697045915494741
9.26800e-06;0.010678312179092842
9.26825e-06;-0.023400956500584696
9.26850e-06;-0.01982464737529646
9.26875e-06;-0.009056860825068465
9.26900e-06;-0.0013935259482724446
9.26925e-06;0.012231281720384714
9.26950e-06;0.02241475697670376
9.26975e-06;0.022361024980881904
9.27000e-06;0.016097835277287906
9.27025e-06;0.006547357349346272
9.27050e-06;-0.0007517043967589305
9.27075e-06;0.00033331647880774243
9.27100e-06;0.006133931604780223
9.27125e-06;0.013540487793063192
9.27150e-06;0.019169544728540797
9.27175e-06;0.01892800145668226
9.27200e-06;0.01486536837498243
9.27225e-06;0.008788268292681199
9.27250e-06;0.0041505869775533555
9.27275e-06;0.004783432484099134
9.27300e-06;0.008381965600163587
9.27325e-06;0.01299389247524126
9.27350e-06;0.016497089603144253
9.27375e-06;0.016326082645632
9.27400e-06;0.01376379156591737
9.27425e-06;0.009941287898475256
9.27450e-06;0.007021618237409409
9.27475e-06;0.007404336838889772
9.27500e-06;0.009646182757575868
9.27525e-06;0.012525137792327074
9.27550e-06;0.014712244350582509
9.27575e-06;0.01460046559007417
9.27600e-06;0.012993416973773979
9.27625e-06;0.010599540003330217
9.27650e-06;0.008773617177990125
9.27675e-06;0.009018453655378835
9.27700e-06;0.01042969585800278
9.27725e-06;0.012241655418022983
9.27750e-06;0.013621733896805543
9.27775e-06;0.013563225493832756
9.27800e-06;0.01256948132006516
9.27825e-06;0.01108418994272276
9.27850e-06;0.00995585135577373
9.27875e-06;0.010125601984779182
9.27900e-06;0.011026722670629447
9.27925e-06;0.012179403382512732
9.27950e-06;0.013061962445441737
9.27975e-06;0.013043715662178122
9.28000e-06;0.012439887679509628
9.28025e-06;0.011528306551822994
9.28050e-06;0.010840333989959443
9.28075e-06;0.010965309872773143
9.28100e-06;0.011548043896334846
9.28125e-06;0.012287815401175548
9.28150e-06;0.01285770538317846
9.28175e-06;0.012862547961359268
9.28200e-06;0.012499702786703626
9.28225e-06;0.01194308656438821
9.28250e-06;0.011525406851085775
9.28275e-06;0.011615656647834377
9.28300e-06;0.011991170974728405
9.28325e-06;0.012463421648028059
9.28350e-06;0.012827488369547438
9.28375e-06;0.012835722411346444
9.28400e-06;0.012611638251520757
9.28425e-06;0.012264054341835919
9.28450e-06;0.012001266729520496
9.28475e-06;0.012054532773975498
9.28500e-06;0.012285183830459219
9.28525e-06;0.012576241863684483
9.28550e-06;0.012799849214833054
9.28575e-06;0.01280090778121988
9.28600e-06;0.012656786064763744
9.28625e-06;0.012435641461103222
9.28650e-06;0.012267933650305615
9.28675e-06;0.012298493873805529
9.28700e-06;0.012440428877271058
9.28725e-06;0.012620440745198712
9.28750e-06;0.012758422443893011
9.28775e-06;0.01275721295709861
9.28800e-06;0.012665269017930138
9.28825e-06;0.012525274369222539
9.28850e-06;0.012418933697336312
9.28875e-06;0.012436943875146121
9.28900e-06;0.01252484980399141
9.28925e-06;0.012636719016771204
9.28950e-06;0.012722354690807371
9.28975e-06;0.012720884914230984
9.29000e-06;0.01266265279391358
9.29025e-06;0.01257438302171639
9.29050e-06;0.012507240320494136
9.29075e-06;0.012518015590645758
9.29100e-06;0.012572578016900395
9.29125e-06;0.01264213562566987
9.29150e-06;0.012695229960808201
9.29175e-06;0.012693718160219648
9.29200e-06;0.012656594627493743
9.29225e-06;0.012600587830639269
9.29250e-06;0.01255772991000147
9.29275e-06;0.012563577513957475
9.29300e-06;0.012596730965316705
9.29325e-06;0.01263913757860965
9.29350e-06;0.01267107730498726
9.29375e-06;0.012668642362136093
9.29400e-06;0.012643720055192004
9.29425e-06;0.012606773162713494
9.29450e-06;0.012577849511886985
9.29475e-06;0.012579177958538353
9.29500e-06;0.012596941518565398
9.29525e-06;0.012618748436650094
9.29550e-06;0.012637009043491052
9.29575e-06;0.012631359256514131
9.29600e-06;0.012611336523126135
9.29625e-06;0.012584002671222366
9.29650e-06;0.01255959663039179
9.29675e-06;0.01255472149703109
9.29700e-06;0.012559795471956505
9.29725e-06;0.012567024863441934
9.29750e-06;0.012571979461019477
9.29775e-06;0.012561599043229102
9.29800e-06;0.012542596377662996
9.29825e-06;0.012522479499610398
9.29850e-06;0.0125023626215578
9.29875e-06;0.012484414941945044
9.29900e-06;0.012479509033166025
9.29925e-06;0.012472947555186987
9.29950e-06;0.012466386077207948
9.29975e-06;0.012458012011148848
9.30000e-06;0.012438419073757681
9.30025e-06;0.01241823886577001
9.30050e-06;0.012398058657782474
9.30075e-06;0.012379268569002809
9.30100e-06;0.012368890278400706
9.30125e-06;0.0123577827044942
9.30150e-06;0.01234667513058762
9.30175e-06;0.012334495855115628
9.30200e-06;0.01231600460182615
9.30225e-06;0.012299137418677289
9.30250e-06;0.012282270235528428
9.30275e-06;0.012265403052379682
9.30300e-06;0.012249139394637423
9.30325e-06;0.012236579345565515
9.30350e-06;0.012224019296493692
9.30375e-06;0.012211459247421784
9.30400e-06;0.012198907909160383
9.30425e-06;0.012186410025870415
9.30450e-06;0.012173912142580363
9.30475e-06;0.01216141425929031
9.30500e-06;0.012149766874453275
9.30525e-06;0.012143338679082696
9.30550e-06;0.012136910483712118
9.30575e-06;0.012130482288341585
9.30600e-06;0.012124054092971006
9.30625e-06;0.012120835359809075
9.30650e-06;0.0121194209912591
9.30675e-06;0.012118006622709114
9.30700e-06;0.01211659225415913
9.30725e-06;0.012116354174899932
9.30750e-06;0.012123334541076914
9.30775e-06;0.012130314907253944
9.30800e-06;0.012137295273430972
9.30825e-06;0.012144275639607955
9.30850e-06;0.012151256005784983
9.30875e-06;0.012158236371962013
9.30900e-06;0.012165216738138994
9.30925e-06;0.012172197104316024
9.30950e-06;0.012180264918941459
9.30975e-06;0.01219500599613267
9.31000e-06;0.01220974707332398
9.31025e-06;0.012224488150515292
9.31050e-06;0.012239229227706502
9.31075e-06;0.012253970304897813
9.31100e-06;0.012268711382089124
9.31125e-06;0.012283452459280336
9.31150e-06;0.012298193536471647
9.31175e-06;0.012312959437479155
9.31200e-06;0.012327877672920103
9.31225e-06;0.012342795908361152
9.31250e-06;0.012357714143802202
9.31275e-06;0.012372632379243149
9.31300e-06;0.012387550614684198
9.31325e-06;0.012402468850125246
9.31350e-06;0.012417387085566195
9.31375e-06;0.012432305321007243
9.31400e-06;0.012446510219730093
9.31425e-06;0.012456337639017654
9.31450e-06;0.012466165058305284
9.31475e-06;0.012475992477592913
9.31500e-06;0.012485819896880475
9.31525e-06;0.012495647316168102
9.31550e-06;0.012505474735455732
9.31575e-06;0.01251530215474336
9.31600e-06;0.012525129574030923
9.31625e-06;0.012534772812057322
9.31650e-06;0.012543285798881238
9.31675e-06;0.012551798785705096
9.31700e-06;0.012560311772529012
9.31725e-06;0.012568824759352929
9.31750e-06;0.012577337746176788
9.31775e-06;0.012585850733000704
9.31800e-06;0.01259436371982462
9.31825e-06;0.01260287670664848
9.31850e-06;0.012611389693472396
9.31875e-06;0.012619902680296313
9.31900e-06;0.012628415667120172
9.31925e-06;0.012637012543072914
9.31950e-06;0.01264612421509188
9.31975e-06;0.012655235887110783
9.32000e-06;0.012664347559129747
9.32025e-06;0.012673459231148713
9.32050e-06;0.012682570903167616
9.32075e-06;0.012691682575186582
9.32100e-06;0.012700794247205547
9.32125e-06;0.01270990591922445
9.32150e-06;0.012719017591243414
9.32175e-06;0.01272812926326238
9.32200e-06;0.012737240935281283
9.32225e-06;0.012745917186399494
9.32250e-06;0.012751921423038043
9.32275e-06;0.012757925659676551
9.32300e-06;0.0127639298963151
9.32325e-06;0.01276993413295365
9.32350e-06;0.012775938369592158
9.32375e-06;0.012781942606230707
9.32400e-06;0.012787946842869257
9.32425e-06;0.012793951079507806
9.32450e-06;0.012799955316146316
9.32475e-06;0.012805959552784865
9.32500e-06;0.012811963789423415
9.32525e-06;0.012816303195515051
9.32550e-06;0.012810426162018149
9.32575e-06;0.012804549128521244
9.32600e-06;0.012798672095024381
9.32625e-06;0.012792795061527478
9.32650e-06;0.012786918028030576
9.32675e-06;0.012781040994533713
9.32700e-06;0.012775163961036808
9.32725e-06;0.012769286927539905
9.32750e-06;0.012763409894043043
9.32775e-06;0.01275753286054614
9.32800e-06;0.012751655827049237
9.32825e-06;0.012743885328698731
9.32850e-06;0.012724495347915667
9.32875e-06;0.012705105367132602
9.32900e-06;0.012685715386349668
9.32925e-06;0.012666325405566604
9.32950e-06;0.012646935424783538
9.32975e-06;0.012627545444000604
9.33000e-06;0.012608155463217538
9.33025e-06;0.012588765482434474
9.33050e-06;0.01256937550165154
9.33075e-06;0.012549985520868475
9.33100e-06;0.012530595540085409
9.33125e-06;0.012510834507050239
9.33150e-06;0.012488796465746684
9.33175e-06;0.012466758424443128
9.33200e-06;0.012444720383139722
9.33225e-06;0.012422682341836168
9.33250e-06;0.012400644300532612
9.33275e-06;0.012378606259229057
9.33300e-06;0.012356568217925652
9.33325e-06;0.012334530176622095
9.33350e-06;0.01231249213531854
9.33375e-06;0.012290454094015135
9.33400e-06;0.012268416052711579
9.33425e-06;0.01224720893137967
9.33450e-06;0.012231100853739445
9.33475e-06;0.012214992776099111
9.33500e-06;0.012198884698458775
9.33525e-06;0.01218277662081855
9.33550e-06;0.012166668543178216
9.33575e-06;0.01215056046553788
9.33600e-06;0.012134452387897655
9.33625e-06;0.01211834431025732
9.33650e-06;0.012102236232616985
9.33675e-06;0.01208612815497676
9.33700e-06;0.012070020077336424
9.33725e-06;0.012053657069834016
9.33750e-06;0.01203572965354429
9.33775e-06;0.012017802237254445
9.33800e-06;0.011999874820964599
9.33825e-06;0.011981947404674873
9.33850e-06;0.011964019988385028
9.33875e-06;0.011946092572095182
9.33900e-06;0.011928165155805456
9.33925e-06;0.01191023773951561
9.33950e-06;0.011892310323225765
9.33975e-06;0.01187438290693604
9.34000e-06;0.011856455490646194
9.34025e-06;0.011838348017035415
9.34050e-06;0.011819135599292761
9.34075e-06;0.011799923181549975
9.34100e-06;0.01178071076380719
9.34125e-06;0.011761498346064405
9.34150e-06;0.01174228592832175
9.34175e-06;0.011723073510578963
9.34200e-06;0.01170386109283618
9.34225e-06;0.011684648675093523
9.34250e-06;0.011667252863053075
9.34275e-06;0.011650878349546185
9.34300e-06;0.011634503836039407
9.34325e-06;0.011618129322532518
9.34350e-06;0.011601754809025628
9.34375e-06;0.01158538029551885
9.34400e-06;0.01156900578201196
9.34425e-06;0.011552631268505071
9.34450e-06;0.011535958695205767
9.34475e-06;0.011517457040938456
9.34500e-06;0.011498955386671145
9.34525e-06;0.01148045373240396
9.34550e-06;0.01146195207813665
9.34575e-06;0.011443450423869338
9.34600e-06;0.011424948769602152
9.34625e-06;0.011404040750442681
9.34650e-06;0.011368365773991626
9.34675e-06;0.01133269079754081
9.34700e-06;0.011297015821089754
9.34725e-06;0.011261340844638697
9.34750e-06;0.011225665868187884
9.34775e-06;0.011189990891736827
9.34800e-06;0.011151338906575116
9.34825e-06;0.011094418137392242
9.34850e-06;0.011037497368208983
9.34875e-06;0.010980576599025724
9.34900e-06;0.01092365582984285
9.34925e-06;0.01086673506065959
9.34950e-06;0.01080981429147633
9.34975e-06;0.010752893522293071
9.35000e-06;0.010695972753110197
9.35025e-06;0.010639051983926938
9.35050e-06;0.010575063953778982
9.35075e-06;0.01050710269859296
9.35100e-06;0.010439141443406479
9.35125e-06;0.010371180188219996
9.35150e-06;0.010303218933033974
9.35175e-06;0.010235257677847491
9.35200e-06;0.01016729642266101
9.35225e-06;0.010099335167474986
9.35250e-06;0.010031373912288505
9.35275e-06;0.00996474725011192
9.35300e-06;0.009906310483845493
9.35325e-06;0.00984787371757867
9.35350e-06;0.009789436951311847
9.35375e-06;0.009731000185045422
9.35400e-06;0.009672563418778599
9.35425e-06;0.009614126652511776
9.35450e-06;0.009569013427394869
9.35475e-06;0.00953139071770793
9.35500e-06;0.00949376800802099
9.35525e-06;0.009456145298334306
9.35550e-06;0.009418522588647366
9.35575e-06;0.009380899878960427
9.35600e-06;0.009347654388765692
9.35625e-06;0.009341270250126911
9.35650e-06;0.009334886111488128
9.35675e-06;0.00932850197284939
9.35700e-06;0.009322117834210608
9.35725e-06;0.009315733695571827
9.35750e-06;0.009309349556933088
9.35775e-06;0.009302965418294307
9.35800e-06;0.009296581279655524
9.35825e-06;0.009290197141016743
9.35850e-06;0.009283813002378004
9.35875e-06;0.009277428863739223
9.35900e-06;0.00927492927895286
9.35925e-06;0.009296267741782329
9.35950e-06;0.009317606204611943
9.35975e-06;0.009338944667441557
9.36000e-06;0.009360283130271025
9.36025e-06;0.00938162159310064
9.36050e-06;0.009402960055930254
9.36075e-06;0.009424298518759724
9.36100e-06;0.009445636981589338
9.36125e-06;0.009466975444418952
9.36150e-06;0.00948831390724842
9.36175e-06;0.009509652370078035
9.36200e-06;0.00953178000406224
9.36225e-06;0.009558750484941205
9.36250e-06;0.009585720965820353
9.36275e-06;0.0096126914466995
9.36300e-06;0.009639661927578466
9.36325e-06;0.009666632408457613
9.36350e-06;0.00969275662485514
9.36375e-06;0.009713687634058193
9.36400e-06;0.009734618643261389
9.36425e-06;0.009755549652464585
9.36450e-06;0.009776480661667638
9.36475e-06;0.009797411670870834
9.36500e-06;0.009818352297852788
9.36525e-06;0.009839351945529592
9.36550e-06;0.009860351593206536
9.36575e-06;0.00988135124088348
9.36600e-06;0.009902350888560283
9.36625e-06;0.009923350536237227
9.36650e-06;0.009944350183914173
9.36675e-06;0.009965349831591117
9.36700e-06;0.009986349479267919
9.36725e-06;0.010007349126944865
9.36750e-06;0.010029522326328894
9.36775e-06;0.01005889717165464
9.36800e-06;0.010088272016980588
9.36825e-06;0.010117646862306534
9.36850e-06;0.010147021707632282
9.36875e-06;0.010176396552958229
9.36900e-06;0.010205771398284175
9.36925e-06;0.010235146243609923
9.36950e-06;0.01026452108893587
9.36975e-06;0.010293895934261816
9.37000e-06;0.010323980192937813
9.37025e-06;0.010358417854830302
9.37050e-06;0.01039285551672279
9.37075e-06;0.010427293178615047
9.37100e-06;0.010461730840507538
9.37125e-06;0.010496168502400026
9.37150e-06;0.010530606164292283
9.37175e-06;0.010565043826184771
9.37200e-06;0.010599481488077262
9.37225e-06;0.010633919149969516
9.37250e-06;0.010664286856730057
9.37275e-06;0.010692366428422624
9.37300e-06;0.010720446000115
9.37325e-06;0.010748525571807568
9.37350e-06;0.010776605143500135
9.37375e-06;0.010804684715192511
9.37400e-06;0.010832764286885078
9.37425e-06;0.010860843858577647
9.37450e-06;0.010888923430270023
9.37475e-06;0.010915766933036811
9.37500e-06;0.010935025145172998
9.37525e-06;0.010954283357309183
9.37550e-06;0.010973541569445237
9.37575e-06;0.010992799781581424
9.37600e-06;0.011012057993717609
9.37625e-06;0.011031316205853665
9.37650e-06;0.01105057441798985
9.37675e-06;0.011069832630126036
9.37700e-06;0.011089090842262091
9.37725e-06;0.011108349054398278
9.37750e-06;0.011127607266534462
9.37775e-06;0.011147519699822304
9.37800e-06;0.011167799937253416
9.37825e-06;0.011188080174684527
9.37850e-06;0.011208360412115502
9.37875e-06;0.011228640649546612
9.37900e-06;0.011248920886977725
9.37925e-06;0.011269201124408698
9.37950e-06;0.01128948136183981
9.37975e-06;0.011309761599270923
9.38000e-06;0.011330041836701896
9.38025e-06;0.011350322074133008
9.38050e-06;0.011370633419730084
9.38075e-06;0.011391135664454892
9.38100e-06;0.011411637909179838
9.38125e-06;0.011432140153904785
9.38150e-06;0.011452642398629594
9.38175e-06;0.011473144643354541
9.38200e-06;0.011493646888079486
9.38225e-06;0.011514149132804295
9.38250e-06;0.011534651377529242
9.38275e-06;0.011552075751724062
9.38300e-06;0.011567769742347205
9.38325e-06;0.011583463732970456
9.38350e-06;0.011599157723593705
9.38375e-06;0.011614851714216955
9.38400e-06;0.011630545704840099
9.38425e-06;0.011646239695463348
9.38450e-06;0.011661933686086597
9.38475e-06;0.011675044357765826
9.38500e-06;0.011672302171577123
9.38525e-06;0.01166955998538842
9.38550e-06;0.011666817799199735
9.38575e-06;0.011664075613011034
9.38600e-06;0.01166133342682233
9.38625e-06;0.011658591240633646
9.38650e-06;0.011655849054444944
9.38675e-06;0.011634481945475015
9.38700e-06;0.011602643876115712
9.38725e-06;0.011570805806756193
9.38750e-06;0.011538967737396674
9.38775e-06;0.01150712966803737
9.38800e-06;0.01147529159867785
9.38825e-06;0.011443453529318333
9.38850e-06;0.01140767691305362
9.38875e-06;0.011347730914046145
9.38900e-06;0.011287784915038668
9.38925e-06;0.011227838916031598
9.38950e-06;0.011167892917024122
9.38975e-06;0.011107946918016648
9.39000e-06;0.011048000919009577
9.39025e-06;0.010988054920002101
9.39050e-06;0.010928108920994625
9.39075e-06;0.010868162921987555
9.39100e-06;0.010801300898478998
9.39125e-06;0.010730550675300385
9.39150e-06;0.010659800452122253
9.39175e-06;0.01058905022894364
9.39200e-06;0.010518300005765027
9.39225e-06;0.010447549782586414
9.39250e-06;0.010376799559408281
9.39275e-06;0.010306049336229669
9.39300e-06;0.010235299113051056
9.39325e-06;0.010166787645202206
9.39350e-06;0.010112014577767576
9.39375e-06;0.010057241510332948
9.39400e-06;0.01000246844289869
9.39425e-06;0.00994769537546406
9.39450e-06;0.009892922308029432
9.39475e-06;0.009838149240595175
9.39500e-06;0.009783376173160547
9.39525e-06;0.009741871965210301
9.39550e-06;0.009707827530583635
9.39575e-06;0.009673783095956737
9.39600e-06;0.00963973866132984
9.39625e-06;0.009605694226703173
9.39650e-06;0.009571649792076276
9.39675e-06;0.009537605357449378
9.39700e-06;0.009506298453240214
9.39725e-06;0.009491790744790056
9.39750e-06;0.009477283036339898
9.39775e-06;0.009462775327889838
9.39800e-06;0.009448267619439678
9.39825e-06;0.00943375991098952
9.39850e-06;0.00941925220253946
9.39875e-06;0.009404744494089302
9.39900e-06;0.009390236785639144
9.39925e-06;0.009375729077189083
9.39950e-06;0.009361221368738924
9.39975e-06;0.009346713660288766
9.40000e-06;0.009332205951838706
9.40025e-06;0.009317698243388548
9.40050e-06;0.00930319053493839
9.40075e-06;0.009290368273700344
9.40100e-06;0.009287888968830389
9.40125e-06;0.009285409663960418
9.40150e-06;0.009282930359090447
9.40175e-06;0.009280451054220493
9.40200e-06;0.009277971749350522
