Time(s);Current(A)
7.50000e-07;0.00955799589682757
7.50250e-07;0.009548556701079841
7.50500e-07;0.009539117505332113
7.50750e-07;0.009529678309584384
7.51000e-07;0.009524060652134172
7.51250e-07;0.009525735170123329
7.51500e-07;0.009527409688112488
7.51750e-07;0.009529084206101646
7.52000e-07;0.009530758724090805
7.52250e-07;0.009532433242079964
7.52500e-07;0.009534107760069122
7.52750e-07;0.00953578227805828
7.53000e-07;0.00953745679604744
7.53250e-07;0.009539131314036598
7.53500e-07;0.009540805832025757
7.53750e-07;0.009542480350014915
7.54000e-07;0.009551706584549858
7.54250e-07;0.00956233014066621
7.54500e-07;0.009572953696782564
7.54750e-07;0.009583577252898916
7.55000e-07;0.009594200809015269
7.55250e-07;0.00960482436513162
7.55500e-07;0.00961544792124797
7.55750e-07;0.009626071477364323
7.56000e-07;0.009636695033480676
7.56250e-07;0.009647318589597028
7.56500e-07;0.009657942145713382
7.56750e-07;0.009669578856678572
7.57000e-07;0.009683148847472435
7.57250e-07;0.009696718838266298
7.57500e-07;0.009710288829060163
7.57750e-07;0.009723858819854027
7.58000e-07;0.00973742881064789
7.58250e-07;0.009750671086486475
7.58500e-07;0.009763288023845648
7.58750e-07;0.009775904961204823
7.59000e-07;0.009788521898563997
7.59250e-07;0.00980113883592317
7.59500e-07;0.009813755773282345
7.59750e-07;0.009825714825537488
7.60000e-07;0.009836418515887544
7.60250e-07;0.0098471222062376
7.60500e-07;0.009858536514977643
7.60750e-07;0.00987130681012077
7.61000e-07;0.009886377270808974
7.61250e-07;0.009905836856867318
7.61500e-07;0.009925296442925662
7.61750e-07;0.009944756028984007
7.62000e-07;0.00996421561504235
7.62250e-07;0.009983675201100694
7.62500e-07;0.010003134787159031
7.62750e-07;0.010026533357533203
7.63000e-07;0.010057448211259317
7.63250e-07;0.010088363064985431
7.63500e-07;0.010119277918711547
7.63750e-07;0.010150192772437661
7.64000e-07;0.010181107626163763
7.64250e-07;0.010212022479889877
7.64500e-07;0.010246677854185102
7.64750e-07;0.010288470807670041
7.65000e-07;0.010330263761154979
7.65250e-07;0.010372056714639899
7.65500e-07;0.010413849668124836
7.65750e-07;0.010455642621609773
7.66000e-07;0.01049743557509471
7.66250e-07;0.010539228528579648
7.66500e-07;0.010581021482064587
7.66750e-07;0.010622814435549507
7.67000e-07;0.010665352177765309
7.67250e-07;0.010708027730949116
7.67500e-07;0.01075070328413292
7.67750e-07;0.010793378837316726
7.68000e-07;0.010836054390500532
7.68250e-07;0.01087872994368432
7.68500e-07;0.010921405496868125
7.68750e-07;0.01096408105005193
7.69000e-07;0.011006756603235737
7.69250e-07;0.011046695941610668
7.69500e-07;0.011081414094988029
7.69750e-07;0.011116132248365402
7.70000e-07;0.011146618128554135
7.70250e-07;0.01116902807800582
7.70500e-07;0.011191438027457505
7.70750e-07;0.01121384797690919
7.71000e-07;0.011236257926360866
7.71250e-07;0.011258667875812551
7.71500e-07;0.011274336451090699
7.71750e-07;0.011277141284244582
7.72000e-07;0.011279946117398467
7.72250e-07;0.011282750950552348
7.72500e-07;0.011285555783706233
7.72750e-07;0.011288360616860116
7.73000e-07;0.011284068019412685
7.73250e-07;0.011266232260786224
7.73500e-07;0.011248396502159762
7.73750e-07;0.011230560743533308
7.74000e-07;0.011212724984906847
7.74250e-07;0.011194889226280386
7.74500e-07;0.011177053467653925
7.74750e-07;0.011153600195855155
7.75000e-07;0.011119427708809118
7.75250e-07;0.011085255221763094
7.75500e-07;0.011051082734717057
7.75750e-07;0.01101691024767102
7.76000e-07;0.010982737760624982
7.76250e-07;0.010948565273578945
7.76500e-07;0.010912201503481154
7.76750e-07;0.01087165637519527
7.77000e-07;0.010831111246909384
7.77250e-07;0.010790305868115049
7.77500e-07;0.010749003885016858
7.77750e-07;0.01070770190191867
7.78000e-07;0.01066677513643215
7.78250e-07;0.010626564352950552
7.78500e-07;0.010587072354045926
7.78750e-07;0.010548951924083052
7.79000e-07;0.010512322063428942
7.79250e-07;0.010478536474389616
7.79500e-07;0.010444750885350304
7.79750e-07;0.010413329434133237
7.80000e-07;0.010386419178780582
7.80250e-07;0.010359508923427926
7.80500e-07;0.010333513174271291
7.80750e-07;0.010309262465750889
7.81000e-07;0.010285011757230476
7.81250e-07;0.010261365026305149
7.81500e-07;0.010238870792160461
7.81750e-07;0.010216376558015773
7.82000e-07;0.010193882323871086
7.82250e-07;0.010171388089726407
7.82500e-07;0.010149063007737458
7.82750e-07;0.010127060698176683
7.83000e-07;0.010105058388615907
7.83250e-07;0.01008305607905513
7.83500e-07;0.010061053769494356
7.83750e-07;0.01003886061133985
7.84000e-07;0.010016303280090733
7.84250e-07;0.009993745948841615
7.84500e-07;0.009971188617592497
7.84750e-07;0.009948631286343379
7.85000e-07;0.009926073955094272
7.85250e-07;0.009903516623845154
7.85500e-07;0.009880959292596036
7.85750e-07;0.009858461806687894
7.86000e-07;0.009836078516344908
7.86250e-07;0.009813695226001921
7.86500e-07;0.009791311935658943
7.86750e-07;0.009768928645315957
7.87000e-07;0.00974654535497297
7.87250e-07;0.009724162064629983
7.87500e-07;0.009701778774286997
7.87750e-07;0.009680957813503262
7.88000e-07;0.009663118055668097
7.88250e-07;0.009645278297832932
7.88500e-07;0.009627438539997767
7.88750e-07;0.009609598782162604
7.89000e-07;0.00959175902432744
7.89250e-07;0.009573919266492283
7.89500e-07;0.009556079508657118
7.89750e-07;0.009538239750821955
7.90000e-07;0.009529212842107303
7.90250e-07;0.009521816606921793
7.90500e-07;0.009514420371736282
7.90750e-07;0.009507024136550773
7.91000e-07;0.009499627901365264
7.91250e-07;0.009492231666179752
7.91500e-07;0.00948483543099424
7.91750e-07;0.009477439195808731
7.92000e-07;0.009475003375393913
7.92250e-07;0.009482032909489723
7.92500e-07;0.00948906244358553
7.92750e-07;0.00949609197768134
7.93000e-07;0.00950312151177715
7.93250e-07;0.00951015104587296
7.93500e-07;0.009517180579968766
7.93750e-07;0.009524210114064575
7.94000e-07;0.009531239648160385
7.94250e-07;0.009538269182256195
7.94500e-07;0.009545298716352004
7.94750e-07;0.009561771372493704
7.95000e-07;0.009579991323856533
7.95250e-07;0.00959821127521937
7.95500e-07;0.009616431226582208
7.95750e-07;0.009634651177945045
7.96000e-07;0.009652871129307882
7.96250e-07;0.009671091080670713
7.96500e-07;0.009689311032033548
7.96750e-07;0.009707530983396386
7.97000e-07;0.009725750934759223
7.97250e-07;0.009744873866633417
7.97500e-07;0.00976571984608555
7.97750e-07;0.009786565825537673
7.98000e-07;0.009807411804989808
7.98250e-07;0.00982825778444194
7.98500e-07;0.009848415306293918
7.98750e-07;0.009867259128475143
7.99000e-07;0.009886102950656369
7.99250e-07;0.009904946772837585
7.99500e-07;0.00992379059501881
7.99750e-07;0.009941512585927119
8.00000e-07;0.009957093923041295
8.00250e-07;0.00997267526015547
8.00500e-07;0.009989360595603106
8.00750e-07;0.010008152556421533
8.01000e-07;0.01002694451723996
8.01250e-07;0.010045736478058388
8.01500e-07;0.010064528438876815
8.01750e-07;0.010083320399695242
8.02000e-07;0.01010211236051366
8.02250e-07;0.010123530539620616
8.02500e-07;0.0101499600107813
8.02750e-07;0.010176389481941986
8.03000e-07;0.010202818953102669
8.03250e-07;0.010229248424263353
8.03500e-07;0.010255677895424026
8.03750e-07;0.010282107366584711
8.04000e-07;0.010311516069354126
8.04250e-07;0.01034660967644101
8.04500e-07;0.010381703283527896
8.04750e-07;0.010416796890614767
8.05000e-07;0.01045189049770165
8.05250e-07;0.010486984104788537
8.05500e-07;0.010522077711875421
8.05750e-07;0.010557171318962307
8.06000e-07;0.010592264926049193
8.06250e-07;0.010627358533136063
8.06500e-07;0.010664565394485938
8.06750e-07;0.010702163278958985
8.07000e-07;0.010739761163432032
8.07250e-07;0.01077735904790508
8.07500e-07;0.01081495693237811
8.07750e-07;0.010852554816851157
8.08000e-07;0.010890152701324204
8.08250e-07;0.010927750585797251
8.08500e-07;0.010965348470270298
8.08750e-07;0.010999977357254276
8.09000e-07;0.011028940868443088
8.09250e-07;0.011057904379631911
8.09500e-07;0.011086867890820737
8.09750e-07;0.01111583140200956
8.10000e-07;0.011144794913198385
8.10250e-07;0.011173758424387208
8.10500e-07;0.01120272193557602
8.10750e-07;0.011220022318310657
8.11000e-07;0.011235164629963159
8.11250e-07;0.01125030694161566
8.11500e-07;0.011265449253268162
8.11750e-07;0.011280591564920658
8.12000e-07;0.01129573387657316
8.12250e-07;0.011310876188225662
8.12500e-07;0.011320404180645553
8.12750e-07;0.011319219052423212
8.13000e-07;0.01131803392420087
8.13250e-07;0.01131684879597853
8.13500e-07;0.011315663667756189
8.13750e-07;0.011314478539533847
8.14000e-07;0.011313293411311506
8.14250e-07;0.011312108283089164
8.14500e-07;0.011310923154866825
8.14750e-07;0.011309738026644483
8.15000e-07;0.011308552898422142
8.15250e-07;0.0113073677701998
8.15500e-07;0.011296670607710951
8.15750e-07;0.011284213398922037
8.16000e-07;0.01127175619013313
8.16250e-07;0.011259298981344217
8.16500e-07;0.011246841772555305
8.16750e-07;0.011234384563766391
8.17000e-07;0.011221927354977478
8.17250e-07;0.011209470146188566
8.17500e-07;0.011197012937399657
8.17750e-07;0.011184555728610745
8.18000e-07;0.011172098519821832
8.18250e-07;0.011159672988471616
8.18500e-07;0.011147307903314136
8.18750e-07;0.011134942818156655
8.19000e-07;0.01112257773299918
8.19250e-07;0.0111102126478417
8.19500e-07;0.011097847562684218
8.19750e-07;0.011088782273726689
8.20000e-07;0.011080327558062953
8.20250e-07;0.01107187284239922
8.20500e-07;0.011063418126735483
8.20750e-07;0.011054963411071745
8.21000e-07;0.011047103631001013
8.21250e-07;0.011040379093961217
8.21500e-07;0.011033654556921419
8.21750e-07;0.011026930019881627
8.22000e-07;0.011020205482841829
8.22250e-07;0.011013480945802033
8.22500e-07;0.011006756408762237
8.22750e-07;0.01100003187172244
8.23000e-07;0.010993307334682643
8.23250e-07;0.01098658279764285
8.23500e-07;0.010979858260603053
8.23750e-07;0.010973133723563257
8.24000e-07;0.010966460718899567
8.24250e-07;0.01095988604718407
8.24500e-07;0.010953311375468575
8.24750e-07;0.010946736703753077
8.25000e-07;0.010940162032037579
8.25250e-07;0.010933587360322081
8.25500e-07;0.010927012688606583
8.25750e-07;0.010920438016891085
8.26000e-07;0.010913863345175589
8.26250e-07;0.010907288673460091
8.26500e-07;0.010900714001744593
8.26750e-07;0.010894139330029095
8.27000e-07;0.010887784398129687
8.27250e-07;0.010881848768920807
8.27500e-07;0.010875913139711924
8.27750e-07;0.010869977510503042
8.28000e-07;0.010864041881294159
8.28250e-07;0.010858106252085276
8.28500e-07;0.010852772305399291
8.28750e-07;0.010848586476087684
8.29000e-07;0.010844400646776074
8.29250e-07;0.010840214817464465
8.29500e-07;0.010836028988152856
8.29750e-07;0.010831843158841246
8.30000e-07;0.01082877011928568
8.30250e-07;0.010827820480700431
8.30500e-07;0.01082687084211518
8.30750e-07;0.010829869825623643
8.31000e-07;0.01084040348308079
8.31250e-07;0.010850937140537937
8.31500e-07;0.010861470797995081
8.31750e-07;0.010872004455452227
8.32000e-07;0.010882538112909375
8.32250e-07;0.010893071770366523
8.32500e-07;0.010909601330534304
8.32750e-07;0.010937572140555978
8.33000e-07;0.010965542950577637
8.33250e-07;0.01099351376059931
8.33500e-07;0.011021484570620984
8.33750e-07;0.011049455380642658
8.34000e-07;0.01107742619066433
8.34250e-07;0.011111137347372218
8.34500e-07;0.011155802107541428
8.34750e-07;0.011200466867710658
8.35000e-07;0.011245131627879887
8.35250e-07;0.011289796388049115
8.35500e-07;0.011334461148218344
8.35750e-07;0.011379125908387555
8.36000e-07;0.011423790668556784
8.36250e-07;0.011468455428726012
8.36500e-07;0.011513120188895241
8.36750e-07;0.011561920623643229
8.37000e-07;0.011611486297301953
8.37250e-07;0.011661051970960654
8.37500e-07;0.011710617644619378
8.37750e-07;0.011760183318278102
8.38000e-07;0.011809748991936826
8.38250e-07;0.011859314665595548
8.38500e-07;0.011908880339254272
8.38750e-07;0.011958446012912976
8.39000e-07;0.011999904138983082
8.39250e-07;0.012025891620824758
8.39500e-07;0.012051879102666432
8.39750e-07;0.012077866584508106
8.40000e-07;0.01210385406634977
8.40250e-07;0.012129841548191444
8.40500e-07;0.012155829030033118
8.40750e-07;0.012181816511874794
8.41000e-07;0.012207803993716468
8.41250e-07;0.012233791475558142
8.41500e-07;0.012259778957399806
8.41750e-07;0.01228576643924148
8.42000e-07;0.012311753921083156
8.42250e-07;0.01233774140292483
8.42500e-07;0.012363728884766504
8.42750e-07;0.012389716366608178
8.43000e-07;0.012415703848449842
8.43250e-07;0.012441691330291516
8.43500e-07;0.012467678812133192
8.43750e-07;0.012493666293974866
8.44000e-07;0.012500417709483716
8.44250e-07;0.012503609805668175
8.44500e-07;0.012506801901852637
8.44750e-07;0.0125099939980371
8.45000e-07;0.01251318609422156
8.45250e-07;0.012516378190406022
8.45500e-07;0.012519570286590483
8.45750e-07;0.012522762382774943
8.46000e-07;0.012525954478959406
8.46250e-07;0.012529146575143866
8.46500e-07;0.012532338671328329
8.46750e-07;0.012535530767512789
8.47000e-07;0.01253872286369725
8.47250e-07;0.012541914959881712
8.47500e-07;0.012545107056066172
8.47750e-07;0.012548299152250635
8.48000e-07;0.012551491248435095
8.48250e-07;0.012554683344619557
8.48500e-07;0.012557875440804018
8.48750e-07;0.012560332081026134
8.49000e-07;0.012561385340334984
8.49250e-07;0.012562438599643832
8.49500e-07;0.012563491858952681
8.49750e-07;0.01256454511826153
8.50000e-07;0.012565598377570378
8.50250e-07;0.012566651636879228
8.50500e-07;0.012567704896188078
8.50750e-07;0.012568758155496925
8.51000e-07;0.012569811414805775
8.51250e-07;0.012570864674114625
8.51500e-07;0.012571917933423472
8.51750e-07;0.012572971192732322
8.52000e-07;0.012574024452041171
8.52250e-07;0.012576539275826444
8.52500e-07;0.012581843024842798
8.52750e-07;0.012587146773859149
8.53000e-07;0.012592450522875501
8.53250e-07;0.012597754271891855
8.53500e-07;0.012603058020908208
8.53750e-07;0.01260836176992456
8.54000e-07;0.012613665518940914
8.54250e-07;0.012618969267957265
8.54500e-07;0.012624273016973617
8.54750e-07;0.012629576765989971
8.55000e-07;0.012634880515006323
8.55250e-07;0.012640184264022677
8.55500e-07;0.012645488013039028
8.55750e-07;0.012651553985257247
8.56000e-07;0.012659074415047267
8.56250e-07;0.012666594844837287
8.56500e-07;0.012674115274627307
8.56750e-07;0.012681635704417327
8.57000e-07;0.012689156134207343
8.57250e-07;0.012696676563997363
8.57500e-07;0.012704196993787383
8.57750e-07;0.012711717423577403
8.58000e-07;0.012719040726239078
8.58250e-07;0.01272598787524428
8.58500e-07;0.012732935024249476
8.58750e-07;0.012739882173254679
8.59000e-07;0.01274682932225988
8.59250e-07;0.01275377647126508
8.59500e-07;0.012760723620270281
8.59750e-07;0.01276767076927548
8.60000e-07;0.012774617918280681
8.60250e-07;0.012779431713464334
8.60500e-07;0.012780174689744154
8.60750e-07;0.012780917666023973
8.61000e-07;0.012781660642303794
8.61250e-07;0.012782403618583613
8.61500e-07;0.012783146594863433
8.61750e-07;0.012783889571143252
8.62000e-07;0.012784632547423073
8.62250e-07;0.012785375523702892
8.62500e-07;0.012776955415094373
8.62750e-07;0.012766839827558352
8.63000e-07;0.012756724240022325
8.63250e-07;0.012746608652486299
8.63500e-07;0.012736493064950272
8.63750e-07;0.012726377477414246
8.64000e-07;0.012716261889878224
8.64250e-07;0.012706146302342198
8.64500e-07;0.012692727943659452
8.64750e-07;0.012673007309618827
8.65000e-07;0.0126532866755782
8.65250e-07;0.012633566041537576
8.65500e-07;0.012613845407496958
8.65750e-07;0.012594124773456334
8.66000e-07;0.012574404139415707
8.66250e-07;0.012554683505375083
8.66500e-07;0.012534962871334456
8.66750e-07;0.012515242237293838
8.67000e-07;0.012495521603253214
8.67250e-07;0.012475800969212587
8.67500e-07;0.012456952278480324
8.67750e-07;0.012438264926590092
8.68000e-07;0.01241957757469986
8.68250e-07;0.012400890222809637
8.68500e-07;0.012382202870919404
8.68750e-07;0.012363515519029172
8.69000e-07;0.01234482816713894
8.69250e-07;0.012326140815248708
8.69500e-07;0.012307453463358476
8.69750e-07;0.012288766111468253
8.70000e-07;0.01227007875957802
8.70250e-07;0.012255531170959583
8.70500e-07;0.01224888298768789
8.70750e-07;0.0122422348044162
8.71000e-07;0.01223558662114451
8.71250e-07;0.01222893843787282
8.71500e-07;0.012222290254601127
8.71750e-07;0.012215642071329436
8.72000e-07;0.012208993888057743
8.72250e-07;0.012202345704786052
8.72500e-07;0.012195697521514363
8.72750e-07;0.012189049338242672
8.73000e-07;0.01218240115497098
8.73250e-07;0.012175752971699288
8.73500e-07;0.012169104788427596
8.73750e-07;0.012162456605155905
8.74000e-07;0.012155808421884216
8.74250e-07;0.012149160238612525
8.74500e-07;0.012142512055340832
8.74750e-07;0.012135863872069141
8.75000e-07;0.012135027172117365
8.75250e-07;0.01213526579206351
8.75500e-07;0.012135504412009654
8.75750e-07;0.0121357430319558
8.76000e-07;0.012135981651901944
8.76250e-07;0.012136220271848089
8.76500e-07;0.012136458891794233
8.76750e-07;0.012136697511740378
8.77000e-07;0.012136936131686522
8.77250e-07;0.012137174751632668
8.77500e-07;0.012137413371578813
8.77750e-07;0.012137651991524957
8.78000e-07;0.012137890611471101
8.78250e-07;0.012138129231417246
8.78500e-07;0.01213836785136339
8.78750e-07;0.012138606471309536
8.79000e-07;0.01213884509125568
8.79250e-07;0.012139083711201825
8.79500e-07;0.012140455509066337
8.79750e-07;0.01214398961214484
8.80000e-07;0.01214752371522334
8.80250e-07;0.012151057818301841
8.80500e-07;0.012154591921380343
8.80750e-07;0.012158126024458845
8.81000e-07;0.012161660127537345
8.81250e-07;0.012168397892110109
8.81500e-07;0.012181248813178981
8.81750e-07;0.012194099734247853
8.82000e-07;0.012206950655316727
8.82250e-07;0.012219801576385594
8.82500e-07;0.012232652497454467
8.82750e-07;0.012245503418523339
8.83000e-07;0.012263083774209623
8.83250e-07;0.01228968873315258
8.83500e-07;0.012316293692095538
8.83750e-07;0.012342898651038485
8.84000e-07;0.012369503609981443
8.84250e-07;0.0123961085689244
8.84500e-07;0.012422713527867358
8.84750e-07;0.012449318486810315
8.85000e-07;0.012475923445753274
8.85250e-07;0.01250252840469622
8.85500e-07;0.012529133363639177
8.85750e-07;0.01256289117092466
8.86000e-07;0.012597972495757441
8.86250e-07;0.01263305382059022
8.86500e-07;0.012668135145422987
8.86750e-07;0.012703216470255768
8.87000e-07;0.012738297795088548
8.87250e-07;0.01277337911992133
8.87500e-07;0.01280846044475411
8.87750e-07;0.01284354176958689
8.88000e-07;0.012878623094419657
8.88250e-07;0.012912050125138144
8.88500e-07;0.01294232046816367
8.88750e-07;0.012972590811189193
8.89000e-07;0.013002861154214718
8.89250e-07;0.013033131497240242
8.89500e-07;0.013063401840265755
8.89750e-07;0.013093672183291279
8.90000e-07;0.013123942526316804
8.90250e-07;0.013141726008798805
8.90500e-07;0.013157199002053466
8.90750e-07;0.013172671995308121
8.91000e-07;0.013188144988562784
8.91250e-07;0.013203617981817446
8.91500e-07;0.013219090975072107
8.91750e-07;0.013234563968326769
8.92000e-07;0.013242896120313598
8.92250e-07;0.013237602275838914
8.92500e-07;0.013232308431364227
8.92750e-07;0.013227014586889541
8.93000e-07;0.013221720742414855
8.93250e-07;0.013216426897940168
8.93500e-07;0.013211133053465482
8.93750e-07;0.013205839208990797
8.94000e-07;0.013200545364516111
8.94250e-07;0.013189125705571987
8.94500e-07;0.013166016902008339
8.94750e-07;0.013142908098444692
8.95000e-07;0.013119799294881053
8.95250e-07;0.013096690491317406
8.95500e-07;0.013073581687753758
8.95750e-07;0.01305047288419011
8.96000e-07;0.013027364080626462
8.96250e-07;0.013004255277062815
8.96500e-07;0.012978858448603223
8.96750e-07;0.012949095661292695
8.97000e-07;0.012919332873982168
8.97250e-07;0.012889570086671642
8.97500e-07;0.012859807299361113
8.97750e-07;0.012830044512050586
8.98000e-07;0.012800281724740072
8.98250e-07;0.012770518937429545
8.98500e-07;0.012742526625844047
8.98750e-07;0.0127192093204115
8.99000e-07;0.01269589201497895
8.99250e-07;0.012672574709546414
8.99500e-07;0.012649257404113864
8.99750e-07;0.012625940098681317
9.00000e-07;0.01260262279324877
9.00250e-07;0.01257930548781622
9.00500e-07;0.012560663325164678
9.00750e-07;0.012546624718958652
9.01000e-07;-0.042087525549060915
9.01250e-07;-0.021168069344986322
9.01500e-07;-0.006462117569993278
9.01750e-07;0.009125841440054258
