Time(s);Current(A)
5.25000e-06;-0.0019091144922556052
5.25025e-06;-0.0019000305270832347
5.25050e-06;-0.0018909465619108645
5.25075e-06;-0.0018817912522513464
5.25100e-06;-0.0018623861255364156
5.25125e-06;-0.001842980998821485
5.25150e-06;-0.0018235758721064888
5.25175e-06;-0.001804170745391558
5.25200e-06;-0.0017847656186765618
5.25225e-06;-0.0017653604919616313
5.25250e-06;-0.0017419179654711346
5.25275e-06;-0.001714548150187938
5.25300e-06;-0.0016871783349048342
5.25325e-06;-0.0016598085196217302
5.25350e-06;-0.0016324387043385336
5.25375e-06;-0.0016050688890554298
5.25400e-06;-0.0015776952258324903
5.25425e-06;-0.001549768742330405
5.25450e-06;-0.0015218422588284145
5.25475e-06;-0.0014939350731920477
5.25500e-06;-0.0014688003455227037
5.25525e-06;-0.0014436656178534446
5.25550e-06;-0.0014185627002920155
5.25575e-06;-0.0013980298314893985
5.25600e-06;-0.001377496962686851
5.25625e-06;-0.001357004230376145
5.25650e-06;-0.0013422777697752522
5.25675e-06;-0.0013275513091743595
5.25700e-06;-0.0013128676913212259
5.25725e-06;-0.001304339143649292
5.25750e-06;-0.001295810595977358
5.25775e-06;-0.0012873270932894005
5.25800e-06;-0.0012853150484771583
5.25825e-06;-0.001283303003664916
5.25850e-06;-0.0012813347425803606
5.25875e-06;-0.0012856567390134
5.25900e-06;-0.0012899787354464396
5.25925e-06;-0.0012943410507735055
5.25950e-06;-0.0013044958428811472
5.25975e-06;-0.0013146506349887889
5.26000e-06;-0.0013248611333637687
5.26025e-06;-0.0013430747594941198
5.26050e-06;-0.0013612883856245325
5.26075e-06;-0.0013795020117548834
5.26100e-06;-0.0013977156378852343
5.26125e-06;-0.001415929264015647
5.26150e-06;-0.0014341428901459982
5.26175e-06;-0.0014524023421403829
5.26200e-06;-0.001477245438341376
5.26225e-06;-0.001502088534542285
5.26250e-06;-0.0015269316307431938
5.26275e-06;-0.001551774726944187
5.26300e-06;-0.001576617823145096
5.26325e-06;-0.0016014609193460048
5.26350e-06;-0.0016263039198625756
5.26375e-06;-0.0016511331737273606
5.26400e-06;-0.0016759624275921457
5.26425e-06;-0.0017007916814570148
5.26450e-06;-0.0017256209353217998
5.26475e-06;-0.0017504501891866691
5.26500e-06;-0.0017752378952236563
5.26525e-06;-0.0017940565678148557
5.26550e-06;-0.0018128752404061189
5.26575e-06;-0.0018316939129973185
5.26600e-06;-0.001850512585588518
5.26625e-06;-0.001869331258179781
5.26650e-06;-0.0018880871855105022
5.26675e-06;-0.0018978287171954984
5.26700e-06;-0.0019075702488805274
5.26725e-06;-0.0019173117805655233
5.26750e-06;-0.0019270533122505195
5.26775e-06;-0.0019367948439355485
5.26800e-06;-0.0019465363756205444
5.26825e-06;-0.0019562779073055403
5.26850e-06;-0.0019660194389905694
5.26875e-06;-0.0019757609706755655
5.26900e-06;-0.0019855025023605946
5.26925e-06;-0.0019952440340455907
5.26950e-06;-0.0020049855657305864
5.26975e-06;-0.0020107381110292433
5.27000e-06;-0.0020126104605597012
5.27025e-06;-0.0020144828100901596
5.27050e-06;-0.002016355159620624
5.27075e-06;-0.0020182275091510824
5.27100e-06;-0.0020200998586815404
5.27125e-06;-0.0020219722082120053
5.27150e-06;-0.0020238445577424632
5.27175e-06;-0.0020257169072729216
5.27200e-06;-0.002027589256803386
5.27225e-06;-0.002029461606333844
5.27250e-06;-0.0020313339558643024
5.27275e-06;-0.00203318573257094
5.27300e-06;-0.002032081882489377
5.27325e-06;-0.0020309780324078105
5.27350e-06;-0.0020298741823262475
5.27375e-06;-0.0020287703322446845
5.27400e-06;-0.0020276664821631176
5.27425e-06;-0.0020265626320815546
5.27450e-06;-0.0020254587819999916
5.27475e-06;-0.0020243549319184247
5.27500e-06;-0.0020232510818368617
5.27525e-06;-0.0020221472317552987
5.27550e-06;-0.002021042839295949
5.27575e-06;-0.0020198605252874746
5.27600e-06;-0.0020186652038687784
5.27625e-06;-0.002015601152598283
5.27650e-06;-0.00201247397949791
5.27675e-06;-0.0020002783103833205
5.27700e-06;-0.0019880826412686896
5.27725e-06;-0.0019758119024551168
5.27750e-06;-0.0019527561584080724
5.27775e-06;-0.001929700414361106
5.27800e-06;-0.0019065841789627956
5.27825e-06;-0.0018747773593561154
5.27850e-06;-0.0018429049748053883
5.27875e-06;-0.0018016131004376446
5.27900e-06;-0.0017602596851020017
5.27925e-06;-0.0017100648907898823
5.27950e-06;-0.0016598189797857041
5.27975e-06;-0.0016022293096079599
5.28000e-06;-0.0015445934882310894
5.28025e-06;-0.0014803272829314437
5.28050e-06;-0.0014160109579811272
5.28075e-06;-0.0013444941153997955
5.28100e-06;-0.0012729360456690715
5.28125e-06;-0.0011954550133196399
5.28150e-06;-0.0011179456538019032
5.28175e-06;-0.0010363666275011668
5.28200e-06;-0.0009547687535726532
5.28225e-06;-0.0008704631058120236
5.28250e-06;-0.0007861424927696753
5.28275e-06;-0.0006996718692690303
5.28300e-06;-0.0006131971686807699
5.28325e-06;-0.0005261388268551068
5.28350e-06;-0.0004393878833780357
5.28375e-06;-0.00035346694386322947
5.28400e-06;-0.00026889614268000623
5.28425e-06;-0.00018608441776657471
5.28450e-06;-0.00010527596898686843
5.28475e-06;-2.6776459346123037e-05
5.28500e-06;4.8923733531666065e-05
5.28525e-06;0.00012126709530419839
5.28550e-06;0.00018969617023914255
5.28575e-06;0.0002536536184068961
5.28600e-06;0.0003125804024176095
5.28625e-06;0.0003658562936918144
5.28650e-06;0.00041285899050692913
5.28675e-06;0.0004532057316922262
5.28700e-06;0.0004867626972988921
5.28725e-06;0.0005134628905105309
5.28750e-06;0.0005332393448215561
5.28775e-06;0.000546025290009428
5.28800e-06;0.00055175282200927
5.28825e-06;0.0005503156969526613
5.28850e-06;0.000541606567842987
5.28875e-06;0.0005256679624856742
5.28900e-06;0.0005026984270781007
5.28925e-06;0.00047293830205825076
5.28950e-06;0.0004366280721759321
5.28975e-06;0.0003940081900593541
5.29000e-06;0.00034531847891644773
5.29025e-06;0.0002907747621916501
5.29050e-06;0.00023059199584872533
5.29075e-06;0.00016507918434253025
5.29100e-06;9.464298838761318e-05
5.29125e-06;1.9716225800283892e-05
5.29150e-06;-5.926825306324955e-05
5.29175e-06;-0.00014187761481289092
5.29200e-06;-0.000227679455875735
5.29225e-06;-0.00031626297185099474
5.29250e-06;-0.00040812848509222453
5.29275e-06;-0.0005000140797903352
5.29300e-06;-0.0005947847082836144
5.29325e-06;-0.0006895553367772146
5.29350e-06;-0.0007843195685923746
5.29375e-06;-0.0008781648116924515
5.29400e-06;-0.0009720100547928463
5.29425e-06;-0.0010658246265898288
5.29450e-06;-0.001155232757906436
5.29475e-06;-0.0012445973621979804
5.29500e-06;-0.0013277085887566657
5.29525e-06;-0.0014107589547335624
5.29550e-06;-0.0014850656905024766
5.29575e-06;-0.0015592955739939989
5.29600e-06;-0.0016224843554903503
5.29625e-06;-0.0016855974282088222
5.29650e-06;-0.0017378336816044988
5.29675e-06;-0.0017899992432172192
5.29700e-06;-0.001832008759836365
5.29725e-06;-0.0018739421745746169
5.29750e-06;-0.0019049422942086945
5.29775e-06;-0.0019358610885578113
5.29800e-06;-0.001955096159352632
5.29825e-06;-0.001974255413940312
5.29850e-06;-0.001982522415189208
5.29875e-06;-0.001990721534719064
5.29900e-06;-0.001989168321495249
5.29925e-06;-0.0019875322210350234
5.29950e-06;-0.0019739879968323445
5.29975e-06;-0.0019604437726297116
5.30000e-06;-0.0019468079488114505
5.30025e-06;-0.0019200123237455959
5.30050e-06;-0.001893216698679832
5.30075e-06;-0.0018663499105361122
5.30100e-06;-0.0018292593681202085
5.30125e-06;-0.0017921688257044308
5.30150e-06;-0.0017550206335185008
5.30175e-06;-0.0017095900974468873
5.30200e-06;-0.001664159561375428
5.30225e-06;-0.0016186948006482725
5.30250e-06;-0.0015683131015367892
5.30275e-06;-0.0015179167107468793
5.30300e-06;-0.0014654096171047943
5.30325e-06;-0.001412896167422823
5.30350e-06;-0.001359469567361466
5.30375e-06;-0.0013060449923647922
5.30400e-06;-0.0012529113514608127
5.30425e-06;-0.0011997907517653328
5.30450e-06;-0.0011485437375667068
5.30475e-06;-0.0010973296250728402
5.30500e-06;-0.0010508423871251576
5.30525e-06;-0.0010043551491773178
5.30550e-06;-0.0009579153216743584
5.30575e-06;-0.0009182867894248779
5.30600e-06;-0.0008786970001707057
5.30625e-06;-0.000844673283590583
5.30650e-06;-0.0008106669971336565
5.30675e-06;-0.0007791648364241985
5.30700e-06;-0.0007476848889288788
5.30725e-06;-0.0007193962373605887
5.30750e-06;-0.0006911075857923945
5.30775e-06;-0.0006628539272485739
5.30800e-06;-0.0006396275959499452
5.30825e-06;-0.0006164012646513952
5.30850e-06;-0.000593190041404365
5.30875e-06;-0.0005721493398641068
5.30900e-06;-0.0005511213536900174
5.30925e-06;-0.0005319201403512946
5.30950e-06;-0.0005127189270125068
5.30975e-06;-0.0004935386510124946
5.31000e-06;-0.0004773663703221723
5.31025e-06;-0.0004611940896317952
5.31050e-06;-0.000445032175680288
5.31075e-06;-0.0004303596153734012
5.31100e-06;-0.00041568705506646466
5.31125e-06;-0.0004010254290235332
5.31150e-06;-0.0003879346910057559
5.31175e-06;-0.000374843952988023
5.31200e-06;-0.0003617656221976915
5.31225e-06;-0.00035046979501440165
5.31250e-06;-0.0003391739678311501
5.31275e-06;-0.00032788452686480967
5.31300e-06;-0.0003175125716755415
5.31325e-06;-0.00030714061648630847
5.31350e-06;-0.0002967782664403811
5.31375e-06;-0.00028779585423372074
5.31400e-06;-0.0002788134420270908
5.31425e-06;-0.0002698393198585549
5.31450e-06;-0.00026205619889480605
5.31475e-06;-0.0002542730779310836
5.31500e-06;-0.00024649546835866804
5.31525e-06;-0.00023950966138219936
5.31550e-06;-0.0002325299113434268
5.31575e-06;-0.0002264203406664796
5.31600e-06;-0.00022030940821087433
5.31625e-06;-0.00021400283370558618
5.31650e-06;-0.00020767949301698575
5.31675e-06;-0.00019893338496956736
5.31700e-06;-0.0001881590437197788
5.31725e-06;-0.00017551409551273576
5.31750e-06;-0.00016115615184060056
5.31775e-06;-0.00014524275026225943
5.31800e-06;-0.00012792504733698454
5.31825e-06;-0.00010906560101115382
5.31850e-06;-8.809428602351478e-05
5.31875e-06;-6.458910970196175e-05
5.31900e-06;-3.859943123456431e-05
5.31925e-06;-1.0347478136763756e-05
5.31950e-06;1.994455651108975e-05
5.31975e-06;5.2054517106227975e-05
5.32000e-06;8.576427498385731e-05
5.32025e-06;0.00012103647632605049
5.32050e-06;0.00015810478976857194
5.32075e-06;0.00019711007248460243
5.32100e-06;0.00023790227590667523
5.32125e-06;0.00028083083328398384
5.32150e-06;0.0003237731726101055
5.32175e-06;0.0003686955169966831
5.32200e-06;0.00041362861143465814
5.32225e-06;0.0004601061287031256
5.32250e-06;0.0005065836459714355
5.32275e-06;0.0005530679416881246
5.32300e-06;0.0006005260737187277
5.32325e-06;0.0006479811870626323
5.32350e-06;0.0006950026161170713
5.32375e-06;0.0007420133275770882
5.32400e-06;0.0007874842791677752
5.32425e-06;0.0008329396563076173
5.32450e-06;0.0008761575057596659
5.32475e-06;0.0009193604655730436
5.32500e-06;0.0009604116563496333
5.32525e-06;0.00099963419162796
5.32550e-06;0.001036724403650607
5.32575e-06;0.0010713788490412644
5.32600e-06;0.0011032831393634084
5.32625e-06;0.0011307346871574525
5.32650e-06;0.0011580791499607012
5.32675e-06;0.0011692200951286126
5.32700e-06;0.0011942986187676225
5.32725e-06;-0.03328111951320448
5.32750e-06;-0.02542695731742918
5.32775e-06;-0.017587255639454173
5.32800e-06;-0.012051497799924892
5.32825e-06;0.014410974126993503
5.32850e-06;0.013200507595374427
5.32875e-06;0.010201820903090497
5.32900e-06;0.004317276787697336
5.32925e-06;-0.006454090119524596
5.32950e-06;-0.011235216486670498
5.32975e-06;-0.00847154061851551
5.33000e-06;-0.0024606664971068047
5.33025e-06;0.0055038095768105855
5.33050e-06;0.009374129479063447
5.33075e-06;0.008294767160078714
5.33100e-06;0.003942139700072922
5.33125e-06;-0.0029636891237830093
5.33150e-06;-0.006083490377843599
5.33175e-06;-0.004453402464886774
5.33200e-06;-0.0007724289841250531
5.33225e-06;0.004144300942830854
5.33250e-06;0.0065052850198173695
5.33275e-06;0.005772627229717701
5.33300e-06;0.002995120384614292
5.33325e-06;-0.0013770704578993029
5.33350e-06;-0.003373791707063255
5.33375e-06;-0.00239197367327483
5.33400e-06;-0.0001227350129339895
5.33425e-06;0.0029230869314596742
5.33450e-06;0.004370478455601128
5.33475e-06;0.003882665503083899
5.33500e-06;0.002116803870000331
5.33525e-06;-0.0006449422232694931
5.33550e-06;-0.0019155979997893893
5.33575e-06;-0.001317440273863722
5.33600e-06;9.01254976536244e-05
5.33625e-06;0.001986379592695999
5.33650e-06;0.002882030307777679
5.33675e-06;0.002564838567882624
5.33700e-06;0.0014460990655804928
5.33725e-06;-0.00029736249590842675
5.33750e-06;-0.0011076563075715154
5.33775e-06;-0.0007482060564153012
5.33800e-06;0.00011736923814482871
5.33825e-06;0.0012882026929442291
5.33850e-06;0.001831487604971181
5.33875e-06;0.0016144102847402047
5.33900e-06;0.0008947324018029793
5.33925e-06;-0.00021667189040713126
5.33950e-06;-0.0007438814737283466
5.33975e-06;-0.000538695194130473
5.34000e-06;-1.6780716362183154e-05
5.34025e-06;0.0006960862481972659
5.34050e-06;0.0010156766892119849
5.34075e-06;0.0008589065981438977
5.34100e-06;0.0003873444411419701
5.34125e-06;-0.00032946194247790255
5.34150e-06;-0.0006801314602357962
5.34175e-06;-0.0005717977937414236
5.34200e-06;-0.0002647936375385121
5.34225e-06;0.00016215196415791277
5.34250e-06;0.00034315568105116164
5.34275e-06;0.0002262700321671762
5.34300e-06;-8.720465312064699e-05
5.34325e-06;-0.0005536162764092236
5.34350e-06;-0.0007899284923927065
5.34375e-06;-0.0007379220187095027
5.34400e-06;-0.0005606160725768642
5.34425e-06;-0.000307263851738761
5.34450e-06;-0.00020697883500964728
5.34475e-06;-0.00029221341993084426
5.34500e-06;-0.0004994272385833479
5.34525e-06;-0.0008011947339257516
5.34550e-06;-0.0009575126817779973
5.34575e-06;-0.0009318553697308967
5.34600e-06;-0.0008262452903378321
5.34625e-06;-0.0006712079004023109
5.34650e-06;-0.0006096661422756373
5.34675e-06;-0.0006615192630524404
5.34700e-06;-0.0007869252258747817
5.34725e-06;-0.0009688380687316849
5.34750e-06;-0.00105707944713093
5.34775e-06;-0.0010289369371951657
5.34800e-06;-0.0009484826426262055
5.34825e-06;-0.0008349991376248961
5.34850e-06;-0.0007781696486505756
5.34875e-06;-0.0007906107992430045
5.34900e-06;-0.0008475178945858439
5.34925e-06;-0.0009383671276163678
5.34950e-06;-0.0009692456490509512
5.34975e-06;-0.0009260899936408973
5.35000e-06;-0.0008491970482430508
5.35025e-06;-0.0007508052657111394
5.35050e-06;-0.0006872487497531532
5.35075e-06;-0.0006665843173021691
5.35100e-06;-0.0006734283146690697
5.35125e-06;-0.0007013436485116537
5.35150e-06;-0.0006916614277746136
5.35175e-06;-0.0006357332175415846
5.35200e-06;-0.0005589611976964014
5.35225e-06;-0.0004691702089514609
5.35250e-06;-0.0004018045300997865
5.35275e-06;-0.00036206568435393453
5.35300e-06;-0.00034047234465767694
5.35325e-06;-0.0003331479181872988
5.35350e-06;-0.0003034996495578074
5.35375e-06;-0.0002462694874523529
5.35400e-06;-0.00017752807424114685
5.35425e-06;-0.00010233464426968723
5.35450e-06;-4.30479715986621e-05
5.35475e-06;-3.08161389705378e-06
5.35500e-06;2.3348097280757672e-05
5.35525e-06;3.8513689702055906e-05
5.35550e-06;6.517993502912664e-05
5.35575e-06;0.00010648238777227391
5.35600e-06;0.0001523198681541101
5.35625e-06;0.00020041330443673394
5.35650e-06;0.00023885526800002376
5.35675e-06;0.0002672811034165145
5.35700e-06;0.0002898279747434444
5.35725e-06;0.0003078386004429066
5.35750e-06;0.00033542417051174716
5.35775e-06;0.0003743994433933816
5.35800e-06;0.0004182879115770604
5.35825e-06;0.0004655132155339526
5.35850e-06;0.000508468252629826
5.35875e-06;0.0005467766174890538
5.35900e-06;0.000582881751604479
5.35925e-06;0.0006174765815770277
5.35950e-06;0.0006592517629975862
5.35975e-06;0.000709194993903961
5.36000e-06;0.0007631005788667208
5.36025e-06;0.0008198324029762271
5.36050e-06;0.000874477007314991
5.36075e-06;0.0009266505979743233
5.36100e-06;0.0009777356028595645
5.36125e-06;0.0010280178660350607
5.36150e-06;0.001082792709027892
5.36175e-06;0.001142530073368402
5.36200e-06;0.0012044469883784885
5.36225e-06;0.001267683360213202
5.36250e-06;0.0013290130764121361
5.36275e-06;0.00138804768173864
5.36300e-06;0.0014455051155468418
5.36325e-06;0.0015014162270106683
5.36350e-06;0.0015589498181397144
5.36375e-06;0.0016182518473672064
5.36400e-06;0.0016774307480135198
5.36425e-06;0.0017357994402526738
5.36450e-06;0.0017911890672438376
5.36475e-06;0.0018432084924759305
5.36500e-06;0.001892159285957242
5.36525e-06;0.0019379129802420782
5.36550e-06;0.0019823062387991025
5.36575e-06;0.0020252824964418904
5.36600e-06;0.002065425612020229
5.36625e-06;0.0021014800470329927
5.36650e-06;0.0021305723747499974
5.36675e-06;0.002151353562861293
5.36700e-06;0.002163886830311848
5.36725e-06;0.0021684019703799
5.36750e-06;0.0021664073673476254
5.36775e-06;0.0021582248004699605
5.36800e-06;0.0021433248159127448
5.36825e-06;0.0021212785072198047
5.36850e-06;0.002087769713394252
5.36875e-06;0.00204933333224794
5.36900e-06;0.001999981149201811
5.36925e-06;0.0019445525548509963
5.36950e-06;0.0018805021581714237
5.36975e-06;0.0018116523324052528
5.37000e-06;0.00173476395432775
5.37025e-06;0.0016534008202416179
5.37050e-06;0.001563434467956286
5.37075e-06;0.0014686790316625052
5.37100e-06;0.0013664156816639282
5.37125e-06;0.0012599729619659759
5.37150e-06;0.0011483785494467778
5.37175e-06;0.0010339163856814065
5.37200e-06;0.0009155867410833756
5.37225e-06;0.0007951042171577731
5.37250e-06;0.0006713194017826374
5.37275e-06;0.000545696326491123
5.37300e-06;0.00041847256680972234
5.37325e-06;0.00029035776707322063
5.37350e-06;0.00016224296733715298
5.37375e-06;3.513549454717957e-05
5.37400e-06;-9.020134160777734e-05
5.37425e-06;-0.000213258910612
5.37450e-06;-0.00033367000671707687
5.37475e-06;-0.00045083276806579133
5.37500e-06;-0.0005639278892067492
5.37525e-06;-0.0006721105667737307
5.37550e-06;-0.0007743392941388851
5.37575e-06;-0.0008697553921369358
5.37600e-06;-0.0009576342722843737
5.37625e-06;-0.0010373007180546102
5.37650e-06;-0.0011084410823871205
5.37675e-06;-0.0011708535756865472
5.37700e-06;-0.0012243475988018406
5.37725e-06;-0.0012687498583957338
5.37750e-06;-0.0013037649002536976
5.37775e-06;-0.0013292119451391372
5.37800e-06;-0.0013449940055788377
5.37825e-06;-0.0013510451537285786
5.37850e-06;-0.0013475259723087325
5.37875e-06;-0.0013346670612426083
5.37900e-06;-0.0013127061930626874
5.37925e-06;-0.0012818917115433855
5.37950e-06;-0.0012423956219714133
5.37975e-06;-0.0011944616931374224
5.38000e-06;-0.0011383861509019675
5.38025e-06;-0.0010744846625906094
5.38050e-06;-0.0010032148322954956
5.38075e-06;-0.00092507805125106
5.38100e-06;-0.0008405800801490743
5.38125e-06;-0.0007502334404230946
5.38150e-06;-0.0006545027032297884
5.38175e-06;-0.0005538973434876277
5.38200e-06;-0.000448959723834605
5.38225e-06;-0.0003402443796047325
5.38250e-06;-0.0002283946054701876
5.38275e-06;-0.00011408113476881406
5.38300e-06;2.02258376998041e-06
5.38325e-06;0.00011923894871331361
5.38350e-06;0.00023692043770183108
5.38375e-06;0.0003543914495974436
5.38400e-06;0.00047095579928604014
5.38425e-06;0.0005859097360505985
5.38450e-06;0.0006984939807499251
5.38475e-06;0.000807932112457858
5.38500e-06;0.0009134461038739782
5.38525e-06;0.001014255310126073
5.38550e-06;0.0011095980046285493
5.38575e-06;0.001198694897898449
5.38600e-06;0.001280772129243495
5.38625e-06;0.0013552276011008038
5.38650e-06;0.0014217688544239675
5.38675e-06;0.001480296154650256
5.38700e-06;0.0015306902509305545
5.38725e-06;0.001572787222477979
5.38750e-06;0.0016064276970007303
5.38775e-06;0.001631441238176755
5.38800e-06;0.0016476607641335301
5.38825e-06;0.001655026947984794
5.38850e-06;0.0016536743924375275
5.38875e-06;0.0016438583318615912
5.38900e-06;0.0016258220502377602
5.38925e-06;0.0015973046826570025
5.38950e-06;0.0015645733507720307
5.38975e-06;0.001522206278393882
5.39000e-06;0.0014744753561605688
5.39025e-06;0.0014178329510043165
5.39050e-06;0.0013562298626067838
5.39075e-06;0.0012868722562041635
5.39100e-06;0.0012131980048784854
5.39125e-06;0.001132948187323567
5.39150e-06;0.0010490380024111834
5.39175e-06;0.0009597122075959367
5.39200e-06;0.0008673717489457947
5.39225e-06;0.0007708854214392718
5.39250e-06;0.0006720912465926754
5.39275e-06;0.0005703644374620177
5.39300e-06;0.0004670051424840076
5.39325e-06;0.0003636458475063476
5.39350e-06;0.00025961555762291
5.39375e-06;0.00015521175042299617
5.39400e-06;5.156129899518713e-05
5.39425e-06;-5.062757523504963e-05
