Time(s);Current(A)
7.50000e-07;0.01296504226914917
7.50250e-07;0.012989778718271599
7.50500e-07;0.013014515167394028
7.50750e-07;0.013039251616516458
7.51000e-07;0.013063988065638887
7.51250e-07;0.013088724514761306
7.51500e-07;0.013113460963883735
7.51750e-07;0.013138197413006165
7.52000e-07;0.013162933862128594
7.52250e-07;0.013187670311251024
7.52500e-07;0.013212406760373442
7.52750e-07;0.013237143209495872
7.53000e-07;0.013261879658618301
7.53250e-07;0.013282312484661721
7.53500e-07;0.013299095737020157
7.53750e-07;0.013315878989378594
7.54000e-07;0.013332662241737023
7.54250e-07;0.013349445494095459
7.54500e-07;0.013366228746453896
7.54750e-07;0.013383011998812332
7.55000e-07;0.013399795251170769
7.55250e-07;0.013416578503529205
7.55500e-07;0.013433361755887633
7.55750e-07;0.01345014500824607
7.56000e-07;0.013466928260604506
7.56250e-07;0.013483355333215322
7.56500e-07;0.013491476341889626
7.56750e-07;0.013499597350563927
7.57000e-07;0.01350771835923823
7.57250e-07;0.013515839367912534
7.57500e-07;0.013523960376586838
7.57750e-07;0.013532081385261142
7.58000e-07;0.013540202393935446
7.58250e-07;0.013545511462449462
7.58500e-07;0.0135484359395101
7.58750e-07;0.013551360416570735
7.59000e-07;0.01355428489363137
7.59250e-07;0.013557209370692005
7.59500e-07;0.013560133847752641
7.59750e-07;0.013563058324813276
7.60000e-07;0.013565893187111502
7.60250e-07;0.013566565607736857
7.60500e-07;0.01356554413313702
7.60750e-07;0.01356452265853718
7.61000e-07;0.013563501183937343
7.61250e-07;0.013562479709337504
7.61500e-07;0.013561458234737667
7.61750e-07;0.013560436760137828
7.62000e-07;0.01355941528553799
7.62250e-07;0.013558393810938152
7.62500e-07;0.013557372336338315
7.62750e-07;0.013556338653380153
7.63000e-07;0.013555020273143528
7.63250e-07;0.013553701892906903
7.63500e-07;0.013552383512670275
7.63750e-07;0.01355106513243365
7.64000e-07;0.013549746752197025
7.64250e-07;0.0135484283719604
7.64500e-07;0.013547109991723774
7.64750e-07;0.013545791611487149
7.65000e-07;0.013544473231250524
7.65250e-07;0.013543121065875735
7.65500e-07;0.013540981035610881
7.65750e-07;0.013538841005346027
7.66000e-07;0.013536700975081173
7.66250e-07;0.013534560944816318
7.66500e-07;0.013532420914551464
7.66750e-07;0.01353028088428661
7.67000e-07;0.013528140854021755
7.67250e-07;0.013526000823756901
7.67500e-07;0.013523860793492047
7.67750e-07;0.013521720763227192
7.68000e-07;0.013519580732962338
7.68250e-07;0.013517440702697484
7.68500e-07;0.013513430148980961
7.68750e-07;0.013507833347342358
7.69000e-07;0.013502236545703754
7.69250e-07;0.013496639744065151
7.69500e-07;0.01349104294242655
7.69750e-07;0.013485446140787947
7.70000e-07;0.013479849339149344
7.70250e-07;0.01347425253751074
7.70500e-07;0.013468655735872137
7.70750e-07;0.013463058934233534
7.71000e-07;0.013457462132594933
7.71250e-07;0.01345186533095633
7.71500e-07;0.013446226942012298
7.71750e-07;0.013439618742684114
7.72000e-07;0.01343301054335593
7.72250e-07;0.01342640234402775
7.72500e-07;0.013419794144699565
7.72750e-07;0.013413185945371381
7.73000e-07;0.013406627171768229
7.73250e-07;0.013401220999443016
7.73500e-07;0.013395814827117802
7.73750e-07;0.013390408654792591
7.74000e-07;0.013385002482467377
7.74250e-07;0.013379596310142162
7.74500e-07;0.01337425943212179
7.74750e-07;0.013370538487995342
7.75000e-07;0.013366817543868894
7.75250e-07;0.013362943510196916
7.75500e-07;0.013355499448858015
7.75750e-07;0.013348055387519113
7.76000e-07;0.013340239842978604
7.76250e-07;0.013323761360006112
7.76500e-07;0.013307282877033628
7.76750e-07;0.013290804394061136
7.77000e-07;0.013274325911088646
7.77250e-07;0.013257847428116155
7.77500e-07;0.01323417895890228
7.77750e-07;0.013204413212092059
7.78000e-07;0.01317464746528185
7.78250e-07;0.01314488171847163
7.78500e-07;0.01311511597166141
7.78750e-07;0.013084773498402074
7.79000e-07;0.013040981841709251
7.79250e-07;0.012997190185016426
7.79500e-07;0.01295339852832362
7.79750e-07;0.012909606871630796
7.80000e-07;0.012865815214937973
7.80250e-07;0.012822023558245148
7.80500e-07;0.012778231901552325
7.80750e-07;0.01272970608208017
7.81000e-07;0.01267716558112141
7.81250e-07;0.012624625080162651
7.81500e-07;0.012572084579203892
7.81750e-07;0.012519544078245133
7.82000e-07;0.012467003577286374
7.82250e-07;0.012414463076327638
7.82500e-07;0.01236196388005923
7.82750e-07;0.012310427903629451
7.83000e-07;0.01225889192719967
7.83250e-07;0.01220752530280862
7.83500e-07;0.012160107945244648
7.83750e-07;0.012112690587680695
7.84000e-07;0.012065670047715813
7.84250e-07;0.01202790324093452
7.84500e-07;0.01199013643415323
7.84750e-07;0.011952369627371937
7.85000e-07;0.011914602820590661
7.85250e-07;0.011877246318810588
7.85500e-07;0.011849458074622758
7.85750e-07;0.011821669830434926
7.86000e-07;0.011793881586247093
7.86250e-07;0.011766093342059261
7.86500e-07;0.011738652058610717
7.86750e-07;0.01171930185306261
7.87000e-07;0.011699951647514502
7.87250e-07;0.011680601441966395
7.87500e-07;0.011661251236418287
7.87750e-07;0.011641901030870186
7.88000e-07;0.011622550825322079
7.88250e-07;0.011603200619773971
7.88500e-07;0.011584106591575388
7.88750e-07;0.011570986584805492
7.89000e-07;0.011557866578035597
7.89250e-07;0.011544746571265706
7.89500e-07;0.011531626564495811
7.89750e-07;0.011518506557725915
7.90000e-07;0.01150538655095602
7.90250e-07;0.011492266544186124
7.90500e-07;0.011479386106822214
7.90750e-07;0.011472092395871455
7.91000e-07;0.011464798684920693
7.91250e-07;0.011457504973969931
7.91500e-07;0.011450211263019169
7.91750e-07;0.011442917552068407
7.92000e-07;0.011435623841117648
7.92250e-07;0.011428330130166886
7.92500e-07;0.011421036419216124
7.92750e-07;0.011413742708265362
7.93000e-07;0.0114064489973146
7.93250e-07;0.011399155286363838
7.93500e-07;0.01139186157541308
7.93750e-07;0.011384567864462318
7.94000e-07;0.011377274153511556
7.94250e-07;0.011369980442560794
7.94500e-07;0.011362864964035905
7.94750e-07;0.011359905841775493
7.95000e-07;0.011356946719515084
7.95250e-07;0.011354271169693056
7.95500e-07;0.011358208491097671
7.95750e-07;0.011362145812502288
7.96000e-07;0.011366714426375655
7.96250e-07;0.011386004695943064
7.96500e-07;0.01140529496551048
7.96750e-07;0.011424585235077897
7.97000e-07;0.011443875504645314
7.97250e-07;0.011463165774212731
7.97500e-07;0.011482456043780148
7.97750e-07;0.01151372604554457
7.98000e-07;0.01155515514223416
7.98250e-07;0.011596584238923749
7.98500e-07;0.011638013335613338
7.98750e-07;0.011679442432302928
7.99000e-07;0.011720871528992519
7.99250e-07;0.011763152111510158
7.99500e-07;0.0118252892293265
7.99750e-07;0.011887426347142842
8.00000e-07;0.011949563464959184
8.00250e-07;0.012011700582775526
8.00500e-07;0.012073837700591842
8.00750e-07;0.012135974818408184
8.01000e-07;0.012198111936224526
8.01250e-07;0.012260249054040868
8.01500e-07;0.012322626369137104
8.01750e-07;0.012390605052582293
8.02000e-07;0.012458583736027453
8.02250e-07;0.012526562419472642
8.02500e-07;0.012594541102917831
8.02750e-07;0.01266251978636302
8.03000e-07;0.012730498469808208
8.03250e-07;0.012798477153253397
8.03500e-07;0.012866455836698557
8.03750e-07;0.012933788764379294
8.04000e-07;0.012986062754249291
8.04250e-07;0.013038336744119286
8.04500e-07;0.013090610733989283
8.04750e-07;0.013142884723859258
8.05000e-07;0.013195158713729253
8.05250e-07;0.01324743270359925
8.05500e-07;0.013286218194503242
8.05750e-07;0.013313565120743063
8.06000e-07;0.013340912046982885
8.06250e-07;0.013368258973222694
8.06500e-07;0.013395605899462516
8.06750e-07;0.013422952825702338
8.07000e-07;0.013449073036397143
8.07250e-07;0.01344658640512292
8.07500e-07;0.013444099773848698
8.07750e-07;0.013441613142574475
8.08000e-07;0.013439126511300251
8.08250e-07;0.013436639880026028
8.08500e-07;0.013434153248751803
8.08750e-07;0.01343166661747758
8.09000e-07;0.013429179986203358
8.09250e-07;0.013412799761982354
8.09500e-07;0.013384637443864877
8.09750e-07;0.013356475125747398
8.10000e-07;0.013328312807629921
8.10250e-07;0.013300150489512443
8.10500e-07;0.013271988171394978
8.10750e-07;0.0132438258532775
8.11000e-07;0.013215663535160023
8.11250e-07;0.013187089091465123
8.11500e-07;0.013148903934583313
8.11750e-07;0.013110718777701522
8.12000e-07;0.013072471251477655
8.12250e-07;0.013032769280562656
8.12500e-07;0.012993067309647657
8.12750e-07;0.012953395208618127
8.13000e-07;0.012914419669311328
8.13250e-07;0.012875444130004545
8.13500e-07;0.01283661079177644
8.13750e-07;0.012801093563630045
8.14000e-07;0.01276557633548365
8.14250e-07;0.012730529412148752
8.14500e-07;0.012706449933935986
8.14750e-07;0.012682370455723232
8.15000e-07;0.012658290977510466
8.15250e-07;0.0126342114992977
8.15500e-07;0.012610132021084935
8.15750e-07;0.01258605254287217
8.16000e-07;0.01256277857231628
8.16250e-07;0.012558288932276222
8.16500e-07;0.012553799292236165
8.16750e-07;0.012549309652196108
8.17000e-07;0.012544820012156052
8.17250e-07;0.012540330372115995
8.17500e-07;0.01253584073207594
8.17750e-07;0.012532285962920773
8.18000e-07;0.012550532257407864
8.18250e-07;0.012568778551894954
8.18500e-07;0.012587024846382043
8.18750e-07;0.012605271140869134
8.19000e-07;0.012623517435356215
8.19250e-07;0.012641763729843306
8.19500e-07;0.012660010024330396
8.19750e-07;0.012678256318817485
8.20000e-07;0.012696502613304576
8.20250e-07;0.012714748907791657
8.20500e-07;0.01274123286725528
8.20750e-07;0.012774702560547035
8.21000e-07;0.01280817225383879
8.21250e-07;0.012841641947130545
8.21500e-07;0.012875111640422302
8.21750e-07;0.012908581333714043
8.22000e-07;0.012942051027005798
8.22250e-07;0.012975520720297553
8.22500e-07;0.01300899041358931
8.22750e-07;0.013042460106881065
8.23000e-07;0.01307590081836026
8.23250e-07;0.013108665677857793
8.23500e-07;0.01314143053735534
8.23750e-07;0.013174195396852887
8.24000e-07;0.013206960256350434
8.24250e-07;0.01323943864832845
8.24500e-07;0.013265236656174318
8.24750e-07;0.013291034664020195
8.25000e-07;0.013316832671866074
8.25250e-07;0.013342630679711953
8.25500e-07;0.013368300913743244
8.25750e-07;0.013390991479556401
8.26000e-07;0.013413682045369546
8.26250e-07;0.013436372611182702
8.26500e-07;0.013459063176995857
8.26750e-07;0.013481753742809015
8.27000e-07;0.01350444430862217
8.27250e-07;0.013527134874435316
8.27500e-07;0.013549825440248473
8.27750e-07;0.013572516006061628
8.28000e-07;0.013595206571874784
8.28250e-07;0.01361843809847025
8.28500e-07;0.013642128372544212
8.28750e-07;0.013665818646618167
8.29000e-07;0.01368950892069213
8.29250e-07;0.013713199194766093
8.29500e-07;0.013736889468840057
8.29750e-07;0.01376057974291402
8.30000e-07;0.013784270016987983
8.30250e-07;0.013807960291061938
8.30500e-07;0.0138316505651359
8.30750e-07;0.013855312324087965
8.31000e-07;0.013878309114221955
8.31250e-07;0.013901305904355944
8.31500e-07;0.013924302694489923
8.31750e-07;0.013947299484623914
8.32000e-07;0.013970296274757904
8.32250e-07;0.013993293064891893
8.32500e-07;0.014016289855025883
8.32750e-07;0.014039286645159873
8.33000e-07;0.014062283435293853
8.33250e-07;0.014085280225427843
8.33500e-07;0.014108277015561832
8.33750e-07;0.014131273805695822
8.34000e-07;0.014153830489284624
8.34250e-07;0.014166123947269548
8.34500e-07;0.014178417405254468
8.34750e-07;0.014190710863239392
8.35000e-07;0.014203004321224316
8.35250e-07;0.01421529777920924
8.35500e-07;0.014227591237194165
8.35750e-07;0.014239884695179084
8.36000e-07;0.014252178153164008
8.36250e-07;0.014264471611148933
8.36500e-07;0.014276765069133857
8.36750e-07;0.014289058527118781
8.37000e-07;0.014301351985103706
8.37250e-07;0.0143129672151432
8.37500e-07;0.01430876626046311
8.37750e-07;0.01430456530578302
8.38000e-07;0.014300364351102931
8.38250e-07;0.01429616339642284
8.38500e-07;0.01429196244174275
8.38750e-07;0.014287761487062662
8.39000e-07;0.014283560532382573
8.39250e-07;0.014279359577702483
8.39500e-07;0.014275158623022394
8.39750e-07;0.014270957668342304
8.40000e-07;0.014266756713662216
8.40250e-07;0.014262555758982127
8.40500e-07;0.014258354804302037
8.40750e-07;0.014249895869279227
8.41000e-07;0.014237826066685926
8.41250e-07;0.014225756264092624
8.41500e-07;0.014213686461499328
8.41750e-07;0.014201616658906025
8.42000e-07;0.014189546856312725
8.42250e-07;0.014177477053719422
8.42500e-07;0.014165407251126121
8.42750e-07;0.014153337448532819
8.43000e-07;0.014141267645939523
8.43250e-07;0.01412919784334622
8.43500e-07;0.01411712804075292
8.43750e-07;0.014105058238159617
8.44000e-07;0.014093329098203164
8.44250e-07;0.014089544165246761
8.44500e-07;0.014085759232290359
8.44750e-07;0.014081974299333954
8.45000e-07;0.014078189366377551
8.45250e-07;0.014074404433421147
8.45500e-07;0.014070619500464744
8.45750e-07;0.014066834567508341
8.46000e-07;0.014063049634551938
8.46250e-07;0.014059264701595535
8.46500e-07;0.01405547976863913
8.46750e-07;0.014051694835682728
8.47000e-07;0.014047909902726325
8.47250e-07;0.014044124969769922
8.47500e-07;0.014040340036813518
8.47750e-07;0.014036555103857115
8.48000e-07;0.01403277017090071
8.48250e-07;0.014028985237944307
8.48500e-07;0.014025200304987905
8.48750e-07;0.014021415372031502
8.49000e-07;0.014017630439075097
8.49250e-07;0.014013845506118694
8.49500e-07;0.01401006057316229
8.49750e-07;0.014006275640205887
8.50000e-07;0.014002490707249484
8.50250e-07;0.014002156124558244
8.50500e-07;0.01400474752011882
8.50750e-07;0.014007338915679396
8.51000e-07;0.014009930311239972
8.51250e-07;0.014012521706800547
8.51500e-07;0.014015113102361122
8.51750e-07;0.014017704497921698
8.52000e-07;0.014020295893482275
8.52250e-07;0.01402288728904285
8.52500e-07;0.014025478684603427
8.52750e-07;0.014028070080164
8.53000e-07;0.014030661475724578
8.53250e-07;0.014033252871285153
8.53500e-07;0.014035844266845728
8.53750e-07;0.014038435662406305
8.54000e-07;0.01404102705796688
8.54250e-07;0.014043618453527456
8.54500e-07;0.014046209849088031
8.54750e-07;0.014048801244648608
8.55000e-07;0.014051392640209184
8.55250e-07;0.014053984035769759
8.55500e-07;0.014056575431330334
8.55750e-07;0.014059166826890911
8.56000e-07;0.014061758222451487
8.56250e-07;0.014064406848204276
8.56500e-07;0.01406839007436362
8.56750e-07;0.014072373300522965
8.57000e-07;0.014076356526682307
8.57250e-07;0.014080339752841653
8.57500e-07;0.014084322979000996
8.57750e-07;0.01408830620516034
8.58000e-07;0.014092289431319686
8.58250e-07;0.01409627265747903
8.58500e-07;0.014100255883638373
8.58750e-07;0.014104239109797717
8.59000e-07;0.014108222335957063
8.59250e-07;0.014112205562116406
8.59500e-07;0.01411618878827575
8.59750e-07;0.014120172014435094
8.60000e-07;0.014124155240594438
8.60250e-07;0.014128138466753783
8.60500e-07;0.014132121692913127
8.60750e-07;0.014136104919072473
8.61000e-07;0.014140088145231816
8.61250e-07;0.01414407137139116
8.61500e-07;0.014148054597550504
8.61750e-07;0.014152037823709848
8.62000e-07;0.014156033775372792
8.62250e-07;0.014160326484072911
8.62500e-07;0.014164619192773028
8.62750e-07;0.014168911901473144
8.63000e-07;0.014173204610173263
8.63250e-07;0.01417749731887338
8.63500e-07;0.014181790027573497
8.63750e-07;0.014186082736273616
8.64000e-07;0.014190375444973731
8.64250e-07;0.01419466815367385
8.64500e-07;0.014198960862373967
8.64750e-07;0.014203253571074085
8.65000e-07;0.014207546279774204
8.65250e-07;0.01421183898847432
8.65500e-07;0.014216131697174438
8.65750e-07;0.014220424405874555
8.66000e-07;0.014224717114574672
8.66250e-07;0.014229009823274791
8.66500e-07;0.014233302531974908
8.66750e-07;0.014237595240675024
8.67000e-07;0.014241887949375143
8.67250e-07;0.01424618065807526
8.67500e-07;0.014250473366775379
8.67750e-07;0.014254808105434615
8.68000e-07;0.014260122977103431
8.68250e-07;0.014265437848772244
8.68500e-07;0.014270752720441059
8.68750e-07;0.014276067592109875
8.69000e-07;0.014281382463778691
8.69250e-07;0.014286697335447506
8.69500e-07;0.014292012207116322
8.69750e-07;0.014297327078785135
8.70000e-07;0.014302641950453951
8.70250e-07;0.014307956822122766
8.70500e-07;0.014313271693791582
8.70750e-07;0.014318586565460398
8.71000e-07;0.014323901437129211
8.71250e-07;0.014329216308798026
8.71500e-07;0.014334529906528993
8.71750e-07;0.01433981379620016
8.72000e-07;0.014345097685871326
8.72250e-07;0.014350381575542493
8.72500e-07;0.014355665465213658
8.72750e-07;0.014360949354884824
8.73000e-07;0.01436623324455599
8.73250e-07;0.014371517134227157
8.73500e-07;0.014376801023898324
8.73750e-07;0.01438208491356949
8.74000e-07;0.014387368803240656
8.74250e-07;0.014392652692911822
8.74500e-07;0.014397936582582989
8.74750e-07;0.014403220472254155
8.75000e-07;0.014408504361925322
8.75250e-07;0.014413540022172234
8.75500e-07;0.014412787005537813
8.75750e-07;0.014412033988903393
8.76000e-07;0.01441128097226897
8.76250e-07;0.01441052795563455
8.76500e-07;0.01440977493900013
8.76750e-07;0.01440902192236571
8.77000e-07;0.014408268905731287
8.77250e-07;0.014407515889096867
8.77500e-07;0.014406762872462446
8.77750e-07;0.014406009855828026
8.78000e-07;0.01440487841768438
8.78250e-07;0.01439492224069899
8.78500e-07;0.014384966063713596
8.78750e-07;0.014375009886728202
8.79000e-07;0.014365053709742809
8.79250e-07;0.014355097532757414
8.79500e-07;0.014345141355772025
8.79750e-07;0.014335185178786632
8.80000e-07;0.014325229001801236
8.80250e-07;0.014315272824815843
8.80500e-07;0.01430531664783045
8.80750e-07;0.014295186546482598
8.81000e-07;0.014281000552328674
8.81250e-07;0.014266814558174743
8.81500e-07;0.014252628564020813
8.81750e-07;0.014238442569866882
8.82000e-07;0.01422425657571295
8.82250e-07;0.014210070581559027
8.82500e-07;0.014195884587405096
8.82750e-07;0.014181698593251165
8.83000e-07;0.014167512599097234
8.83250e-07;0.014153326604943303
8.83500e-07;0.014141551824326843
8.83750e-07;0.014131821809554204
8.84000e-07;0.014122091794781562
8.84250e-07;0.014112361780008919
8.84500e-07;0.014102631765236278
8.84750e-07;0.014092901750463635
8.85000e-07;0.014083171735690993
8.85250e-07;0.014073441720918354
8.85500e-07;0.014063711706145711
8.85750e-07;0.01405398169137307
8.86000e-07;0.014044646544969442
8.86250e-07;0.014044519675972625
8.86500e-07;0.014044392806975808
8.86750e-07;0.014044265937978992
8.87000e-07;0.014044139068982176
8.87250e-07;0.01404401219998536
8.87500e-07;0.014043885330988543
8.87750e-07;0.014043758461991728
8.88000e-07;0.014043631592994911
8.88250e-07;0.014043504723998094
8.88500e-07;0.014043377855001279
8.88750e-07;0.014043250986004462
8.89000e-07;0.014043124117007645
8.89250e-07;0.014042997248010829
8.89500e-07;0.014042870379014014
8.89750e-07;0.014042743510017197
8.90000e-07;0.01404261664102038
8.90250e-07;0.014042489772023565
8.90500e-07;0.014042362903026748
8.90750e-07;0.014044545787608647
8.91000e-07;0.014047667110428597
8.91250e-07;0.014050788433248546
8.91500e-07;0.014053909756068496
8.91750e-07;0.014057031078888447
8.92000e-07;0.014060152401708397
8.92250e-07;0.014063273724528345
8.92500e-07;0.014066395047348294
8.92750e-07;0.014069516370168246
8.93000e-07;0.014072637692988195
8.93250e-07;0.014075759015808145
8.93500e-07;0.014078880338628095
8.93750e-07;0.014082001661448044
8.94000e-07;0.014085122984267994
8.94250e-07;0.014088244307087943
8.94500e-07;0.014091365629907893
8.94750e-07;0.014094486952727843
8.95000e-07;0.014097608275547792
8.95250e-07;0.014100234494215465
8.95500e-07;0.014102056533700443
8.95750e-07;0.014103878573185421
8.96000e-07;0.0141057006126704
8.96250e-07;0.014107522652155377
8.96500e-07;0.014109344691640354
8.96750e-07;0.014111166731125332
8.97000e-07;0.014112988770610308
8.97250e-07;0.014114810810095286
8.97500e-07;0.014116632849580264
8.97750e-07;0.014118454889065242
8.98000e-07;0.014120276928550219
8.98250e-07;0.014122098968035197
8.98500e-07;0.014123921007520175
8.98750e-07;0.014125743047005153
8.99000e-07;0.01412756508649013
8.99250e-07;0.014129387125975107
8.99500e-07;0.014131209165460084
8.99750e-07;0.014134066786597675
9.00000e-07;0.01413706420839025
9.00250e-07;0.014140061630182825
9.00500e-07;0.014143059051975401
9.00750e-07;0.014146056473767975
9.01000e-07;0.01414905389556055
9.01250e-07;0.014152051317353125
9.01500e-07;0.014155048739145701
9.01750e-07;0.014158046160938275
