Time(s);Current(A)
1.47500e-05;0.0034466393156844174
1.47503e-05;0.00342621985480786
1.47505e-05;0.003405800393931441
1.47508e-05;0.0033853809330548833
1.47510e-05;0.003364961472178326
1.47513e-05;0.0033445420113019067
1.47515e-05;0.0033241225504253495
1.47518e-05;0.003303703089548792
1.47520e-05;0.003283283628672373
1.47523e-05;0.0032628641677958153
1.47525e-05;0.003242444706919258
1.47528e-05;0.0032195678466647674
1.47530e-05;0.0031943668878080026
1.47533e-05;0.003169165928951238
1.47535e-05;0.0031439649700946435
1.47538e-05;0.0031187640112378787
1.47540e-05;0.0030935630523811135
1.47543e-05;0.0030683620935245196
1.47545e-05;0.0030431611346677543
1.47548e-05;0.0030180738351688044
1.47550e-05;0.0030010267971957963
1.47553e-05;0.002983979759222673
1.47555e-05;0.0029669327212495495
1.47558e-05;0.0029498856832765414
1.47560e-05;0.002932838645303418
1.47563e-05;0.0029157916073302946
1.47565e-05;0.0028987445693572866
1.47568e-05;0.002881697531384163
1.47570e-05;0.002875069142165268
1.47573e-05;0.0028782942457181242
1.47575e-05;0.002881519349270959
1.47578e-05;0.0028847444528238156
1.47580e-05;0.002887969556376672
1.47583e-05;0.0028911946599295066
1.47585e-05;0.0028944197634823633
1.47588e-05;0.0028976448670352197
1.47590e-05;0.0029008699705880543
1.47593e-05;0.002904095074140911
1.47595e-05;0.0029076067862792393
1.47598e-05;0.0029313931861473814
1.47600e-05;0.002955179586015685
1.47603e-05;0.002978965985883988
1.47605e-05;0.00300275238575213
1.47608e-05;0.0030265387856204333
1.47610e-05;0.0030503251854887368
1.47613e-05;0.003074111585356879
1.47615e-05;0.0030978979852251823
1.47618e-05;0.0031216843850934853
1.47620e-05;0.0031454707849616274
1.47623e-05;0.003173253822068789
1.47625e-05;0.003204816700216433
1.47628e-05;0.0032363795783638635
1.47630e-05;0.0032679424565115077
1.47633e-05;0.0032995053346591514
1.47635e-05;0.0033310682128065818
1.47638e-05;0.003362631090954226
1.47640e-05;0.00339419396910187
1.47643e-05;0.003425660937990926
1.47645e-05;0.003450343287132832
1.47648e-05;0.0034750256362747383
1.47650e-05;0.0034997079854164775
1.47653e-05;0.0035243903345583837
1.47655e-05;0.00354907268370029
1.47658e-05;0.003573755032842196
1.47660e-05;0.0035984373819839353
1.47663e-05;0.0036231197311258415
1.47665e-05;0.0036377302247726758
1.47668e-05;0.0036428152072249375
1.47670e-05;0.0036479001896772335
1.47673e-05;0.0036529851721295295
1.47675e-05;0.003658070154581791
1.47678e-05;0.003663155137034087
1.47680e-05;0.0036682401194863836
1.47683e-05;0.003673325101938645
1.47685e-05;0.0036784100843909413
1.47688e-05;0.0036834950668432373
1.47690e-05;0.003688580049295499
1.47693e-05;0.003693665031747795
1.47695e-05;0.0036885378921970367
1.47698e-05;0.0036737525836510443
1.47700e-05;0.0036589672751049514
1.47703e-05;0.0036441819665588584
1.47705e-05;0.0036293966580128656
1.47708e-05;0.0036146113494667726
1.47710e-05;0.0035998260409206796
1.47713e-05;0.003585040732374687
1.47715e-05;0.0035702554238285942
1.47718e-05;0.0035554701152825012
1.47720e-05;0.0035406848067365084
1.47723e-05;0.0035258994981904154
1.47725e-05;0.003507658754662667
1.47728e-05;0.003486150015022497
1.47730e-05;0.0034646412753821815
1.47733e-05;0.0034431325357418665
1.47735e-05;0.0034216237961016967
1.47738e-05;0.003400115056461381
1.47740e-05;0.003378606316821066
1.47743e-05;0.0033570975771807505
1.47745e-05;0.003335588837540581
1.47748e-05;0.003317490164818622
1.47750e-05;0.003302616581121012
1.47753e-05;0.003287742997423502
1.47755e-05;0.0032728694137258915
1.47758e-05;0.0032579958300282814
1.47760e-05;0.0032431222463307715
1.47763e-05;0.0032282486626331614
1.47765e-05;0.003213375078935551
1.47768e-05;0.003198501495238041
1.47770e-05;0.003193822969489122
1.47773e-05;0.003198786474316963
1.47775e-05;0.003203749979144771
1.47778e-05;0.0032087134839726126
1.47780e-05;0.0032136769888004542
1.47783e-05;0.003218640493628262
1.47785e-05;0.0032236039984561036
1.47788e-05;0.003228567503283945
1.47790e-05;0.0032335310081117526
1.47793e-05;0.003238494512939594
1.47795e-05;0.003243458017767436
1.47798e-05;0.003258719498502171
1.47800e-05;0.003283720345023623
1.47803e-05;0.0033087211915450747
1.47805e-05;0.003333722038066357
1.47808e-05;0.0033587228845878086
1.47810e-05;0.0033837237311092603
1.47813e-05;0.0034087245776305425
1.47815e-05;0.0034337254241519942
1.47818e-05;0.003458726270673446
1.47820e-05;0.0034837271171947286
1.47823e-05;0.0035087279637161803
1.47825e-05;0.003536967444536673
1.47828e-05;0.00356826988106551
1.47830e-05;0.0035995723175941347
1.47833e-05;0.003630874754122972
1.47835e-05;0.003662177190651809
1.47838e-05;0.003693479627180434
1.47840e-05;0.0037247820637092708
1.47843e-05;0.0037560845002381077
1.47845e-05;0.003787265153403157
1.47848e-05;0.0038098308528595262
1.47850e-05;0.0038323965523158953
1.47853e-05;0.003854962251772112
1.47855e-05;0.003877527951228481
1.47858e-05;0.00390009365068485
1.47860e-05;0.0039226593501410665
1.47863e-05;0.003945225049597436
1.47865e-05;0.003967790749053805
1.47868e-05;0.003977844646040446
1.47870e-05;0.003976065438927329
1.47873e-05;0.003974286231814213
1.47875e-05;0.0039725070247011085
1.47878e-05;0.003970727817587992
1.47880e-05;0.003968948610474875
1.47883e-05;0.0039671694033617715
1.47885e-05;0.0039653901962486545
1.47888e-05;0.0039636109891355385
1.47890e-05;0.003961831782022434
1.47893e-05;0.0039600525749093176
1.47895e-05;0.003944999645332691
1.47898e-05;0.003917393021746915
1.47900e-05;0.0038897863981609527
1.47903e-05;0.0038621797745749904
1.47905e-05;0.0038345731509892146
1.47908e-05;0.0038069665274032523
1.47910e-05;0.0037793599038172896
1.47913e-05;0.003751753280231327
1.47915e-05;0.0037241466566455515
1.47918e-05;0.003696540033059589
1.47920e-05;0.003668933409473626
1.47923e-05;0.0036362545195455227
1.47925e-05;0.0035987785065966223
1.47928e-05;0.003561302493647722
1.47930e-05;0.0035238264806990755
1.47933e-05;0.003486350467750175
1.47935e-05;0.0034488744548012745
1.47938e-05;0.003411398441852628
1.47940e-05;0.0033739224289037273
1.47943e-05;0.0033397757384229865
1.47945e-05;0.0033087777724726776
1.47948e-05;0.0032777798065221587
1.47950e-05;0.00324678184057164
1.47953e-05;0.0032157838746213314
1.47955e-05;0.0031847859086708125
1.47958e-05;0.0031537879427202937
1.47960e-05;0.0031227899767699847
1.47963e-05;0.0031046822176947543
1.47965e-05;0.0030987654407125262
1.47968e-05;0.0030928486637303385
1.47970e-05;0.0030869318867481105
1.47973e-05;0.0030810151097658825
1.47975e-05;0.0030750983327836943
1.47978e-05;0.0030691815558014663
1.47980e-05;0.0030632647788192383
1.47983e-05;0.0030573480018370506
1.47985e-05;0.0030514312248548225
1.47988e-05;0.0030455144478725945
1.47990e-05;0.0030555625647682226
1.47993e-05;0.003080709565434623
1.47995e-05;0.003105856566101023
1.47998e-05;0.0031310035667674227
1.48000e-05;0.0031561505674336525
1.48003e-05;0.0031812975681000527
1.48005e-05;0.0032064445687664525
1.48008e-05;0.0032315915694326822
1.48010e-05;0.0032567385700990824
1.48013e-05;0.0032818855707654826
1.48015e-05;0.0033070325714317124
1.48018e-05;0.00333983250310597
1.48020e-05;0.0033798702352116723
1.48023e-05;0.003419907967317103
1.48025e-05;0.003459945699422805
1.48028e-05;0.0034999834315285073
1.48030e-05;0.0035400211636339384
1.48033e-05;0.0035800588957396406
1.48035e-05;0.0036200966278453427
1.48038e-05;0.0036584728996433193
1.48040e-05;0.0036952778364695484
1.48043e-05;0.0037320827732957775
1.48045e-05;0.0037688877101217572
1.48048e-05;0.0038056926469479863
1.48050e-05;0.0038424975837742154
1.48053e-05;0.003879302520600195
1.48055e-05;0.003916107457426424
1.48058e-05;0.003939889220225653
1.48060e-05;0.00395135424653425
1.48063e-05;0.003962819272842925
1.48065e-05;0.003974284299151599
1.48068e-05;0.0039857493254601955
1.48070e-05;0.00399721435176887
1.48073e-05;0.004008679378077544
1.48075e-05;0.0040201444043861416
1.48078e-05;0.004031609430694816
1.48080e-05;0.00404307445700349
1.48083e-05;0.004054539483312165
1.48085e-05;0.004065496592686925
1.48088e-05;0.004040523663756012
1.48090e-05;0.004015550734825099
1.48093e-05;0.003990577805894354
1.48095e-05;0.003965604876963441
1.48098e-05;0.003940631948032528
1.48100e-05;0.003915659019101784
1.48103e-05;0.0038906860901708707
1.48105e-05;0.0038657131612399574
1.48108e-05;0.0038407402323092136
1.48110e-05;0.0038157673033783
1.48113e-05;0.003790794374447387
1.48115e-05;0.003756144593768974
1.48118e-05;0.0037123428787923457
1.48120e-05;0.003668541163815717
1.48123e-05;0.003624739448839385
1.48125e-05;0.0035809377338627563
1.48128e-05;0.0035371360188861277
1.48130e-05;0.003493334303909796
1.48133e-05;0.003449535534962834
1.48135e-05;0.0034059451681224717
1.48138e-05;0.0033623548012824047
1.48140e-05;0.003318764434442042
1.48143e-05;0.0032751740676016795
1.48145e-05;0.0032315837007616125
1.48148e-05;0.0031879933339212497
1.48150e-05;0.0031444029670808873
1.48153e-05;0.0031059878740440083
1.48155e-05;0.0030724673238873754
1.48158e-05;0.003038946773730742
1.48160e-05;0.003017757628038399
1.48163e-05;0.0008741153398161405
1.48165e-05;-0.006881057660033282
1.48168e-05;-0.010317756801306813
1.48170e-05;-0.008293671349631406
1.48173e-05;-0.005639588859607895
1.48175e-05;-0.0001464014861784638
1.48178e-05;0.0038041376631926228
1.48180e-05;0.0033589577426579344
1.48183e-05;0.0018377083907691236
1.48185e-05;-0.0018655805473618168
1.48188e-05;-0.005022889695843208
1.48190e-05;-0.004165889319295861
1.48193e-05;-0.00202071146199574
1.48195e-05;0.0007495524647568666
1.48198e-05;0.003703029206152026
1.48200e-05;0.004158178318913332
1.48203e-05;0.0028790250068164392
1.48205e-05;0.001636800674749135
1.48208e-05;-0.00017898941664556048
1.48210e-05;-0.0005009822364399044
1.48213e-05;0.0006204295049729736
1.48215e-05;0.002057977424567878
1.48218e-05;0.003624695156489156
1.48220e-05;0.004207337178585845
1.48223e-05;0.0037707202179845683
1.48225e-05;0.002885578667719969
1.48228e-05;0.0017677597238731071
1.48230e-05;0.0015853681416630263
1.48233e-05;0.002306519258454072
1.48235e-05;0.0032248184060336294
1.48238e-05;0.004222920740426923
1.48240e-05;0.004603305700273137
1.48243e-05;0.004343789501472482
1.48245e-05;0.003801724811207741
1.48248e-05;0.003112145202278596
1.48250e-05;0.0030065424995800315
1.48253e-05;0.003464708424143496
1.48255e-05;0.004043946521801064
1.48258e-05;0.004670565728481805
1.48260e-05;0.004907470515987614
1.48263e-05;0.0047406168030945444
1.48265e-05;0.004393779128983713
1.48268e-05;0.0039516141086305325
1.48270e-05;0.00387246082915004
1.48273e-05;0.004143786539886097
1.48275e-05;0.004488426983597222
1.48278e-05;0.004860377500538244
1.48280e-05;0.004986013330476942
1.48283e-05;0.004856722568972346
1.48285e-05;0.0046128567423374105
1.48288e-05;0.004307616902950067
1.48290e-05;0.00422826263716549
1.48293e-05;0.004367087349345362
1.48295e-05;0.004550629242161587
1.48298e-05;0.004750233413956509
1.48300e-05;0.004794674435379935
1.48303e-05;0.004678738417595306
1.48305e-05;0.004490518373824465
1.48308e-05;0.004263511263113138
1.48310e-05;0.004177818264093287
1.48313e-05;0.004228766522562905
1.48315e-05;0.004307859436108621
1.48318e-05;0.004397313690693779
1.48320e-05;0.0043900451334130345
1.48323e-05;0.00428296499775587
1.48325e-05;0.004131428408369631
1.48328e-05;0.003956588978872093
1.48330e-05;0.003871427106519836
1.48333e-05;0.0038731758695202847
1.48335e-05;0.003894036009208515
1.48338e-05;0.003923035198751495
1.48340e-05;0.003893266947689131
1.48343e-05;0.0038029698542557714
1.48345e-05;0.0036869907284886854
1.48348e-05;0.003558750436432734
1.48350e-05;0.003489185794621302
1.48353e-05;0.003476727058026292
1.48355e-05;0.0034790698817294087
1.48358e-05;0.003489498695421227
1.48360e-05;0.003466137357465427
1.48363e-05;0.003407528825229476
1.48365e-05;0.0033348775741947312
1.48368e-05;0.0032561883126253992
1.48370e-05;0.00321575964996033
1.48373e-05;0.003212518653144708
1.48375e-05;0.00321987819001869
1.48378e-05;0.0032335447895619983
1.48380e-05;0.0032272018342473304
1.48383e-05;0.0031998528090383662
1.48385e-05;0.0031646953159877433
1.48388e-05;0.003126658096142639
1.48390e-05;0.003113402867903512
1.48393e-05;0.0031241693643255797
1.48395e-05;0.003142216174629159
1.48398e-05;0.0031647672813949175
1.48400e-05;0.0031752523766904665
1.48403e-05;0.0031729624567234426
1.48405e-05;0.0031660794134851424
1.48408e-05;0.003157604982513285
1.48410e-05;0.003164779740649129
1.48413e-05;0.003187039966192809
1.48415e-05;0.0032138123176342864
1.48418e-05;0.003243271501335886
1.48420e-05;0.003264952183534765
1.48423e-05;0.0032783248871367174
1.48425e-05;0.0032884295865228956
1.48428e-05;0.003297060471086282
1.48430e-05;0.0033149311350683494
1.48433e-05;0.003341664456570044
1.48435e-05;0.0033699013033200893
1.48438e-05;0.0033981381500701345
1.48440e-05;0.0034234696443441745
1.48443e-05;0.0034404505652624604
1.48445e-05;0.003457183813603861
1.48448e-05;0.003473205200634433
1.48450e-05;0.0034892265876651143
1.48453e-05;0.0035052105405154656
1.48455e-05;0.003521086899925162
1.48458e-05;0.0035369632593349656
1.48460e-05;0.0035528396187447697
1.48463e-05;0.003568715978154466
1.48465e-05;0.0035767809309524665
1.48468e-05;0.003582353603057973
1.48470e-05;0.0035879262751634415
1.48473e-05;0.0035934989472689474
1.48475e-05;0.0035958340702664142
1.48478e-05;0.003588863819287386
1.48480e-05;0.0035818935683083106
1.48483e-05;0.003574923317329235
1.48485e-05;0.003567953066350207
1.48488e-05;0.0035609828153711316
1.48490e-05;0.0035540125643920566
1.48493e-05;0.0035470423134130284
1.48495e-05;0.003540072062433953
1.48498e-05;0.0035331018114548775
1.48500e-05;0.0035224111772168003
1.48503e-05;0.0035010274055439407
1.48505e-05;0.0034796436338710816
1.48508e-05;0.003458259862198222
1.48510e-05;0.003436876090525508
1.48513e-05;0.0034154923188526483
1.48515e-05;0.0033941085471797887
1.48518e-05;0.0033727247755070745
1.48520e-05;0.003351341003834215
1.48523e-05;0.003329957232161356
1.48525e-05;0.0033074320678904063
1.48528e-05;0.0032816263093711014
1.48530e-05;0.003255820550851796
1.48533e-05;0.003230014792332666
1.48535e-05;0.003204209033813361
1.48538e-05;0.0031784032752940556
1.48540e-05;0.0031525975167749254
1.48543e-05;0.00312679175825562
1.48545e-05;0.003100985999736315
1.48548e-05;0.0030770654855681524
1.48550e-05;0.0030585635467300547
1.48553e-05;0.003040061607891957
1.48555e-05;0.0030215596690539846
1.48558e-05;0.003003057730215887
1.48560e-05;0.002984555791377789
1.48563e-05;0.0029660538525398167
1.48565e-05;0.002947551913701719
1.48568e-05;0.002929049974863621
1.48570e-05;0.0029148384067337833
1.48573e-05;0.0029129582357870104
1.48575e-05;0.002911078064840238
1.48578e-05;0.002909197893893478
1.48580e-05;0.0029073177229467055
1.48583e-05;0.002905437551999933
1.48585e-05;0.002903557381053173
1.48588e-05;0.0029016772101064002
1.48590e-05;0.0028997970391596278
1.48593e-05;0.0028979168682128553
1.48595e-05;0.0028960366972660954
1.48598e-05;0.002898109620926537
1.48600e-05;0.0029115445417252023
1.48603e-05;0.002924979462523776
1.48605e-05;0.0029384143833224414
1.48608e-05;0.002951849304121106
1.48610e-05;0.0029652842249196804
1.48613e-05;0.0029787191457183453
1.48615e-05;0.0029921540665170106
1.48618e-05;0.0030055889873155843
1.48620e-05;0.0030190239081142496
1.48623e-05;0.0030324588289129145
1.48625e-05;0.003046887427146758
1.48628e-05;0.0030641720562371365
1.48630e-05;0.0030814566853275154
1.48633e-05;0.003098741314417777
1.48635e-05;0.0031160259435081554
1.48638e-05;0.0031333105725985344
1.48640e-05;0.003150595201688796
1.48643e-05;0.0031678798307791744
1.48645e-05;0.0031851644598695533
1.48648e-05;0.0032024490889598148
1.48650e-05;0.0032197337180501933
1.48653e-05;0.003237018347140572
1.48655e-05;0.0032528824021738076
1.48658e-05;0.0032646634387171573
1.48660e-05;0.0032764444752605066
1.48663e-05;0.003288225511803776
1.48665e-05;0.0033000065483471254
1.48668e-05;0.003311787584890475
1.48670e-05;0.0033235686214337446
1.48673e-05;0.003335349657977094
1.48675e-05;0.0033471306945204436
1.48678e-05;0.003358911731063713
1.48680e-05;0.0033706927676070623
1.48683e-05;0.003382473804150412
1.48685e-05;0.0033946229538669697
1.48688e-05;0.0034078301356412167
1.48690e-05;0.0034210373174155535
1.48693e-05;0.0034342444991898903
1.48695e-05;0.0034474516809641373
1.48698e-05;0.003460658862738474
1.48700e-05;0.003473866044512811
1.48703e-05;0.003487073226287058
1.48705e-05;0.0035002804080613947
1.48708e-05;0.0035134875898357315
1.48710e-05;0.0035266947716099785
1.48713e-05;0.0035399019533843153
1.48715e-05;0.003553109135158652
1.48718e-05;0.0035663163169328996
1.48720e-05;0.003579523498707236
1.48723e-05;0.0035921932653285925
1.48725e-05;0.0036046915661079905
1.48728e-05;0.0036171898668874727
1.48730e-05;0.0036296881676669552
1.48733e-05;0.003642186468446353
1.48735e-05;0.0036546847692258354
1.48738e-05;0.0036671830700053176
1.48740e-05;0.0036796813707847156
1.48743e-05;0.0036921796715641978
1.48745e-05;0.0037046779723436804
1.48748e-05;0.003717176273123078
1.48750e-05;0.0037296745739025606
1.48753e-05;0.0037421728746820427
1.48755e-05;0.0037546711754614403
1.48758e-05;0.003764640645252908
1.48760e-05;0.003767341740941778
1.48763e-05;0.0037700428366306297
1.48765e-05;0.0037727439323194997
1.48768e-05;0.0037754450280083696
1.48770e-05;0.00377814612369724
1.48773e-05;0.0037808472193860917
1.48775e-05;0.0037835483150749616
1.48778e-05;0.0037862494107638316
1.48780e-05;0.0037889505064526833
1.48783e-05;0.0037916516021415532
1.48785e-05;0.0037943526978304236
1.48788e-05;0.0037970537935192753
1.48790e-05;0.0037997548892081453
1.48793e-05;0.0038024559848970152
1.48795e-05;0.003805157080585867
1.48798e-05;0.0038078581762747373
1.48800e-05;0.003808515961275077
1.48803e-05;0.0038033008561675083
1.48805e-05;0.0037980857510599045
1.48808e-05;0.0037928706459523
1.48810e-05;0.0037876555408447314
1.48813e-05;0.0037824404357371276
1.48815e-05;0.0037772253306295237
1.48818e-05;0.003772010225521955
1.48820e-05;0.0037667951204143507
1.48823e-05;0.003761580015306747
1.48825e-05;0.003756364910199178
1.48828e-05;0.003751149805091574
1.48830e-05;0.00374593469998397
1.48833e-05;0.003740719594876401
1.48835e-05;0.0037355044897687973
1.48838e-05;0.0037302893846611934
1.48840e-05;0.0037250742795536247
1.48843e-05;0.0037198426922303513
1.48845e-05;0.0037145637316701443
1.48848e-05;0.003709284771109973
1.48850e-05;0.003704005810549766
1.48853e-05;0.003698726849989559
1.48855e-05;0.003693447889429352
1.48858e-05;0.0036881689288691807
1.48860e-05;0.0036828899683089738
1.48863e-05;0.003677611007748767
1.48865e-05;0.0036723320471885954
1.48868e-05;0.0036670530866283885
1.48870e-05;0.0036617741260681815
1.48873e-05;0.00365649516550801
1.48875e-05;0.003651216204947803
1.48878e-05;0.0036459372443875962
1.48880e-05;0.003640658283827425
1.48883e-05;0.003635379323267218
1.48885e-05;0.003630100362707011
1.48888e-05;0.00362482140214684
1.48890e-05;0.0036195424415866326
1.48893e-05;0.0036142634810264257
1.48895e-05;0.0036089845204662547
1.48898e-05;0.0036037055599060473
1.48900e-05;0.0035984265993458404
1.48903e-05;0.0035931476387856694
1.48905e-05;0.003587868678225462
1.48908e-05;0.003582589717665255
1.48910e-05;0.003577519485268782
1.48913e-05;0.0035730491800274136
1.48915e-05;0.003568578874786045
1.48918e-05;0.003564108569544707
1.48920e-05;0.0035596382643033383
1.48923e-05;0.00355516795906197
1.48925e-05;0.003550697653820632
1.48928e-05;0.0035462273485792634
1.48930e-05;0.003541757043337895
1.48933e-05;0.0035372867380965567
1.48935e-05;0.0035328164328551886
1.48938e-05;0.00352834612761382
1.48940e-05;0.0035238758223724515
1.48943e-05;0.0035194055171311133
1.48945e-05;0.003514935211889745
1.48948e-05;0.0035104649066483766
1.48950e-05;0.0035059946014070384
1.48953e-05;0.00350152429616567
1.48955e-05;0.0034970539909243018
1.48958e-05;0.0034925836856829636
1.48960e-05;0.003488113380441595
1.48963e-05;0.0034836430752002265
1.48965e-05;0.0034791727699588883
1.48968e-05;0.00347470246471752
1.48970e-05;0.0034702321594761516
1.48973e-05;0.0034657618542348135
1.48975e-05;0.003461291548993445
1.48978e-05;0.003457812222844974
1.48980e-05;0.003457181171973027
1.48983e-05;0.0034565501211010754
1.48985e-05;0.0034559190702291237
1.48988e-05;0.003455288019357177
