Time(s);Current(A)
6.50000e-06;0.0015022436714608514
6.50025e-06;0.001539579758484533
6.50050e-06;0.001576915845508341
6.50075e-06;0.0016144331075909585
6.50100e-06;0.0016529814802768558
6.50125e-06;0.001691529852962884
6.50150e-06;0.0017300782256487813
6.50175e-06;0.0017686265983346786
6.50200e-06;0.0018071749710207067
6.50225e-06;0.0018383232406016111
6.50250e-06;0.0018654771828973502
6.50275e-06;0.0018926311251931812
6.50300e-06;0.0019197850674889203
6.50325e-06;0.0019469390097847513
6.50350e-06;0.00197409295208049
6.50375e-06;0.0020012468943762293
6.50400e-06;0.0020284008366720603
6.50425e-06;0.0020517709224784583
6.50450e-06;0.0020536061757872592
6.50475e-06;0.0020554414290960663
6.50500e-06;0.002057276682404867
6.50525e-06;0.0020591119357136678
6.50550e-06;0.0020609471890224744
6.50575e-06;0.0020627824423312753
6.50600e-06;0.002064617695640076
6.50625e-06;0.002066452948948883
6.50650e-06;0.0020564064908471496
6.50675e-06;0.0020399466837144682
6.50700e-06;0.0020234868765817314
6.50725e-06;0.0020016446903018477
6.50750e-06;0.001976897276408223
6.50775e-06;0.0019521498625146828
6.50800e-06;0.0019207646675976078
6.50825e-06;0.0018857966212693022
6.50850e-06;0.0018508285749411152
6.50875e-06;0.001815860528612928
6.50900e-06;0.0017808924822846227
6.50925e-06;0.0017459244359564357
6.50950e-06;0.0017098931071220607
6.50975e-06;0.0016678103831753817
6.51000e-06;0.0016257276592288451
6.51025e-06;0.0015836449352823088
6.51050e-06;0.0015415622113356298
6.51075e-06;0.0014994794873890932
6.51100e-06;0.0014573967634425567
6.51125e-06;0.0014164224849604343
6.51150e-06;0.001376046508137164
6.51175e-06;0.0013356705313137568
6.51200e-06;0.0012952945544904865
6.51225e-06;0.0012549185776672162
6.51250e-06;0.0012202559520793912
6.51275e-06;0.00118867720172981
6.51300e-06;0.0011570984513802288
6.51325e-06;0.0011255197010305404
6.51350e-06;0.0010939409506809591
6.51375e-06;0.00106934352184661
6.51400e-06;0.0010485143760499422
6.51425e-06;0.001032700618694523
6.51450e-06;0.0010195939996866376
6.51475e-06;0.0010115384550723994
6.51500e-06;0.0010062093108851279
6.51525e-06;0.0010059893441730886
6.51550e-06;0.0010085271399812635
6.51575e-06;0.0010164259184866423
6.51600e-06;0.0010272183755196276
6.51625e-06;0.0010432476704744227
6.51650e-06;0.001062103634773714
6.51675e-06;0.0010857833645343043
6.51700e-06;0.0011120668009891369
6.51725e-06;0.0011427751443408955
6.51750e-06;0.0011758719039210834
6.51775e-06;0.0012140531052686112
6.51800e-06;0.0012549787176313336
6.51825e-06;0.0012959043299941948
6.51850e-06;0.0013417613075174624
6.51875e-06;0.0013902800704412395
6.51900e-06;0.001438798833365181
6.51925e-06;0.0014915594064817128
6.51950e-06;0.0015466095663708847
6.51975e-06;0.0016016597262602428
6.52000e-06;0.0016567098861494146
6.52025e-06;0.0017117600460387727
6.52050e-06;0.0017669521939801293
6.52075e-06;0.001822952429893976
6.52100e-06;0.0018789526658080122
6.52125e-06;0.0019349529017218588
6.52150e-06;0.0019909531376357055
6.52175e-06;0.0020469533735497417
6.52200e-06;0.0020938990720585577
6.52225e-06;0.0021359574351771417
6.52250e-06;0.0021780157982958684
6.52275e-06;0.0022200741614144524
6.52300e-06;0.0022621325245330364
6.52325e-06;0.0023041908876517627
6.52350e-06;0.002346249250770347
6.52375e-06;0.002388307613888931
6.52400e-06;0.0024258898002290745
6.52425e-06;0.002437996993699078
6.52450e-06;0.0024501041871691225
6.52475e-06;0.0024622113806391263
6.52500e-06;0.0024743185741091297
6.52525e-06;0.0024864257675791743
6.52550e-06;0.002498532961049178
6.52575e-06;0.002510640154519182
6.52600e-06;0.0025227473479892265
6.52625e-06;0.002521081275914317
6.52650e-06;0.002511980857376462
6.52675e-06;0.002502880438838576
6.52700e-06;0.002483759093777191
6.52725e-06;0.0024592287889152707
6.52750e-06;0.0024346984840532674
6.52775e-06;0.0024101681791913474
6.52800e-06;0.002385637874329427
6.52825e-06;0.0023611075694674236
6.52850e-06;0.0023365772646055036
6.52875e-06;0.002302764658990729
6.52900e-06;0.0022639417789759517
6.52925e-06;0.0022251188989611745
6.52950e-06;0.002186296018946266
6.52975e-06;0.0021474731389314887
6.53000e-06;0.0021086502589167115
6.53025e-06;0.0020698273789018025
6.53050e-06;0.0020287106454507835
6.53075e-06;0.0019863557669046084
6.53100e-06;0.00194400088835829
6.53125e-06;0.0019016460098121148
6.53150e-06;0.0018592911312659396
6.53175e-06;0.0018177854827349299
6.53200e-06;0.001781113005378529
6.53225e-06;0.001744440528022128
6.53250e-06;0.001707768050665603
6.53275e-06;0.001671095573309202
6.53300e-06;0.0016344230959526769
6.53325e-06;0.0016045346175982936
6.53350e-06;0.001578307914210298
6.53375e-06;0.0015520812108222135
6.53400e-06;0.001532223366270649
6.53425e-06;0.0015158032179576036
6.53450e-06;0.0015048283528446523
6.53475e-06;0.0014967926688402263
6.53500e-06;0.0014941825727168305
6.53525e-06;0.0014945010268296892
6.53550e-06;0.0015004406233069196
6.53575e-06;0.001509414323766966
6.53600e-06;0.0015242641472583622
6.53625e-06;0.001542285704738459
6.53650e-06;0.0015658012355742835
6.53675e-06;0.0015922822288303462
6.53700e-06;0.0016249279199757414
6.53725e-06;0.001660901108132746
6.53750e-06;0.001696874296289629
6.53775e-06;0.0017395758994160416
6.53800e-06;0.001785909275113533
6.53825e-06;0.0018322426508108676
6.53850e-06;0.001885812537867764
6.53875e-06;0.001943288450873529
6.53900e-06;0.0020007643638791
6.53925e-06;0.0020582402768846704
6.53950e-06;0.0021157161898904355
6.53975e-06;0.002173192102896006
6.54000e-06;0.002234499870656514
6.54025e-06;0.0022978759450031317
6.54050e-06;0.0023612520193495353
6.54075e-06;0.0024246280936959384
6.54100e-06;0.0024880041680425563
6.54125e-06;0.00255138024238896
6.54150e-06;0.00261047216269426
6.54175e-06;0.0026672516404395545
6.54200e-06;0.002724031118184849
6.54225e-06;0.0027808105959303358
6.54250e-06;0.0028375900736756308
6.54275e-06;0.0028943695514209253
6.54300e-06;0.002937355072823873
6.54325e-06;0.002972895079568238
6.54350e-06;0.0030084350863126027
6.54375e-06;0.003043975093057088
6.54400e-06;0.003079515099801453
6.54425e-06;0.003115055106545818
6.54450e-06;0.003135043119748321
6.54475e-06;0.003146636688818422
6.54500e-06;0.0031582302578885228
6.54525e-06;0.003158782804952707
6.54550e-06;0.0031533757789151333
6.54575e-06;0.0031479687528775412
6.54600e-06;0.0031313026576157356
6.54625e-06;0.0031085592946823383
6.54650e-06;0.0030858159317488643
6.54675e-06;0.0030528212245180993
6.54700e-06;0.0030142931857084026
6.54725e-06;0.002975765146898575
6.54750e-06;0.002928117230262706
6.54775e-06;0.002875546709672957
6.54800e-06;0.00282297618908303
6.54825e-06;0.0027603912957827902
6.54850e-06;0.002692400980212739
6.54875e-06;0.0026244106646424567
6.54900e-06;0.002556420349072405
6.54925e-06;0.002488430033502353
6.54950e-06;0.002418854712952978
6.54975e-06;0.002340258749900226
6.55000e-06;0.002261662786847208
6.55025e-06;0.0021830668237944554
6.55050e-06;0.0021044708607417034
6.55075e-06;0.002025874897688685
6.55100e-06;0.0019480594021797594
6.55125e-06;0.001870665176855595
6.55150e-06;0.0017932709515311681
6.55175e-06;0.0017158767262070037
6.55200e-06;0.0016401725630459693
6.55225e-06;0.001574086947953867
6.55250e-06;0.0015080013328619883
6.55275e-06;0.0014419157177701098
6.55300e-06;0.0013758301026780074
6.55325e-06;0.0013186635269217964
6.55350e-06;0.0012663111492425974
6.55375e-06;0.0012182009013635411
6.55400e-06;0.0011723804127690687
6.55425e-06;0.001129793018546722
6.55450e-06;0.0010889507401518738
6.55475e-06;0.0010520209123288304
6.55500e-06;0.0010172028940077646
6.55525e-06;0.0009868268506014652
6.55550e-06;0.0009588484361646629
6.55575e-06;0.0009341493868689986
6.55600e-06;0.0009112204288087788
6.55625e-06;0.0008908320157037347
6.55650e-06;0.00087181490349514
6.55675e-06;0.0008556571660335116
6.55700e-06;0.0008410428230888152
6.55725e-06;0.0008301210626572751
6.55750e-06;0.0008211924343293291
6.55775e-06;0.0008122638060013833
6.55800e-06;0.0008062372823161461
6.55825e-06;0.0008017772173114198
6.55850e-06;0.0007973171523066784
6.55875e-06;0.000795513044559068
6.55900e-06;0.0007951425333948001
6.55925e-06;0.000794772022230531
6.55950e-06;0.0007972608732122529
6.55975e-06;0.0008012931119092652
6.56000e-06;0.000805325350606291
6.56025e-06;0.0008093575893033033
6.56050e-06;0.0008133898280003156
6.56075e-06;0.0008174220666973415
6.56100e-06;0.0008229846682330685
6.56125e-06;0.000829373308264287
6.56150e-06;0.0008357619482955273
6.56175e-06;0.0008421505883267458
6.56200e-06;0.0008485392283579643
6.56225e-06;0.0008549278683892044
6.56250e-06;0.0008607050840605267
6.56275e-06;0.0008661522733841519
6.56300e-06;0.0008715994627077586
6.56325e-06;0.0008772132469717552
6.56350e-06;0.000883775162894152
6.56375e-06;0.0008903370788165266
6.56400e-06;0.0008968989947389012
6.56425e-06;0.0009074615734373056
6.56450e-06;0.0009201835756244285
6.56475e-06;0.0009329055778115514
6.56500e-06;0.0009489768679334033
6.56525e-06;0.0009668559912672449
6.56550e-06;0.0009847351146010865
6.56575e-06;0.0010061685058800527
6.56600e-06;0.0010295203717006394
6.56625e-06;0.0010569428806949477
6.56650e-06;0.001086562586247904
6.56675e-06;0.0011161822918007603
6.56700e-06;0.0011495877325521746
6.56725e-06;0.001185036586099549
6.56750e-06;0.0012204854396469236
6.56775e-06;0.0012596223960623923
6.56800e-06;0.001300750066618699
6.56825e-06;0.001341877737175006
6.56850e-06;0.0013868961972329195
6.56875e-06;0.0014340147748734232
6.56900e-06;0.0014811333525139268
6.56925e-06;0.00152825193015459
6.56950e-06;0.0015753705077950937
6.56975e-06;0.0016224890854355974
6.57000e-06;0.0016710151790397445
6.57025e-06;0.0017203010025190393
6.57050e-06;0.001769586825998334
6.57075e-06;0.0018188726494777958
6.57100e-06;0.0018681584729570906
6.57125e-06;0.0019174442964365523
6.57150e-06;0.0019587758473318083
6.57175e-06;0.001995813948863055
6.57200e-06;0.0020328520503944273
6.57225e-06;0.002069890151925674
6.57250e-06;0.0021069282534569205
6.57275e-06;0.002143966354988293
6.57300e-06;0.0021810044565195395
6.57325e-06;0.002218042558050786
6.57350e-06;0.0022550806595821584
6.57375e-06;0.002292118761113405
6.57400e-06;0.0023291568626446517
6.57425e-06;0.0023628674066968666
6.57450e-06;0.002377640025129272
6.57475e-06;0.0023924126435616775
6.57500e-06;0.002407185261994133
6.57525e-06;0.0024219578804265387
6.57550e-06;0.0024367304988589947
6.57575e-06;0.0024515031172914
6.57600e-06;0.0024662757357238056
6.57625e-06;0.0024810483541562616
6.57650e-06;0.002495820972588667
6.57675e-06;0.0025105935910210726
6.57700e-06;0.0025253662094535285
6.57725e-06;0.0025307858956297967
6.57750e-06;0.00253115718289621
6.57775e-06;0.002531528470162625
6.57800e-06;0.002531899757429038
6.57825e-06;0.0025322710446954518
6.57850e-06;0.0025326423319618663
6.57875e-06;0.00253301361922828
6.57900e-06;0.002533384906494693
6.57925e-06;0.0025337561937611077
6.57950e-06;0.0025341274810275214
6.57975e-06;0.0025336364254794465
6.58000e-06;0.0025282375706887484
6.58025e-06;0.0025228387158980504
6.58050e-06;0.002517439861107334
6.58075e-06;0.002512041006316636
6.58100e-06;0.002506642151525938
6.58125e-06;0.0025012432967352217
6.58150e-06;0.0024958444419445236
6.58175e-06;0.0024904455871538255
6.58200e-06;0.0024850467323631093
6.58225e-06;0.002479647877572411
6.58250e-06;0.0024748241426077637
6.58275e-06;0.0024703108380218376
6.58300e-06;0.0024657975334359265
6.58325e-06;0.0024612842288500155
6.58350e-06;0.0024567709242640894
6.58375e-06;0.0024522576196781783
6.58400e-06;0.002447744315092252
6.58425e-06;0.002443832983329531
6.58450e-06;0.0024396799610658763
6.58475e-06;-0.018840603402402848
6.58500e-06;-0.023070278190552226
6.58525e-06;-0.016205882347368653
6.58550e-06;-0.011192880388863206
6.58575e-06;0.0063895235755465195
6.58600e-06;0.012329238788342446
6.58625e-06;0.009795386201850978
6.58650e-06;0.004993029384706073
6.58675e-06;-0.0035643024044045716
6.58700e-06;-0.007619146881319759
6.58725e-06;-0.005920568106802746
6.58750e-06;-0.0013988201191945976
6.58775e-06;0.005188991132862793
6.58800e-06;0.008585975685929479
6.58825e-06;0.008165076406122301
6.58850e-06;0.005053218257356028
6.58875e-06;-0.00044352306836265183
6.58900e-06;-0.003086453916661862
6.58925e-06;-0.002101109204317585
6.58950e-06;0.0006703059490154751
6.58975e-06;0.004748686964957358
6.59000e-06;0.0068377104653683535
6.59025e-06;0.006542272371089132
6.59050e-06;0.0045666224018987775
6.59075e-06;0.0011012872348535093
6.59100e-06;-0.000573217606133216
6.59125e-06;2.7329344291971433e-05
6.59150e-06;0.001748295198396789
6.59175e-06;0.004289099094495189
6.59200e-06;0.005584670212073429
6.59225e-06;0.005387438404473636
6.59250e-06;0.004138514349197395
6.59275e-06;0.0019572276233874785
6.59300e-06;0.0008984035509697651
6.59325e-06;0.0012651743843258107
6.59350e-06;0.002333842474381095
6.59375e-06;0.003915291529136454
6.59400e-06;0.004715297301827337
6.59425e-06;0.004578658708440847
6.59450e-06;0.0037818065095847784
6.59475e-06;0.002399631942568965
6.59500e-06;0.001719358136307447
6.59525e-06;0.0019308845800072453
6.59550e-06;0.0025809192453266545
6.59575e-06;0.003551057946182142
6.59600e-06;0.004030701860091591
6.59625e-06;0.0039227774612774794
6.59650e-06;0.003400580621544762
6.59675e-06;0.002511154084192421
6.59700e-06;0.0020609045683371613
6.59725e-06;0.002168834832931406
6.59750e-06;0.002551061237632563
6.59775e-06;0.0031334897570756064
6.59800e-06;0.0034084632028308923
6.59825e-06;0.003315301867019307
6.59850e-06;0.0029626829172215525
6.59875e-06;0.002380192440796859
6.59900e-06;0.002073056883160615
6.59925e-06;0.002115887358759199
6.59950e-06;0.0023309320859679094
6.59975e-06;0.0026718615309570142
6.60000e-06;0.0028207797452698027
6.60025e-06;0.002739792731747627
6.60050e-06;0.0024970906531933007
6.60075e-06;0.002111316533373761
6.60100e-06;0.0018990393322545597
6.60125e-06;0.0019070740724101674
6.60150e-06;0.0020241591118840205
6.60175e-06;0.0022213622744678657
6.60200e-06;0.002299652658894278
6.60225e-06;0.0022354023953902085
6.60250e-06;0.002071433876681383
6.60275e-06;0.001819531049907266
6.60300e-06;0.0016780884213617973
6.60325e-06;0.0016765270571286806
6.60350e-06;0.0017454961266657823
6.60375e-06;0.001867567718786349
6.60400e-06;0.0019186095309275872
6.60425e-06;0.001883896294995704
6.60450e-06;0.0017900962862064285
6.60475e-06;0.0016444006139512597
6.60500e-06;0.00157088686153606
6.60525e-06;0.0015877815056785374
6.60550e-06;0.0016514415759116352
6.60575e-06;0.0017507509945765573
6.60600e-06;0.0018077583954472828
6.60625e-06;0.0018130489461324019
6.60650e-06;0.001783136192519164
6.60675e-06;0.0017223323082217901
6.60700e-06;0.001708163232143494
6.60725e-06;0.0017518460132516104
6.60750e-06;0.00182584352677905
6.60775e-06;0.001922994944695377
6.60800e-06;0.0019942763518815574
6.60825e-06;0.0020335979931214686
6.60850e-06;0.0020511109683392023
6.60875e-06;0.002049323393250781
6.60900e-06;0.0020766015401955554
6.60925e-06;0.0021397735900151537
6.60950e-06;0.0022213926447774406
6.60975e-06;0.0023167768909123886
6.61000e-06;0.002395022564366542
6.61025e-06;0.0024521218927135062
6.61050e-06;0.0024942400082927983
6.61075e-06;0.0025227538838479293
6.61100e-06;0.0025677652562668776
6.61125e-06;0.0026333545089046112
6.61150e-06;0.002708396424034513
6.61175e-06;0.0027897622878553124
6.61200e-06;0.0028578997854089056
6.61225e-06;0.002910104352489839
6.61250e-06;0.0029455857167738336
6.61275e-06;0.0029770262355702775
6.61300e-06;0.003013796984536567
6.61325e-06;0.003058646713208773
6.61350e-06;0.003106934257270909
6.61375e-06;0.0031556700183545715
6.61400e-06;0.0031950858576294794
6.61425e-06;0.0032238336377655515
6.61450e-06;0.003241841937814937
6.61475e-06;0.0032572992538062594
6.61500e-06;0.0032727565697975814
6.61525e-06;0.003293427537052089
6.61550e-06;0.003313785105642899
6.61575e-06;0.003333560343530997
6.61600e-06;0.0033533355814191618
6.61625e-06;0.003363566805611825
6.61650e-06;0.003365075276217784
6.61675e-06;0.003364809694063588
6.61700e-06;0.0033645441119093938
6.61725e-06;0.0033670933069502845
6.61750e-06;0.0033659477032865434
6.61775e-06;0.0033634106408949047
6.61800e-06;0.003360873578503266
6.61825e-06;0.0033583365161116187
6.61850e-06;0.00335579945371998
6.61875e-06;0.0033477360517764365
6.61900e-06;0.003337984359362153
6.61925e-06;0.003328232666947869
6.61950e-06;0.0033184809745335523
6.61975e-06;0.0033087292821192683
6.62000e-06;0.0032956045090882834
6.62025e-06;0.003281449263751186
6.62050e-06;0.003267294018414136
6.62075e-06;0.0032531387730770868
6.62100e-06;0.003238983527739989
6.62125e-06;0.0032248282824029395
6.62150e-06;0.0032106730370658897
6.62175e-06;0.003196517791728792
6.62200e-06;0.003182362546391743
6.62225e-06;0.003169121210426667
6.62250e-06;0.003158401834643741
6.62275e-06;0.003147682458860852
6.62300e-06;0.003136963083077926
6.62325e-06;0.0031262437072950367
6.62350e-06;0.0031155243315121473
6.62375e-06;0.0031048049557292215
6.62400e-06;0.003094085579946332
6.62425e-06;0.003083366204163443
6.62450e-06;0.003072646828380517
6.62475e-06;0.003067198869658784
6.62500e-06;0.0030633613228755086
6.62525e-06;0.0030595237760922206
6.62550e-06;0.0030556862293089457
6.62575e-06;0.0030518486825256708
6.62600e-06;0.0030480111357423824
6.62625e-06;0.0030441735889591075
6.62650e-06;0.0030403360421758325
6.62675e-06;0.003036498495392544
6.62700e-06;0.0030326609486092692
6.62725e-06;0.0030288234018259813
6.62750e-06;0.003024985855042706
6.62775e-06;0.003021148308259431
6.62800e-06;0.003017310761476143
6.62825e-06;0.0030147976238041147
6.62850e-06;0.003015939232593164
6.62875e-06;0.003017080841382217
6.62900e-06;0.0030182224501712662
6.62925e-06;0.0030193640589603154
6.62950e-06;0.0030205056677493685
6.62975e-06;0.0030216472765384177
6.63000e-06;0.003022788885327467
6.63025e-06;0.00302393049411652
6.63050e-06;0.0030250721029055692
6.63075e-06;0.0030262137116946184
6.63100e-06;0.0030273553204836715
6.63125e-06;0.0030284969292727207
6.63150e-06;0.003029638538061774
6.63175e-06;0.003030780146850823
6.63200e-06;0.0030312877905698853
6.63225e-06;0.0030316017586785324
6.63250e-06;0.0030319157267871782
6.63275e-06;0.0030322296948958236
6.63300e-06;0.0030325436630044707
6.63325e-06;0.0030328576311131165
6.63350e-06;0.0030331715992217624
6.63375e-06;0.003033485567330409
6.63400e-06;0.003033799535439055
6.63425e-06;0.0030341135035477007
6.63450e-06;0.0030344274716563474
6.63475e-06;0.003034741439764993
6.63500e-06;0.003035055407873639
6.63525e-06;0.0030353693759822857
6.63550e-06;0.0030346249298475528
6.63575e-06;0.0030309597580269977
6.63600e-06;0.0030272945862064556
6.63625e-06;0.003023629414385913
6.63650e-06;0.0030199642425653584
6.63675e-06;0.003016299070744816
6.63700e-06;0.003012633898924274
6.63725e-06;0.003008968727103719
6.63750e-06;0.0030053035552831766
6.63775e-06;0.003001638383462634
6.63800e-06;0.0029979732116420794
6.63825e-06;0.0029943080398215373
6.63850e-06;0.002990642868000995
6.63875e-06;0.00298697769618044
6.63900e-06;0.0029833125243598976
6.63925e-06;0.0029783314780452348
6.63950e-06;0.0029729484335639387
6.63975e-06;0.0029675676005744174
6.64000e-06;0.002962187443193103
6.64025e-06;0.002956807285811807
6.64050e-06;0.002951427128430511
6.64075e-06;0.0029460469710491967
6.64100e-06;0.0029406668136679
6.64125e-06;0.002935286656286604
6.64150e-06;0.00292990649890529
6.64175e-06;0.0029245263415239938
6.64200e-06;0.0029191461841426977
6.64225e-06;0.0029132219284509074
6.64250e-06;0.002907131451341952
6.64275e-06;0.0029010409742329965
6.64300e-06;0.0028949504971240206
6.64325e-06;0.002888860020015065
6.64350e-06;0.0028827695429061097
6.64375e-06;0.002876679065797134
6.64400e-06;0.0028705885886881784
6.64425e-06;0.0028644981115792025
6.64450e-06;0.002858407634470247
6.64475e-06;0.002842061698952921
6.64500e-06;0.0028225827325152166
6.64525e-06;0.0028031037660775785
6.64550e-06;0.0027836247996399404
6.64575e-06;0.0027641458332022363
6.64600e-06;0.0027446668667645982
6.64625e-06;0.00272518790032696
6.64650e-06;0.002705708933889256
6.64675e-06;0.002686229967451618
6.64700e-06;0.00266675100101398
6.64725e-06;0.002643165964379868
6.64750e-06;0.002608250104524517
6.64775e-06;0.0025733342446691656
6.64800e-06;0.0025384183848136963
6.64825e-06;0.0025035025249583454
