Time(s);Current(A)
1.20000e-05;0.006226362641328863
1.20003e-05;0.006280469456115655
1.20005e-05;0.006334191079904402
1.20008e-05;0.006384100889508351
1.20010e-05;0.006433340357938512
1.20013e-05;0.006475946192641163
1.20015e-05;0.006518552027343525
1.20018e-05;0.006559931057422785
1.20020e-05;0.006589169743388363
1.20023e-05;0.006618408429353743
1.20025e-05;0.0066476471153193205
1.20028e-05;0.006676885801284898
1.20030e-05;0.006704513300787954
1.20033e-05;0.006716196649354248
1.20035e-05;0.006727879997920542
1.20038e-05;0.0067395633464867565
1.20040e-05;0.00675124669505305
1.20043e-05;0.006761689674187216
1.20045e-05;0.00675985807312381
1.20048e-05;0.006758026472060391
1.20050e-05;0.006755482775511947
1.20052e-05;0.006745892248469234
1.20055e-05;0.006735768680849285
1.20058e-05;0.006720370193400593
1.20060e-05;0.006704619721811435
1.20063e-05;0.0066851768490728295
1.20065e-05;0.006663468838580419
1.20068e-05;0.006639651221204163
1.20070e-05;0.006613879442339673
1.20073e-05;0.00658630818700851
1.20075e-05;0.006557095464842362
1.20078e-05;0.006526429969232683
1.20080e-05;0.006494563901602405
1.20083e-05;0.006461771970970608
1.20085e-05;0.00642829405613171
1.20088e-05;0.006394537673537894
1.20090e-05;0.006362415892278119
1.20093e-05;0.0063323453672664565
1.20095e-05;0.006307258011305788
1.20098e-05;0.000190756494191909
1.20100e-05;-0.023497613036176132
1.20103e-05;-0.015122390165425348
1.20105e-05;-0.009601227347445864
1.20108e-05;-0.001586928308931675
1.20110e-05;0.015689902151655985
1.20113e-05;0.013747903372003314
1.20115e-05;0.012966140877021274
1.20118e-05;0.0075570783833789
1.20120e-05;-0.001317683728068073
1.20123e-05;-0.003869952652460075
1.20125e-05;-0.0016326114897387881
1.20128e-05;0.0030970892111423804
1.20130e-05;0.00970384706652538
1.20133e-05;0.012108660377370451
1.20135e-05;0.01136234989739117
1.20137e-05;0.007826677305217699
1.20140e-05;0.0021597249449070146
1.20143e-05;0.00048143918409468195
1.20145e-05;0.0018241449436109571
1.20148e-05;0.00474333127388915
1.20150e-05;0.008849511712941752
1.20153e-05;0.010331952466884748
1.20155e-05;0.009846925100622957
1.20158e-05;0.007619588733402882
1.20160e-05;0.004061099483782884
1.20163e-05;0.0030040275245903796
1.20165e-05;0.003841342629612929
1.20168e-05;0.005667561621932248
1.20170e-05;0.008238241743091512
1.20173e-05;0.009166087085572271
1.20175e-05;0.008862084044752081
1.20178e-05;0.007467197597594516
1.20180e-05;0.005238918499265877
1.20183e-05;0.004577812137623478
1.20185e-05;0.0051034119456944745
1.20188e-05;0.006248359295011269
1.20190e-05;0.007859414839648707
1.20193e-05;0.00844114107631916
1.20195e-05;0.0082510058143126
1.20198e-05;0.007377322018223405
1.20200e-05;0.005981386869083773
1.20203e-05;0.005566843447741029
1.20205e-05;0.005895244564617753
1.20208e-05;0.006611101485784867
1.20210e-05;0.0076183511632540715
1.20213e-05;0.007980228173539534
1.20215e-05;0.00785802369374788
1.20218e-05;0.00730760801400908
1.20220e-05;0.006431487702270918
1.20222e-05;0.006172778859361156
1.20225e-05;0.006382335303236876
1.20228e-05;0.006837295730163482
1.20230e-05;0.007477308862108056
1.20233e-05;0.007715438460129489
1.20235e-05;0.007652591514598214
1.20238e-05;0.00732363357947161
1.20240e-05;0.006792639810835415
1.20243e-05;0.006650209638558701
1.20245e-05;0.006802730391099653
1.20248e-05;0.007110423859448332
1.20250e-05;0.00753531721563892
1.20253e-05;0.007709602337795207
1.20255e-05;0.007696350832622953
1.20258e-05;0.007517260654142774
1.20260e-05;0.007212325438720071
1.20263e-05;0.0071513324936113825
1.20265e-05;0.007275467346062388
1.20268e-05;0.007497002449981167
1.20270e-05;0.007791986677303725
1.20273e-05;0.007929873211831326
1.20275e-05;0.007950024661982724
1.20278e-05;0.007865886580940383
1.20280e-05;0.007702361178238635
1.20283e-05;0.00769092340275938
1.20285e-05;0.007794562275457355
1.20288e-05;0.007958160629003001
1.20290e-05;0.008166554806276866
1.20293e-05;0.008275174137079563
1.20295e-05;0.008308527732927966
1.20298e-05;0.008274886663561767
1.20300e-05;0.00818969953325077
1.20303e-05;0.00819780252200834
1.20305e-05;0.008275847755112859
1.20307e-05;0.008389147505645652
1.20310e-05;0.008528043596550336
1.20313e-05;0.00860182415902273
1.20315e-05;0.008625688090925152
1.20318e-05;0.008604768154087828
1.20320e-05;0.008548914749305537
1.20323e-05;0.008549116798618174
1.20325e-05;0.008590926540223306
1.20328e-05;0.008652737751363222
1.20330e-05;0.008728623663564838
1.20333e-05;0.008761886689912908
1.20335e-05;0.008762177777460536
1.20338e-05;0.008732837230682345
1.20340e-05;0.00868016377766985
1.20343e-05;0.008661276422747508
1.20345e-05;0.008667246236811192
1.20348e-05;0.008684662887146154
1.20350e-05;0.008709937082935623
1.20353e-05;0.008707679693401464
1.20355e-05;0.00868406217763878
1.20358e-05;0.00864130310702853
1.20360e-05;0.00858347519946627
1.20363e-05;0.008546480935309884
1.20365e-05;0.008524852011101492
1.20368e-05;0.008510310224545242
1.20370e-05;0.0085007326251352
1.20373e-05;0.008474075827744381
1.20375e-05;0.008434332770828584
1.20378e-05;0.008383018356446703
1.20380e-05;0.00832280941951072
1.20383e-05;0.008276320621327923
1.20385e-05;0.00824024924931884
1.20388e-05;0.008209534022332043
1.20390e-05;0.008182970308794656
1.20392e-05;0.00814687557636114
1.20395e-05;0.008103875048857732
1.20398e-05;0.008055045233406607
1.20400e-05;0.008002186658275276
1.20403e-05;0.007959589878186575
1.20405e-05;0.007925310330693294
1.20408e-05;0.007896303922698905
1.20410e-05;0.007871937542502502
1.20413e-05;0.007843766317421324
1.20415e-05;0.007813560596821369
1.20418e-05;0.007781988172880032
1.20420e-05;0.007749912075361583
1.20423e-05;0.007725960483936472
1.20425e-05;0.007708747539212647
1.20428e-05;0.007696280372116894
1.20430e-05;0.007687493486129435
1.20433e-05;0.007678759077363463
1.20435e-05;0.007669371978949258
1.20438e-05;0.007660226469619959
1.20440e-05;0.00765479488625044
1.20443e-05;0.007649417196873948
1.20445e-05;0.007652033578704535
1.20448e-05;0.0076605881136391045
1.20450e-05;0.007669227217061686
1.20453e-05;0.007677866320484268
1.20455e-05;0.007687974052114055
1.20458e-05;0.007700546189173762
1.20460e-05;0.00771315381330719
1.20463e-05;0.007725761437440532
1.20465e-05;0.007744610616706335
1.20468e-05;0.007767268004674871
1.20470e-05;0.007789979392199719
1.20473e-05;0.007812690779724721
1.20475e-05;0.00783611620911276
1.20477e-05;0.007860488664394684
1.20480e-05;0.007884874725129274
1.20483e-05;0.007909260785863865
1.20485e-05;0.007936686917697142
1.20488e-05;0.007965228500649605
1.20490e-05;0.007993785644755039
1.20493e-05;0.008022342788860473
1.20495e-05;0.008049813952862065
1.20498e-05;0.00807593550542969
1.20500e-05;0.008102037683228439
1.20503e-05;0.00812813986102701
1.20505e-05;0.008153949200572958
1.20508e-05;0.008178638012754404
1.20510e-05;0.008203310610400949
1.20513e-05;0.008225595520600872
1.20515e-05;0.008243635242109283
1.20518e-05;0.008261613803530396
1.20520e-05;0.008279592364951632
1.20523e-05;0.008291140724654743
1.20525e-05;0.008302595681881578
1.20528e-05;0.00831405063910849
1.20530e-05;0.008319462785660222
1.20533e-05;0.00832478715681928
1.20535e-05;0.008319864859641863
1.20538e-05;0.008314793723557387
1.20540e-05;0.008309722587472946
1.20543e-05;0.008304651451388468
1.20545e-05;0.008299580315303992
1.20548e-05;0.00828782543148803
1.20550e-05;0.008268992734378264
1.20553e-05;0.008250160037268498
1.20555e-05;0.00823132734015886
1.20558e-05;0.008212494643049094
1.20560e-05;0.008193661945939328
1.20562e-05;0.008166913853389253
1.20565e-05;0.008140050785047044
1.20568e-05;0.008109968790894786
1.20570e-05;0.00807984003994489
1.20573e-05;0.008046871492333359
1.20575e-05;0.008013861694998688
1.20578e-05;0.007978675347515556
1.20580e-05;0.00794345738435671
1.20583e-05;0.007907213110330496
1.20585e-05;0.007870563783525363
1.20588e-05;0.00783370040630041
1.20590e-05;0.007796839051119649
1.20593e-05;0.007760081960944398
1.20595e-05;0.007723683481645381
1.20598e-05;0.007687868980990795
1.20600e-05;0.007652850980541242
1.20603e-05;0.007618975389134808
1.20605e-05;0.007586467045326711
1.20608e-05;0.0075555545088033275
1.20610e-05;0.007526488450975001
1.20613e-05;0.00749944688320905
1.20615e-05;0.007474703604555577
1.20618e-05;0.0074541728888616425
1.20620e-05;0.007433702884332882
1.20623e-05;0.007420117332709056
1.20625e-05;0.00740663178182867
1.20628e-05;0.007405730013923296
1.20630e-05;0.007405011032895692
1.20633e-05;0.007404292051868093
1.20635e-05;0.007403573070840488
1.20638e-05;0.007402854089812884
1.20640e-05;0.00742057730919463
1.20643e-05;0.0074385684124265855
1.20645e-05;0.007456559515658542
1.20647e-05;0.007474550618890375
1.20650e-05;0.007492541722122331
1.20653e-05;0.007524205372997219
1.20655e-05;0.007556067625699319
1.20658e-05;0.007587929878401635
1.20660e-05;0.007628652094729786
1.20663e-05;0.007669503007261003
1.20665e-05;0.007710353919791943
1.20668e-05;0.007758432612834743
1.20670e-05;0.007806616293657195
1.20673e-05;0.00785479997447932
1.20675e-05;0.007907981642346294
1.20678e-05;0.00796123590892624
1.20680e-05;0.008014490175505824
1.20683e-05;0.008070702200237546
1.20685e-05;0.008126957188152902
1.20688e-05;0.008183212176067878
1.20690e-05;0.008239793967801367
1.20693e-05;0.008296380506553288
1.20695e-05;0.008352967045304825
1.20698e-05;0.008407150290809929
1.20700e-05;0.008461298627061506
1.20703e-05;0.008515446963312715
1.20705e-05;0.008565589810819627
1.20708e-05;0.008615674476237298
1.20710e-05;0.008660949801196305
1.20713e-05;0.008706155267645566
1.20715e-05;0.00874503028710101
1.20718e-05;0.00878381335307546
1.20720e-05;0.008813459681966496
1.20723e-05;0.00884297329435606
1.20725e-05;0.008858869163002133
1.20728e-05;0.008874567225879029
1.20730e-05;0.008890265288755923
1.20732e-05;0.008888231009683818
1.20735e-05;0.008885939157873767
1.20738e-05;0.008883647306063716
1.20740e-05;0.008871412015181664
1.20743e-05;0.008848647032259883
1.20745e-05;0.008825882049338103
1.20748e-05;0.008803117066416323
1.20750e-05;0.008765207310006021
1.20753e-05;0.008727077566817402
1.20755e-05;0.008681567657067573
1.20758e-05;0.00863129083766768
1.20760e-05;0.008576321508432346
1.20763e-05;0.008516791448386301
1.20765e-05;0.00845303671206209
1.20768e-05;0.008385475247865806
1.20770e-05;0.008314527986932933
1.20773e-05;0.008240613133102941
1.20775e-05;0.0081641497681991
1.20778e-05;0.008085500072108774
1.20780e-05;0.00800494002508392
1.20783e-05;0.007922799446578154
1.20785e-05;0.007839542982390955
1.20788e-05;0.007755681288568922
1.20790e-05;0.00767173025114565
1.20793e-05;0.007588202150875028
1.20795e-05;0.007505610592156034
1.20798e-05;0.0074244324798573135
1.20800e-05;0.007345091860145922
1.20803e-05;0.007268046902686161
1.20805e-05;0.007193837984799495
1.20808e-05;0.0071230365051818244
1.20810e-05;0.007056216131870923
1.20813e-05;0.006993947805607057
1.20815e-05;0.00693680472209958
1.20817e-05;0.006885337619681314
1.20820e-05;0.006839976653531962
1.20823e-05;0.006800956536514834
1.20825e-05;0.006771624590585142
1.20828e-05;0.006742432051653176
1.20830e-05;0.00673313392464504
1.20833e-05;0.006724124775719466
1.20835e-05;0.006715115626793954
1.20838e-05;0.00670610647786838
1.20840e-05;0.0067239355187618316
1.20843e-05;0.0067421544002123635
1.20845e-05;0.0067603732816630185
1.20848e-05;0.0067785921631136736
1.20850e-05;0.006818571917854234
1.20853e-05;0.00685886776213098
1.20855e-05;0.006899163606407726
1.20858e-05;0.006955996091075326
1.20860e-05;0.007013068780211196
1.20863e-05;0.007070141469347065
1.20865e-05;0.007140947262748649
1.20868e-05;0.007211952537600767
1.20870e-05;0.007282957812452883
1.20873e-05;0.007362886774613644
1.20875e-05;0.007442945358603383
1.20878e-05;0.0075283392903199966
1.20880e-05;0.007613810721112822
1.20883e-05;0.007702858863637247
1.20885e-05;0.007791958960011997
1.20888e-05;0.007882674715711534
1.20890e-05;0.007973413939817608
1.20893e-05;0.008063784591640076
1.20895e-05;0.00815414988973183
1.20898e-05;0.008242148155113689
1.20900e-05;0.008330112037947408
1.20902e-05;0.00841357823733471
1.20905e-05;0.008496979105214101
1.20908e-05;0.008573626333515803
1.20910e-05;0.008650175461213229
1.20913e-05;0.008717700764383753
1.20915e-05;0.008785094991173227
1.20918e-05;0.008838274475860403
1.20920e-05;0.008891247483022457
1.20923e-05;0.008944220490184868
1.20925e-05;0.008975035020396491
1.20928e-05;0.009005527685642464
1.20930e-05;0.009036020350888645
1.20933e-05;0.009066513016134826
1.20935e-05;0.009070368875236675
1.20938e-05;0.009073837818996481
1.20940e-05;0.009077306762756285
1.20943e-05;0.009080775706516067
1.20945e-05;0.009064559539674872
1.20948e-05;0.009048057434975205
1.20950e-05;0.009019390608940662
1.20953e-05;0.008990547083143533
1.20955e-05;0.008953056566996978
1.20958e-05;0.0089099435345494
1.20960e-05;0.008861514451188629
1.20963e-05;0.008808108169574606
1.20965e-05;0.00875010134197758
1.20968e-05;0.008687870236051257
1.20970e-05;0.008621793860080907
1.20973e-05;0.008552251262354864
1.20975e-05;0.008479620573171826
1.20978e-05;0.008404288171391812
1.20980e-05;0.008326677275413932
1.20983e-05;0.008247257536421249
1.20985e-05;0.00816652038604427
1.20987e-05;0.008084962152544213
1.20990e-05;0.00800307555889923
1.20993e-05;0.00792135511072835
1.20995e-05;0.007840294422330987
1.20998e-05;0.007760394438576604
1.21000e-05;0.00768217594775834
1.21003e-05;0.007606190318469039
1.21005e-05;0.007533003588152578
1.21008e-05;0.00746318200093331
1.21010e-05;0.007397292259931242
1.21013e-05;0.007338398461975677
1.21015e-05;0.0072796054648240635
1.21018e-05;0.007228234861691925
1.21020e-05;0.007180702318483675
1.21023e-05;0.007137066428620952
1.21025e-05;0.007093486352895039
1.21028e-05;0.007057123577313278
1.21030e-05;0.007020865637279206
1.21033e-05;0.006984607697245134
1.21035e-05;0.006957163974420163
1.21038e-05;0.006929848283306691
1.21040e-05;0.006909216770659118
1.21043e-05;0.006888682349652419
1.21045e-05;0.00686814792864558
1.21048e-05;0.00685472197153234
1.21050e-05;0.006841399269056448
1.21053e-05;0.0068280765665804655
1.21055e-05;0.006818655248801346
1.21058e-05;0.006813365336577565
1.21060e-05;0.006808075424353749
1.21063e-05;0.0068027855121299335
1.21065e-05;0.00680652232334286
1.21068e-05;0.006810390253046176
1.21070e-05;0.006814258182749493
1.21072e-05;0.006818126112452783
1.21075e-05;0.006821994042156099
1.21078e-05;0.006825861971859416
1.21080e-05;0.006829729901562706
1.21083e-05;0.0068335978312660224
1.21085e-05;0.006837465760969339
1.21088e-05;0.006844325405030049
1.21090e-05;0.006854353151258783
1.21093e-05;0.006864380897487586
1.21095e-05;0.006874408643716389
1.21098e-05;0.006884436389945123
1.21100e-05;0.006894464136173925
1.21103e-05;0.006904491882402728
1.21105e-05;0.006914519628631462
1.21108e-05;0.006924547374860265
1.21110e-05;0.006934575121089067
1.21113e-05;0.006943775566641225
1.21115e-05;0.006952963995162382
1.21118e-05;0.006962661677666847
1.21120e-05;0.006972366757386206
1.21123e-05;0.006986448575598478
1.21125e-05;0.007000593968523025
1.21128e-05;0.0070226576527206135
1.21130e-05;0.007044836354777022
1.21133e-05;0.007067015056833429
1.21135e-05;0.007089193758889687
1.21138e-05;0.007111372460946095
1.21140e-05;0.007146254284446201
1.21143e-05;0.007181320628289901
1.21145e-05;0.007216386972133838
1.21148e-05;0.007251453315977775
1.21150e-05;0.007286519659821474
1.21153e-05;0.0073340059257329185
1.21155e-05;0.007381672598350115
1.21158e-05;0.007429339270966989
1.21160e-05;0.007477005943584187
1.21163e-05;0.007524672616201383
1.21165e-05;0.007582187466795151
1.21168e-05;0.007639845367992823
1.21170e-05;0.007697503269190495
1.21173e-05;0.007755161170388166
1.21175e-05;0.007812819071585448
1.21178e-05;0.007874711927990101
1.21180e-05;0.007936666299621246
1.21183e-05;0.007998620671251972
1.21185e-05;0.008061821976926595
1.21188e-05;0.008125041395054926
1.21190e-05;0.00818826081318283
1.21193e-05;0.008249762675290059
1.21195e-05;0.008311239588881284
1.21198e-05;0.008372716502472094
1.21200e-05;0.00843006644687457
1.21203e-05;0.008487356444611183
1.21205e-05;0.008544646442347408
1.21208e-05;0.00859521799005751
1.21210e-05;0.008645691948311371
1.21213e-05;0.008696165906564888
1.21215e-05;0.008736575653606759
1.21218e-05;0.008776839212034253
1.21220e-05;0.008817102770461473
1.21223e-05;0.008840298479300108
1.21225e-05;0.008863246267538665
1.21228e-05;0.008886194055777065
1.21230e-05;0.008909141844015622
1.21233e-05;0.008932089632254179
1.21235e-05;0.008932283980060273
1.21238e-05;0.008932147820699864
1.21240e-05;0.008932011661339456
1.21243e-05;0.008931875501979047
1.21245e-05;0.008931739342618638
1.21248e-05;0.00891391954714942
1.21250e-05;0.008895842886417074
1.21253e-05;0.008877766225684605
1.21255e-05;0.008849766264937135
1.21258e-05;0.008821622162393543
1.21260e-05;0.008786259459224068
1.21263e-05;0.008750791901614987
1.21265e-05;0.008709024190626781
1.21268e-05;0.008667164966188398
1.21270e-05;0.00862124456171927
1.21273e-05;0.008572915116283292
1.21275e-05;0.008522469537626465
1.21278e-05;0.008470176099986891
1.21280e-05;0.008416317712078432
1.21283e-05;0.008361208707564741
1.21285e-05;0.008305191413122883
1.21288e-05;0.00824861865333146
1.21290e-05;0.008191839727493624
1.21293e-05;0.008135206635538846
1.21295e-05;0.008079068663435955
1.21298e-05;0.008023775975139058
1.21300e-05;0.007969684255864973
1.21303e-05;0.007917173138532152
1.21305e-05;0.007866636372575175
1.21308e-05;0.007818475251348427
1.21310e-05;0.007773089338905413
1.21313e-05;0.007732643464041025
1.21315e-05;0.007692268767786295
1.21318e-05;0.007659435804022269
1.21320e-05;0.007626712388379513
1.21323e-05;0.007607896678363665
1.21325e-05;0.007589282985990603
1.21328e-05;0.007570669293617666
1.21330e-05;0.007552055601244604
1.21333e-05;0.007533441908871541
1.21335e-05;0.0075357286976411395
1.21338e-05;0.007538319078250182
1.21340e-05;0.007540909458859225
1.21343e-05;0.007543499839468267
1.21345e-05;0.007546090220077292
1.21348e-05;0.007571508634219793
1.21350e-05;0.007597258639039254
1.21353e-05;0.007623008643858541
1.21355e-05;0.007648758648678002
1.21358e-05;0.007674508653497464
1.21360e-05;0.00770025865831675
1.21363e-05;0.007726008663136211
1.21365e-05;0.00777108999243528
1.21368e-05;0.007816452120645936
1.21370e-05;0.007861814248856899
1.21373e-05;0.007907176377067861
1.21375e-05;0.007952538505278517
1.21378e-05;0.00799790063348948
1.21380e-05;0.008043262761700445
1.21383e-05;0.008095937999612841
1.21385e-05;0.00814871946476574
1.21388e-05;0.008201500929918639
1.21390e-05;0.008255029943504997
1.21393e-05;0.008308569815674492
1.21395e-05;0.008362109687843986
1.21398e-05;0.008413769826067601
1.21400e-05;0.008465402660045142
1.21403e-05;0.008517035494022683
1.21405e-05;0.008563831447896247
1.21408e-05;0.008610557143228139
1.21410e-05;0.008657282838560031
1.21413e-05;0.00869131492186721
1.21415e-05;0.008725162622958244
1.21418e-05;0.008759010324049276
1.21420e-05;0.00879285802514008
1.21423e-05;0.008826705726231112
1.21425e-05;0.008860553427322145
1.21427e-05;0.008885144083094102
1.21430e-05;0.008899931909494655
1.21433e-05;0.008914719735895207
1.21435e-05;0.008929507562295758
1.21438e-05;0.00894429538869621
1.21440e-05;0.008959083215096763
1.21443e-05;0.008973871041497316
1.21445e-05;0.008969410093008612
1.21448e-05;0.008964669544688489
1.21450e-05;0.008959928996368367
1.21453e-05;0.008955188448048275
1.21455e-05;0.008950447899728153
1.21458e-05;0.00894570735140803
1.21460e-05;0.00894096680308794
1.21463e-05;0.008936226254767816
1.21465e-05;0.008916601330169827
1.21468e-05;0.008896760201209693
1.21470e-05;0.008876919072249426
1.21473e-05;0.008857077943289157
1.21475e-05;0.008837236814329023
1.21478e-05;0.008817395685368754
1.21480e-05;0.008797554556408484
1.21483e-05;0.00877771342744835
1.21485e-05;0.008752955170911583
1.21488e-05;0.008728125490190619
1.21490e-05;0.00870329580946982
1.21493e-05;0.008678216741940211
1.21495e-05;0.008653134051919809
1.21498e-05;0.008628051361899576
1.21500e-05;0.00860447019466447
1.21503e-05;0.00858091083793528
1.21505e-05;0.008557351481206251
1.21508e-05;0.008537206122788746
1.21510e-05;0.008517110354714552
1.21512e-05;0.008497014586640494
1.21515e-05;0.008485336989411849
