Time(s);Current(A)
8.50000e-06;-0.007105085188066044
8.50025e-06;-0.007146972744317801
8.50050e-06;-0.007188860300569557
8.50075e-06;-0.00723074785682103
8.50100e-06;-0.007272635413072786
8.50125e-06;-0.007314522969324543
8.50150e-06;-0.007356410525576016
8.50175e-06;-0.007401448817418847
8.50200e-06;-0.007448808479549322
8.50225e-06;-0.007496168141679476
8.50250e-06;-0.007543527803809951
8.50275e-06;-0.007590887465940426
8.50300e-06;-0.00763824712807058
8.50325e-06;-0.007685606790201055
8.50350e-06;-0.007732966452331531
8.50375e-06;-0.007780326114461685
8.50400e-06;-0.00782768577659216
8.50425e-06;-0.007862833770891713
8.50450e-06;-0.007888984563728874
8.50475e-06;-0.007915135356565857
8.50500e-06;-0.007941286149403018
8.50525e-06;-0.00796743694224018
8.50550e-06;-0.007993587735077162
8.50575e-06;-0.008019738527914324
8.50600e-06;-0.008045889320751483
8.50625e-06;-0.008072040113588468
8.50650e-06;-0.008098190906425627
8.50675e-06;-0.008104115945392976
8.50700e-06;-0.008095139237537168
8.50725e-06;-0.008086162529681301
8.50750e-06;-0.008077185821825435
8.50775e-06;-0.008068209113969629
8.50800e-06;-0.008059232406113762
8.50825e-06;-0.008050255698257893
8.50850e-06;-0.008041278990402087
8.50875e-06;-0.00803230228254622
8.50900e-06;-0.008007734514049448
8.50925e-06;-0.007971679705817119
8.50950e-06;-0.007935624897584544
8.50975e-06;-0.00789957008935197
8.51000e-06;-0.007863515281119641
8.51025e-06;-0.007827460472887068
8.51050e-06;-0.007791405664654494
8.51075e-06;-0.007755350856422165
8.51100e-06;-0.007719296048189591
8.51125e-06;-0.0076775933711010925
8.51150e-06;-0.007631729508608867
8.51175e-06;-0.00758586564611633
8.51200e-06;-0.0075400017836237945
8.51225e-06;-0.007494137921131569
8.51250e-06;-0.007448274058639032
8.51275e-06;-0.0074024101961464965
8.51300e-06;-0.007356546333653961
8.51325e-06;-0.007310682471161734
8.51350e-06;-0.0072660324503418024
8.51375e-06;-0.007236186306776123
8.51400e-06;-0.007206340163210645
8.51425e-06;-0.007176494019644966
8.51450e-06;-0.007146647876079285
8.51475e-06;-0.007116801732513808
8.51500e-06;-0.007086955588948128
8.51525e-06;-0.007057109445382449
8.51550e-06;-0.0070272633018169705
8.51575e-06;-0.006997417158251291
8.51600e-06;-0.006987522135666179
8.51625e-06;-0.0069923265183877365
8.51650e-06;-0.006997130901109327
8.51675e-06;-0.007001935283830917
8.51700e-06;-0.007006739666552475
8.51725e-06;-0.0070115440492740655
8.51750e-06;-0.007016348431995656
8.51775e-06;-0.007021152814717213
8.51800e-06;-0.007025957197438803
8.51825e-06;-0.0070491347925651085
8.51850e-06;-0.007085849235880977
8.51875e-06;-0.007122563679197095
8.51900e-06;-0.007159278122513213
8.51925e-06;-0.0071959925658290815
8.51950e-06;-0.007232707009145199
8.51975e-06;-0.0072694214524613165
8.52000e-06;-0.007306135895777185
8.52025e-06;-0.007342850339093303
8.52050e-06;-0.007379993085761912
8.52075e-06;-0.0074174513938756095
8.52100e-06;-0.007454909701989561
8.52125e-06;-0.007551607104409876
8.52150e-06;-0.012159660626230941
8.52175e-06;-0.020281169305372132
8.52200e-06;-0.020982947262548186
8.52225e-06;-0.019184214162179816
8.52250e-06;-0.014851639093589488
8.52275e-06;-0.008432821626967634
8.52300e-06;-0.006747941203795249
8.52325e-06;-0.007082216823801326
8.52350e-06;-0.009898919922735318
8.52375e-06;-0.015033152866918016
8.52400e-06;-0.015892342099332067
8.52425e-06;-0.014732265244253627
8.52450e-06;-0.013651052754011959
8.52475e-06;-0.009334089729443672
8.52500e-06;-0.006938291947871514
8.52525e-06;-0.006656890554142528
8.52550e-06;-0.008168114416059163
8.52575e-06;-0.010691829486115488
8.52600e-06;-0.011992015119671502
8.52625e-06;-0.011783991582043381
8.52650e-06;-0.010410119926629852
8.52675e-06;-0.008428099394736429
8.52700e-06;-0.00722514446567068
8.52725e-06;-0.007076390590808774
8.52750e-06;-0.008048834249029167
8.52775e-06;-0.009653966180553596
8.52800e-06;-0.010491355548659603
8.52825e-06;-0.010382929243509836
8.52850e-06;-0.00954335956032534
8.52875e-06;-0.008322153796504615
8.52900e-06;-0.007588351488440017
8.52925e-06;-0.00751431930570452
8.52950e-06;-0.008142020209334777
8.52975e-06;-0.009165445627543544
8.53000e-06;-0.00970740600816902
8.53025e-06;-0.009656426509647821
8.53050e-06;-0.00914703832166659
8.53075e-06;-0.008398209873534897
8.53100e-06;-0.007954299854597436
8.53125e-06;-0.00792324038267698
8.53150e-06;-0.008331265652375616
8.53175e-06;-0.008986643062197234
8.53200e-06;-0.009339883821695873
8.53225e-06;-0.009321168048875566
8.53250e-06;-0.009014769295641458
8.53275e-06;-0.008557840229944451
8.53300e-06;-0.008291334022737226
8.53325e-06;-0.008282804575306925
8.53350e-06;-0.008548627030714356
8.53375e-06;-0.008968645080142315
8.53400e-06;-0.009198625432908634
8.53425e-06;-0.009194812556650951
8.53450e-06;-0.00900997699659838
8.53475e-06;-0.008729962447852053
8.53500e-06;-0.008567923374978702
8.53525e-06;-0.008565197960156597
8.53550e-06;-0.008731155855830779
8.53575e-06;-0.008990346715321737
8.53600e-06;-0.009127327012722706
8.53625e-06;-0.009114888804908588
8.53650e-06;-0.008986283224310007
8.53675e-06;-0.008795475644442316
8.53700e-06;-0.00867616992067687
8.53725e-06;-0.008654438095705926
8.53750e-06;-0.008736322626884056
8.53775e-06;-0.008874740138082862
8.53800e-06;-0.008934922481181844
8.53825e-06;-0.00890001735811982
8.53850e-06;-0.00879104542856345
8.53875e-06;-0.008641999783780111
8.53900e-06;-0.008536816443695095
8.53925e-06;-0.008492005181563924
8.53950e-06;-0.0085115302373885
8.53975e-06;-0.008566076967591504
8.54000e-06;-0.008571410860968793
8.54025e-06;-0.008517165485289406
8.54050e-06;-0.008416696323912854
8.54075e-06;-0.008291482767545166
8.54100e-06;-0.008194287174599016
8.54125e-06;-0.008137988742649371
8.54150e-06;-0.008131774492770227
8.54175e-06;-0.008123743333125618
8.54200e-06;-0.008099750915093577
8.54225e-06;-0.008038468471440654
8.54250e-06;-0.0079445152531299
8.54275e-06;-0.007851869403282419
8.54300e-06;-0.007770581297058395
8.54325e-06;-0.007717288584873568
8.54350e-06;-0.007698443505406804
8.54375e-06;-0.007679047420749361
8.54400e-06;-0.007653466601862482
8.54425e-06;-0.007607691263528868
8.54450e-06;-0.007545467041181517
8.54475e-06;-0.007484779666697596
8.54500e-06;-0.007435732336722012
8.54525e-06;-0.007406804399075472
8.54550e-06;-0.007401521471770977
8.54575e-06;-0.007396238544466447
8.54600e-06;-0.007389232646331375
8.54625e-06;-0.007371161793003784
8.54650e-06;-0.007346577050119832
8.54675e-06;-0.007321992307235879
8.54700e-06;-0.007300086257752008
8.54725e-06;-0.007296436169966352
8.54750e-06;-0.007308987138643186
8.54775e-06;-0.007321538107320019
8.54800e-06;-0.007333211417944288
8.54825e-06;-0.007339262789762232
8.54850e-06;-0.0073420791092278755
8.54875e-06;-0.0073448954286935006
8.54900e-06;-0.007350135854427643
8.54925e-06;-0.007369354627077473
8.54950e-06;-0.0073900127300290264
8.54975e-06;-0.007418970575672288
8.55000e-06;-0.007446755033401119
8.55025e-06;-0.007467773276485327
8.55050e-06;-0.007488791519569679
8.55075e-06;-0.007511131262103354
8.55100e-06;-0.007541091288446814
8.55125e-06;-0.007571051314790477
8.55150e-06;-0.007601011341134141
8.55175e-06;-0.007630971367477602
8.55200e-06;-0.0076609030386858784
8.55225e-06;-0.007690819292868535
8.55250e-06;-0.007720735547050989
8.55275e-06;-0.007750651801233645
8.55300e-06;-0.007780161480508558
8.55325e-06;-0.007807326689500599
8.55350e-06;-0.007834491898492823
8.55375e-06;-0.007861657107485048
8.55400e-06;-0.007888822316477088
8.55425e-06;-0.007915987525469313
8.55450e-06;-0.007943152734461537
8.55475e-06;-0.007970317943453577
8.55500e-06;-0.007997483152445802
8.55525e-06;-0.008024648361438026
8.55550e-06;-0.008040211525403978
8.55575e-06;-0.008049466518980674
8.55600e-06;-0.008058721512557434
8.55625e-06;-0.008067976506134193
8.55650e-06;-0.008077231499710888
8.55675e-06;-0.008086486493287647
8.55700e-06;-0.008095741486864406
8.55725e-06;-0.008104996480441103
8.55750e-06;-0.008114251474017863
8.55775e-06;-0.008120401144631174
8.55800e-06;-0.008108644305844077
8.55825e-06;-0.0080968874670569
8.55850e-06;-0.008085130628269722
8.55875e-06;-0.008073373789482625
8.55900e-06;-0.008061616950695448
8.55925e-06;-0.00804986011190827
8.55950e-06;-0.008038103273121173
8.55975e-06;-0.008026346434333996
8.56000e-06;-0.008014589595546818
8.56025e-06;-0.00800283275675972
8.56050e-06;-0.007983682179960126
8.56075e-06;-0.007960511539534103
8.56100e-06;-0.007937340899108237
8.56125e-06;-0.007914170258682214
8.56150e-06;-0.007890999618256192
8.56175e-06;-0.007867828977830327
8.56200e-06;-0.007844658337404303
8.56225e-06;-0.007821487696978281
8.56250e-06;-0.0077983170565524155
8.56275e-06;-0.007775146416126393
8.56300e-06;-0.007753043040160011
8.56325e-06;-0.007737093929405598
8.56350e-06;-0.007721144818651077
8.56375e-06;-0.0077051957078965545
8.56400e-06;-0.007689246597142033
8.56425e-06;-0.00767329748638762
8.56450e-06;-0.007657348375633099
8.56475e-06;-0.0076413992648785775
8.56500e-06;-0.007625450154124164
8.56525e-06;-0.007609501043369642
8.56550e-06;-0.007593551932615121
8.56575e-06;-0.007580953204192326
8.56600e-06;-0.007587674093552047
8.56625e-06;-0.007594394982911768
8.56650e-06;-0.007601115872271443
8.56675e-06;-0.007607836761631164
8.56700e-06;-0.0076145576509908846
8.56725e-06;-0.00762127854035056
8.56750e-06;-0.007627999429710281
8.56775e-06;-0.0076347203190700015
8.56800e-06;-0.007641441208429677
8.56825e-06;-0.007648162097789398
8.56850e-06;-0.00765793787870051
8.56875e-06;-0.007685329361731892
8.56900e-06;-0.007712720844763461
8.56925e-06;-0.0077401123277950285
8.56950e-06;-0.0077675038108264115
8.56975e-06;-0.007794895293857979
8.57000e-06;-0.007822286776889547
8.57025e-06;-0.007849678259920929
8.57050e-06;-0.007877069742952499
8.57075e-06;-0.007904461225984066
8.57100e-06;-0.007931852709015448
8.57125e-06;-0.00796368146908382
8.57150e-06;-0.007997922829651687
8.57175e-06;-0.008032164190219319
8.57200e-06;-0.008066405550787184
8.57225e-06;-0.008100646911355048
8.57250e-06;-0.008134888271922915
8.57275e-06;-0.008169129632490547
8.57300e-06;-0.008203370993058411
8.57325e-06;-0.008237612353626276
8.57350e-06;-0.00827185371419391
8.57375e-06;-0.008304783426367077
8.57400e-06;-0.008330149659762755
8.57425e-06;-0.008355515893158262
8.57450e-06;-0.00838088212655394
8.57475e-06;-0.008406248359949619
8.57500e-06;-0.008431614593345125
8.57525e-06;-0.008456980826740805
8.57550e-06;-0.008482347060136484
8.57575e-06;-0.00850771329353199
8.57600e-06;-0.008533079526927669
8.57625e-06;-0.008558445760323347
8.57650e-06;-0.008583811993718854
8.57675e-06;-0.008609178227114532
8.57700e-06;-0.00863454446051021
8.57725e-06;-0.00865961097413834
8.57750e-06;-0.008682949186104752
8.57775e-06;-0.008706287398071165
8.57800e-06;-0.00872962561003742
8.57825e-06;-0.008752963822003832
8.57850e-06;-0.008776302033970243
8.57875e-06;-0.008799640245936498
8.57900e-06;-0.00882297845790291
8.57925e-06;-0.008846316669869323
8.57950e-06;-0.008869654881835578
8.57975e-06;-0.008892993093801989
8.58000e-06;-0.008916331305768401
8.58025e-06;-0.008939669517734656
8.58050e-06;-0.008963007729701069
8.58075e-06;-0.008986204985877464
8.58100e-06;-0.009008589435717057
8.58125e-06;-0.009030973885556497
8.58150e-06;-0.009053358335396089
8.58175e-06;-0.009075742785235682
8.58200e-06;-0.009098127235075122
8.58225e-06;-0.009120511684914713
8.58250e-06;-0.009142896134754306
8.58275e-06;-0.009165280584593746
8.58300e-06;-0.009187665034433337
8.58325e-06;-0.009210049484272929
8.58350e-06;-0.009232433934112369
8.58375e-06;-0.009254818383951962
8.58400e-06;-0.009272824028664443
8.58425e-06;-0.009288448864751563
8.58450e-06;-0.009304073700838791
8.58475e-06;-0.009319698536926017
8.58500e-06;-0.009335323373013139
8.58525e-06;-0.009350948209100365
8.58550e-06;-0.009366573045187593
8.58575e-06;-0.009382197881274713
8.58600e-06;-0.009397822717361939
8.58625e-06;-0.009413447553449167
8.58650e-06;-0.009429072389536287
8.58675e-06;-0.009444697225623515
8.58700e-06;-0.009459545649740993
8.58725e-06;-0.009469916978102497
8.58750e-06;-0.00948028830646407
8.58775e-06;-0.009490659634825642
8.58800e-06;-0.009501030963187145
8.58825e-06;-0.009511402291548718
8.58850e-06;-0.00952177361991029
8.58875e-06;-0.009532144948271792
8.58900e-06;-0.009542516276633365
8.58925e-06;-0.009552887604994937
8.58950e-06;-0.00956325893335651
8.58975e-06;-0.009573630261718013
8.59000e-06;-0.009584001590079586
8.59025e-06;-0.009594372918441159
8.59050e-06;-0.009604744246802662
8.59075e-06;-0.009615115575164234
8.59100e-06;-0.00962379777818631
8.59125e-06;-0.00963156158359489
8.59150e-06;-0.009639325389003521
8.59175e-06;-0.009647089194412152
8.59200e-06;-0.009654852999820732
8.59225e-06;-0.009662616805229363
8.59250e-06;-0.009670380610637996
8.59275e-06;-0.009678144416046574
8.59300e-06;-0.009685908221455207
8.59325e-06;-0.009693672026863838
8.59350e-06;-0.009701435832272417
8.59375e-06;-0.009709199637681049
8.59400e-06;-0.00971696344308968
8.59425e-06;-0.00972472724849826
8.59450e-06;-0.00973249105390689
8.59475e-06;-0.009740771880506996
8.59500e-06;-0.009752034053960886
8.59525e-06;-0.009763296227414854
8.59550e-06;-0.00977455840086882
8.59575e-06;-0.00978582057432271
8.59600e-06;-0.009797082747776678
8.59625e-06;-0.009808344921230644
8.59650e-06;-0.009819607094684534
8.59675e-06;-0.009830869268138502
8.59700e-06;-0.009842131441592468
8.59725e-06;-0.009853393615046358
8.59750e-06;-0.009871849489216876
8.59775e-06;-0.009894216664353169
8.59800e-06;-0.009916583839489464
8.59825e-06;-0.009938951014625606
8.59850e-06;-0.0099613181897619
8.59875e-06;-0.009983685364898192
8.59900e-06;-0.010006052540034335
8.59925e-06;-0.010028419715170628
8.59950e-06;-0.010050786890306923
8.59975e-06;-0.010073154065443065
8.60000e-06;-0.010096563956055031
8.60025e-06;-0.010125986552829348
8.60050e-06;-0.010155409149603467
8.60075e-06;-0.010184831746377786
8.60100e-06;-0.010214254343152103
8.60125e-06;-0.010243676939926222
8.60150e-06;-0.01027309953670054
8.60175e-06;-0.010302522133474858
8.60200e-06;-0.010331944730248977
8.60225e-06;-0.010361367327023295
8.60250e-06;-0.010390789923797612
8.60275e-06;-0.010419436759520348
8.60300e-06;-0.010443610252932755
8.60325e-06;-0.010467783746345164
8.60350e-06;-0.010491957239757408
8.60375e-06;-0.010516130733169817
8.60400e-06;-0.010540304226582224
8.60425e-06;-0.010564477719994468
8.60450e-06;-0.010588651213406877
8.60475e-06;-0.010612824706819284
8.60500e-06;-0.010636998200231527
8.60525e-06;-0.010661171693643936
8.60550e-06;-0.01068294002123676
8.60575e-06;-0.010690839219917835
8.60600e-06;-0.01069873841859896
8.60625e-06;-0.010706637617280088
8.60650e-06;-0.010714536815961215
8.60675e-06;-0.010722436014642288
8.60700e-06;-0.010730335213323415
8.60725e-06;-0.010738234412004541
8.60750e-06;-0.010746133610685615
8.60775e-06;-0.010754032809366742
8.60800e-06;-0.010759648596848042
8.60825e-06;-0.010752097340280849
8.60850e-06;-0.010744546083713603
8.60875e-06;-0.010736994827146358
8.60900e-06;-0.010729443570579165
8.60925e-06;-0.01072189231401192
8.60950e-06;-0.010714341057444675
8.60975e-06;-0.010706789800877482
8.61000e-06;-0.010699238544310237
8.61025e-06;-0.010691687287742991
8.61050e-06;-0.010682980036097023
8.61075e-06;-0.010667606863689222
8.61100e-06;-0.010652233691281422
8.61125e-06;-0.010636860518873725
8.61150e-06;-0.010621487346465924
8.61175e-06;-0.010606114174058124
8.61200e-06;-0.010590741001650427
8.61225e-06;-0.010575367829242626
8.61250e-06;-0.010559994656834826
8.61275e-06;-0.01054462148442713
8.61300e-06;-0.01052924831201933
8.61325e-06;-0.010514608620321393
8.61350e-06;-0.01050419846591379
8.61375e-06;-0.010493788311506115
8.61400e-06;-0.01048337815709844
8.61425e-06;-0.010472968002690836
8.61450e-06;-0.010462557848283162
8.61475e-06;-0.010452147693875487
8.61500e-06;-0.010441737539467812
8.61525e-06;-0.010431327385060208
8.61550e-06;-0.010420917230652534
8.61575e-06;-0.010410507076244859
8.61600e-06;-0.010401792989707632
8.61625e-06;-0.010402859095354851
8.61650e-06;-0.010403925201002072
8.61675e-06;-0.010404991306649285
8.61700e-06;-0.010406057412296506
8.61725e-06;-0.010407123517943727
8.61750e-06;-0.01040818962359094
8.61775e-06;-0.01040925572923816
8.61800e-06;-0.01041032183488538
8.61825e-06;-0.010411387940532594
8.61850e-06;-0.010412454046179813
8.61875e-06;-0.010413520151827034
8.61900e-06;-0.010414586257474247
8.61925e-06;-0.010415652363121468
8.61950e-06;-0.010416718468768687
8.61975e-06;-0.010417784574415901
8.62000e-06;-0.01041885068006312
8.62025e-06;-0.010419916785710342
8.62050e-06;-0.010421870054176588
8.62075e-06;-0.01042893905121864
8.62100e-06;-0.010436008048260692
8.62125e-06;-0.010443077045302696
8.62150e-06;-0.010450146042344748
8.62175e-06;-0.0104572150393868
8.62200e-06;-0.010464284036428805
8.62225e-06;-0.010471353033470857
8.62250e-06;-0.010478422030512908
8.62275e-06;-0.010485491027554913
8.62300e-06;-0.010492560024596965
8.62325e-06;-0.010499629021639017
8.62350e-06;-0.010506698018681069
8.62375e-06;-0.010513767015723072
8.62400e-06;-0.010520836012765124
8.62425e-06;-0.010527905009807177
8.62450e-06;-0.01053497400684918
8.62475e-06;-0.010542043003891232
8.62500e-06;-0.010549683634454427
8.62525e-06;-0.010560620527977092
8.62550e-06;-0.010571557421499832
8.62575e-06;-0.010582494315022572
8.62600e-06;-0.010593431208545237
8.62625e-06;-0.010604368102067977
8.62650e-06;-0.010615304995590715
8.62675e-06;-0.01062624188911338
8.62700e-06;-0.01063717878263612
8.62725e-06;-0.01064811567615886
8.62750e-06;-0.010660361534758292
8.62775e-06;-0.010680155399097882
8.62800e-06;-0.010699949263437472
8.62825e-06;-0.010719743127776927
8.62850e-06;-0.010739536992116517
8.62875e-06;-0.010759330856456107
8.62900e-06;-0.010779124720795563
8.62925e-06;-0.010798918585135153
8.62950e-06;-0.010818712449474743
8.62975e-06;-0.0108385063138142
8.63000e-06;-0.010859081782840839
8.63025e-06;-0.010884164290878668
8.63050e-06;-0.010909246798916328
8.63075e-06;-0.01093432930695416
8.63100e-06;-0.01095941181499199
8.63125e-06;-0.010984494323029649
8.63150e-06;-0.011009576831067479
8.63175e-06;-0.01103465933910531
8.63200e-06;-0.01105974184714314
8.63225e-06;-0.0110848243551808
8.63250e-06;-0.011109906863218631
8.63275e-06;-0.011134989371256461
8.63300e-06;-0.01116007187929412
8.63325e-06;-0.01118515438733195
8.63350e-06;-0.011210236895369782
8.63375e-06;-0.011229038335257588
8.63400e-06;-0.011244424683398238
8.63425e-06;-0.01125981103153889
8.63450e-06;-0.011275197379679434
8.63475e-06;-0.011290583727820085
8.63500e-06;-0.011305970075960736
8.63525e-06;-0.011321356424101283
8.63550e-06;-0.011336742772241934
8.63575e-06;-0.011352129120382585
8.63600e-06;-0.011367515468523132
8.63625e-06;-0.011382901816663783
8.63650e-06;-0.011398288164804433
8.63675e-06;-0.01141367451294498
8.63700e-06;-0.01142906086108563
8.63725e-06;-0.011442301327124451
8.63750e-06;-0.011443167795781594
8.63775e-06;-0.01144403426443874
8.63800e-06;-0.011444900733095889
8.63825e-06;-0.01144576720175303
8.63850e-06;-0.011446633670410176
8.63875e-06;-0.011447500139067325
8.63900e-06;-0.011448366607724466
8.63925e-06;-0.011449233076381612
8.63950e-06;-0.01145009954503876
8.63975e-06;-0.011450966013695902
8.64000e-06;-0.011450774910754889
8.64025e-06;-0.011444485435411437
8.64050e-06;-0.011438195960067985
8.64075e-06;-0.011431906484724575
8.64100e-06;-0.011425617009381123
8.64125e-06;-0.011419327534037672
8.64150e-06;-0.011413038058694263
8.64175e-06;-0.01140674858335081
8.64200e-06;-0.011400459108007358
8.64225e-06;-0.01139416963266395
8.64250e-06;-0.011387880157320498
8.64275e-06;-0.011381752796241424
8.64300e-06;-0.01137656024955953
8.64325e-06;-0.011371367702877604
8.64350e-06;-0.011366175156195675
8.64375e-06;-0.011360982609513784
8.64400e-06;-0.011355790062831855
8.64425e-06;-0.011350597516149929
8.64450e-06;-0.011345404969468037
8.64475e-06;-0.011340212422786109
8.64500e-06;-0.01133501987610418
8.64525e-06;-0.011329827329422289
8.64550e-06;-0.011325201319290776
8.64575e-06;-0.011323842180991658
8.64600e-06;-0.011322483042692547
8.64625e-06;-0.011321123904393429
8.64650e-06;-0.011319764766094309
8.64675e-06;-0.0113184056277952
8.64700e-06;-0.01131704648949608
