Time(s);Current(A)
5.50000e-07;0.0001606297728200418
5.50250e-07;0.00015784741024858998
5.50500e-07;0.00015407320709533043
5.50750e-07;0.0001498518929384368
5.51000e-07;0.00014475713638577046
5.51250e-07;0.00013926864145079063
5.51500e-07;0.00013304153201029815
5.51750e-07;0.00012648146314173185
5.52000e-07;0.0001192861474825088
5.52250e-07;0.00011180446944274511
5.52500e-07;0.00010379421231050588
5.52750e-07;9.554567744203455e-05
5.53000e-07;8.68635558583207e-05
5.53250e-07;7.798597807431515e-05
5.53500e-07;6.91084002903096e-05
5.53750e-07;6.002353039247909e-05
5.54000e-07;5.084521545240727e-05
5.54250e-07;4.168174252586599e-05
5.54500e-07;3.258184058100068e-05
5.54750e-07;2.3481938636135367e-05
5.55000e-07;1.4564270497047004e-05
5.55250e-07;5.904435376876436e-06
5.55500e-07;-2.456982145208466e-06
5.55750e-07;-1.0458052869225735e-05
5.56000e-07;-1.8037403244905217e-05
5.56250e-07;-2.513366677703638e-05
5.56500e-07;-3.169400024266141e-05
5.56750e-07;-3.778252940885947e-05
5.57000e-07;-4.373557422862147e-05
5.57250e-07;-4.979674741547953e-05
5.57500e-07;-5.609862025340099e-05
5.57750e-07;-6.248702502865666e-05
5.58000e-07;-6.887542980390962e-05
5.58250e-07;-7.530015362060102e-05
5.58500e-07;-8.1741249668239e-05
5.58750e-07;-8.824909264310097e-05
5.59000e-07;-9.478702441062612e-05
5.59250e-07;-0.00010174626324418483
5.59500e-07;-0.00010889542274502285
5.59750e-07;-0.00011645921161007147
5.60000e-07;-0.00012420991090666514
5.60250e-07;-0.0001319606102032588
5.60500e-07;-0.000139983175299605
5.60750e-07;-0.00014812829455718328
5.61000e-07;-0.00015627341381476502
5.61250e-07;-0.0001649941929299988
5.61500e-07;-0.00017397447328104776
5.61750e-07;-0.0001829547536320967
5.62000e-07;-0.00019193503398314568
5.62250e-07;-0.0002009153143341908
5.62500e-07;-0.00020989559468523978
5.62750e-07;-0.00021905743764484754
5.63000e-07;-0.00022830112706408357
5.63250e-07;-0.0002375448164833196
5.63500e-07;-0.00024678850590255174
5.63750e-07;-0.0002560321953217878
5.64000e-07;-0.0002652758847410238
5.64250e-07;-0.00027375389076415125
5.64500e-07;-0.00028188673499617424
5.64750e-07;-0.00029001957922819723
5.65000e-07;-0.0002981524234602168
5.65250e-07;-0.0003062852676922398
5.65500e-07;-0.0003144181119242628
5.65750e-07;-0.0003225509561562858
5.66000e-07;-0.0003301409019265244
5.66250e-07;-0.00033540551710090717
5.66500e-07;-0.00034067013227528773
5.66750e-07;-0.00034593474744967046
5.67000e-07;-0.00035119936262405325
5.67250e-07;-0.00035646397779843603
5.67500e-07;-0.0003617285929728188
5.67750e-07;-0.0003669932081471994
5.68000e-07;-0.0003698889207607052
5.68250e-07;-0.0003717167577287099
5.68500e-07;-0.0003735445946967146
5.68750e-07;-0.0003753724316647192
5.69000e-07;-0.0003772002686327239
5.69250e-07;-0.00037902810560072776
5.69500e-07;-0.00038085594256873247
5.69750e-07;-0.0003826837795367371
5.70000e-07;-0.00038451161650474177
5.70250e-07;-0.000385791356004314
5.70500e-07;-0.0003847234966385621
5.70750e-07;-0.00038365563727281064
5.71000e-07;-0.00038258777790705874
5.71250e-07;-0.00038151991854130685
5.71500e-07;-0.00038045205917555495
5.71750e-07;-0.0003793841998098031
5.72000e-07;-0.00037831634044405165
5.72250e-07;-0.00037724848107829976
5.72500e-07;-0.00037618062171254786
5.72750e-07;-0.00037417965538969784
5.73000e-07;-0.000371758054545785
5.73250e-07;-0.00036933645370187224
5.73500e-07;-0.0003669148528579605
5.73750e-07;-0.0003644932520140477
5.74000e-07;-0.0003620716511701349
5.74250e-07;-0.0003596500503262221
5.74500e-07;-0.0003572065145518769
5.74750e-07;-0.0003547530907482047
5.75000e-07;-0.00035229966694453355
5.75250e-07;-0.00034984624314086135
5.75500e-07;-0.00034739281933718916
5.75750e-07;-0.00034493939553351696
5.76000e-07;-0.00034248597172984477
5.76250e-07;-0.00034038021303902467
5.76500e-07;-0.00033843117801972135
5.76750e-07;-0.00033648214300041797
5.77000e-07;-0.00033383644037615086
5.77250e-07;-0.00033087668753274603
5.77500e-07;-0.00032791693468934126
5.77750e-07;-0.0003237421727867555
5.78000e-07;-0.00031901969794535454
5.78250e-07;-0.00031429722310395355
5.78500e-07;-0.0003085112977081936
5.78750e-07;-0.00030224598030789706
5.79000e-07;-0.00029598066290760315
5.79250e-07;-0.0002884288368093509
5.79500e-07;-0.000280297066508672
5.79750e-07;-0.0002711786312839406
5.80000e-07;-0.0002616154181860777
5.80250e-07;-0.0002512607607584291
5.80500e-07;-0.00024054932878947644
5.80750e-07;-0.00022910764260712532
5.81000e-07;-0.0002173367657259245
5.81250e-07;-0.0002047404867837619
5.81500e-07;-0.00019177212552246115
5.81750e-07;-0.00017814957014982287
5.82000e-07;-0.0001642321111494611
5.82250e-07;-0.0001498234812262994
5.82500e-07;-0.00013519343676507143
5.82750e-07;-0.00012056339230384348
5.83000e-07;-0.00010555438136814716
5.83250e-07;-9.037453644576747e-05
5.83500e-07;-7.519469152338136e-05
5.83750e-07;-5.9954389953542834e-05
5.84000e-07;-4.4686835181107146e-05
5.84250e-07;-2.9572465083090144e-05
5.84500e-07;-1.4713034457066287e-05
5.84750e-07;-1.6676225339830794e-07
5.85000e-07;1.4024819612284082e-05
5.85250e-07;2.781504539474139e-05
5.85500e-07;4.112598941073963e-05
5.85750e-07;5.386272267677375e-05
5.86000e-07;6.592765747014134e-05
5.86250e-07;7.722321730046732e-05
5.86500e-07;8.76602810109719e-05
5.86750e-07;9.728392244628675e-05
5.87000e-07;0.00010635582383472279
5.87250e-07;0.0001151282528546635
5.87500e-07;0.00012355614027415666
5.87750e-07;0.0001318612602649935
5.88000e-07;0.00013965291689247046
5.88250e-07;0.00014721310979085196
5.88500e-07;0.00015402793943363366
5.88750e-07;0.00016050676738479922
5.89000e-07;0.000166985595335962
5.89250e-07;0.00017310364851406642
5.89500e-07;0.00017905906832765966
5.89750e-07;0.0001850144881412529
5.90000e-07;0.0001905565006209442
5.90250e-07;0.00019591215354712347
5.90500e-07;0.00020126780647330048
5.90750e-07;0.0002059128844831058
5.91000e-07;0.00021023764300824523
5.91250e-07;0.00021456240153338468
5.91500e-07;0.0002188871600585241
5.91750e-07;0.0002232119185836617
5.92000e-07;0.00022753667710880113
5.92250e-07;0.00023186143563394058
5.92500e-07;0.00023618619415908
5.92750e-07;0.00024051095268421942
5.93000e-07;0.00024483571120935887
5.93250e-07;0.00024892521650452724
5.93500e-07;0.00025200709040642524
5.93750e-07;0.00025508896430832324
5.94000e-07;0.0002581708382102213
5.94250e-07;0.0002612527121121193
5.94500e-07;0.0002643345860140173
5.94750e-07;0.000267416459915914
5.95000e-07;0.000270498333817812
5.95250e-07;0.00027358020771971
5.95500e-07;0.000276662081621608
5.95750e-07;0.00027974395552350607
5.96000e-07;0.0002823363810948642
5.96250e-07;0.0002845953874609737
5.96500e-07;0.00028665652849626193
5.96750e-07;0.0002881630750574663
5.97000e-07;0.00028828005560665125
5.97250e-07;0.0002862758438782814
5.97500e-07;0.00028194176952865793
5.97750e-07;0.0002753501286831032
5.98000e-07;0.0002666170837721126
5.98250e-07;0.00025585880824372794
5.98500e-07;0.00024317860562684323
5.98750e-07;0.00022848163186809037
5.99000e-07;0.00021137349336358336
5.99250e-07;0.0001915245950781417
5.99500e-07;0.00016893293651141716
5.99750e-07;0.00014377251233140253
6.00000e-07;0.00011624478328048865
6.00250e-07;8.655118876680781e-05
6.00500e-07;5.488510429510849e-05
6.00750e-07;2.131578779038716e-05
6.01000e-07;-1.4275137450016902e-05
6.01250e-07;-5.196544531938386e-05
6.01500e-07;-9.16276960242074e-05
6.01750e-07;-0.00013302423484730806
6.02000e-07;-0.0001759001956606316
6.02250e-07;-0.00022031021528395915
6.02500e-07;-0.0002652156430690838
6.02750e-07;-0.0003114417245164244
6.03000e-07;-0.00035826314234666814
6.03250e-07;-0.00040508456017693175
6.03500e-07;-0.00045262916584290854
6.03750e-07;-0.0005004997767611374
6.04000e-07;-0.0005483703876793662
6.04250e-07;-0.0005952616157036323
6.04500e-07;-0.0006417113485151132
6.04750e-07;-0.0006881610813266139
6.05000e-07;-0.0007322370461915217
6.05250e-07;-0.0007752429421476306
6.05500e-07;-0.0008182488381037396
6.05750e-07;-0.0008581300343447609
6.06000e-07;-0.000896602649759975
6.06250e-07;-0.0009315966213516399
6.06500e-07;-0.0009650224579426899
6.06750e-07;-0.0009945874210303116
6.07000e-07;-0.0010224119441129356
6.07250e-07;-0.0010502364671955476
6.07500e-07;-0.001075154236574455
6.07750e-07;-0.001098761672831559
6.08000e-07;-0.001122369109088663
6.08250e-07;-0.00114231680699639
6.08500e-07;-0.001160614734450504
6.08750e-07;-0.0011789126619046104
6.09000e-07;-0.0011943750511006898
6.09250e-07;-0.0012085592103274053
6.09500e-07;-0.001222743369554121
6.09750e-07;-0.0012325641862860708
6.10000e-07;-0.0012404180554278748
6.10250e-07;-0.0012482719245696752
6.10500e-07;-0.001256125793711479
6.10750e-07;-0.001263979662853283
6.11000e-07;-0.0012718335319950869
6.11250e-07;-0.0012796874011368907
6.11500e-07;-0.0012875412702786913
6.11750e-07;-0.001295395139420495
6.12000e-07;-0.001298791407577181
6.12250e-07;-0.0013001782374360339
6.12500e-07;-0.0013015650672948866
6.12750e-07;-0.0013029518971537392
6.13000e-07;-0.0013043387270125916
6.13250e-07;-0.0013057255568714443
6.13500e-07;-0.001307112386730297
6.13750e-07;-0.0013084992165891497
6.14000e-07;-0.0013098860464480025
6.14250e-07;-0.0013096219869776853
6.14500e-07;-0.0013086137244585538
6.14750e-07;-0.0013076054619394217
6.15000e-07;-0.0013065971994202896
6.15250e-07;-0.0013055889369011577
6.15500e-07;-0.00130456309438277
6.15750e-07;-0.0013034619536032427
6.16000e-07;-0.001302360812823715
6.16250e-07;-0.0013012596720441874
6.16500e-07;-0.0013001585312646597
6.16750e-07;-0.001299057390485132
6.17000e-07;-0.0012973620958684519
6.17250e-07;-0.001295398963130063
6.17500e-07;-0.0012934358303916733
6.17750e-07;-0.0012914726976532836
6.18000e-07;-0.0012895095649148938
6.18250e-07;-0.001287546432176504
6.18500e-07;-0.001285583299438115
6.18750e-07;-0.0012836201666997253
6.19000e-07;-0.0012816570339613355
6.19250e-07;-0.0012796939012229458
6.19500e-07;-0.001277730768484556
6.19750e-07;-0.0012744501955935608
6.20000e-07;-0.001270575734934996
6.20250e-07;-0.0012667012742764293
6.20500e-07;-0.0012628268136178628
6.20750e-07;-0.0012589523529592964
6.21000e-07;-0.0012550778923007299
6.21250e-07;-0.0012512034316421634
6.21500e-07;-0.0012473289709835985
6.21750e-07;-0.001243454510325032
6.22000e-07;-0.0012395800496664655
6.22250e-07;-0.0012357055890078988
6.22500e-07;-0.0012312149092133246
6.22750e-07;-0.001226446444499038
6.23000e-07;-0.0012216779797847494
6.23250e-07;-0.0012169095150704609
6.23500e-07;-0.0012121410503561723
6.23750e-07;-0.0012073725856418837
6.24000e-07;-0.001202604120927595
6.24250e-07;-0.0011979209790383175
6.24500e-07;-0.0011936032899721855
6.24750e-07;-0.0011892856009060534
6.25000e-07;-0.0011849679118399214
6.25250e-07;-0.0011806502227737893
6.25500e-07;-0.0011763325337076573
6.25750e-07;-0.0011720148446415272
6.26000e-07;-0.001167697155575395
6.26250e-07;-0.0011641460255544227
6.26500e-07;-0.0011609404520577034
6.26750e-07;-0.0011577348785609843
6.27000e-07;-0.00115713284814177
6.27250e-07;-0.001157704466774494
6.27500e-07;-0.0011582760854072177
6.27750e-07;-0.0011588477040399418
6.28000e-07;-0.0011594193226726656
6.28250e-07;-0.0011599909413053894
6.28500e-07;-0.0011648777344897695
6.28750e-07;-0.0011717097616767195
6.29000e-07;-0.0011785417888636697
6.29250e-07;-0.0011853738160506196
6.29500e-07;-0.0011922058432375696
6.29750e-07;-0.0011990378704245198
6.30000e-07;-0.0012108737257195167
6.30250e-07;-0.001224965252589859
6.30500e-07;-0.0012390567794602011
6.30750e-07;-0.0012531483063305433
6.31000e-07;-0.0012672398332008855
6.31250e-07;-0.0012813313600712217
6.31500e-07;-0.001295422886941564
6.31750e-07;-0.001309514413811906
6.32000e-07;-0.0013245334652230852
6.32250e-07;-0.0013435252690830479
6.32500e-07;-0.0013625170729430105
6.32750e-07;-0.0013815088768029651
6.33000e-07;-0.0014005006806629278
6.33250e-07;-0.0014194924845228904
6.33500e-07;-0.001438484288382853
6.33750e-07;-0.001457476092242816
6.34000e-07;-0.0014764678961027785
6.34250e-07;-0.0014955347788610915
6.34500e-07;-0.001514635506374524
6.34750e-07;-0.0015337362338879565
6.35000e-07;-0.0015518684580877325
6.35250e-07;-0.0015695640914718213
6.35500e-07;-0.0015872597248559024
6.35750e-07;-0.0016033028389292041
6.36000e-07;-0.001618601015175589
6.36250e-07;-0.0016338991914219736
6.36500e-07;-0.0016466397903160852
6.36750e-07;-0.0016582274610098802
6.37000e-07;-0.0016698151317036702
6.37250e-07;-0.0016760772900930676
6.37500e-07;-0.001679938765151645
6.37750e-07;-0.0016838002402102224
6.38000e-07;-0.0016876617152688
6.38250e-07;-0.0016915231903273757
6.38500e-07;-0.0016933596762329461
6.38750e-07;-0.0016865227737134277
6.39000e-07;-0.0016796858711939093
6.39250e-07;-0.001672848968674391
6.39500e-07;-0.0016660120661548725
6.39750e-07;-0.001659175163635357
6.40000e-07;-0.0016468278208703528
6.40250e-07;-0.0016319964312593868
6.40500e-07;-0.0016171650416484207
6.40750e-07;-0.001598988706018721
6.41000e-07;-0.001579304504912292
6.41250e-07;-0.0015596203038058711
6.41500e-07;-0.0015374863314894514
6.41750e-07;-0.0015142480288153069
6.42000e-07;-0.001489471793485512
6.42250e-07;-0.0014640022747532324
6.42500e-07;-0.001437363659191866
6.42750e-07;-0.0014101980274282288
6.43000e-07;-0.0013821738784214113
6.43250e-07;-0.001353762719129548
6.43500e-07;-0.0013248837846933609
6.43750e-07;-0.0012957939822829073
6.44000e-07;-0.0012667008899194825
6.44250e-07;-0.001237606314480834
6.44500e-07;-0.0012089698449344478
6.44750e-07;-0.0011805398845681093
6.45000e-07;-0.0011529927549999261
6.45250e-07;-0.0011258435960043276
6.45500e-07;-0.0011000521043137198
6.45750e-07;-0.001074872634355772
6.46000e-07;-0.0010515719682796638
6.46250e-07;-0.0010291182466669719
6.46500e-07;-0.0010090694004424548
6.46750e-07;-0.0009901046460249242
6.47000e-07;-0.0009747824045118105
6.47250e-07;-0.0009611021684081765
6.47500e-07;-0.0009474219323045424
6.47750e-07;-0.0009384114367423605
6.48000e-07;-0.0009315060096949985
6.48250e-07;-0.0009246005826476396
6.48500e-07;-0.0009217158325516008
6.48750e-07;-0.0009206435601260834
6.49000e-07;-0.000922844690615689
6.49250e-07;-0.0009265214357249491
6.49500e-07;-0.0009340862365710579
6.49750e-07;-0.000943403730879009
6.50000e-07;-0.0009527212251869641
6.50250e-07;-0.0009662975235106604
6.50500e-07;-0.0009817936446092582
6.50750e-07;-0.000997289765707856
6.51000e-07;-0.0010165353365566214
6.51250e-07;-0.0010374711187880119
6.51500e-07;-0.0010584069010194023
6.51750e-07;-0.0010823279544909011
6.52000e-07;-0.001107594735940219
6.52250e-07;-0.001132861517389537
6.52500e-07;-0.0011602586637597806
6.52750e-07;-0.0011886161555882818
6.53000e-07;-0.001216973647416783
6.53250e-07;-0.0012465301532484584
6.53500e-07;-0.0012766271616208049
6.53750e-07;-0.0013067241699931515
6.54000e-07;-0.0013369385735170665
6.54250e-07;-0.001367205897505246
6.54500e-07;-0.0013974732214934252
6.54750e-07;-0.00142675109880872
6.55000e-07;-0.001455582944268559
6.55250e-07;-0.0014844147897283854
6.55500e-07;-0.0015115491264390919
6.55750e-07;-0.001537918244570789
6.56000e-07;-0.0015622800099260323
6.56250e-07;-0.0015857368823669069
6.56500e-07;-0.0016065580611328615
6.56750e-07;-0.0016261910977053394
6.57000e-07;-0.0016410357147007215
6.57250e-07;-0.0016537217639559535
6.57500e-07;-0.0016664078132111854
6.57750e-07;-0.0016727170509141342
6.58000e-07;-0.0016761516909591001
6.58250e-07;-0.0016795863310040673
6.58500e-07;-0.0016765748565034204
6.58750e-07;-0.001670657543305172
6.59000e-07;-0.0016647402301069234
6.59250e-07;-0.001651999902139564
6.59500e-07;-0.001636183832931485
6.59750e-07;-0.0016203677637233996
6.60000e-07;-0.0015993180212606605
6.60250e-07;-0.0015759089955170568
6.60500e-07;-0.0015487533953887052
6.60750e-07;-0.001519908880061341
6.61000e-07;-0.0014875106939339327
6.61250e-07;-0.00145351055145648
6.61500e-07;-0.00141707680668433
6.61750e-07;-0.0013781294147174824
6.62000e-07;-0.0013372847444023087
6.62250e-07;-0.001294772222063205
6.62500e-07;-0.0012508192521603746
6.62750e-07;-0.0012056257021426534
6.63000e-07;-0.001159355955212052
6.63250e-07;-0.0011121990225784531
6.63500e-07;-0.0010644032065391033
6.63750e-07;-0.0010162460881229852
6.64000e-07;-0.0009680095048753897
6.64250e-07;-0.0009199751598400633
6.64500e-07;-0.0008724237168537201
6.64750e-07;-0.0008256184563745461
6.65000e-07;-0.0007798004623891147
6.65250e-07;-0.0007352261197141916
6.65500e-07;-0.0006921890730918266
6.65750e-07;-0.0006517805958633731
6.66000e-07;-0.00061232840372263
6.66250e-07;-0.0005754311208625002
6.66500e-07;-0.0005416464155644308
6.66750e-07;-0.0005104069871925416
6.67000e-07;-0.0004806977391599933
6.67250e-07;-0.00045155438279355787
6.67500e-07;-0.000422935287599648
6.67750e-07;-0.0003945090961793537
6.68000e-07;-0.00036719561099159213
6.68250e-07;-0.00034038372173524143
6.68500e-07;-0.00031514365766845956
6.68750e-07;-0.00029061215539180054
6.69000e-07;-0.00026653171770558683
6.69250e-07;-0.00024265461505674745
6.69500e-07;-0.00021859441348494115
6.69750e-07;-0.00019445167289956558
6.70000e-07;-0.00017059534880029534
6.70250e-07;-0.00014686813815426578
6.70500e-07;-0.0001238223590199343
6.70750e-07;-0.00010108376183878393
6.71000e-07;-7.843201364893902e-05
6.71250e-07;-5.5819416044773226e-05
6.71500e-07;-3.300803832785761e-05
6.71750e-07;-1.009894566077425e-05
6.72000e-07;1.2714381701071104e-05
6.72250e-07;3.5275965935819086e-05
6.72500e-07;5.743760946914758e-05
6.72750e-07;7.911116186657546e-05
6.73000e-07;0.00010062700526684148
6.73250e-07;0.00012199103689609296
6.73500e-07;0.0001432866334213898
6.73750e-07;0.00016419669610420615
6.74000e-07;0.0001849329643018581
6.74250e-07;0.00020490922828447222
6.74500e-07;0.0002245428905893132
6.74750e-07;0.00024325072200930274
6.75000e-07;0.00026154119888281203
6.75250e-07;0.00027901847560943895
6.75500e-07;0.00029612917050773137
6.75750e-07;0.0003124825342777855
6.76000e-07;0.0003278750473554079
6.76250e-07;0.00034241857363950914
6.76500e-07;0.0003535497707869517
6.76750e-07;0.0003652263309931068
6.77000e-07;0.00037664839357521164
6.77250e-07;0.00038560959709858664
6.77500e-07;0.00039208191302136637
6.77750e-07;0.0003974590758972426
6.78000e-07;0.00040189674424613803
6.78250e-07;0.0004047367315544316
6.78500e-07;0.0004055719878835085
6.78750e-07;0.00040434107594543555
6.79000e-07;0.0004009310774634104
6.79250e-07;0.00039522018658829744
6.79500e-07;0.00038740710626395736
6.79750e-07;0.0003780562925816765
6.80000e-07;0.0003673600691837208
6.80250e-07;0.00035500098905691103
6.80500e-07;0.000340818934255711
6.80750e-07;0.0003248702866365778
6.81000e-07;0.00030717916665684586
6.81250e-07;0.0002874953889814101
6.81500e-07;0.0002664881277424179
6.81750e-07;0.00024486879933420676
6.82000e-07;0.0002220521751891265
6.82250e-07;0.00019810292809931455
6.82500e-07;0.00017332974761454282
6.82750e-07;0.00014790507673432667
6.83000e-07;0.0001216164015900119
6.83250e-07;9.492336234548371e-05
6.83500e-07;6.769405685778704e-05
6.83750e-07;4.052495123707028e-05
6.84000e-07;1.3544200340202752e-05
6.84250e-07;-1.3173459008997414e-05
6.84500e-07;-3.953672029833653e-05
6.84750e-07;-6.536934129987644e-05
6.85000e-07;-9.050774762402744e-05
6.85250e-07;-0.00011479055644799805
6.85500e-07;-0.00013797763909835823
6.85750e-07;-0.00015973901339876406
6.86000e-07;-0.00017983620988967647
6.86250e-07;-0.00019815606937226277
6.86500e-07;-0.00021457968012670976
6.86750e-07;-0.00022916344120084553
6.87000e-07;-0.00024236385655168995
6.87250e-07;-0.00025468754003041066
6.87500e-07;-0.00026623891081519016
6.87750e-07;-0.0002765934683056264
6.88000e-07;-0.00028601458195128427
6.88250e-07;-0.00029439874338722073
6.88500e-07;-0.0003014077024607941
6.88750e-07;-0.00030752977656900237
6.89000e-07;-0.00031247566696490447
6.89250e-07;-0.00031694908544598955
6.89500e-07;-0.0003207959133404388
6.89750e-07;-0.00032389621888599186
6.90000e-07;-0.00032600648912602554
6.90250e-07;-0.00032811675936605917
6.90500e-07;-0.00032928440454445
6.90750e-07;-0.0003292019436914893
6.91000e-07;-0.00032911948283852855
6.91250e-07;-0.00032851408558868986
6.91500e-07;-0.000327215171934129
6.91750e-07;-0.0003259162582795682
6.92000e-07;-0.0003240311592437931
6.92250e-07;-0.00032136866322339655
6.92500e-07;-0.00031870616720299996
6.92750e-07;-0.0003153723673189266
