Time(s);Current(A)
2.50000e-06;0.006296757043851072
2.50025e-06;0.0062768766023321414
2.50050e-06;0.0062569961608132454
2.50075e-06;0.006237115719294315
2.50100e-06;0.006217235277775385
2.50125e-06;0.006197354836256488
2.50150e-06;0.006177474394737557
2.50175e-06;0.0061575939532186276
2.50200e-06;0.006137713511699697
2.50225e-06;0.006117833070180801
2.50250e-06;0.00609795262866187
2.50275e-06;0.0060780721871429395
2.50300e-06;0.006065176141990596
2.50325e-06;0.006052945906480447
2.50350e-06;0.006040715670970298
2.50375e-06;0.006028485435460169
2.50400e-06;0.00601625519995002
2.50425e-06;0.006004024964439871
2.50450e-06;0.005991794728929722
2.50475e-06;0.005979564493419593
2.50500e-06;0.005967334257909444
2.50525e-06;0.005955104022399295
2.50550e-06;0.005942873786889167
2.50575e-06;0.005930643551379017
2.50600e-06;0.005918413315868868
2.50625e-06;0.00592365911629642
2.50650e-06;0.005930570875043775
2.50675e-06;0.005937482633791142
2.50700e-06;0.005944394392538509
2.50725e-06;0.005951306151285865
2.50750e-06;0.005958217910033232
2.50775e-06;0.005965129668780599
2.50800e-06;0.005972041427527954
2.50825e-06;0.005978953186275321
2.50850e-06;0.005985864945022688
2.50875e-06;0.005992776703770055
2.50900e-06;0.00599968846251741
2.50925e-06;0.006006600221264777
2.50950e-06;0.006018237942863148
2.50975e-06;0.0060365935864467885
2.51000e-06;0.00605494923003046
2.51025e-06;0.006073304873614132
2.51050e-06;0.006091660517197805
2.51075e-06;0.006110016160781446
2.51100e-06;0.0061283718043651176
2.51125e-06;0.0061467274479487894
2.51150e-06;0.006165083091532431
2.51175e-06;0.006183438735116103
2.51200e-06;0.006201794378699775
2.51225e-06;0.006220150022283415
2.51250e-06;0.006238505665867088
2.51275e-06;0.00625686130945076
2.51300e-06;0.006267786638460129
2.51325e-06;0.0062780036492656646
2.51350e-06;0.006288220660071217
2.51375e-06;0.0062984376708767695
2.51400e-06;0.006308654681682306
2.51425e-06;0.006318871692487858
2.51450e-06;0.0063290887032934106
2.51475e-06;0.006339305714098963
2.51500e-06;0.006349522724904498
2.51525e-06;0.006359739735710051
2.51550e-06;0.006369956746515604
2.51575e-06;0.006380173757321139
2.51600e-06;0.006390390768126692
2.51625e-06;0.006400607778932244
2.51650e-06;0.006410824789737779
2.51675e-06;0.006421041800543333
2.51700e-06;0.006431258811348885
2.51725e-06;0.006441475822154438
2.51750e-06;0.006451692832959973
2.51775e-06;0.006461909843765525
2.51800e-06;0.006472126854571079
2.51825e-06;0.006482343865376614
2.51850e-06;0.006485525004407604
2.51875e-06;0.006488035426740325
2.51900e-06;0.006490545849073045
2.51925e-06;0.006493056271405761
2.51950e-06;0.006495566693738481
2.51975e-06;0.006498077116071202
2.52000e-06;0.006500587538403918
2.52025e-06;0.006503097960736638
2.52050e-06;0.006505608383069359
2.52075e-06;0.006508118805402074
2.52100e-06;0.006510629227734795
2.52125e-06;0.006513139650067515
2.52150e-06;0.0065156500724002355
2.52175e-06;0.006518160494732952
2.52200e-06;0.006520670917065672
2.52225e-06;0.0065231813393983925
2.52250e-06;0.006525691761731108
2.52275e-06;0.006528202184063829
2.52300e-06;0.006530712606396549
2.52325e-06;0.006533223028729269
2.52350e-06;0.006535733451061986
2.52375e-06;0.0065382438733947055
2.52400e-06;0.006533059270184413
2.52425e-06;0.006527141114360986
2.52450e-06;0.00652122295853755
2.52475e-06;0.0065153048027141135
2.52500e-06;0.006509386646890687
2.52525e-06;0.00650346849106725
2.52550e-06;0.006497550335243814
2.52575e-06;0.006491632179420378
2.52600e-06;0.006485714023596951
2.52625e-06;0.0064797958677735145
2.52650e-06;0.006465104666084007
2.52675e-06;0.006437942643195381
2.52700e-06;0.006410780620306709
2.52725e-06;0.006383618597418038
2.52750e-06;0.006356456574529367
2.52775e-06;0.006329294551640742
2.52800e-06;0.00630213252875207
2.52825e-06;0.006274970505863398
2.52850e-06;0.0062478084829747736
2.52875e-06;0.006220646460086102
2.52900e-06;0.006193484437197431
2.52925e-06;0.006151937408808619
2.52950e-06;0.006109019084338099
2.52975e-06;0.006066100759867579
2.53000e-06;0.006023182435397059
2.53025e-06;0.0059802641109266115
2.53050e-06;0.005937345786456091
2.53075e-06;0.005894427461985571
2.53100e-06;0.005851509137515124
2.53125e-06;0.0058085908130446045
2.53150e-06;0.005765672488574084
2.53175e-06;0.005724929745050309
2.53200e-06;0.005684394395651526
2.53225e-06;0.005643859046252675
2.53250e-06;0.005603323696853823
2.53275e-06;0.00556278834745504
2.53300e-06;0.005522252998056189
2.53325e-06;0.005481717648657338
2.53350e-06;0.005441182299258555
2.53375e-06;0.005400646949859703
2.53400e-06;0.005360111600460852
2.53425e-06;0.005332481415347983
2.53450e-06;0.005306081455779405
2.53475e-06;0.005279681496210782
2.53500e-06;0.00525328153664216
2.53525e-06;0.0052268815770735826
2.53550e-06;0.00520048161750496
2.53575e-06;0.005174081657936337
2.53600e-06;0.005147681698367715
2.53625e-06;0.005121281738799137
2.53650e-06;0.005094881779230514
2.53675e-06;0.005068481819661892
2.53700e-06;0.005042081860093315
2.53725e-06;0.005015681900524692
2.53750e-06;0.004990188017590459
2.53775e-06;0.004965982116033954
2.53800e-06;0.004941776214477407
2.53825e-06;0.0049175703129208615
2.53850e-06;0.004893364411364315
2.53875e-06;0.00486915850980781
2.53900e-06;0.004844952608251263
2.53925e-06;0.0048207467066947165
2.53950e-06;0.0047965408051382115
2.53975e-06;0.004772334903581665
2.54000e-06;0.004748129002025119
2.54025e-06;0.004723923100468572
2.54050e-06;0.004699717198912067
2.54075e-06;0.004675511297355521
2.54100e-06;0.0046538599872355865
2.54125e-06;0.004632452201612651
2.54150e-06;0.004611044415989679
2.54175e-06;0.004589636630366708
2.54200e-06;0.004568228844743773
2.54225e-06;0.0045468210591208015
2.54250e-06;0.00452541327349783
2.54275e-06;0.004504005487874858
2.54300e-06;0.004482597702251923
2.54325e-06;0.0044611899166289515
2.54350e-06;0.00443978213100598
2.54375e-06;0.004423858671084396
2.54400e-06;0.004415731140452582
2.54425e-06;0.004407603609820769
2.54450e-06;0.004399476079188969
2.54475e-06;0.004391348548557155
2.54500e-06;0.004383221017925341
2.54525e-06;0.0043750934872935285
2.54550e-06;0.0043669659566617286
2.54575e-06;0.004358838426029915
2.54600e-06;0.004350710895398102
2.54625e-06;0.004342583364766302
2.54650e-06;0.004334455834134488
2.54675e-06;0.004345711791078602
2.54700e-06;0.00435881554019573
2.54725e-06;0.004371919289312837
2.54750e-06;0.004385023038429965
2.54775e-06;0.004398126787547094
2.54800e-06;0.0044112305366642
2.54825e-06;0.0044243342857813285
2.54850e-06;0.0044374380348984575
2.54875e-06;0.004450541784015563
2.54900e-06;0.004463645533132692
2.54925e-06;0.00447674928224982
2.54950e-06;0.00449505084172669
2.54975e-06;0.004520741051009129
2.55000e-06;0.004546431260291612
2.55025e-06;0.004572121469574095
2.55050e-06;0.004597811678856535
2.55075e-06;0.0046235018881390175
2.55100e-06;0.0046491920974215005
2.55125e-06;0.004674882306703983
2.55150e-06;0.004700572515986423
2.55175e-06;0.004726262725268906
2.55200e-06;0.00475195293455139
2.55225e-06;0.004777643143833828
2.55250e-06;0.0048031644455130045
2.55275e-06;0.004828669645541424
2.55300e-06;0.0048541748455698
2.55325e-06;0.0048681053727409425
2.55350e-06;0.0048809325076649545
2.55375e-06;0.0048937596425889665
2.55400e-06;0.004906586777512958
2.55425e-06;0.00491941391243697
2.55450e-06;0.004932241047360982
2.55475e-06;0.004945068182284972
2.55500e-06;0.004957895317208984
2.55525e-06;0.004970722452132996
2.55550e-06;0.004983549587057008
2.55575e-06;0.004996376721980999
2.55600e-06;0.005009203856905011
2.55625e-06;0.005022030991829024
2.55650e-06;0.005034858126753014
2.55675e-06;0.005047685261677026
2.55700e-06;0.005060512396601038
2.55725e-06;0.005055040380670758
2.55750e-06;0.005047823940389857
2.55775e-06;0.005040607500108956
2.55800e-06;0.005033391059828056
2.55825e-06;0.005026174619547167
2.55850e-06;0.0050189581792662655
2.55875e-06;0.005011741738985364
2.55900e-06;0.005004525298704476
2.55925e-06;0.004997308858423575
2.55950e-06;0.004990092418142674
2.55975e-06;0.004982875977861774
2.56000e-06;0.004975659537580885
2.56025e-06;0.0049684430972999835
2.56050e-06;0.004961226657019082
2.56075e-06;0.004954010216738194
2.56100e-06;0.004946793776457293
2.56125e-06;0.0049345511836504305
2.56150e-06;0.004921829456979591
2.56175e-06;0.0049091077303087295
2.56200e-06;0.004896386003637869
2.56225e-06;0.004883664276967007
2.56250e-06;0.004870942550296168
2.56275e-06;0.004858220823625306
2.56300e-06;0.004845499096954445
2.56325e-06;0.004832777370283606
2.56350e-06;0.004820055643612744
2.56375e-06;0.004807670368022736
2.56400e-06;0.00479531716569465
2.56425e-06;0.004782963963366585
2.56450e-06;0.004770610761038499
2.56475e-06;0.004758257558710413
2.56500e-06;0.0047459043563823486
2.56525e-06;0.004733551154054262
2.56550e-06;0.004721197951726177
2.56575e-06;0.0047088447493981115
2.56600e-06;0.004696491547070026
2.56625e-06;0.004673543139975689
2.56650e-06;0.004649584711523276
2.56675e-06;0.004625626283070904
2.56700e-06;0.004601667854618492
2.56725e-06;0.00457770942616608
2.56750e-06;0.004553750997713708
2.56775e-06;0.004529792569261296
2.56800e-06;0.004505834140808884
2.56825e-06;0.004481875712356471
2.56850e-06;0.0044579172839040995
2.56875e-06;0.004433958855451687
2.56900e-06;0.004410000426999275
2.56925e-06;0.004376442401022585
2.56950e-06;0.00434196926309255
2.56975e-06;0.004307496125162514
2.57000e-06;0.004273022987232537
2.57025e-06;0.004238549849302501
2.57050e-06;0.0042040767113724654
2.57075e-06;0.00416960357344243
2.57100e-06;0.004135130435512452
2.57125e-06;0.004100657297582417
2.57150e-06;0.004066184159652381
2.57175e-06;0.004031711021722405
2.57200e-06;0.003997237883792369
2.57225e-06;0.003970014703842511
2.57250e-06;0.003943482649035373
2.57275e-06;0.00391695059422828
2.57300e-06;0.003890418539421142
2.57325e-06;0.003863886484614004
2.57350e-06;0.003837354429806911
2.57375e-06;0.0038108223749997727
2.57400e-06;0.0037842903201926346
2.57425e-06;0.0037577582653855416
2.57450e-06;0.003731226210578404
2.57475e-06;0.003704694155771266
2.57500e-06;0.0036781621009641277
2.57525e-06;0.0036516300461570347
2.57550e-06;0.0036445619358978034
2.57575e-06;0.0036393492876275807
2.57600e-06;0.003634136639357367
2.57625e-06;0.0036289239910871447
2.57650e-06;0.003623711342816922
2.57675e-06;0.0036184986945466996
2.57700e-06;0.003613286046276486
2.57725e-06;0.003608073398006263
2.57750e-06;0.003602860749736041
2.57775e-06;0.0035976481014658272
2.57800e-06;0.0035924354531956045
2.57825e-06;0.003587222804925382
2.57850e-06;0.003582010156655168
2.57875e-06;0.003590272840898568
2.57900e-06;0.003599820103774441
2.57925e-06;0.0036093673666503135
2.57950e-06;0.00361891462952617
2.57975e-06;0.003628461892402043
2.58000e-06;0.0036380091552779153
2.58025e-06;0.0036475564181537717
2.58050e-06;0.0036571036810296447
2.58075e-06;0.003666650943905517
2.58100e-06;0.00367619820678139
2.58125e-06;0.0036857454696572465
2.58150e-06;0.003697724653847582
2.58175e-06;0.003709935668618231
2.58200e-06;0.0037221466833888585
2.58225e-06;0.0037343576981595074
2.58250e-06;0.003746568712930156
2.58275e-06;0.003758779727700784
2.58300e-06;0.0037709907424714325
2.58325e-06;0.0037832017572420815
2.58350e-06;0.00379541277201273
2.58375e-06;0.003807623786783358
2.58400e-06;0.003819834801554007
2.58425e-06;0.0038356452093969854
2.58450e-06;0.003851798740752948
2.58475e-06;0.0038679522721089383
2.58500e-06;0.003884105803464929
2.58525e-06;0.003900259334820919
2.58550e-06;0.003916412866176882
2.58575e-06;0.003932566397532872
2.58600e-06;0.003948719928888862
2.58625e-06;0.003964873460244826
2.58650e-06;0.004001529978281465
2.58675e-06;0.004040141008280589
2.58700e-06;0.0040787520382796465
2.58725e-06;0.00411736306827877
2.58750e-06;0.004155974098277894
2.58775e-06;0.004194585128277017
2.58800e-06;0.004233196158276076
2.58825e-06;0.0042718071882752
2.58850e-06;0.004310418218274323
2.58875e-06;0.0043671128638086065
2.58900e-06;0.004425531387109709
2.58925e-06;0.004483949910410811
2.58950e-06;0.004542368433711913
2.58975e-06;0.004600786957012917
2.59000e-06;0.004659205480314019
2.59025e-06;0.004717624003615121
2.59050e-06;0.004776042526916125
2.59075e-06;0.0048362548789408905
2.59100e-06;0.004899017145513668
2.59125e-06;0.004961779412086339
2.59150e-06;0.005024541678659117
2.59175e-06;0.005087303945231895
2.59200e-06;0.005150066211804673
2.59225e-06;0.005212828478377344
2.59250e-06;0.005275590744950122
2.59275e-06;0.0053383530115228995
2.59300e-06;0.005378594130896028
2.59325e-06;0.00541668835078074
2.59350e-06;0.005454782570665451
2.59375e-06;0.0054928767905501625
2.59400e-06;0.005530971010434809
2.59425e-06;0.00556906523031952
2.59450e-06;0.005607159450204232
2.59475e-06;0.005645253670088879
2.59500e-06;0.00568334788997359
2.59525e-06;0.0057214421098583015
2.59550e-06;0.005759536329742948
2.59575e-06;0.005797630549627659
2.59600e-06;0.005835724769512371
2.59625e-06;0.005873818989397083
2.59650e-06;0.005878992499239304
2.59675e-06;0.005881027738418524
2.59700e-06;0.005883062977597744
2.59725e-06;0.005885098216776959
2.59750e-06;0.005887133455956179
2.59775e-06;0.005889168695135399
2.59800e-06;0.005891203934314619
2.59825e-06;0.005893239173493835
2.59850e-06;0.005895274412673055
2.59875e-06;0.005897309651852275
2.59900e-06;0.005899344891031491
2.59925e-06;0.005901380130210711
2.59950e-06;0.0059034153693899305
2.59975e-06;0.005905450608569147
2.60000e-06;0.005891889889230112
2.60025e-06;0.005876842435886243
2.60050e-06;0.005861794982542374
2.60075e-06;0.00584674752919853
2.60100e-06;0.005831700075854661
2.60125e-06;0.0058166526225107915
2.60150e-06;0.005801605169166947
2.60175e-06;0.005786557715823078
2.60200e-06;0.005771510262479209
2.60225e-06;0.00575646280913534
2.60250e-06;0.005741415355791496
2.60275e-06;0.005726367902447627
2.60300e-06;0.0057125068995343906
2.60325e-06;0.005700332427321621
2.60350e-06;0.00568815795510883
2.60375e-06;0.005675983482896039
2.60400e-06;0.005663809010683269
2.60425e-06;0.005651634538470479
2.60450e-06;0.005639460066257688
2.60475e-06;0.005627285594044898
2.60500e-06;0.005615111121832128
2.60525e-06;0.005602936649619337
2.60550e-06;0.005590762177406546
2.60575e-06;0.005578587705193776
2.60600e-06;0.005566413232980986
2.60625e-06;0.005560128849147282
2.60650e-06;0.005554405956591959
2.60675e-06;0.005548683064036645
2.60700e-06;0.005542960171481323
2.60725e-06;0.005537237278925999
2.60750e-06;0.005531514386370686
2.60775e-06;0.005525791493815362
2.60800e-06;0.0055200686012600395
2.60825e-06;0.0055143457087047255
2.60850e-06;0.005508622816149403
2.60875e-06;0.005502899923594079
2.60900e-06;0.005497177031038756
2.60925e-06;0.005491454138483442
2.60950e-06;0.00548573124592812
2.60975e-06;0.005480008353372796
2.61000e-06;0.005474285460817483
2.61025e-06;0.005469784009519817
2.61050e-06;0.0054670188281300955
2.61075e-06;0.005464253646740374
2.61100e-06;0.005461488465350656
2.61125e-06;0.005458723283960934
2.61150e-06;0.005455958102571211
2.61175e-06;0.005453192921181495
2.61200e-06;0.005450427739791772
2.61225e-06;0.00544766255840205
2.61250e-06;0.005444897377012333
2.61275e-06;0.005442132195622611
2.61300e-06;0.005439367014232889
2.61325e-06;0.005436601832843166
2.61350e-06;0.005433836651453449
2.61375e-06;0.005431071470063727
2.61400e-06;0.005428306288674005
2.61425e-06;0.005425541107284287
2.61450e-06;0.005412767455062053
2.61475e-06;0.005399039713746092
2.61500e-06;0.0053853119724301315
2.61525e-06;0.005371584231114194
2.61550e-06;0.005357856489798233
2.61575e-06;0.005344128748482272
2.61600e-06;0.005330401007166335
2.61625e-06;0.005316673265850374
2.61650e-06;0.005302945524534412
2.61675e-06;0.005289217783218475
2.61700e-06;0.0052518626648455575
2.61725e-06;0.005212255192127795
2.61750e-06;0.005172647719410033
2.61775e-06;0.005133040246692339
2.61800e-06;0.0050934327739745764
2.61825e-06;0.005053825301256814
2.61850e-06;0.00501421782853912
2.61875e-06;0.004974610355821358
2.61900e-06;0.004935002883103595
2.61925e-06;0.004895395410385901
2.61950e-06;0.004840388052185377
2.61975e-06;0.004783912651260694
2.62000e-06;0.004727437250336012
2.62025e-06;0.004670961849411424
2.62050e-06;0.004614486448486742
2.62075e-06;0.004558011047562059
2.62100e-06;0.004501535646637473
2.62125e-06;0.00444506024571279
2.62150e-06;0.0043889966933912655
2.62175e-06;0.004332972401838662
2.62200e-06;0.004276948110286154
2.62225e-06;0.004220923818733551
2.62250e-06;0.004164899527180948
2.62275e-06;0.004108875235628439
2.62300e-06;0.004052850944075836
2.62325e-06;0.003996826652523233
2.62350e-06;0.003960489096193875
2.62375e-06;0.003926028240080292
2.62400e-06;0.0038915673839667094
2.62425e-06;0.0038571065278531266
2.62450e-06;0.0038226456717396023
2.62475e-06;0.0037881848156260194
2.62500e-06;0.0037537239595124366
2.62525e-06;0.0037192631033989123
2.62550e-06;0.0036848022472853294
2.62575e-06;0.0036503413911717466
2.62600e-06;0.0036158805350581637
2.62625e-06;0.003581419678944639
2.62650e-06;0.0035676386888900467
2.62675e-06;0.0035558290723851885
2.62700e-06;0.0035440194558803506
2.62725e-06;0.003532209839375493
2.62750e-06;0.0035204002228706346
2.62775e-06;0.0035085906063657968
2.62800e-06;0.003496780989860939
2.62825e-06;0.003484971373356081
2.62850e-06;0.003473161756851223
2.62875e-06;0.003461352140346385
2.62900e-06;0.0034495425238415273
2.62925e-06;0.003437732907336669
2.62950e-06;0.003437101102043349
2.62975e-06;0.0034375348569091195
2.63000e-06;0.0034379686117748894
2.63025e-06;0.0034384023666406594
2.63050e-06;0.003438836121506429
2.63075e-06;0.0034392698763721988
2.63100e-06;0.003439703631237969
2.63125e-06;0.003440137386103738
2.63150e-06;0.0034405711409695085
2.63175e-06;0.0034410048958352785
2.63200e-06;0.003441438650701048
2.63225e-06;0.003441872405566818
2.63250e-06;0.003442306160432588
2.63275e-06;0.003443633613291424
2.63300e-06;0.0034462314513797384
2.63325e-06;0.0034488292894680576
2.63350e-06;0.0034514271275563765
2.63375e-06;0.003454024965644691
2.63400e-06;0.00345662280373301
2.63425e-06;0.003459220641821329
2.63450e-06;0.0034618184799096482
2.63475e-06;0.0034644163179979627
2.63500e-06;0.0034670141560862815
2.63525e-06;0.0034696119941746003
2.63550e-06;0.0034722098322629152
2.63575e-06;0.003474807670351234
2.63600e-06;0.003477405508439553
2.63625e-06;0.003481355765742992
2.63650e-06;0.0034854349466797744
2.63675e-06;0.0034895141276165575
2.63700e-06;0.00349359330855334
2.63725e-06;0.003497672489490116
2.63750e-06;0.003501751670426899
2.63775e-06;0.0035058308513636815
2.63800e-06;0.003509910032300457
2.63825e-06;0.0035139892132372403
2.63850e-06;0.003518068394174023
2.63875e-06;0.003522147575110806
2.63900e-06;0.0035262267560475817
2.63925e-06;0.0035303059369843643
2.63950e-06;0.0035343851179211474
2.63975e-06;0.003538464298857923
2.64000e-06;0.003542543479794706
2.64025e-06;0.0035466226607314888
2.64050e-06;0.0035507018416682645
2.64075e-06;0.0035547810226050475
2.64100e-06;0.00355886020354183
2.64125e-06;0.003562939384478613
2.64150e-06;0.003567018565415389
2.64175e-06;0.0035710977463521715
2.64200e-06;0.003575176927288954
2.64225e-06;0.0035792561082257303
2.64250e-06;0.003583335289162513
2.64275e-06;0.003587414470099296
2.64300e-06;0.0035914936510360786
2.64325e-06;0.0035955728319728543
2.64350e-06;0.0035996520129096374
2.64375e-06;0.00360373119384642
2.64400e-06;0.003607810374783196
2.64425e-06;0.003611889555719979
2.64450e-06;0.0036159687366567614
2.64475e-06;0.0036200479175935375
2.64500e-06;0.00362412709853032
2.64525e-06;0.003628206279467103
2.64550e-06;0.003632285460403886
2.64575e-06;0.0036363646413406616
2.64600e-06;0.0036458896332387555
2.64625e-06;0.0036559337642676206
2.64650e-06;0.0036659778952964684
2.64675e-06;0.0036760220263253335
2.64700e-06;0.0036860661573541987
2.64725e-06;0.003696110288383064
2.64750e-06;0.0037061544194119116
2.64775e-06;0.0037161985504407767
2.64800e-06;0.003726242681469642
2.64825e-06;0.00373628681249849
2.64850e-06;0.003746330943527355
2.64875e-06;0.00375637507455622
2.64900e-06;0.003766419205585068
2.64925e-06;0.003776463336613933
2.64950e-06;0.0037912000971978108
2.64975e-06;0.0038063841975159787
2.65000e-06;0.0038215682978341207
2.65025e-06;0.0038367523981522886
