Time(s);Current(A)
9.25000e-06;0.004801850495005388
9.25025e-06;0.004808844374280416
9.25050e-06;0.004815838253555491
9.25075e-06;0.004822832132830567
9.25100e-06;0.004829826012105595
9.25125e-06;0.00483681989138067
9.25150e-06;0.004843813770655746
9.25175e-06;0.004850807649930773
9.25200e-06;0.0048578015292058485
9.25225e-06;0.0048647954084809234
9.25250e-06;0.0048717892877559515
9.25275e-06;0.004878783167031027
9.25300e-06;0.004885777046306102
9.25325e-06;0.00489277092558113
9.25350e-06;0.004894531538446084
9.25375e-06;0.004895795239699553
9.25400e-06;0.0048970589409530136
9.25425e-06;0.0048983226422064825
9.25450e-06;0.0048995863434599515
9.25475e-06;0.004900850044713413
9.25500e-06;0.004902113745966882
9.25525e-06;0.004903377447220351
9.25550e-06;0.004904641148473811
9.25575e-06;0.00488890934156987
9.25600e-06;0.0048715637690584885
9.25625e-06;0.004854218196547108
9.25650e-06;0.004836872624035844
9.25675e-06;0.004819527051524463
9.25700e-06;0.004802181479013082
9.25725e-06;0.004784835906501818
9.25750e-06;0.004767490333990437
9.25775e-06;0.004750144761479056
9.25800e-06;0.004710130068831106
9.25825e-06;0.0046679628870610985
9.25850e-06;0.004625795705291091
9.25875e-06;0.0045836285235213705
9.25900e-06;0.004541461341751363
9.25925e-06;0.004499294159981357
9.25950e-06;0.004457126978211636
9.25975e-06;0.004414959796441629
9.26000e-06;0.004372792614671622
9.26025e-06;0.004317882133143509
9.26050e-06;0.00426176164372997
9.26075e-06;0.00420564115431643
9.26100e-06;0.004149520664903271
9.26125e-06;0.004093400175489731
9.26150e-06;0.004037279686076191
9.26175e-06;0.003981159196663032
9.26200e-06;0.003925038707249493
9.26225e-06;0.003868918217835953
9.26250e-06;0.00381823755848507
9.26275e-06;0.003768073424476196
9.26300e-06;0.0037179092904673218
9.26325e-06;0.003667745156458788
9.26350e-06;0.003617581022449914
9.26375e-06;0.0035674168884410394
9.26400e-06;0.0035172527544325054
9.26425e-06;0.003467088620423631
9.26450e-06;0.003416924486414757
9.26475e-06;0.003389241527881266
9.26500e-06;0.0033648875313483134
9.26525e-06;0.003340533534815196
9.26550e-06;0.003316179538282079
9.26575e-06;0.0032918255417491264
9.26600e-06;0.003267471545216009
9.26625e-06;0.003243117548682892
9.26650e-06;0.0032187635521499394
9.26675e-06;0.003194409555616822
9.26700e-06;0.0031871490357250442
9.26725e-06;-0.0013221943594473526
9.26750e-06;-0.017548657668573543
9.26775e-06;-0.014208101619515521
9.26800e-06;-0.010652794193272506
9.26825e-06;-0.0049530216007384375
9.26850e-06;0.007881997825791093
9.26875e-06;0.007307428989092421
9.26900e-06;0.006646311247840254
9.26925e-06;0.0025367567912062366
9.26950e-06;-0.0033296775217047333
9.26975e-06;-0.004800079155609321
9.27000e-06;-0.0025292272587344364
9.27025e-06;0.0015197591824172136
9.27050e-06;0.005621549341781482
9.27075e-06;0.007203973575576433
9.27100e-06;0.006160352356976854
9.27125e-06;0.003277416713809591
9.27150e-06;8.696528293914091e-05
9.27175e-06;-0.0007938070786788973
9.27200e-06;0.0005824508075678474
9.27225e-06;0.0030835364304304933
9.27250e-06;0.005626083716541652
9.27275e-06;0.0065968881908637445
9.27300e-06;0.005927599649669827
9.27325e-06;0.004109795329146897
9.27350e-06;0.0021019480357998624
9.27375e-06;0.001542503585221055
9.27400e-06;0.002397608145899842
9.27425e-06;0.003957338269597642
9.27450e-06;0.005542526966812117
9.27475e-06;0.00614259465509102
9.27500e-06;0.005715660217925
9.27525e-06;0.0045710903312279425
9.27550e-06;0.0033100447141286887
9.27575e-06;0.0029587898053747307
9.27600e-06;0.0034958271176747328
9.27625e-06;0.004476211079537966
9.27650e-06;0.0054743178130820655
9.27675e-06;0.0058569888782634815
9.27700e-06;0.005597898155461197
9.27725e-06;0.004890740733539209
9.27750e-06;0.004111971881354008
9.27775e-06;0.00390429138020736
9.27800e-06;0.004254056529796536
9.27825e-06;0.004882394226410441
9.27850e-06;0.005522562001087137
9.27875e-06;0.0057778506411811864
9.27900e-06;0.005631690532752971
9.27925e-06;0.005205330072094011
9.27950e-06;0.004734482387795123
9.27975e-06;0.004621607870173823
9.28000e-06;0.004858017545505148
9.28025e-06;0.00526889132234843
9.28050e-06;0.005687024081856423
9.28075e-06;0.005863819175740658
9.28100e-06;0.005788810363165452
9.28125e-06;0.00553785788522354
9.28150e-06;0.005258513124699754
9.28175e-06;0.005202758835797703
9.28200e-06;0.005365023351296914
9.28225e-06;0.005635676410933611
9.28250e-06;0.005909867514617985
9.28275e-06;0.006031774569013137
9.28300e-06;0.005994747291720644
9.28325e-06;0.005846208608011413
9.28350e-06;0.005678482588887214
9.28375e-06;0.005649296834855663
9.28400e-06;0.005755040603286746
9.28425e-06;0.005926924368930396
9.28450e-06;0.006099158900852918
9.28475e-06;0.006173901787411533
9.28500e-06;0.006146422580840338
9.28525e-06;0.0060457660594823185
9.28550e-06;0.005929488988760199
9.28575e-06;0.005896492051996315
9.28600e-06;0.005944708437009882
9.28625e-06;0.006031246292930799
9.28650e-06;0.0061150964000892625
9.28675e-06;0.006135176283385526
9.28700e-06;0.0060887321577152926
9.28725e-06;0.005994165647781429
9.28750e-06;0.0058877366496468166
9.28775e-06;0.0058315972417279285
9.28800e-06;0.005824651482039333
9.28825e-06;0.005840231939065302
9.28850e-06;0.005852852571440093
9.28875e-06;0.00582445691998627
9.28900e-06;0.005753526832936846
9.28925e-06;0.005651795559363809
9.28950e-06;0.005542180893600732
9.28975e-06;0.00546381743933487
9.29000e-06;0.005416219049275391
9.29025e-06;0.005382882410133319
9.29050e-06;0.005348046043363679
9.29075e-06;0.005281262593591408
9.29100e-06;0.005198496422046618
9.29125e-06;0.005098051119188683
9.29150e-06;0.004990113045781139
9.29175e-06;0.004908144683678288
9.29200e-06;0.004839736013774878
9.29225e-06;0.004781566012114818
9.29250e-06;0.004727185729201758
9.29275e-06;0.004655776738305929
9.29300e-06;0.0045755910287847545
9.29325e-06;0.004488463224420269
9.29350e-06;0.004397535873154739
9.29375e-06;0.0043267844599587345
9.29400e-06;0.004267075739885631
9.29425e-06;0.004217708310982252
9.29450e-06;0.00417400087689426
9.29475e-06;0.004124519323256755
9.29500e-06;0.00407187747888019
9.29525e-06;0.004019289504015652
9.29550e-06;0.003966731013009158
9.29575e-06;0.0039306609565236865
9.29600e-06;0.0039036153489567615
9.29625e-06;0.003886446746580168
9.29650e-06;0.003874684026047532
9.29675e-06;0.003862254933627668
9.29700e-06;0.0038494611225894882
9.29725e-06;0.0038392037680751137
9.29750e-06;0.0038303346667816988
9.29775e-06;0.0038338468258737033
9.29800e-06;0.003844135495601411
9.29825e-06;0.003862368689538909
9.29850e-06;0.003884950079954589
9.29875e-06;0.0039075314703702685
9.29900e-06;0.003932316344536725
9.29925e-06;0.003958307229287806
9.29950e-06;0.0039842981140388875
9.29975e-06;0.00402034584488932
9.30000e-06;0.0040618978880987925
9.30025e-06;0.004103449931308266
9.30050e-06;0.0041488016309802495
9.30075e-06;0.004196232958382841
9.30100e-06;0.004243664285785433
9.30125e-06;0.004291095613187703
9.30150e-06;0.0043385269405902946
9.30175e-06;0.004388951968335749
9.30200e-06;0.0044410155079596106
9.30225e-06;0.0044930790475838246
9.30250e-06;0.0045451425872080385
9.30275e-06;0.0045972061268318995
9.30300e-06;0.004644641769204456
9.30325e-06;0.004689544471151278
9.30350e-06;0.004734447173097797
9.30375e-06;0.004779349875044618
9.30400e-06;0.00482425257699144
9.30425e-06;0.004867575338710055
9.30450e-06;0.004901677154096307
9.30475e-06;0.0049357789694825585
9.30500e-06;0.00496988078486858
9.30525e-06;0.005003982600254832
9.30550e-06;0.005038084415641084
9.30575e-06;0.0050749069346173875
9.30600e-06;0.005113218548907915
9.30625e-06;0.005151530163198442
9.30650e-06;0.00518984177748871
9.30675e-06;0.0052281533917792385
9.30700e-06;0.005266465006069766
9.30725e-06;0.005304776620360293
9.30750e-06;0.005343088234650562
9.30775e-06;0.0053813998489410896
9.30800e-06;0.005419711463231617
9.30825e-06;0.005458023077521885
9.30850e-06;0.00549796199740554
9.30875e-06;0.005547398300342136
9.30900e-06;0.005596834603278396
9.30925e-06;0.005646270906214991
9.30950e-06;0.005695707209151587
9.30975e-06;0.005745143512087847
9.31000e-06;0.005794579815024443
9.31025e-06;0.005844016117961038
9.31050e-06;0.005893452420897298
9.31075e-06;0.005942888723833894
9.31100e-06;0.005992325026770489
9.31125e-06;0.006041761329706749
9.31150e-06;0.006091728888706263
9.31175e-06;0.006141987214740015
9.31200e-06;0.006192245540773425
9.31225e-06;0.006242503866807176
9.31250e-06;0.006292762192840928
9.31275e-06;0.006343020518874338
9.31300e-06;0.006393278844908089
9.31325e-06;0.006441514632946567
9.31350e-06;0.006477946357772816
9.31375e-06;0.0065143780825993106
9.31400e-06;0.006550809807425805
9.31425e-06;0.006587241532252053
9.31450e-06;0.006623673257078548
9.31475e-06;0.0066601049819050425
9.31500e-06;0.006696536706731291
9.31525e-06;0.006705480093403322
9.31550e-06;0.006699378564599803
9.31575e-06;0.006693277035796284
9.31600e-06;0.006687175506992808
9.31625e-06;0.006681073978189289
9.31650e-06;0.00667497244938577
9.31675e-06;0.006668870920582293
9.31700e-06;0.006654613121525638
9.31725e-06;0.006592753186003446
9.31750e-06;0.006530893250481674
9.31775e-06;0.006469033314959483
9.31800e-06;0.006407173379437292
9.31825e-06;0.00634531344391552
9.31850e-06;0.006283453508393329
9.31875e-06;0.006221593572871137
9.31900e-06;0.00613127506151177
9.31925e-06;0.0060253806042494746
9.31950e-06;0.005919486146987178
9.31975e-06;0.0058135916897256
9.32000e-06;0.005707697232463304
9.32025e-06;0.005601802775201008
9.32050e-06;0.0054927967210244896
9.32075e-06;0.005365630569597184
9.32100e-06;0.005238464418169878
9.32125e-06;0.005111298266743435
9.32150e-06;0.004984132115316129
9.32175e-06;0.004856965963888823
9.32200e-06;0.004729799812462379
9.32225e-06;0.004602291152486726
9.32250e-06;0.004474595030754332
9.32275e-06;0.004346898909022803
9.32300e-06;0.004224465146470726
9.32325e-06;0.004104911578008195
9.32350e-06;0.003985358009546475
9.32375e-06;0.0038752513679344456
9.32400e-06;0.0037703152177213633
9.32425e-06;0.0036653790675082805
9.32450e-06;0.0035740602171498406
9.32475e-06;0.003490194386475073
9.32500e-06;0.0034063285558003057
9.32525e-06;0.003334833903783208
9.32550e-06;0.0032701102444764435
9.32575e-06;0.003205386585169679
9.32600e-06;0.0031532389491092483
9.32625e-06;0.0031079744212867137
9.32650e-06;0.0030627098934641796
9.32675e-06;0.003030731673957186
9.32700e-06;0.003006025315867143
9.32725e-06;0.0029813189577771
9.32750e-06;0.002967604086838673
9.32775e-06;0.0029599050759449358
9.32800e-06;0.0029522060650511986
9.32825e-06;0.002955243739518802
9.32850e-06;0.0029641578159315396
9.32875e-06;0.0029730718923442773
9.32900e-06;0.002991283726212504
9.32925e-06;0.0030145844080966466
9.32950e-06;0.0030378850899807895
9.32975e-06;0.0030716499574372914
9.33000e-06;0.0031111420822721777
9.33025e-06;0.0031506342071070635
9.33050e-06;0.0031901263319416818
9.33075e-06;0.003229618456776568
9.33100e-06;0.003269110581611454
9.33125e-06;0.00331020655313014
9.33150e-06;0.0033606629953555783
9.33175e-06;0.003411119437581016
9.33200e-06;0.003461575879806112
9.33225e-06;0.00351203232203155
9.33250e-06;0.003562488764256988
9.33275e-06;0.0036129452064824256
9.33300e-06;0.003658697580930758
9.33325e-06;0.0037018753253044373
9.33350e-06;0.0037450530696781165
9.33375e-06;0.0037882308140515034
9.33400e-06;0.0038314085584251825
9.33425e-06;0.0038745863027988617
9.33450e-06;0.0039177640471722485
9.33475e-06;0.003960941791545928
9.33500e-06;0.003985935377935484
9.33525e-06;0.004000976412138417
9.33550e-06;0.004016017446341453
9.33575e-06;0.0040310584805444884
9.33600e-06;0.004046099514747422
9.33625e-06;0.004061140548950457
9.33650e-06;0.004076181583153492
9.33675e-06;0.004091222617356426
9.33700e-06;0.004083239677256156
9.33725e-06;0.004062655257009903
9.33750e-06;0.00404207083676379
9.33775e-06;0.004021486416517537
9.33800e-06;0.0040009019962712845
9.33825e-06;0.003980317576025171
9.33850e-06;0.0039597331557789175
9.33875e-06;0.003939148735532665
9.33900e-06;0.003914497789060327
9.33925e-06;0.0038661135269209826
9.33950e-06;0.0038177292647816373
9.33975e-06;0.0037693450026426204
9.34000e-06;0.0037209607405032756
9.34025e-06;0.0036725764783639304
9.34050e-06;0.0036241922162249134
9.34075e-06;0.0035758079540855687
9.34100e-06;0.0035274236919462234
9.34125e-06;0.003472429528817927
9.34150e-06;0.0034138176351023665
9.34175e-06;0.003355205741386409
9.34200e-06;0.0032965938476704508
9.34225e-06;0.0032379819539548904
9.34250e-06;0.0031793700602389323
9.34275e-06;0.0031238691559405886
9.34300e-06;0.0030700709581723243
9.34325e-06;0.0030162727604036957
9.34350e-06;0.002962474562635067
9.34375e-06;0.0029086763648668032
9.34400e-06;0.0028548781670981746
9.34425e-06;0.0028087703939547065
9.34450e-06;0.002766871743527331
9.34475e-06;0.0027249730930996715
9.34500e-06;0.002691564959965954
9.34525e-06;0.0026628038562168735
9.34550e-06;0.0026436030109390513
9.34575e-06;0.0026296346857189556
9.34600e-06;0.0026251045097266798
9.34625e-06;0.002625740020968535
9.34650e-06;0.0026355984290990344
9.34675e-06;0.0026505047125669917
9.34700e-06;0.002675487980499498
9.34725e-06;0.0027059865829271433
9.34750e-06;0.002747055722893035
9.34775e-06;0.002793910328791296
9.34800e-06;0.0028525132533774285
9.34825e-06;0.002917546266998954
9.34850e-06;0.0029825792806209197
9.34875e-06;0.0030600939706030353
9.34900e-06;0.003144440130895089
9.34925e-06;0.0032287862911877145
9.34950e-06;0.003324297936151604
9.34975e-06;0.003425920673474848
9.35000e-06;0.003527543410797404
9.35025e-06;0.003639523715501052
9.35050e-06;0.0037571729233240305
9.35075e-06;0.003874822131146212
9.35100e-06;0.00399247133896919
9.35125e-06;0.004110120546792169
9.35150e-06;0.00422776975461435
9.35175e-06;0.004348134281791177
9.35200e-06;0.004469984957383997
9.35225e-06;0.004591835632975991
9.35250e-06;0.004713686308568811
9.35275e-06;0.004835536984161631
9.35300e-06;0.004957387659753626
9.35325e-06;0.005065910345875416
9.35350e-06;0.005167138357647452
9.35375e-06;0.005268366369418803
9.35400e-06;0.005369594381190839
9.35425e-06;0.005470822392962876
9.35450e-06;0.0055720504047342264
9.35475e-06;0.0056540610447898985
9.35500e-06;0.0057255536341791835
9.35525e-06;0.005797046223567984
9.35550e-06;0.005868538812957268
9.35575e-06;0.005940031402346552
9.35600e-06;0.006011523991735352
9.35625e-06;0.006065745252294353
9.35650e-06;0.006110513570255128
9.35675e-06;0.006155281888215601
9.35700e-06;0.006200050206176377
9.35725e-06;0.006244818524137153
9.35750e-06;0.006289586842097625
9.35775e-06;0.006334355160058401
9.35800e-06;0.006379123478019177
9.35825e-06;0.006423891795979952
9.35850e-06;0.006468660113940425
9.35875e-06;0.0065134284319012005
9.35900e-06;0.006558196749861977
9.35925e-06;0.00660296506782245
9.35950e-06;0.006635299922677042
9.35975e-06;0.006660829695293392
9.36000e-06;0.006686359467909569
9.36025e-06;0.006711889240525918
9.36050e-06;0.006737419013142268
9.36075e-06;0.006762948785758445
9.36100e-06;0.006788478558374795
9.36125e-06;0.006814008330991144
9.36150e-06;0.0068395381036073215
9.36175e-06;0.006865067876223671
9.36200e-06;0.006890597648840021
9.36225e-06;0.006916127421456197
9.36250e-06;0.006941657194072547
9.36275e-06;0.006958744497822433
9.36300e-06;0.006971211070047455
9.36325e-06;0.006983677642272563
9.36350e-06;0.006996144214497671
9.36375e-06;0.007008610786722693
9.36400e-06;0.007021077358947801
9.36425e-06;0.007033543931172908
9.36450e-06;0.007046010503397931
9.36475e-06;0.007058477075623038
9.36500e-06;0.0070709436478481455
9.36525e-06;0.007083410220073168
9.36550e-06;0.007095876792298276
9.36575e-06;0.007105014545614154
9.36600e-06;0.007094724436993092
9.36625e-06;0.00708443432837196
9.36650e-06;0.007074144219750829
9.36675e-06;0.007063854111129697
9.36700e-06;0.007053564002508636
9.36725e-06;0.007043273893887504
9.36750e-06;0.007032983785266372
9.36775e-06;0.00702269367664531
9.36800e-06;0.007012403568024178
9.36825e-06;0.007002113459403048
9.36850e-06;0.006991823350781985
9.36875e-06;0.006981533242160854
9.36900e-06;0.006957906920192683
9.36925e-06;0.006926981422780211
9.36950e-06;0.006896055925367529
9.36975e-06;0.0068651304279548474
9.37000e-06;0.006834204930542376
9.37025e-06;0.006803279433129694
9.37050e-06;0.006772353935717013
9.37075e-06;0.006741428438304541
9.37100e-06;0.006710502940891859
9.37125e-06;0.006679577443479178
9.37150e-06;0.006648651946066705
9.37175e-06;0.006616462142963662
9.37200e-06;0.006583580360150156
9.37225e-06;0.006550698577336873
9.37250e-06;0.006517816794523367
9.37275e-06;0.006484935011709862
9.37300e-06;0.006452053228896579
9.37325e-06;0.006419171446083073
9.37350e-06;0.006386289663269568
9.37375e-06;0.006353407880456284
9.37400e-06;0.006320526097642779
9.37425e-06;0.006287644314829273
9.37450e-06;0.006260338884777317
9.37475e-06;0.006236085503766039
9.37500e-06;0.00621183212275476
9.37525e-06;0.006187578741743482
9.37550e-06;0.0061633253607323675
9.37575e-06;0.006139071979721088
9.37600e-06;0.006114818598709809
9.37625e-06;0.006090565217698695
9.37650e-06;0.006066311836687417
9.37675e-06;0.006042058455676138
9.37700e-06;0.0060178050746650235
9.37725e-06;0.00599281426602001
9.37750e-06;0.005963519635912337
9.37775e-06;0.005934225005804864
9.37800e-06;0.005904930375697191
9.37825e-06;0.005875635745589519
9.37850e-06;0.0058463411154820455
9.37875e-06;0.005817046485374373
9.37900e-06;0.0057877518552667
9.37925e-06;0.005758457225159227
9.37950e-06;0.005729162595051554
9.37975e-06;0.005699867964943882
9.38000e-06;0.0056705733348364085
9.38025e-06;0.005639237184983146
9.38050e-06;0.0056067836706715215
9.38075e-06;0.005574330156360116
9.38100e-06;0.005541876642048492
9.38125e-06;0.005509423127736867
9.38150e-06;0.005476969613425463
9.38175e-06;0.005444516099113839
9.38200e-06;0.005412062584802213
9.38225e-06;0.005379609070490809
9.38250e-06;0.0053471555561791844
9.38275e-06;0.00531470204186756
9.38300e-06;0.005283739108815791
9.38325e-06;0.005261475599715894
9.38350e-06;0.005239212090615996
9.38375e-06;0.005216948581516097
9.38400e-06;0.00519468507241635
9.38425e-06;0.005172421563316452
9.38450e-06;0.005150158054216554
9.38475e-06;0.005127894545116807
9.38500e-06;0.0051056310360169084
9.38525e-06;0.00508336752691701
9.38550e-06;0.005061104017817263
9.38575e-06;0.005038840508717365
9.38600e-06;0.00503021788018596
9.38625e-06;0.005029061177548294
9.38650e-06;0.005027904474910621
9.38675e-06;0.005026747772272947
9.38700e-06;0.005025591069635281
9.38725e-06;0.005024434366997608
9.38750e-06;0.005023277664359934
9.38775e-06;0.005022120961722268
9.38800e-06;0.005020964259084594
9.38825e-06;0.005019807556446921
9.38850e-06;0.0050186508538092554
9.38875e-06;0.005017494151171581
9.38900e-06;0.005016337448533908
9.38925e-06;0.005025343540761623
9.38950e-06;0.005039911933235556
9.38975e-06;0.005054480325709488
9.39000e-06;0.005069048718183322
9.39025e-06;0.005083617110657255
9.39050e-06;0.0050981855031311885
9.39075e-06;0.005112753895605023
9.39100e-06;0.005127322288078956
9.39125e-06;0.005141890680552889
9.39150e-06;0.005156459073026723
9.39175e-06;0.005171027465500656
9.39200e-06;0.005185595857974588
9.39225e-06;0.0052001642504485215
9.39250e-06;0.005215277609060832
9.39275e-06;0.005230689238505878
9.39300e-06;0.005246100867950925
9.39325e-06;0.005261512497395867
9.39350e-06;0.0052769241268409125
9.39375e-06;0.005292335756285959
9.39400e-06;0.005307747385730901
9.39425e-06;0.005323159015175947
9.39450e-06;0.005338570644620994
9.39475e-06;0.005343660059603149
9.39500e-06;0.00534309992081466
9.39525e-06;0.005342539782026171
9.39550e-06;0.0053419796432376855
9.39575e-06;0.005341419504449197
9.39600e-06;0.005340859365660707
9.39625e-06;0.005340299226872222
9.39650e-06;0.0053397390880837335
9.39675e-06;0.005339178949295244
9.39700e-06;0.00531967377242367
9.39725e-06;0.005289799598499343
9.39750e-06;0.005259925424575016
9.39775e-06;0.005230051250650892
9.39800e-06;0.005200177076726565
9.39825e-06;0.005170302902802238
9.39850e-06;0.005140428728878113
9.39875e-06;0.005110554554953787
9.39900e-06;0.0050806803810294595
9.39925e-06;0.005050806207105335
9.39950e-06;0.005006687188629531
9.39975e-06;0.004954771682728552
9.40000e-06;0.004902856176827925
9.40025e-06;0.004850940670926946
