Time(s);Current(A)
1.15000e-05;0.00541074215131756
1.15003e-05;0.0054275890005902085
1.15005e-05;0.005444469810538317
1.15007e-05;0.005461421744041354
1.15010e-05;0.005478373677544505
1.15013e-05;0.0054956773072007605
1.15015e-05;0.005513717491132227
1.15018e-05;0.0055317576750638165
1.15020e-05;0.005549797858995406
1.15023e-05;0.005567838042926995
1.15025e-05;0.005586580234652615
1.15028e-05;0.0056067926353572375
1.15030e-05;0.005627005036061859
1.15033e-05;0.005647217436766345
1.15035e-05;0.005667429837470967
1.15038e-05;0.005688598449105792
1.15040e-05;0.005711769645194706
1.15043e-05;0.005734940841283778
1.15045e-05;0.005758112037372849
1.15048e-05;0.005781283233461764
1.15050e-05;0.005804454429550835
1.15053e-05;0.005827625625639906
1.15055e-05;0.0058507968217288205
1.15058e-05;0.0058739680178178915
1.15060e-05;0.005898466226394243
1.15063e-05;0.005923249487076125
1.15065e-05;0.0059480327477581755
1.15068e-05;0.005972816008440226
1.15070e-05;0.005997599269122108
1.15073e-05;0.006022382529804157
1.15075e-05;0.006047165790486207
1.15078e-05;0.006071949051168089
1.15080e-05;0.006096301912148946
1.15083e-05;0.00611975339067991
1.15085e-05;0.006143204869210714
1.15088e-05;0.006166124514534654
1.15090e-05;0.006187930346076272
1.15092e-05;0.006209736177617742
1.15095e-05;0.006230711352106453
1.15098e-05;0.006249946888562561
1.15100e-05;0.006269182425018539
1.15103e-05;0.006287074934644707
1.15105e-05;0.006302154754552452
1.15108e-05;0.006317234574460196
1.15110e-05;0.006329695133380639
1.15113e-05;0.006336670196193023
1.15115e-05;0.006343645259005406
1.15118e-05;0.006350620321817743
1.15120e-05;0.006357595384630127
1.15123e-05;0.00636457044744251
1.15125e-05;0.006367952149745852
1.15128e-05;0.006363808307560306
1.15130e-05;0.00635966446537476
1.15133e-05;0.006355520623189241
1.15135e-05;0.006351376781003695
1.15138e-05;0.006347232938818149
1.15140e-05;0.006340666626974518
1.15143e-05;0.006329026957436974
1.15145e-05;0.00631738728789943
1.15148e-05;0.006304387234968261
1.15150e-05;0.006288538142613883
1.15153e-05;0.006272689050259506
1.15155e-05;0.006255843410226534
1.15158e-05;0.006236910708827604
1.15160e-05;0.006217978007428676
1.15163e-05;0.006198480465253575
1.15165e-05;0.006177799981822951
1.15168e-05;0.006156841843534706
1.15170e-05;0.006135302215029145
1.15173e-05;0.006113694715336022
1.15175e-05;0.006091945073589739
1.15177e-05;0.006070343363943891
1.15180e-05;0.006049051467243032
1.15183e-05;0.006028105999529825
1.15185e-05;0.006007886055112485
1.15188e-05;0.005988212240493515
1.15190e-05;0.0059696821808876786
1.15193e-05;0.005951935123029328
1.15195e-05;0.005935827899101463
1.15198e-05;0.005921034005223492
1.15200e-05;0.005908990607349852
1.15203e-05;0.005896947209476294
1.15205e-05;0.0058875896646081085
1.15208e-05;0.00588385707894947
1.15210e-05;0.005880124493290857
1.15213e-05;0.005876391907632219
1.15215e-05;0.005872659321973581
1.15218e-05;0.005868926736314968
1.15220e-05;0.005868929925282284
1.15223e-05;0.005876756915419799
1.15225e-05;0.005884583905557262
1.15228e-05;0.005892410895694777
1.15230e-05;0.005900237885832292
1.15233e-05;0.005908064875969754
1.15235e-05;0.005919776540693558
1.15238e-05;0.005939623846513827
1.15240e-05;0.0059594711523339615
1.15243e-05;0.00597931845815423
1.15245e-05;0.005999165763974498
1.15248e-05;0.006019013069794633
1.15250e-05;0.006038860375614901
1.15253e-05;0.00605870768143517
1.15255e-05;0.006078554987255304
1.15258e-05;0.006105114155017057
1.15260e-05;0.006133115080410723
1.15262e-05;0.006161116005804199
1.15265e-05;0.006189116931197864
1.15268e-05;0.00621711785659153
1.15270e-05;0.006245118781985005
1.15273e-05;0.006273119707378671
1.15275e-05;0.006301120632772337
1.15278e-05;0.006329420653484749
1.15280e-05;0.006358347066990822
1.15283e-05;0.0063872734804970915
1.15285e-05;0.006415629212764967
1.15288e-05;0.00644278977214654
1.15290e-05;0.006469950331528298
1.15293e-05;0.006497110890910055
1.15295e-05;0.006521279684011862
1.15298e-05;0.006544805823569224
1.15300e-05;0.006568331963126586
1.15303e-05;0.006591158322148525
1.15305e-05;0.006612519136719905
1.15308e-05;0.006633879951291286
1.15310e-05;0.006655533182463898
1.15313e-05;0.0066777988192493615
1.15315e-05;0.006700064456034826
1.15318e-05;0.006722330092820139
1.15320e-05;0.006744595729605602
1.15323e-05;0.006766861366391067
1.15325e-05;0.00679070691328416
1.15328e-05;0.006814891836564529
1.15330e-05;0.006839076759844898
1.15333e-05;0.006863261683125103
1.15335e-05;0.006887446606405472
1.15338e-05;0.006912590345307137
1.15340e-05;0.0069397421236472925
1.15343e-05;0.006966893901987632
1.15345e-05;0.006994045680327972
1.15347e-05;0.007021197458668128
1.15350e-05;0.007048349237008467
1.15353e-05;0.007075501015348807
1.15355e-05;0.007102652793688963
1.15358e-05;0.007130327168885412
1.15360e-05;0.007159096014253589
1.15362e-05;0.0071878648596215705
1.15365e-05;0.007216633704989747
1.15368e-05;0.007245402550357924
1.15370e-05;0.007274171395726101
1.15373e-05;0.007302940241094083
1.15375e-05;0.00733170908646226
1.15378e-05;0.007359914100594428
1.15380e-05;0.0073869382877418625
1.15383e-05;0.00741396247488948
1.15385e-05;0.007440986662037097
1.15388e-05;0.0074680108491845315
1.15390e-05;0.007492228189009871
1.15393e-05;0.007515842597251249
1.15395e-05;0.007539457005492467
1.15398e-05;0.007563071413733845
1.15400e-05;0.007585323950399101
1.15403e-05;0.007604724330950784
1.15405e-05;0.007621976310014709
1.15408e-05;0.007634728910028919
1.15410e-05;0.007647481510043042
1.15413e-05;0.0076567229674930366
1.15415e-05;0.007658611068792646
1.15418e-05;0.007660499170092243
1.15420e-05;0.007662387271391852
1.15423e-05;0.007664275372691462
1.15425e-05;0.007654794000354721
1.15428e-05;0.007642870380912169
1.15430e-05;0.007630946761469618
1.15432e-05;0.007619023142027146
1.15435e-05;0.007603539788330114
1.15438e-05;0.007580601313317335
1.15440e-05;0.007557662838304712
1.15443e-05;0.007532673404362463
1.15445e-05;0.00750338866449561
1.15447e-05;0.007472545219921062
1.15450e-05;0.007438437393270919
1.15453e-05;0.00740307244474992
1.15455e-05;0.007365074716536252
1.15458e-05;0.007326340713856685
1.15460e-05;0.007285677977370128
1.15463e-05;0.007243867400767424
1.15465e-05;0.007201047381789604
1.15468e-05;0.007157361568927843
1.15470e-05;0.007113049213137832
1.15473e-05;0.007068409677867714
1.15475e-05;0.007023746259105355
1.15478e-05;0.00697936226702951
1.15480e-05;0.006935557070687591
1.15483e-05;0.006892605648476671
1.15485e-05;0.00685073814200208
1.15488e-05;0.006810187524191025
1.15490e-05;0.006771246608244964
1.15493e-05;0.006734650127368461
1.15495e-05;0.006700365582260018
1.15498e-05;0.0066690131510351225
1.15500e-05;0.006643801421097993
1.15503e-05;0.006618589691161034
1.15505e-05;0.006593377961223904
1.15508e-05;0.006568166231286775
1.15510e-05;0.006552521514078672
1.15513e-05;0.006538931862030455
1.15515e-05;0.006525342209982238
1.15517e-05;0.006511752557934113
1.15520e-05;0.006503322046240109
1.15523e-05;0.006505696278521112
1.15525e-05;0.006508070510802099
1.15528e-05;0.006510444743083103
1.15530e-05;0.006512818975364106
1.15532e-05;0.006515193207645094
1.15535e-05;0.006517567439926097
1.15538e-05;0.0065199416722071
1.15540e-05;0.00652739949028206
1.15543e-05;0.006545503819055884
1.15545e-05;0.00656360814782983
1.15548e-05;0.006581712476603777
1.15550e-05;0.0065998168053776
1.15553e-05;0.006617921134151547
1.15555e-05;0.006636025462925493
1.15558e-05;0.006654129791699317
1.15560e-05;0.006674558834049137
1.15563e-05;0.0066998565043638455
1.15565e-05;0.006725154174678383
1.15568e-05;0.006751032487264868
1.15570e-05;0.006778126834046439
1.15573e-05;0.006805221180827828
1.15575e-05;0.006832519492315834
1.15578e-05;0.006860244965362137
1.15580e-05;0.006887970438408252
1.15583e-05;0.006915465661085023
1.15585e-05;0.006942478672361745
1.15588e-05;0.0069694916836382835
1.15590e-05;0.006995745520820796
1.15593e-05;0.0070204094261234785
1.15595e-05;0.007045073331425995
1.15598e-05;0.007067644454963797
1.15600e-05;0.0070858326833646516
1.15602e-05;0.007104020911765382
1.15605e-05;0.007122209140166236
1.15608e-05;0.00714039736856709
1.15610e-05;0.007158585596967821
1.15613e-05;0.0071767738253686745
1.15615e-05;0.0071858166024957966
1.15617e-05;0.007192894868983428
1.15620e-05;0.007199973135471107
1.15623e-05;0.007207051401958786
1.15625e-05;0.007214129668446465
1.15628e-05;0.007221207934934097
1.15630e-05;0.007224393226513844
1.15633e-05;0.0072194254936931756
1.15635e-05;0.007214457760872541
1.15638e-05;0.007209490028051872
1.15640e-05;0.007204522295231205
1.15643e-05;0.00719955456241057
1.15645e-05;0.007194586829589901
1.15648e-05;0.007189619096769233
1.15650e-05;0.007181718719168794
1.15653e-05;0.007167676528427035
1.15655e-05;0.0071536343376852754
1.15658e-05;0.007139592146943611
1.15660e-05;0.007125549956201851
1.15663e-05;0.007111507765460092
1.15665e-05;0.007097465574718428
1.15668e-05;0.007083423383976668
1.15670e-05;0.00706853885436273
1.15673e-05;0.0070518902215781585
1.15675e-05;0.007035241588793473
1.15678e-05;0.0070187214246790015
1.15680e-05;0.007002470311413359
1.15683e-05;0.006986219198147606
1.15685e-05;0.0069704976105681975
1.15687e-05;0.00695588500415215
1.15690e-05;0.006941272397736005
1.15693e-05;0.0069274237309444485
1.15695e-05;0.006915174976443189
1.15698e-05;0.006903779954194169
1.15700e-05;0.006894172896175723
1.15702e-05;0.0068859138562518225
1.15705e-05;0.006880477959214417
1.15708e-05;0.006877410455601725
1.15710e-05;0.006879303058293781
1.15713e-05;0.006881195660985825
1.15715e-05;0.006886893273934121
1.15718e-05;0.0069005596876585435
1.15720e-05;0.006914226101382873
1.15723e-05;0.006927892515107296
1.15725e-05;0.006941558928831719
1.15728e-05;0.00696020928486733
1.15730e-05;0.006989297469104851
1.15733e-05;0.00701838565334237
1.15735e-05;0.0070474738375796925
1.15738e-05;0.007076562021817212
1.15740e-05;0.007110785501615396
1.15743e-05;0.007155763787444317
1.15745e-05;0.007200742073273543
1.15748e-05;0.007245720359102769
1.15750e-05;0.0072906986449316905
1.15753e-05;0.007335676930760916
1.15755e-05;0.007380655216590143
1.15758e-05;0.007425633502419064
1.15760e-05;0.007479166288153419
1.15763e-05;0.007534536643799235
1.15765e-05;0.007589906999444675
1.15768e-05;0.007645277355090491
1.15770e-05;0.007700647710736306
1.15772e-05;0.007756018066381746
1.15775e-05;0.007811388422027562
1.15778e-05;0.007866709376679078
1.15780e-05;0.00792192687124594
1.15783e-05;0.007977144365813175
1.15785e-05;0.00803116907317242
1.15787e-05;0.008082695736376107
1.15790e-05;0.008134222399580142
1.15793e-05;0.00818301244434094
1.15795e-05;0.008226071212255713
1.15798e-05;0.008269129980170193
1.15800e-05;0.008312188748084965
1.15803e-05;0.008355247515999737
1.15805e-05;0.008391411104305767
1.15808e-05;0.008426093556984447
1.15810e-05;0.008460776009663128
1.15813e-05;0.008495458462341574
1.15815e-05;0.00852822246292258
1.15818e-05;0.008556968665510662
1.15820e-05;0.00858571486809855
1.15823e-05;0.00861446107068663
1.15825e-05;0.008643207273274712
1.15828e-05;0.008668546688457988
1.15830e-05;0.00869315430048505
1.15833e-05;0.008717761912512112
1.15835e-05;0.008742369524539008
1.15838e-05;0.00876543725152469
1.15840e-05;0.008785280010299447
1.15843e-05;0.008805122769074069
1.15845e-05;0.008824965527848826
1.15848e-05;0.008844808286623583
1.15850e-05;0.008864651045398207
1.15853e-05;0.008884493804172965
1.15855e-05;0.008904336562947722
1.15857e-05;0.008924179321722344
1.15860e-05;0.008944022080497101
1.15863e-05;0.008960380006798578
1.15865e-05;0.00897598936528485
1.15868e-05;0.008991598723771225
1.15870e-05;0.009007208082257601
1.15872e-05;0.009022817440743873
1.15875e-05;0.009038426799230248
1.15878e-05;0.009054036157716624
1.15880e-05;0.009069645516203002
1.15883e-05;0.009085254874689272
1.15885e-05;0.00909970496221256
1.15888e-05;0.009111727198367708
1.15890e-05;0.009123749434522776
1.15893e-05;0.009135771670677924
1.15895e-05;0.009147793906833072
1.15898e-05;0.009159816142988138
1.15900e-05;0.009171838379143286
1.15903e-05;0.009183860615298434
1.15905e-05;0.0091958828514535
1.15908e-05;0.00920585514031136
1.15910e-05;0.00921153424189108
1.15913e-05;0.00921721334347076
1.15915e-05;0.00922289244505048
1.15918e-05;0.009228571546630199
1.15920e-05;0.00923425064820988
1.15923e-05;0.0092399297497896
1.15925e-05;0.009245608851369318
1.15928e-05;0.009251287952948998
1.15930e-05;0.009254331842753954
1.15933e-05;0.009251856830837565
1.15935e-05;0.009249381818921192
1.15938e-05;0.009246906807004804
1.15940e-05;0.009244431795088414
1.15942e-05;0.009241956783172042
1.15945e-05;0.009239481771255652
1.15948e-05;0.009237006759339264
1.15950e-05;0.009234531747422892
1.15953e-05;0.009232056735506502
1.15955e-05;0.009229581723590112
1.15957e-05;0.009223308328320632
1.15960e-05;0.009216219012185266
1.15963e-05;0.0092091296960499
1.15965e-05;0.009202040379914535
1.15968e-05;0.009194951063779218
1.15970e-05;0.009187861747643852
1.15973e-05;0.009180772431508485
1.15975e-05;0.009173683115373168
1.15978e-05;0.009166593799237803
1.15980e-05;0.009159504483102437
1.15983e-05;0.009153108153933052
1.15985e-05;0.009148163141502701
1.15988e-05;0.009143218129072352
1.15990e-05;0.009138273116642035
1.15993e-05;0.009133328104211686
1.15995e-05;0.009128383091781335
1.15998e-05;0.009123438079351018
1.16000e-05;0.009118493066920669
1.16003e-05;0.00911354805449032
1.16005e-05;0.009109224484944526
1.16008e-05;0.00910620239797358
1.16010e-05;0.009103180311002634
1.16013e-05;0.009100158224031709
1.16015e-05;0.009097136137060763
1.16018e-05;0.009094114050089815
1.16020e-05;0.00909109196311889
1.16023e-05;0.009088069876147943
1.16025e-05;0.009085047789176997
1.16027e-05;0.009080696705469569
1.16030e-05;0.009076060143423686
1.16033e-05;0.009071423581377804
1.16035e-05;0.009066787019331952
1.16038e-05;0.00906215045728607
1.16040e-05;0.009057513895240187
1.16042e-05;0.009052877333194336
1.16045e-05;0.009048240771148453
1.16048e-05;0.009043043472880258
1.16050e-05;0.009036671829486021
1.16053e-05;0.009030300186091826
1.16055e-05;0.009023928542697589
1.16058e-05;0.00901755689930335
1.16060e-05;0.009011185255909155
1.16063e-05;0.009004813612514918
1.16065e-05;0.008998441969120679
1.16068e-05;0.008992070325726485
1.16070e-05;0.008985698682332247
1.16073e-05;0.00897932703893801
1.16075e-05;0.008972955395543814
1.16078e-05;0.008966583752149575
1.16080e-05;0.008960212108755338
1.16083e-05;0.008955267200702598
1.16085e-05;0.008953310292404208
1.16088e-05;0.008951353384105815
1.16090e-05;0.008949396475807437
1.16093e-05;0.008947439567509046
1.16095e-05;0.008945482659210656
1.16098e-05;0.008943525750912278
1.16100e-05;0.008941568842613885
1.16103e-05;0.008939611934315495
1.16105e-05;0.008937655026017116
1.16108e-05;0.008935698117718726
1.16110e-05;0.008933741209420334
1.16113e-05;0.008931784301121957
1.16115e-05;0.008929827392823565
1.16118e-05;0.00893088721344514
1.16120e-05;0.008938264943920622
1.16123e-05;0.008945642674396154
1.16125e-05;0.008953020404871686
1.16127e-05;0.008960398135347167
1.16130e-05;0.008967775865822699
1.16133e-05;0.008975153596298231
1.16135e-05;0.008982531326773763
1.16138e-05;0.008989909057249244
1.16140e-05;0.008997286787724776
1.16143e-05;0.009004664518200308
1.16145e-05;0.00901204224867579
1.16148e-05;0.009019419979151322
1.16150e-05;0.009026797709626853
1.16153e-05;0.009038723615714587
1.16155e-05;0.009051626503597603
1.16158e-05;0.009064529391480619
1.16160e-05;0.009077432279363548
1.16163e-05;0.009090335167246565
1.16165e-05;0.009103238055129581
1.16168e-05;0.00911614094301251
1.16170e-05;0.009129043830895526
1.16173e-05;0.009141946718778542
1.16175e-05;0.00915484960666147
1.16178e-05;0.009167752494544486
1.16180e-05;0.009180655382427502
1.16183e-05;0.009193558270310431
1.16185e-05;0.009206210751023562
1.16188e-05;0.009218338806119246
1.16190e-05;0.009230466861214846
1.16193e-05;0.00924259491631053
1.16195e-05;0.009254722971406214
1.16198e-05;0.009266851026501814
1.16200e-05;0.0092789790815975
1.16203e-05;0.009291107136693183
1.16205e-05;0.009298102778060884
1.16208e-05;0.009303995938960363
1.16210e-05;0.009309889099859844
1.16212e-05;0.009315782260759284
1.16215e-05;0.009321675421658765
1.16218e-05;0.009327568582558244
1.16220e-05;0.009333461743457725
1.16223e-05;0.009336103435114183
1.16225e-05;0.00933193560224173
1.16228e-05;0.009327767769369276
1.16230e-05;0.00932359993649685
1.16233e-05;0.009319432103624396
1.16235e-05;0.009315264270751944
1.16238e-05;0.009311096437879519
1.16240e-05;0.009306928605007064
1.16243e-05;0.009302760772134612
1.16245e-05;0.009291489052601923
1.16248e-05;0.009278691365618355
1.16250e-05;0.009265893678634788
1.16253e-05;0.009253095991651307
1.16255e-05;0.00924029830466774
1.16258e-05;0.009227500617684172
1.16260e-05;0.009214702930700692
1.16263e-05;0.009201905243717124
1.16265e-05;0.0091882920654935
1.16268e-05;0.009172971010864676
1.16270e-05;0.009157649956235749
1.16273e-05;0.009142328901606822
1.16275e-05;0.009127007846978
1.16278e-05;0.009111686792349073
1.16280e-05;0.009096365737720146
1.16283e-05;0.009081044683091321
1.16285e-05;0.009065723628462394
1.16288e-05;0.009050402573833468
1.16290e-05;0.009035081519204645
1.16293e-05;0.009027590363510671
1.16295e-05;0.009021781128079765
1.16297e-05;0.009015971892648899
1.16300e-05;0.009010162657217992
1.16303e-05;0.009004353421787086
1.16305e-05;0.008998544186356178
1.16308e-05;0.008992734950925311
1.16310e-05;0.008986925715494405
1.16313e-05;0.008981116480063498
1.16315e-05;0.00897530724463263
1.16318e-05;0.008974942337585603
1.16320e-05;0.00898597944141738
1.16323e-05;0.008997016545249084
1.16325e-05;0.00900805364908086
1.16328e-05;0.009019090752912637
1.16330e-05;0.009030127856744341
1.16333e-05;0.009041164960576118
1.16335e-05;0.009052202064407894
1.16338e-05;0.009067548800517054
1.16340e-05;0.009091921163048775
1.16343e-05;0.009116293525580497
1.16345e-05;0.009140665888112054
1.16348e-05;0.009165038250643775
1.16350e-05;0.009189410613175497
1.16353e-05;0.009213782975707052
1.16355e-05;0.009238155338238773
1.16358e-05;0.009264923373534488
1.16360e-05;0.009296708646034366
1.16363e-05;0.00932849391853446
1.16365e-05;0.009360279191034554
1.16368e-05;0.009392064463534433
1.16370e-05;0.009423849736034526
1.16373e-05;0.009455635008534621
1.16375e-05;0.009487420281034501
1.16378e-05;0.009519205553534594
1.16380e-05;0.009549162249188507
1.16382e-05;0.009578726152996899
1.16385e-05;0.009608290056805493
1.16388e-05;0.009637853960614087
1.16390e-05;0.00966741786442268
1.16393e-05;0.009696981768231075
1.16395e-05;0.009726545672039668
1.16398e-05;0.009756109575848262
1.16400e-05;0.009783074242265226
1.16403e-05;0.009804595347799726
1.16405e-05;0.009826116453334227
1.16408e-05;0.009847637558868581
1.16410e-05;0.009869158664403082
1.16413e-05;0.009890679769937582
1.16415e-05;0.009912200875471937
1.16418e-05;0.009933721981006437
1.16420e-05;0.009955243086540938
1.16423e-05;0.009975810116144932
1.16425e-05;0.009994379032598187
1.16428e-05;0.010012947949051443
1.16430e-05;0.010031516865504573
1.16433e-05;0.010050085781957829
1.16435e-05;0.010068654698411084
1.16438e-05;0.010087223614864214
1.16440e-05;0.01010579253131747
1.16443e-05;0.010124361447770725
1.16445e-05;0.010142656966407563
1.16448e-05;0.010160379910310352
1.16450e-05;0.010178102854213143
1.16453e-05;0.010195825798115813
1.16455e-05;0.010213548742018602
1.16458e-05;0.010231271685921393
1.16460e-05;0.010248994629824064
1.16463e-05;0.010266717573726852
1.16465e-05;0.010284440517629643
1.16467e-05;0.01029915078663094
1.16470e-05;0.010313674964507448
1.16473e-05;0.010328199142383957
1.16475e-05;0.010342723320260466
1.16478e-05;0.010357247498136875
1.16480e-05;0.010371771676013384
1.16483e-05;0.010386295853889893
1.16485e-05;0.010400820031766305
1.16488e-05;0.010423077196771711
1.16490e-05;0.007217562575578903
1.16493e-05;0.0012776810064388468
1.16495e-05;-0.0003167568254502284
1.16498e-05;0.0010995951112372625
1.16500e-05;0.004105083584269224
1.16503e-05;0.008179404529993824
1.16505e-05;0.010479015089473036
1.16508e-05;0.010324412233129389
1.16510e-05;0.008435994458074065
1.16513e-05;0.005436747738432101
