Time(s);Current(A)
9.00000e-06;-0.012569689321258478
9.00025e-06;-0.012564911577319109
9.00050e-06;-0.01256013383337974
9.00075e-06;-0.012555356089440401
9.00100e-06;-0.012550578345501032
9.00125e-06;-0.012545800601561663
9.00150e-06;-0.012541022857622326
9.00175e-06;-0.012536245113682957
9.00200e-06;-0.012532041836549455
9.00225e-06;-0.012528793918720025
9.00250e-06;-0.012525651940233246
9.00275e-06;-0.012522609972963873
9.00300e-06;-0.012519693407965118
9.00325e-06;-0.012517057151378642
9.00350e-06;-0.012515012027914316
9.00375e-06;-0.012513785570418035
9.00400e-06;-0.012513404123662553
9.00425e-06;-0.012513834095899642
9.00450e-06;-0.012515036120638234
9.00475e-06;-0.012517093439519608
9.00500e-06;-0.012519788687050556
9.00525e-06;-0.012523128880125613
9.00550e-06;-0.012527493989032835
9.00575e-06;-0.012532776817440855
9.00600e-06;-0.012539518040676734
9.00625e-06;-0.01254625926391266
9.00650e-06;-0.012554176017006119
9.00675e-06;-0.012563960864503992
9.00700e-06;-0.012573745712001932
9.00725e-06;-0.012583530559499873
9.00750e-06;-0.012593315406997745
9.00775e-06;-0.012604297414428686
9.00800e-06;-0.012617181889719461
9.00825e-06;-0.012630066365010236
9.00850e-06;-0.012642950840300924
9.00875e-06;-0.0126558353155917
9.00900e-06;-0.012669246418474731
9.00925e-06;-0.012683494412102817
9.00950e-06;-0.012697742405731002
9.00975e-06;-0.01271214111446402
9.01000e-06;-0.012726779332250868
9.01025e-06;-0.012741417550037817
9.01050e-06;-0.012755872199944496
9.01075e-06;-0.012770035132777436
9.01100e-06;-0.012784198065610472
9.01125e-06;-0.012797983910929834
9.01150e-06;-0.012811170507263726
9.01175e-06;-0.01282377522579045
9.01200e-06;-0.01283545525263956
9.01225e-06;-0.012847135279488591
9.01250e-06;-0.012857991648889344
9.01275e-06;-0.012867539102263015
9.01300e-06;-0.012876672179023843
9.01325e-06;-0.012885146748791557
9.01350e-06;-0.01289411662810423
9.01375e-06;-0.012903873629057124
9.01400e-06;-0.012914244821039863
9.01425e-06;-0.012925592055288978
9.01450e-06;-0.012936939289538015
9.01475e-06;-0.012948795262203784
9.01500e-06;-0.012961459697014264
9.01525e-06;-0.012974124131824657
9.01550e-06;-0.012988437080538139
9.01575e-06;-0.013005369766708082
9.01600e-06;-0.01302230245287791
9.01625e-06;-0.013039235139047851
9.01650e-06;-0.013056167825217794
9.01675e-06;-0.013073100511387737
9.01700e-06;-0.013091791120794748
9.01725e-06;-0.013113275335607265
9.01750e-06;-0.013134759550419782
9.01775e-06;-0.013156243765232153
9.01800e-06;-0.01317772798004467
9.01825e-06;-0.013199212194857188
9.01850e-06;-0.013221689892540035
9.01875e-06;-0.013245746384483541
9.01900e-06;-0.013269802876427048
9.01925e-06;-0.013293859368370391
9.01950e-06;-0.013317915860313896
9.01975e-06;-0.013341972352257403
9.02000e-06;-0.013366028844200746
9.02025e-06;-0.013389063028576847
9.02050e-06;-0.013411965970051395
9.02075e-06;-0.013434868911525788
9.02100e-06;-0.013457771853000336
9.02125e-06;-0.013480674794474883
9.02150e-06;-0.013503577735949276
9.02175e-06;-0.013525051037528261
9.02200e-06;-0.013544252425489968
9.02225e-06;-0.013563453813451542
9.02250e-06;-0.013581381556862233
9.02275e-06;-0.013597285286807655
9.02300e-06;-0.013612593710074158
9.02325e-06;-0.013626956101158591
9.02350e-06;-0.013642451013740448
9.02375e-06;-0.01365974567395094
9.02400e-06;-0.013677040334161549
9.02425e-06;-0.013691478631617494
9.02450e-06;-0.013701377737449722
9.02475e-06;-0.013728442604325281
9.02500e-06;-0.018089354624985066
9.02525e-06;-0.026068317590930628
9.02550e-06;-0.02635872129032081
9.02575e-06;-0.024442385584554402
9.02600e-06;-0.020683617500280978
9.02625e-06;-0.014860818520961985
9.02650e-06;-0.012948605242366167
9.02675e-06;-0.013918743880332839
9.02700e-06;-0.016256988650859023
9.02725e-06;-0.02057145766159319
9.02750e-06;-0.02226864633657364
9.02775e-06;-0.020301887671645216
9.02800e-06;-0.018057276418943696
9.02825e-06;-0.014953294121312462
9.02850e-06;-0.012296049523481409
9.02875e-06;-0.013751774194609222
9.02900e-06;-0.01489067180317345
9.02925e-06;-0.01692061064969773
9.02950e-06;-0.01826576971548371
9.02975e-06;-0.01778431245383468
9.03000e-06;-0.016591661157667487
9.03025e-06;-0.01493708116277338
9.03050e-06;-0.013810872099827327
9.03075e-06;-0.013898196421998849
9.03100e-06;-0.01463476143943656
9.03125e-06;-0.015968690348900135
9.03150e-06;-0.016830139743816832
9.03175e-06;-0.016545175321131665
9.03200e-06;-0.015812540468697588
9.03225e-06;-0.014788367459307145
9.03250e-06;-0.014092928330973937
9.03275e-06;-0.01415530097391744
9.03300e-06;-0.014622112674230582
9.03325e-06;-0.015461597356090769
9.03350e-06;-0.016004680548446414
9.03375e-06;-0.01582986372233599
9.03400e-06;-0.015374989700084923
9.03425e-06;-0.014737875269613787
9.03450e-06;-0.014307047231335565
9.03475e-06;-0.014351235781788225
9.03500e-06;-0.014649041092869165
9.03525e-06;-0.015180525424204155
9.03550e-06;-0.015526560139761187
9.03575e-06;-0.015423127771225346
9.03600e-06;-0.015144499117803288
9.03625e-06;-0.014751937062269805
9.03650e-06;-0.014488789576256182
9.03675e-06;-0.014523343374832024
9.03700e-06;-0.014716867845651448
9.03725e-06;-0.01505683269095469
9.03750e-06;-0.015280667592665664
9.03775e-06;-0.015222982687493865
9.03800e-06;-0.015055571039597591
9.03825e-06;-0.014816785963106784
9.03850e-06;-0.01465903076747684
9.03875e-06;-0.014687678491930806
9.03900e-06;-0.014815785144313823
9.03925e-06;-0.015035462588921933
9.03950e-06;-0.01518220677408055
9.03975e-06;-0.015152397316251672
9.04000e-06;-0.015053625686872036
9.04025e-06;-0.014909891728993957
9.04050e-06;-0.014816627311844579
9.04075e-06;-0.014839800327694818
9.04100e-06;-0.014924909749367566
9.04125e-06;-0.015066977467876186
9.04150e-06;-0.01516292573093125
9.04175e-06;-0.015147823222880311
9.04200e-06;-0.015089039259328418
9.04225e-06;-0.015001579494828207
9.04250e-06;-0.014945191273467337
9.04275e-06;-0.014961158671104766
9.04300e-06;-0.015015352899399422
9.04325e-06;-0.015104807071778227
9.04350e-06;-0.01516518260604997
9.04375e-06;-0.015155943235082198
9.04400e-06;-0.015119318444050789
9.04425e-06;-0.015064710453788611
9.04450e-06;-0.015029546712859224
9.04475e-06;-0.015039684649569214
9.04500e-06;-0.015073745051590192
9.04525e-06;-0.015129867447972789
9.04550e-06;-0.015167751916846
9.04575e-06;-0.015162008718442277
9.04600e-06;-0.015139095308821954
9.04625e-06;-0.015104903862336998
9.04650e-06;-0.015082877901525404
9.04675e-06;-0.015089215543145766
9.04700e-06;-0.015110523220696928
9.04725e-06;-0.015145634554206075
9.04750e-06;-0.015169306335287408
9.04775e-06;-0.015165638566212
9.04800e-06;-0.015151205075101417
9.04825e-06;-0.015129699925705498
9.04850e-06;-0.015115807979399274
9.04875e-06;-0.015119676106660436
9.04900e-06;-0.015132913707153785
9.04925e-06;-0.015154789675790791
9.04950e-06;-0.015169493948812843
9.04975e-06;-0.015167068472858283
9.05000e-06;-0.01515789608367064
9.05025e-06;-0.015144292812454946
9.05050e-06;-0.015135458685920077
9.05075e-06;-0.015137748406538446
9.05100e-06;-0.015145906331628883
9.05125e-06;-0.01515947667701908
9.05150e-06;-0.015168554710631983
9.05175e-06;-0.015166905042011784
9.05200e-06;-0.015161033651085475
9.05225e-06;-0.015152392311937662
9.05250e-06;-0.015146744114777056
9.05275e-06;-0.015148069674092412
9.05300e-06;-0.015152976076067439
9.05325e-06;-0.015158500591711643
9.05350e-06;-0.015164045220659636
9.05375e-06;-0.015159976742482966
9.05400e-06;-0.015152758061207146
9.05425e-06;-0.015144396006250128
9.05450e-06;-0.01513565926917762
9.05475e-06;-0.015126922532105172
9.05500e-06;-0.01512026912008361
9.05525e-06;-0.015114298411057736
9.05550e-06;-0.015108327702031904
9.05575e-06;-0.01509501800703119
9.05600e-06;-0.015079303335568416
9.05625e-06;-0.015061992219835257
9.05650e-06;-0.015044157951324915
9.05675e-06;-0.015026323682814573
9.05700e-06;-0.015008489414304353
9.05725e-06;-0.01499065514579401
9.05750e-06;-0.014968651561648158
9.05775e-06;-0.014945281698018975
9.05800e-06;-0.014921911834389635
9.05825e-06;-0.014898541970760293
9.05850e-06;-0.01487517210713111
9.05875e-06;-0.01485008048407296
9.05900e-06;-0.014824424642618097
9.05925e-06;-0.014798768801163233
9.05950e-06;-0.014773112959708543
9.05975e-06;-0.01474745711825368
9.06000e-06;-0.014721801276798816
9.06025e-06;-0.014696145435344126
9.06050e-06;-0.014670489593889263
9.06075e-06;-0.014646172481680014
9.06100e-06;-0.014622294069358966
9.06125e-06;-0.014598415657037756
9.06150e-06;-0.014574537244716546
9.06175e-06;-0.014550658832395499
9.06200e-06;-0.01452678042007429
9.06225e-06;-0.01450290200775308
9.06250e-06;-0.01447902359543203
9.06275e-06;-0.014459812059197795
9.06300e-06;-0.014442129852380824
9.06325e-06;-0.014424447645563972
9.06350e-06;-0.014406765438747
9.06375e-06;-0.01438908323193003
9.06400e-06;-0.014371401025113178
9.06425e-06;-0.014353718818296207
9.06450e-06;-0.014336036611479235
9.06475e-06;-0.014316159811114658
9.06500e-06;-0.01429556384520768
9.06525e-06;-0.014274967879300703
9.06550e-06;-0.014254371913393864
9.06575e-06;-0.014233775947486886
9.06600e-06;-0.014213179981579909
9.06625e-06;-0.014192584015673072
9.06650e-06;-0.014171988049766094
9.06675e-06;-0.014148270194381541
9.06700e-06;-0.01412352929974619
9.06725e-06;-0.014098788405110672
9.06750e-06;-0.014074047510475154
9.06775e-06;-0.014049306615839635
9.06800e-06;-0.014024565721204285
9.06825e-06;-0.013999824826568766
9.06850e-06;-0.013974510698668998
9.06875e-06;-0.013947505696766602
9.06900e-06;-0.013920500694864021
9.06925e-06;-0.01389349569296144
9.06950e-06;-0.013866490691059044
9.06975e-06;-0.013839485689156463
9.07000e-06;-0.013812480687253883
9.07025e-06;-0.013785475685351486
9.07050e-06;-0.013759253555383173
9.07075e-06;-0.013733287971562034
9.07100e-06;-0.013707322387741073
9.07125e-06;-0.013682874053779982
9.07150e-06;-0.013658922920687738
9.07175e-06;-0.013634971787595656
9.07200e-06;-0.013613039913216812
9.07225e-06;-0.013591769747376026
9.07250e-06;-0.013570499581535386
9.07275e-06;-0.013552472014100944
9.07300e-06;-0.013535507042081748
9.07325e-06;-0.013518542070062667
9.07350e-06;-0.013508170038535466
9.07375e-06;-0.013499958505306896
9.07400e-06;-0.01349174697207838
9.07425e-06;-0.013483535438849809
9.07450e-06;-0.013475323905621239
9.07475e-06;-0.013467112372392722
9.07500e-06;-0.01345890083916415
9.07525e-06;-0.013453916175664373
9.07550e-06;-0.013458449853957574
9.07575e-06;-0.013462983532250807
9.07600e-06;-0.013467517210544039
9.07625e-06;-0.01347205088883727
9.07650e-06;-0.013476584567130473
9.07675e-06;-0.013481118245423704
9.07700e-06;-0.013485651923716938
9.07725e-06;-0.013497934764523151
9.07750e-06;-0.0135127569961288
9.07775e-06;-0.013527579227734449
9.07800e-06;-0.013542401459339999
9.07825e-06;-0.013557223690945648
9.07850e-06;-0.013572045922551297
9.07875e-06;-0.013586868154156845
9.07900e-06;-0.013601690385762494
9.07925e-06;-0.013619974654669941
9.07950e-06;-0.013639393428842475
9.07975e-06;-0.013658812203015139
9.08000e-06;-0.013678230977187802
9.08025e-06;-0.013697649751360334
9.08050e-06;-0.013717068525532998
9.08075e-06;-0.013736487299705662
9.08100e-06;-0.013755906073878194
9.08125e-06;-0.013773768492005236
9.08150e-06;-0.013791120894215471
9.08175e-06;-0.01380847329642559
9.08200e-06;-0.013825825698635826
9.08225e-06;-0.013843178100846062
9.08250e-06;-0.013859257124536156
9.08275e-06;-0.013871580046180713
9.08300e-06;-0.01388390296782527
9.08325e-06;-0.013896225889469744
9.08350e-06;-0.013908548811114302
9.08375e-06;-0.01392087173275886
9.08400e-06;-0.013929804990647032
9.08425e-06;-0.013937627459989532
9.08450e-06;-0.013945449929332032
9.08475e-06;-0.013953272398674532
9.08500e-06;-0.013961094868016978
9.08525e-06;-0.013968917337359478
9.08550e-06;-0.013976739806701978
9.08575e-06;-0.013984562276044426
9.08600e-06;-0.013992384745386926
9.08625e-06;-0.014000207214729426
9.08650e-06;-0.014008029684071872
9.08675e-06;-0.014015852153414372
9.08700e-06;-0.014023674622756872
9.08725e-06;-0.014031497092099318
9.08750e-06;-0.014039319561441818
9.08775e-06;-0.014047142030784318
9.08800e-06;-0.014052511682999067
9.08825e-06;-0.01405707755012878
9.08850e-06;-0.014061643417258494
9.08875e-06;-0.014066209284388176
9.08900e-06;-0.01407077515151789
9.08925e-06;-0.014075341018647602
9.08950e-06;-0.014079906885777285
9.08975e-06;-0.014084472752906998
9.09000e-06;-0.014089038620036711
9.09025e-06;-0.014093604487166393
9.09050e-06;-0.014098170354296106
9.09075e-06;-0.01410273622142582
9.09100e-06;-0.014107302088555502
9.09125e-06;-0.014111867955685215
9.09150e-06;-0.014116433822814928
9.09175e-06;-0.01412099968994461
9.09200e-06;-0.014122819529148314
9.09225e-06;-0.014123739498457258
9.09250e-06;-0.014124659467766197
9.09275e-06;-0.014125579437075141
9.09300e-06;-0.014126499406384085
9.09325e-06;-0.014127419375693031
9.09350e-06;-0.014128339345001968
9.09375e-06;-0.014129259314310914
9.09400e-06;-0.014130179283619858
9.09425e-06;-0.014131099252928795
9.09450e-06;-0.014130302051066594
9.09475e-06;-0.014124439685900244
9.09500e-06;-0.014118577320733934
9.09525e-06;-0.014112714955567584
9.09550e-06;-0.014106852590401234
9.09575e-06;-0.014100990225234923
9.09600e-06;-0.014095127860068574
9.09625e-06;-0.014089265494902223
9.09650e-06;-0.014083403129735914
9.09675e-06;-0.014077540764569563
9.09700e-06;-0.014071678399403213
9.09725e-06;-0.014061408340388963
9.09750e-06;-0.014049693885648676
9.09775e-06;-0.014037979430908391
9.09800e-06;-0.014026264976168185
9.09825e-06;-0.014014550521427898
9.09850e-06;-0.014002836066687613
9.09875e-06;-0.013991121611947406
9.09900e-06;-0.01397940715720712
9.09925e-06;-0.013967692702466835
9.09950e-06;-0.013955978247726628
9.09975e-06;-0.013943361439671778
9.10000e-06;-0.013930448931571507
9.10025e-06;-0.013917536423471323
9.10050e-06;-0.013904623915371051
9.10075e-06;-0.01389171140727078
9.10100e-06;-0.013878798899170597
9.10125e-06;-0.013865886391070325
9.10150e-06;-0.013852973882970054
9.10175e-06;-0.013840061374869784
9.10200e-06;-0.0138271488667696
9.10225e-06;-0.013818038104853192
9.10250e-06;-0.013810173170376243
9.10275e-06;-0.013802308235899348
9.10300e-06;-0.0137944433014224
9.10325e-06;-0.01378657836694545
9.10350e-06;-0.013778713432468555
9.10375e-06;-0.013770848497991607
9.10400e-06;-0.013762983563514658
9.10425e-06;-0.013755118629037761
9.10450e-06;-0.013747253694560813
9.10475e-06;-0.013739388760083864
9.10500e-06;-0.013737485310933297
9.10525e-06;-0.01373753543302095
9.10550e-06;-0.013737585555108602
9.10575e-06;-0.013737635677196254
9.10600e-06;-0.013737685799283906
9.10625e-06;-0.013737735921371558
9.10650e-06;-0.013737786043459209
9.10675e-06;-0.01373783616554686
9.10700e-06;-0.013737886287634513
9.10725e-06;-0.013737936409722165
9.10750e-06;-0.013737986531809817
9.10775e-06;-0.013742275962110417
9.10800e-06;-0.013747954608376842
9.10825e-06;-0.013753633254643306
9.10850e-06;-0.013759311900909768
9.10875e-06;-0.013764990547176193
9.10900e-06;-0.013770669193442655
9.10925e-06;-0.01377634783970912
9.10950e-06;-0.013782026485975544
9.10975e-06;-0.013787705132242006
9.11000e-06;-0.013793383778508469
9.11025e-06;-0.013799062424774893
9.11050e-06;-0.013804741071041357
9.11075e-06;-0.01381041971730782
9.11100e-06;-0.013816098363574282
9.11125e-06;-0.013821777009840707
9.11150e-06;-0.013825644589608256
9.11175e-06;-0.013828918685163403
9.11200e-06;-0.013832192780718528
9.11225e-06;-0.013835466876273675
9.11250e-06;-0.013838740971828821
9.11275e-06;-0.013842015067383945
9.11300e-06;-0.013845289162939091
9.11325e-06;-0.013848563258494238
9.11350e-06;-0.013851837354049363
9.11375e-06;-0.01385511144960451
9.11400e-06;-0.013858385545159656
9.11425e-06;-0.01386165964071478
9.11450e-06;-0.013864933736269926
9.11475e-06;-0.013868207831825073
9.11500e-06;-0.013871481927380197
9.11525e-06;-0.013870476353105416
9.11550e-06;-0.013868068336413226
9.11575e-06;-0.013865660319721054
9.11600e-06;-0.013863252303028864
9.11625e-06;-0.013860844286336674
9.11650e-06;-0.013858436269644501
9.11675e-06;-0.013856028252952311
9.11700e-06;-0.013853620236260121
9.11725e-06;-0.013851212219567949
9.11750e-06;-0.013848804202875759
9.11775e-06;-0.013846396186183569
9.11800e-06;-0.013843988169491395
9.11825e-06;-0.013841580152799206
9.11850e-06;-0.013839172136107017
9.11875e-06;-0.013836764119414842
9.11900e-06;-0.013834356102722654
9.11925e-06;-0.013831948086030464
9.11950e-06;-0.013828132370439665
9.11975e-06;-0.013823855353691293
9.12000e-06;-0.013819578336942891
9.12025e-06;-0.013815301320194488
9.12050e-06;-0.013811024303446115
9.12075e-06;-0.013806747286697714
9.12100e-06;-0.013802470269949312
9.12125e-06;-0.013798193253200938
9.12150e-06;-0.013793916236452536
9.12175e-06;-0.013789639219704134
9.12200e-06;-0.01378536220295576
9.12225e-06;-0.013781085186207359
9.12250e-06;-0.013776808169458957
9.12275e-06;-0.013772531152710585
9.12300e-06;-0.013768254135962183
9.12325e-06;-0.01376397711921378
9.12350e-06;-0.013759700102465407
9.12375e-06;-0.013757294392177722
9.12400e-06;-0.013755501906662446
9.12425e-06;-0.013753709421147182
9.12450e-06;-0.013751916935631905
9.12475e-06;-0.013750124450116629
9.12500e-06;-0.013748331964601365
9.12525e-06;-0.013746539479086087
9.12550e-06;-0.013744746993570811
9.12575e-06;-0.013742954508055547
9.12600e-06;-0.01374116202254027
9.12625e-06;-0.013739369537024993
9.12650e-06;-0.01373757705150973
9.12675e-06;-0.013735784565994452
9.12700e-06;-0.013733992080479176
9.12725e-06;-0.013732199594963912
9.12750e-06;-0.013730407109448634
9.12775e-06;-0.013729111050918839
9.12800e-06;-0.013729279309863986
9.12825e-06;-0.013729447568809132
9.12850e-06;-0.013729615827754279
9.12875e-06;-0.013729784086699427
9.12900e-06;-0.013729952345644572
9.12925e-06;-0.01373012060458972
9.12950e-06;-0.013730288863534867
9.12975e-06;-0.013730457122480014
9.13000e-06;-0.01373062538142516
9.13025e-06;-0.013730793640370309
9.13050e-06;-0.013730961899315454
9.13075e-06;-0.013731130158260602
9.13100e-06;-0.013731298417205749
9.13125e-06;-0.013731466676150895
9.13150e-06;-0.013731634935096042
9.13175e-06;-0.01373180319404119
9.13200e-06;-0.013731828710671724
9.13225e-06;-0.013731807450825365
9.13250e-06;-0.013731786190979008
9.13275e-06;-0.013731764931132649
9.13300e-06;-0.01373174367128629
9.13325e-06;-0.013731722411439932
9.13350e-06;-0.013731701151593573
9.13375e-06;-0.013731679891747214
9.13400e-06;-0.013731658631900857
9.13425e-06;-0.013731637372054498
9.13450e-06;-0.013731616112208139
9.13475e-06;-0.013731594852361782
9.13500e-06;-0.013731573592515423
9.13525e-06;-0.013731552332669065
9.13550e-06;-0.013732054244919002
9.13575e-06;-0.013734099365063703
9.13600e-06;-0.013736144485208417
9.13625e-06;-0.013738189605353132
9.13650e-06;-0.013740234725497846
9.13675e-06;-0.013742279845642547
9.13700e-06;-0.013744324965787261
9.13725e-06;-0.013746370085931976
9.13750e-06;-0.013748415206076676
9.13775e-06;-0.013750460326221391
9.13800e-06;-0.013752505446366104
9.13825e-06;-0.013754550566510804
9.13850e-06;-0.013756595686655519
9.13875e-06;-0.013758640806800233
9.13900e-06;-0.013760685926944934
9.13925e-06;-0.013763471725344867
9.13950e-06;-0.01376650024307712
9.13975e-06;-0.013769528760809353
9.14000e-06;-0.013772557278541606
9.14025e-06;-0.01377558579627386
9.14050e-06;-0.013778614314006092
9.14075e-06;-0.013781485320706267
9.14100e-06;-0.013783891714958677
9.14125e-06;-0.013786298109211071
9.14150e-06;-0.013788704503463482
9.14175e-06;-0.013791110897715892
9.14200e-06;-0.013793517291968286
9.14225e-06;-0.013795923686220696
9.14250e-06;-0.01379760207680663
9.14275e-06;-0.01379904190150698
9.14300e-06;-0.013798331996633635
9.14325e-06;-0.01379691762808365
9.14350e-06;-0.013795503259533673
9.14375e-06;-0.013787662616499927
9.14400e-06;-0.01377771609140301
9.14425e-06;-0.013767769566306163
9.14450e-06;-0.013751653967348867
9.14475e-06;-0.013733516770649087
9.14500e-06;-0.01371537957394931
9.14525e-06;-0.013687649448691323
9.14550e-06;-0.01365677573281379
9.14575e-06;-0.013625902016936257
9.14600e-06;-0.013595028301058933
9.14625e-06;-0.0135641545851814
9.14650e-06;-0.013522043820833708
9.14675e-06;-0.013476250689840175
9.14700e-06;-0.013430457558846332
9.14725e-06;-0.013384664427852489
