Time(s);Current(A)
1.30000e-05;0.007444631798312495
1.30003e-05;0.007458664752560835
1.30005e-05;0.007472667311646427
1.30008e-05;0.007486669870732114
1.30010e-05;0.007500672429817801
1.30013e-05;0.007514674988903393
1.30015e-05;0.00752867754798908
1.30018e-05;0.007542680107074767
1.30020e-05;0.007556682666160359
1.30023e-05;0.007570685225246046
1.30025e-05;0.007584687784331733
1.30028e-05;0.007598690343417325
1.30030e-05;0.007612692902503012
1.30033e-05;0.007626695461588699
1.30035e-05;0.007640698020674292
1.30038e-05;0.007654700579759978
1.30040e-05;0.007661918578322505
1.30043e-05;0.007668435663258762
1.30045e-05;0.007674952748195063
1.30048e-05;0.007681469833131363
1.30050e-05;0.00768798691806762
1.30053e-05;0.007694504003003921
1.30055e-05;0.0077010210879402225
1.30058e-05;0.007707538172876523
1.30060e-05;0.00771405525781278
1.30063e-05;0.007720572342749081
1.30065e-05;0.007727089427685381
1.30068e-05;0.007733606512621638
1.30070e-05;0.0077401235975579396
1.30073e-05;0.00774664068249424
1.30075e-05;0.007753157767430497
1.30078e-05;0.007754938523134688
1.30080e-05;0.007756229968191996
1.30083e-05;0.007757521413249296
1.30085e-05;0.007758812858306604
1.30088e-05;0.007760104303363912
1.30090e-05;0.007761395748421211
1.30093e-05;0.0077626871934785195
1.30095e-05;0.007763978638535828
1.30098e-05;0.0077652700835931275
1.30100e-05;0.007766561528650436
1.30103e-05;0.007767852973707744
1.30105e-05;0.007769144418765043
1.30108e-05;0.007770435863822351
1.30110e-05;0.00777172730887966
1.30113e-05;0.007771241013840577
1.30115e-05;0.007770571060294222
1.30118e-05;0.0077699011067478676
1.30120e-05;0.007769231153201517
1.30123e-05;0.007768561199655162
1.30125e-05;0.007767891246108808
1.30128e-05;0.007767221292562457
1.30130e-05;0.0077665513390161025
1.30133e-05;0.007765881385469748
1.30135e-05;0.007765211431923398
1.30138e-05;0.0077645414783770435
1.30140e-05;0.007763871524830689
1.30143e-05;0.007763201571284334
1.30145e-05;0.007762531617737984
1.30148e-05;0.00777009397025863
1.30150e-05;0.007778506803143048
1.30153e-05;0.007786919636027409
1.30155e-05;0.007795332468911827
1.30158e-05;0.007803745301796245
1.30160e-05;0.0078121581346806065
1.30163e-05;0.007820570967565024
1.30165e-05;0.007828983800449442
1.30168e-05;0.007837396633333804
1.30170e-05;0.00785348882623515
1.30173e-05;0.00788079941958297
1.30175e-05;0.007908110012930606
1.30178e-05;0.007935420606278425
1.30180e-05;0.007962731199626245
1.30183e-05;0.007990041792973879
1.30185e-05;0.0080173523863217
1.30188e-05;0.00804466297966952
1.30190e-05;0.008071973573017154
1.30193e-05;0.008099284166364974
1.30195e-05;0.008138901978575367
1.30198e-05;0.008179791250798438
1.30200e-05;0.008220680523021787
1.30203e-05;0.008261569795245135
1.30205e-05;0.008302459067468206
1.30208e-05;0.008343348339691555
1.30210e-05;0.008384237611914902
1.30213e-05;0.008425126884137973
1.30215e-05;0.008466016156361321
1.30218e-05;0.00850690542858467
1.30220e-05;0.008547794700807741
1.30223e-05;0.008585384894184677
1.30225e-05;0.008618155625063673
1.30228e-05;0.00865092635594267
1.30230e-05;0.008683697086821443
1.30233e-05;0.008716467817700439
1.30235e-05;0.008749238548579435
1.30238e-05;0.008782009279458209
1.30240e-05;0.008814780010337205
1.30243e-05;0.0088475507412162
1.30245e-05;0.008880321472094974
1.30248e-05;0.008913092202973968
1.30250e-05;0.008945862933852964
1.30253e-05;0.008951029871439361
1.30255e-05;0.008953345058375285
1.30258e-05;0.008955660245311211
1.30260e-05;0.00895797543224712
1.30263e-05;0.008960290619183046
1.30265e-05;0.00896260580611897
1.30268e-05;0.008964920993054881
1.30270e-05;0.008967236179990805
1.30273e-05;0.00896955136692673
1.30275e-05;0.00897186655386264
1.30278e-05;0.008974181740798564
1.30280e-05;0.008965029265426604
1.30283e-05;0.008939124244567834
1.30285e-05;0.008913219223708888
1.30288e-05;0.008887314202849942
1.30290e-05;0.008861409181991173
1.30293e-05;0.008835504161132227
1.30295e-05;0.00880959914027328
1.30298e-05;0.008783694119414511
1.30300e-05;0.008757789098555565
1.30303e-05;0.008731884077696619
1.30305e-05;0.00870597905683785
1.30308e-05;0.008680074035978903
1.30310e-05;0.008645299044579073
1.30313e-05;0.008609607695633681
1.30315e-05;0.00857391634668853
1.30318e-05;0.008538224997743135
1.30320e-05;0.008502533648797743
1.30323e-05;0.008466842299852591
1.30325e-05;0.008431150950907199
1.30328e-05;0.008395459601961804
1.30330e-05;0.008362984145214664
1.30333e-05;0.008335206627671543
1.30335e-05;0.008307429110128424
1.30338e-05;0.008279651592585492
1.30340e-05;0.008251874075042373
1.30343e-05;0.008224096557499254
1.30345e-05;0.008196319039956322
1.30348e-05;0.008168541522413203
1.30350e-05;0.008140764004870083
1.30353e-05;0.008123913648623473
1.30355e-05;0.008108192178505903
1.30358e-05;0.008092470708388335
1.30360e-05;0.008076749238270873
1.30363e-05;0.008061027768153303
1.30365e-05;0.008045306298035734
1.30368e-05;0.008029584827918271
1.30370e-05;0.00801760481931073
1.30373e-05;0.008011090528342153
1.30375e-05;0.00800457623737362
1.30378e-05;0.007998061946405044
1.30380e-05;0.007991547655436465
1.30383e-05;0.007985033364467932
1.30385e-05;0.007978519073499356
1.30388e-05;0.00797200478253078
1.30390e-05;0.007969277762203776
1.30393e-05;0.007970176123541138
1.30395e-05;0.00797140860197011
1.30398e-05;0.00797264108039908
1.30400e-05;0.007973873558828044
1.30403e-05;0.007975106037257016
1.30405e-05;0.007976338515685986
1.30408e-05;0.00797757099411495
1.30410e-05;0.007978803472543922
1.30413e-05;0.007980035950972892
1.30415e-05;0.007981268429401856
1.30418e-05;0.007982500907830828
1.30420e-05;0.007985539949655234
1.30423e-05;0.007988765627725242
1.30425e-05;0.00799199130579527
1.30428e-05;0.0079952169838653
1.30430e-05;0.007998442661935307
1.30433e-05;0.008001668340005335
1.30435e-05;0.008004894018075364
1.30438e-05;0.008008119696145372
1.30440e-05;0.0080113453742154
1.30443e-05;0.00801457105228543
1.30445e-05;0.008017796730355436
1.30448e-05;0.008027688866776721
1.30450e-05;0.008038269715679185
1.30453e-05;0.008048850564581577
1.30455e-05;0.008059431413484041
1.30458e-05;0.008070012262386506
1.30460e-05;0.008080593111288899
1.30463e-05;0.008091173960191362
1.30465e-05;0.008101754809093826
1.30468e-05;0.008112335657996218
1.30470e-05;0.008122916506898682
1.30473e-05;0.008149243847952507
1.30475e-05;0.008177197960690689
1.30478e-05;0.00820515207342906
1.30480e-05;0.008233106186167431
1.30482e-05;0.008261060298905613
1.30485e-05;0.008289014411643984
1.30488e-05;0.008316968524382354
1.30490e-05;0.008344922637120725
1.30493e-05;0.008372876749858907
1.30495e-05;0.008400830862597278
1.30498e-05;0.00843880524133882
1.30500e-05;0.008477814814766808
1.30503e-05;0.008516824388195062
1.30505e-05;0.008555833961623318
1.30508e-05;0.008594843535051307
1.30510e-05;0.008633853108479562
1.30513e-05;0.008672862681907817
1.30515e-05;0.008711872255335805
1.30518e-05;0.008750881828764061
1.30520e-05;0.008788062027992205
1.30523e-05;0.008822569784162446
1.30525e-05;0.008857077540332919
1.30528e-05;0.008891585296503392
1.30530e-05;0.008926093052673632
1.30533e-05;0.008960600808844105
1.30535e-05;0.00899510856501458
1.30538e-05;0.009029616321184819
1.30540e-05;0.009064124077355292
1.30543e-05;0.009098631833525767
1.30545e-05;0.009124365484417307
1.30548e-05;0.009149192681611407
1.30550e-05;0.009174019878805506
1.30553e-05;0.009198847075999437
1.30555e-05;0.009223674273193537
1.30558e-05;0.009248501470387636
1.30560e-05;0.009273328667581567
1.30563e-05;0.009298155864775667
1.30565e-05;0.009322983061969766
1.30567e-05;0.009347810259163697
1.30570e-05;0.009374296244824868
1.30573e-05;0.009403205473212202
1.30575e-05;0.009432114701599534
1.30578e-05;0.009461023929986672
1.30580e-05;0.009489933158374004
1.30583e-05;0.009518842386761338
1.30585e-05;0.009547751615148474
1.30588e-05;0.009576660843535808
1.30590e-05;0.00960557007192314
1.30593e-05;0.009634479300310278
1.30595e-05;0.00966338852869761
1.30598e-05;0.009695517400441948
1.30600e-05;0.009727978893864838
1.30603e-05;0.009760440387287949
1.30605e-05;0.00979290188071106
1.30608e-05;0.00982536337413395
1.30610e-05;0.00985782486755706
1.30613e-05;0.009890286360980171
1.30615e-05;0.009922747854403061
1.30618e-05;0.009955209347826172
1.30620e-05;0.009985385089557096
1.30623e-05;0.010012221688731213
1.30625e-05;0.01003905828790551
1.30628e-05;0.01006589488707981
1.30630e-05;0.010092731486253927
1.30633e-05;0.010119568085428226
1.30635e-05;0.010146404684602523
1.30638e-05;0.01017324128377664
1.30640e-05;0.01020007788295094
1.30643e-05;0.01022691448212524
1.30645e-05;0.010233440660407652
1.30648e-05;0.01023786856706563
1.30650e-05;0.010242296473723605
1.30652e-05;0.010246724380381553
1.30655e-05;0.010251152287039529
1.30658e-05;0.010255580193697506
1.30660e-05;0.010260008100355484
1.30663e-05;0.01023120734978334
1.30665e-05;0.010198973743291508
1.30668e-05;0.010166740136799675
1.30670e-05;0.010134506530308061
1.30673e-05;0.010102272923816229
1.30675e-05;0.010070039317324397
1.30678e-05;0.010037805710832782
1.30680e-05;0.009970187586241516
1.30683e-05;0.009898913883527339
1.30685e-05;0.009827640180813642
1.30688e-05;0.009756366478099463
1.30690e-05;0.009685092775385287
1.30693e-05;0.00961381907267159
1.30695e-05;0.009542545369957413
1.30698e-05;0.009471271667243234
1.30700e-05;0.009399997964529538
1.30703e-05;0.0093085146991286
1.30705e-05;0.009214943581773835
1.30708e-05;0.009121372464419707
1.30710e-05;0.009027801347064941
1.30713e-05;0.008934230229710178
1.30715e-05;0.008840659112356049
1.30718e-05;0.008747087995001285
1.30720e-05;0.00865351687764652
1.30723e-05;0.008559945760292391
1.30725e-05;0.008469183207061732
1.30728e-05;0.008378710806873286
1.30730e-05;0.008288238406685453
1.30733e-05;0.008215984104244711
1.30735e-05;0.008145611915315243
1.30737e-05;0.008075239726386251
1.30740e-05;0.008004867537456783
1.30743e-05;0.007934495348527314
1.30745e-05;0.007864123159597846
1.30748e-05;0.007793750970668855
1.30750e-05;0.007723378781739386
1.30753e-05;0.007678783492577406
1.30755e-05;0.0076368512175245765
1.30758e-05;0.007594918942471463
1.30760e-05;0.007552986667418349
1.30763e-05;0.00751105439236552
1.30765e-05;0.007469122117312406
1.30768e-05;0.0074271898422592925
1.30770e-05;0.0073852575672064625
1.30773e-05;0.007364748109420257
1.30775e-05;0.007346451845042169
1.30778e-05;0.007328155580664205
1.30780e-05;0.007309859316286117
1.30783e-05;0.007291563051908029
1.30785e-05;0.007273266787530066
1.30788e-05;0.007254970523151978
1.30790e-05;0.00723667425877389
1.30793e-05;0.007218377994395926
1.30795e-05;0.007200081730017838
1.30798e-05;0.00718178546563975
1.30800e-05;0.007163489201261786
1.30803e-05;0.007145192936883699
1.30805e-05;0.007126896672505611
1.30808e-05;0.007121722896925907
1.30810e-05;0.007117904806985189
1.30813e-05;0.007114086717044471
1.30815e-05;0.007110268627103779
1.30818e-05;0.00710645053716306
1.30820e-05;0.007102632447222342
1.30822e-05;0.00709881435728165
1.30825e-05;0.007094996267340932
1.30828e-05;0.0070911781774002135
1.30830e-05;0.0070873600874594945
1.30833e-05;0.007083541997518802
1.30835e-05;0.007079723907578084
1.30838e-05;0.007075905817637366
1.30840e-05;0.007072087727696674
1.30843e-05;0.007074280924996228
1.30845e-05;0.0070770951489860755
1.30848e-05;0.007079909372975903
1.30850e-05;0.007082723596965751
1.30853e-05;0.007085537820955599
1.30855e-05;0.007088352044945427
1.30858e-05;0.0070911662689352745
1.30860e-05;0.007093980492925122
1.30863e-05;0.00709679471691495
1.30865e-05;0.007099608940904798
1.30868e-05;0.007102423164894646
1.30870e-05;0.007105237388884474
1.30873e-05;0.0071197690089900454
1.30875e-05;0.007135511154468789
1.30878e-05;0.007151253299947425
1.30880e-05;0.007166995445426169
1.30883e-05;0.007182737590904912
1.30885e-05;0.007198479736383549
1.30888e-05;0.007214221881862291
1.30890e-05;0.007229964027341035
1.30893e-05;0.007245706172819671
1.30895e-05;0.007261448318298415
1.30898e-05;0.0072771904637771575
1.30900e-05;0.0072929326092557945
1.30903e-05;0.007314414306713052
1.30905e-05;0.007336488957863528
1.30907e-05;0.007358563609013854
1.30910e-05;0.00738063826016433
1.30913e-05;0.007402712911314807
1.30915e-05;0.007424787562465283
1.30918e-05;0.00744686221361561
1.30920e-05;0.007468936864766087
1.30923e-05;0.007491011515916563
1.30925e-05;0.007513086167066889
1.30928e-05;0.00753284528331183
1.30930e-05;0.007549221748161257
1.30933e-05;0.0075655982130105725
1.30935e-05;0.007581974677859999
1.30938e-05;0.007598351142709426
1.30940e-05;0.007614727607558742
1.30943e-05;0.0076311040724081685
1.30945e-05;0.007647480537257595
1.30948e-05;0.007663857002106911
1.30950e-05;0.007680233466956337
1.30953e-05;0.007696609931805764
1.30955e-05;0.007706173353224768
1.30958e-05;0.007715032918440219
1.30960e-05;0.007723892483655671
1.30963e-05;0.0077327520488710616
1.30965e-05;0.007741611614086513
1.30968e-05;0.007750471179301965
1.30970e-05;0.007759330744517356
1.30973e-05;0.0077681903097328074
1.30975e-05;0.007777049874948259
1.30978e-05;0.00778590944016365
1.30980e-05;0.007794769005379102
1.30983e-05;0.007803628570594553
1.30985e-05;0.007812488135809944
1.30988e-05;0.007821347701025395
1.30990e-05;0.007830207266240848
1.30992e-05;0.007839066831456238
1.30995e-05;0.00784792639667169
1.30998e-05;0.00785529293332479
1.31000e-05;0.00786047837776495
1.31003e-05;0.007865663822205077
1.31005e-05;0.007870849266645236
1.31008e-05;0.007876034711085398
1.31010e-05;0.007881220155525523
1.31013e-05;0.007886405599965682
1.31015e-05;0.007891591044405843
1.31018e-05;0.007896776488845968
1.31020e-05;0.00790196193328613
1.31023e-05;0.00790714737772629
1.31025e-05;0.007912332822166416
1.31028e-05;0.007917518266606575
1.31030e-05;0.007922703711046737
1.31033e-05;0.007927889155486862
1.31035e-05;0.007933074599927021
1.31038e-05;0.007938260044367183
1.31040e-05;0.007943445488807307
1.31043e-05;0.00793992907802244
1.31045e-05;0.00793551367769618
1.31048e-05;0.007931098277369951
1.31050e-05;0.007926682877043692
1.31053e-05;0.007922267476717431
1.31055e-05;0.007917852076391202
1.31058e-05;0.007913436676064943
1.31060e-05;0.007909021275738684
1.31063e-05;0.007883480428434978
1.31065e-05;0.007855757109072083
1.31068e-05;0.007828033789709187
1.31070e-05;0.007800310470346479
1.31073e-05;0.007772587150983583
1.31075e-05;0.007744863831620687
1.31077e-05;0.007717140512257979
1.31080e-05;0.007689417192895083
1.31083e-05;0.00763989344967104
1.31085e-05;0.007588117502457867
1.31088e-05;0.0075363415552450455
1.31090e-05;0.0074845656080318726
1.31093e-05;0.0074327896608187
1.31095e-05;0.007381013713605877
1.31098e-05;0.007329237766392704
1.31100e-05;0.007277461819179531
1.31103e-05;0.00722568587196671
1.31105e-05;0.007169827724493385
1.31108e-05;0.007108006090837611
1.31110e-05;0.007046184457182256
1.31113e-05;0.006984362823526481
1.31115e-05;0.006922541189870708
1.31118e-05;0.006860719556215353
1.31120e-05;0.006798897922559579
1.31123e-05;0.006737076288903805
1.31125e-05;0.0066752546552484495
1.31128e-05;0.006613433021592676
1.31130e-05;0.006564841208085083
1.31133e-05;0.006517616168633089
1.31135e-05;0.006470391129180774
1.31138e-05;0.00642316608972846
1.31140e-05;0.006375941050276466
1.31143e-05;0.006328716010824151
1.31145e-05;0.006281490971371837
1.31148e-05;0.006234265931919843
1.31150e-05;0.006187040892467528
1.31153e-05;0.006160754029165465
1.31155e-05;0.006136630290956222
1.31158e-05;0.0061125065527468155
1.31160e-05;0.006088382814537409
1.31162e-05;0.006064259076328166
1.31165e-05;0.006040135338118759
1.31168e-05;0.006016011599909353
1.31170e-05;0.005991887861699946
1.31173e-05;0.005967764123490703
1.31175e-05;0.005961749472764726
1.31178e-05;0.005957605673695971
1.31180e-05;0.005953461874627243
1.31183e-05;0.005949318075558488
1.31185e-05;0.005945174276489733
1.31188e-05;0.005941030477421005
1.31190e-05;0.00593688667835225
1.31193e-05;0.0059327428792834945
1.31195e-05;0.005928599080214768
1.31198e-05;0.005924455281146012
1.31200e-05;0.005920311482077257
1.31203e-05;0.00591616768300853
1.31205e-05;0.005912023883939774
1.31208e-05;0.005911928142985392
1.31210e-05;0.005917746011628695
1.31213e-05;0.005923563880272037
1.31215e-05;0.00592938174891538
1.31218e-05;0.005935199617558683
1.31220e-05;0.005941017486202026
1.31223e-05;0.0059468353548453685
1.31225e-05;0.0059526532234886725
1.31228e-05;0.005958471092132015
1.31230e-05;0.005964288960775358
1.31233e-05;0.005970106829418661
1.31235e-05;0.005975924698062004
1.31238e-05;0.005981742566705346
1.31240e-05;0.005987560435348649
1.31243e-05;0.005986786282309307
1.31245e-05;0.005985331106843755
1.31247e-05;0.005983875931378213
1.31250e-05;0.00598242075591266
1.31253e-05;0.005980965580447108
1.31255e-05;0.005979510404981556
1.31258e-05;0.005978055229516013
1.31260e-05;0.005976600054050461
1.31263e-05;0.005975144878584909
1.31265e-05;0.0059736897031193665
1.31268e-05;0.005972234527653814
1.31270e-05;0.005970779352188262
1.31273e-05;0.00596932417672272
1.31275e-05;0.005967869001257167
1.31278e-05;0.005961320114956315
1.31280e-05;0.005947330076271668
1.31283e-05;0.0059333400375869245
1.31285e-05;0.005919349998902181
1.31288e-05;0.005905359960217533
1.31290e-05;0.005891369921532791
1.31293e-05;0.0058773798828480476
1.31295e-05;0.005863389844163399
1.31298e-05;0.005849399805478656
1.31300e-05;0.005835409766793914
1.31303e-05;0.005821419728109265
1.31305e-05;0.005807429689424522
1.31308e-05;0.005793439650739779
1.31310e-05;0.005779449612055131
1.31313e-05;0.005765459573370388
1.31315e-05;0.005749610028763088
1.31318e-05;0.0057335683784110435
1.31320e-05;0.005717526728058891
1.31323e-05;0.005701485077706738
1.31325e-05;0.005685443427354693
1.31328e-05;0.0056694017770025406
1.31330e-05;0.005653360126650388
1.31332e-05;0.005637318476298343
1.31335e-05;0.0056212768259461905
1.31338e-05;0.005605235175594038
1.31340e-05;0.005589193525241885
1.31343e-05;0.005577488985296345
1.31345e-05;0.005566232512665411
1.31348e-05;0.005554976040034476
1.31350e-05;0.005543719567403618
1.31353e-05;0.005532463094772684
1.31355e-05;0.005521206622141749
1.31358e-05;0.005509950149510892
1.31360e-05;0.005498693676879957
1.31363e-05;0.0054874372042490235
1.31365e-05;0.005476180731618165
1.31368e-05;0.0054649242589872304
1.31370e-05;0.005454058723565036
1.31373e-05;0.005443233575905496
1.31375e-05;0.005432408428245881
1.31378e-05;0.005421583280586267
1.31380e-05;0.005410758132926726
1.31383e-05;0.0053999329852671115
1.31385e-05;0.005389107837607498
1.31388e-05;0.005378282689947957
1.31390e-05;0.005367457542288343
1.31393e-05;0.005356632394628728
1.31395e-05;0.0053458072469691875
1.31398e-05;0.005334982099309574
1.31400e-05;0.005324156951649959
1.31403e-05;0.005313331803990419
1.31405e-05;0.005302892537385566
1.31408e-05;0.005293016985491772
1.31410e-05;0.005283141433598045
1.31413e-05;0.005273265881704252
1.31415e-05;0.005263390329810459
1.31418e-05;0.005253514777916733
1.31420e-05;0.0052436392260229395
1.31423e-05;0.005233763674129146
1.31425e-05;0.005223888122235353
1.31428e-05;0.005214012570341627
1.31430e-05;0.005204137018447833
1.31433e-05;0.00519426146655404
1.31435e-05;0.005184385914660313
1.31438e-05;0.00517451036276652
1.31440e-05;0.005164634810872727
1.31443e-05;0.0051655798173906075
1.31445e-05;0.005167642696893385
1.31448e-05;0.005169705576396163
1.31450e-05;0.005171768455898926
1.31453e-05;0.005173831335401703
1.31455e-05;0.00517589421490448
1.31458e-05;0.005177957094407244
1.31460e-05;0.005208435899274456
1.31463e-05;0.005241850356267863
1.31465e-05;0.005275264813261042
1.31468e-05;0.005308679270254448
1.31470e-05;0.005342093727247854
1.31473e-05;0.005375508184241034
1.31475e-05;0.00540892264123444
1.31478e-05;0.005475513842254966
1.31480e-05;0.005545532536059232
1.31483e-05;0.005615551229863973
1.31485e-05;0.005685569923668714
1.31488e-05;0.005755588617472981
1.31490e-05;0.0058256073112777215
1.31493e-05;0.005895626005082462
1.31495e-05;0.005965644698886729
1.31498e-05;0.006045105656979269
1.31500e-05;0.006138360355967538
1.31503e-05;0.006231615054955176
1.31505e-05;0.006324869753943445
1.31508e-05;0.006418124452931715
1.31510e-05;0.006511379151919984
1.31513e-05;0.006604633850907622
