Time(s);Current(A)
1.30000e-05;0.0018496993645039383
1.30003e-05;0.0018134302732668015
1.30005e-05;0.0017737011387769781
1.30008e-05;0.0017339720042868854
1.30010e-05;0.0016884696451977157
1.30013e-05;0.0016396363280746932
1.30015e-05;0.0015908030109513397
1.30018e-05;0.0015419696938279862
1.30020e-05;0.0014931363767049636
1.30023e-05;0.0014409398627475156
1.30025e-05;0.0013868028963923706
1.30028e-05;0.0013326659300375925
1.30030e-05;0.0012785289636824476
1.30033e-05;0.0012243919973273026
1.30035e-05;0.0011716604519224692
1.30038e-05;0.0011197397875292296
1.30040e-05;0.0010678191231359901
1.30043e-05;0.0010158984587431024
1.30045e-05;0.0009652425324092015
1.30048e-05;0.0009227511469029425
1.30050e-05;0.0008802597613969714
1.30053e-05;0.0008377683758907122
1.30055e-05;0.0007952769903844532
1.30058e-05;0.0007592053201609696
1.30060e-05;0.0007268376115340543
1.30063e-05;0.000698059235934291
1.30065e-05;0.0006713517857735343
1.30068e-05;0.0006484173939162105
1.30070e-05;0.0006276599308540284
1.30073e-05;0.0006099414554924184
1.30075e-05;0.0005960988399293141
1.30078e-05;0.0005855421194994788
1.30080e-05;0.0005780335482060547
1.30083e-05;0.0005733185253732449
1.30085e-05;0.0005721350594152345
1.30088e-05;0.0005724162606251084
1.30090e-05;0.0005760591637670418
1.30093e-05;0.0005816416567984581
1.30095e-05;0.0005904985384239129
1.30098e-05;0.0006012446330549077
1.30100e-05;0.0006147583261165707
1.30103e-05;0.0006298688311628936
1.30105e-05;0.000646520413857494
1.30108e-05;0.0006640611469546151
1.30110e-05;0.0006729780340488593
1.30113e-05;0.0006962499886582176
1.30115e-05;-0.028980018560866724
1.30118e-05;-0.027728967955740404
1.30120e-05;-0.018579045387725316
1.30123e-05;-0.013104089588716205
1.30125e-05;-0.0003183697935282884
1.30128e-05;0.010253955298018926
1.30130e-05;0.011161334592742666
1.30133e-05;0.006330169433355796
1.30135e-05;-0.002181627946129271
1.30138e-05;-0.009089029654156863
1.30140e-05;-0.008779849284259721
1.30143e-05;-0.003942548886054281
1.30145e-05;0.0027343432559923182
1.30148e-05;0.008123633790182983
1.30150e-05;0.008613173354688076
1.30153e-05;0.005429867159746497
1.30155e-05;-1.2908520271842378e-05
1.30158e-05;-0.004420061568912313
1.30160e-05;-0.004287380772297518
1.30163e-05;-0.001306836792962107
1.30165e-05;0.0028324689266575245
1.30168e-05;0.006168609994800098
1.30170e-05;0.006437122436975887
1.30173e-05;0.004405488940426156
1.30175e-05;0.0009583986378089522
1.30178e-05;-0.0018405653790950008
1.30180e-05;-0.0017968027264544761
1.30183e-05;2.950366921944793e-05
1.30185e-05;0.0025801668958432937
1.30188e-05;0.004626276299502941
1.30190e-05;0.004749580589965049
1.30193e-05;0.003431110723459522
1.30195e-05;0.0012252895549245309
1.30198e-05;-0.0005750719387614691
1.30200e-05;-0.0005952049802793619
1.30203e-05;0.0005008415434391182
1.30205e-05;0.002050334251027744
1.30208e-05;0.0032836676945896892
1.30210e-05;0.0033127111103314942
1.30213e-05;0.0024390703256814096
1.30215e-05;0.001010295402732018
1.30218e-05;-0.0001635907421211335
1.30220e-05;-0.00022130270153954183
1.30223e-05;0.0004213124125230008
1.30225e-05;0.001349269753703768
1.30228e-05;0.0020806811373967012
1.30230e-05;0.0020594619285414324
1.30233e-05;0.0014747938216779454
1.30235e-05;0.0005446192752377407
1.30238e-05;-0.00022345948369169246
1.30240e-05;-0.0002897776424694717
1.30243e-05;8.532301089506008e-05
1.30245e-05;0.0006420646544319874
1.30248e-05;0.0010787870143023535
1.30250e-05;0.0010473830230155429
1.30253e-05;0.0006665900816507757
1.30255e-05;7.304803187468042e-05
1.30258e-05;-0.0004157340345404017
1.30260e-05;-0.0004630501838849339
1.30263e-05;-0.00023335291572794566
1.30265e-05;0.00011011249944669734
1.30268e-05;0.00037836533636044186
1.30270e-05;0.0003533729685772041
1.30273e-05;0.0001095400903747479
1.30275e-05;-0.0002675217864216478
1.30278e-05;-0.0005789178048389897
1.30280e-05;-0.0006137468688029383
1.30283e-05;-0.00047503787136443437
1.30285e-05;-0.0002650539379141
1.30288e-05;-0.00010216880483695876
1.30290e-05;-0.00012294254225892262
1.30293e-05;-0.0002807487358812607
1.30295e-05;-0.0005219455447178464
1.30298e-05;-0.0007219387458978863
1.30300e-05;-0.0007486250614944837
1.30303e-05;-0.0006665495611004387
1.30305e-05;-0.000539771834687894
1.30308e-05;-0.00044243670260712834
1.30310e-05;-0.00046007349367388495
1.30313e-05;-0.0005634612485398039
1.30315e-05;-0.0007189873675601743
1.30318e-05;-0.0008485997929394959
1.30320e-05;-0.0008695502269278429
1.30323e-05;-0.0008222723984713327
1.30325e-05;-0.0007468922887707185
1.30328e-05;-0.000689849253970653
1.30330e-05;-0.0007047092983783878
1.30333e-05;-0.0007731573261978568
1.30335e-05;-0.0008741290958029577
1.30338e-05;-0.0009587267632312461
1.30340e-05;-0.0009751153192909781
1.30343e-05;-0.0009486219710945816
1.30345e-05;-0.00090437879109503
1.30348e-05;-0.0008714701035319897
1.30350e-05;-0.0008834414712463047
1.30353e-05;-0.0009288111304643745
1.30355e-05;-0.0009942775632965136
1.30358e-05;-0.0010485873167760634
1.30360e-05;-0.0010579033762854009
1.30363e-05;-0.0010368482639693877
1.30365e-05;-0.0010008523015827982
1.30368e-05;-0.0009683239977346502
1.30370e-05;-0.0009604880210134606
1.30373e-05;-0.0009703635078863036
1.30375e-05;-0.0009898303888822718
1.30378e-05;-0.0009995247775210871
1.30380e-05;-0.0009784661439804629
1.30383e-05;-0.0009360295849432793
1.30385e-05;-0.0008820953568281241
1.30388e-05;-0.0008284080606438669
1.30390e-05;-0.0007884753883950301
1.30393e-05;-0.0007581366091879377
1.30395e-05;-0.0007325177153976979
1.30398e-05;-0.0006997024383185208
1.30400e-05;-0.0006467629736168971
1.30403e-05;-0.00057978651507561
1.30405e-05;-0.0005051761318941243
1.30408e-05;-0.0004305020506919359
1.30410e-05;-0.0003644381694041829
1.30413e-05;-0.0003045905898581456
1.30415e-05;-0.00024811888501391754
1.30418e-05;-0.00018777177544137202
1.30420e-05;-0.00011566510474131563
1.30423e-05;-3.582583821327497e-05
1.30425e-05;4.752162702424872e-05
1.30428e-05;0.0001294221536420667
1.30430e-05;0.00020422977882875585
1.30433e-05;0.00027323158644471964
1.30435e-05;0.0003379942287778691
1.30438e-05;0.00040284705726363016
1.30440e-05;0.0004725154474488926
1.30443e-05;0.0005442635475778113
1.30445e-05;0.0006152321488260801
1.30448e-05;0.0006821045153314083
1.30450e-05;0.0007411315921987781
1.30453e-05;0.0007929072467981299
1.30455e-05;0.0008382146262901942
1.30458e-05;0.000879661499965815
1.30460e-05;0.0009203035817332989
1.30463e-05;0.0009586656471030585
1.30465e-05;0.0009931838286434827
1.30468e-05;0.0010219711186558868
1.30470e-05;0.0010428672211122644
1.30473e-05;0.0010564323778514718
1.30475e-05;0.0010633454837657606
1.30478e-05;0.0010654282162391496
1.30480e-05;0.0010647825632562084
1.30482e-05;0.0010606723975862301
1.30485e-05;0.001052306180242444
1.30488e-05;0.0010386898681674058
1.30490e-05;0.0010186585589688276
1.30493e-05;0.0009918708296094577
1.30495e-05;0.0009600478864808123
1.30498e-05;0.0009264800018131147
1.30500e-05;0.0008889494108410831
1.30503e-05;0.0008487174682289891
1.30505e-05;0.0008054763535132107
1.30508e-05;0.0007587915599361262
1.30510e-05;0.0007075543919223962
1.30513e-05;0.0006530041511747656
1.30515e-05;0.0005969762311190071
1.30518e-05;0.0005380939720887486
1.30520e-05;0.0004783328116591572
1.30523e-05;0.0004178899765670222
1.30525e-05;0.00035687109277099296
1.30528e-05;0.0002948486036246635
1.30530e-05;0.00023238575585614248
1.30533e-05;0.0001691179114344049
1.30535e-05;0.00010595521694004964
1.30538e-05;4.3724966716393734e-05
1.30540e-05;-1.6676754002849676e-05
1.30543e-05;-7.505154289489718e-05
1.30545e-05;-0.00013121459981729844
1.30548e-05;-0.00018503082019177039
1.30550e-05;-0.00023640709889909004
1.30553e-05;-0.00028483146739293066
1.30555e-05;-0.00032985734409391956
1.30558e-05;-0.00037131867886539455
1.30560e-05;-0.0004097216238880596
1.30563e-05;-0.0004460501046023789
1.30565e-05;-0.0004806206167555004
1.30567e-05;-0.0005130167653768992
1.30570e-05;-0.0005436657181925809
1.30573e-05;-0.0005726320927792782
1.30575e-05;-0.0005986670407296711
1.30578e-05;-0.0006230521734763219
1.30580e-05;-0.000644562960086046
1.30583e-05;-0.0006650626141425924
1.30585e-05;-0.0006838006497207461
1.30588e-05;-0.000701299032324224
1.30590e-05;-0.0007166376628949436
1.30593e-05;-0.0007319762934655593
1.30595e-05;-0.0007456136311540797
1.30598e-05;-0.0007562869371051386
1.30600e-05;-0.0007669602430561252
1.30603e-05;-0.0007765507948744356
1.30605e-05;-0.0007842549474448521
1.30608e-05;-0.0007919591000152164
1.30610e-05;-0.0007980772108357499
1.30613e-05;-0.0008014320831022074
1.30615e-05;-0.0008047869553686423
1.30618e-05;-0.0008081418276351
1.30620e-05;-0.0008114966999015575
1.30623e-05;-0.0008148515721679924
1.30625e-05;-0.0008182064444344499
1.30628e-05;-0.0008215613167009075
1.30630e-05;-0.0008220064612472019
1.30633e-05;-0.0008219961934158168
1.30635e-05;-0.0008219859255844316
1.30638e-05;-0.0008219756577530465
1.30640e-05;-0.0008219653899216614
1.30643e-05;-0.0008219551220902762
1.30645e-05;-0.0008219448542588912
1.30648e-05;-0.0008218152385904336
1.30650e-05;-0.0008214776923647964
1.30652e-05;-0.0008211401461391616
1.30655e-05;-0.0008205242787027563
1.30658e-05;-0.0008194235136272217
1.30660e-05;-0.000816493304516264
1.30663e-05;-0.0008103757957696219
1.30665e-05;-0.0008020137809866906
1.30668e-05;-0.0007897413359673561
1.30670e-05;-0.0007755019844233608
1.30673e-05;-0.0007578358429208016
1.30675e-05;-0.0007382492914319492
1.30678e-05;-0.0007153169573275517
1.30680e-05;-0.0006904702627749553
1.30683e-05;-0.0006608735186882938
1.30685e-05;-0.0006274986916210069
1.30688e-05;-0.0005906380435545571
1.30690e-05;-0.0005505985523559919
1.30693e-05;-0.000507671419679634
1.30695e-05;-0.00046211265297009524
1.30698e-05;-0.0004139907184392578
1.30700e-05;-0.0003631113920889643
1.30703e-05;-0.0003093383307336517
1.30705e-05;-0.0002528581794721616
1.30708e-05;-0.0001940337416526756
1.30710e-05;-0.00013323701438281178
1.30713e-05;-7.083001654259508e-05
1.30715e-05;-7.152756174032477e-06
1.30718e-05;5.757226434756853e-05
1.30720e-05;0.00012342303653226596
1.30723e-05;0.0001901343855953668
1.30725e-05;0.0002570314199041839
1.30728e-05;0.0003242519792866847
1.30730e-05;0.0003914725386687299
1.30733e-05;0.0004580169259528294
1.30735e-05;0.0005233832705956548
1.30737e-05;0.0005876744902454486
1.30740e-05;0.0006500926023110916
1.30743e-05;0.0007110331412012005
1.30745e-05;0.0007693994179906571
1.30748e-05;0.0008256729366340557
1.30750e-05;0.0008783004037187318
1.30753e-05;0.0009282640044107463
1.30755e-05;0.0009735865555696274
1.30758e-05;0.0010170054161099294
1.30760e-05;0.00105710762290137
1.30763e-05;0.0010972098296925389
1.30765e-05;0.001136023835402656
1.30768e-05;0.0011725935074466838
1.30770e-05;0.001209163179490464
1.30773e-05;0.001245732851534492
1.30775e-05;0.0012823025235785199
1.30778e-05;0.0013188721956223
1.30780e-05;0.0013528548729556534
1.30783e-05;0.0013864326500623069
1.30785e-05;0.0014200104271687329
1.30788e-05;0.0014535882042753866
1.30790e-05;0.00148716598138204
1.30793e-05;0.0015203309418601993
1.30795e-05;0.0015527766836775545
1.30798e-05;0.0015852224254949096
1.30800e-05;0.001617668167312045
1.30803e-05;0.0016501139091294002
1.30805e-05;0.0016825596509467552
1.30808e-05;0.0017150053927638906
1.30810e-05;0.0017474511345812456
1.30813e-05;0.0017798968763986008
1.30815e-05;0.0018123426182157362
1.30818e-05;0.001843631009080529
1.30820e-05;0.0018729030363942383
1.30822e-05;0.0019021750637077492
1.30825e-05;0.0019314470910214584
1.30828e-05;0.0019607191183351677
1.30830e-05;0.001989991145648877
1.30833e-05;0.0020192631729623878
1.30835e-05;0.002048535200276097
1.30838e-05;0.0020778072275898065
1.30840e-05;0.002107079254903317
1.30843e-05;0.002133967993407235
1.30845e-05;0.0021567045111197396
1.30848e-05;0.00217944102883209
1.30850e-05;0.002202177546544595
1.30853e-05;0.0022249140642571
1.30855e-05;0.0022428716420655253
1.30858e-05;0.0022525032404338255
1.30860e-05;0.0022621348388021257
1.30863e-05;0.0022717664371703604
1.30865e-05;0.0022813980355386606
1.30868e-05;0.002284374796590474
1.30870e-05;0.002275757346417811
1.30873e-05;0.002267139896245089
1.30875e-05;0.0022534163245004003
1.30878e-05;0.0022307967498593146
1.30880e-05;0.0022081771752180757
1.30883e-05;0.0021797328080163146
1.30885e-05;0.002141140352728802
1.30888e-05;0.0021025478974410275
1.30890e-05;0.0020589031225563183
1.30893e-05;0.002006456079818276
1.30895e-05;0.001954009037079878
1.30898e-05;0.0018970533548805118
1.30900e-05;0.0018322426169134598
1.30903e-05;0.0017674318789459686
1.30905e-05;0.0016987281534694629
1.30907e-05;0.0016232419752705242
1.30910e-05;0.0015477557970710741
1.30913e-05;0.0014697474920987714
1.30915e-05;0.0013873450796295832
1.30918e-05;0.0013049426671609531
1.30920e-05;0.0012209680984777262
1.30923e-05;0.0011342544829389077
1.30925e-05;0.001047540867400677
1.30928e-05;0.0009608272518618582
1.30930e-05;0.0008745844689053938
1.30933e-05;0.0007884153777196246
1.30935e-05;0.0007022462865332714
1.30938e-05;0.0006176604489510435
1.30940e-05;0.0005358329923543591
1.30943e-05;0.0004553476629554778
1.30945e-05;0.0003783569718592973
1.30948e-05;0.00030474349569404674
1.30950e-05;0.00023507276947894184
1.30953e-05;0.00016991026729119575
1.30955e-05;0.00010975267922727276
1.30958e-05;5.471404986122098e-05
1.30960e-05;4.285732228559535e-06
1.30963e-05;-4.2133990302519246e-05
1.30965e-05;-8.463634454579639e-05
1.30968e-05;-0.00012300220933855353
1.30970e-05;-0.00015699695543965538
1.30973e-05;-0.0001863860053746517
1.30975e-05;-0.0002109778844630694
1.30978e-05;-0.00023082082838376983
1.30980e-05;-0.0002463531056966708
1.30983e-05;-0.0002580712654763798
1.30985e-05;-0.0002661520187156126
1.30988e-05;-0.0002705777047684912
1.30990e-05;-0.0002713209581569562
1.30992e-05;-0.00026835446099746855
1.30995e-05;-0.00026167787148832333
1.30998e-05;-0.00025144100635194955
1.31000e-05;-0.00023803801079565009
1.31003e-05;-0.00022189946342092304
1.31005e-05;-0.00020325560576019586
1.31008e-05;-0.00018221489394642135
1.31010e-05;-0.0001588797060100112
1.31013e-05;-0.00013335243983941616
1.31015e-05;-0.00010575240276164259
1.31018e-05;-7.629294586912809e-05
1.31020e-05;-4.534043206977917e-05
1.31023e-05;-1.328403601906018e-05
1.31025e-05;1.96125911917994e-05
1.31028e-05;5.3226416142151264e-05
1.31030e-05;8.729300994049436e-05
1.31033e-05;0.0001214777302587271
1.31035e-05;0.00015586825332803244
1.31038e-05;0.00018997857001270364
1.31040e-05;0.00022360070466399888
1.31043e-05;0.00025645513965016626
1.31045e-05;0.00028797207055347436
1.31048e-05;0.0003186876233752206
1.31050e-05;0.00034735887899356
1.31053e-05;0.00037416742514994217
1.31055e-05;0.00039857139670813077
1.31058e-05;0.0004210126182256415
1.31060e-05;0.0004423630761642897
1.31063e-05;0.0004618131806103083
1.31065e-05;0.0004802712138562302
1.31068e-05;0.0004970008377504373
1.31070e-05;0.0005125722138750002
1.31073e-05;0.0005261256639918878
1.31075e-05;0.0005384428219897313
1.31077e-05;0.000548606083311967
1.31080e-05;0.0005578306261157956
1.31083e-05;0.0005654197118418631
1.31085e-05;0.0005719571861758939
1.31088e-05;0.0005766625188611345
1.31090e-05;0.0005813678515464071
1.31093e-05;0.0005847303990137229
1.31095e-05;0.0005857535150695942
1.31098e-05;0.0005867766311254726
1.31100e-05;0.000586778670037426
1.31103e-05;0.0005850017647727246
1.31105e-05;0.0005832248595080111
1.31108e-05;0.0005806300354509456
1.31110e-05;0.0005766102143882889
1.31113e-05;0.0005725903933256048
1.31115e-05;0.0005676659221964652
1.31118e-05;0.0005611653488333541
1.31120e-05;0.000554664775470199
1.31123e-05;0.0005481642021070438
1.31125e-05;0.0005416636287439328
1.31128e-05;0.0005351630553807777
1.31130e-05;0.0005282825657114837
1.31133e-05;0.0005207401770814351
1.31135e-05;0.0005131977884513355
1.31138e-05;0.0005056553998212359
1.31140e-05;0.0004981130111911874
1.31143e-05;0.0004905706225610878
1.31145e-05;0.0004834454796024901
1.31148e-05;0.0004770472716870523
1.31150e-05;0.0004706490637715711
1.31153e-05;0.0004642508558560899
1.31155e-05;0.000458068512975755
1.31158e-05;0.0004522622551438909
1.31160e-05;0.00044645599731202686
1.31162e-05;0.00044064973948020216
1.31165e-05;0.0004342476958849585
1.31168e-05;0.0004268076605759368
1.31170e-05;0.00041936762526691515
1.31173e-05;0.0004115133381003379
1.31175e-05;0.00040293733178220584
1.31178e-05;0.00039436132546407374
1.31180e-05;0.0003850575455485827
1.31183e-05;0.0003744858216670947
1.31185e-05;0.0003639140977856066
1.31188e-05;0.00035262307673576134
1.31190e-05;0.0003400788795501755
1.31193e-05;0.00032753468236458957
1.31195e-05;0.0003144578710993857
1.31198e-05;0.00030045312728615905
1.31200e-05;0.00028644838347293246
1.31203e-05;0.00027183039160373135
1.31205e-05;0.00025614398481096896
1.31208e-05;0.00024045757801820656
1.31210e-05;0.0002244151629775057
1.31213e-05;0.00020775250214654105
1.31215e-05;0.00019108984131557642
1.31218e-05;0.00017425005814280983
1.31220e-05;0.00015710168833599116
1.31223e-05;0.0001399533185291725
1.31225e-05;0.00012277577473602055
1.31228e-05;0.00010554740334991473
1.31230e-05;8.831903196380891e-05
1.31233e-05;7.124305941226452e-05
1.31235e-05;5.456844890800817e-05
1.31238e-05;3.828205378003767e-05
1.31240e-05;2.24186887836392e-05
1.31243e-05;7.016696175380847e-06
1.31245e-05;-7.840686804258518e-06
1.31247e-05;-2.204541165048117e-05
1.31250e-05;-3.548826224277637e-05
1.31253e-05;-4.8060038338911775e-05
1.31255e-05;-5.968309015746861e-05
1.31258e-05;-7.069422427744762e-05
1.31260e-05;-8.1967319985033e-05
1.31263e-05;-9.412273585539207e-05
1.31265e-05;-0.00010739978414438471
1.31268e-05;-0.000121662654966926
1.31270e-05;-0.00013676036030382525
1.31273e-05;-0.0001525419114519086
1.31275e-05;-0.0001688964841726698
1.31278e-05;-0.00018592685333832407
1.31280e-05;-0.00020405240776609832
1.31283e-05;-0.00022366529034328626
1.31285e-05;-0.0002450230762773882
1.31288e-05;-0.0002676739472374405
1.31290e-05;-0.0002910989998897249
1.31293e-05;-0.0003158728497625971
1.31295e-05;-0.00034125770299416275
1.31298e-05;-0.00036770706038642914
1.31300e-05;-0.000394962853061303
1.31303e-05;-0.0004236236359067997
1.31305e-05;-0.00045312618546085364
1.31308e-05;-0.0004840952804115594
1.31310e-05;-0.0005150643753620553
1.31313e-05;-0.0005466577768666218
1.31315e-05;-0.0005793388596652978
1.31318e-05;-0.0006120199424637524
1.31320e-05;-0.0006447010252624285
1.31323e-05;-0.0006773821080611046
1.31325e-05;-0.0007100631908595592
1.31328e-05;-0.0007422481269059713
1.31330e-05;-0.0007743554091665735
1.31332e-05;-0.0008064626914269581
1.31335e-05;-0.0008385699736875602
1.31338e-05;-0.0008706772559481624
1.31340e-05;-0.0009015681867319751
1.31343e-05;-0.0009303399618855561
1.31345e-05;-0.0009591117370393321
1.31348e-05;-0.0009866797743733552
1.31350e-05;-0.0010121506318816632
1.31353e-05;-0.0010362584753662613
1.31355e-05;-0.0010579916443445054
1.31358e-05;-0.0010771225991568483
1.31360e-05;-0.001091719916360777
1.31363e-05;-0.0011023609204839247
1.31365e-05;-0.0011061091446007737
1.31368e-05;-0.0011069088874755056
1.31370e-05;-0.0011006758991040618
1.31373e-05;-0.001089296326319558
1.31375e-05;-0.0010728600925219891
1.31378e-05;-0.0010511814208025905
1.31380e-05;-0.0010236927040347468
1.31383e-05;-0.0009899323403986231
1.31385e-05;-0.0009499712213038784
1.31388e-05;-0.0009041613865873506
1.31390e-05;-0.0008528678777164441
1.31393e-05;-0.0007964557943671548
1.31395e-05;-0.0007352567141796234
1.31398e-05;-0.0006694293157069073
1.31400e-05;-0.0005988933669183717
1.31403e-05;-0.0005236348249140934
1.31405e-05;-0.00044397335858841066
1.31408e-05;-0.00036040465636180387
1.31410e-05;-0.0002734325214599191
1.31413e-05;-0.00018356075830945802
1.31415e-05;-9.127213480678926e-05
1.31418e-05;3.058864507545266e-06
1.31420e-05;9.920747799672694e-05
1.31423e-05;0.00019699173220323444
1.31425e-05;0.0002957414363965583
1.31428e-05;0.000394491140589213
1.31430e-05;0.0004932408447825368
1.31433e-05;0.0005919905489758607
1.31435e-05;0.0006894292227204733
1.31438e-05;0.0007845837889451378
1.31440e-05;0.0008779327696668912
1.31443e-05;0.0009681360176306621
1.31445e-05;0.0010557033650537122
1.31448e-05;0.00113867838568586
