Time(s);Current(A)
1.18000e-05;-0.012419964732140416
1.18003e-05;-0.012437649732925112
1.18005e-05;-0.012455334733709687
1.18008e-05;-0.012473019734494382
1.18010e-05;-0.012490704735279077
1.18013e-05;-0.012508389736063772
1.18015e-05;-0.012526074736848346
1.18018e-05;-0.012543759737633041
1.18020e-05;-0.01256293963960841
1.18023e-05;-0.012585440393010967
1.18025e-05;-0.012607941146413677
1.18028e-05;-0.012630441899816387
1.18030e-05;-0.012652942653218946
1.18033e-05;-0.012675443406621656
1.18035e-05;-0.012697944160024366
1.18038e-05;-0.012720444913426924
1.18040e-05;-0.012742882382787644
1.18043e-05;-0.01276517926967877
1.18045e-05;-0.012787476156569746
1.18048e-05;-0.012809773043460874
1.18050e-05;-0.012832069930352
1.18053e-05;-0.012854366817242975
1.18055e-05;-0.012876663704134102
1.18058e-05;-0.012898960591025228
1.18060e-05;-0.012921257477916203
1.18063e-05;-0.012943554364807331
1.18065e-05;-0.012963318502337945
1.18068e-05;-0.012977456258417286
1.18070e-05;-0.01299159401449672
1.18073e-05;-0.013005731770576156
1.18075e-05;-0.013019869526655495
1.18078e-05;-0.013034007282734931
1.18080e-05;-0.013048145038814365
1.18082e-05;-0.013062282794893706
1.18085e-05;-0.01307642055097314
1.18088e-05;-0.013090558307052576
1.18090e-05;-0.013101380189411736
1.18093e-05;-0.013104836017045282
1.18095e-05;-0.013108291844678828
1.18098e-05;-0.013111747672312374
1.18100e-05;-0.013115203499945898
1.18103e-05;-0.013118659327579444
1.18105e-05;-0.01312211515521299
1.18108e-05;-0.013125570982846512
1.18110e-05;-0.013122950275761625
1.18113e-05;-0.013118908087435105
1.18115e-05;-0.01311486589910861
1.18118e-05;-0.013110823710782088
1.18120e-05;-0.013106781522455566
1.18123e-05;-0.013102739334129074
1.18125e-05;-0.013098697145802552
1.18128e-05;-0.01309345889197366
1.18130e-05;-0.013085563635891497
1.18133e-05;-0.01307766837980928
1.18135e-05;-0.013069773123727063
1.18138e-05;-0.0130618778676449
1.18140e-05;-0.013053982611562683
1.18143e-05;-0.013046087355480466
1.18145e-05;-0.013038192099398303
1.18148e-05;-0.01303123345205085
1.18150e-05;-0.013024493905195559
1.18153e-05;-0.013017754358340313
1.18155e-05;-0.013011014811485023
1.18158e-05;-0.013004275264629732
1.18160e-05;-0.012997535717774488
1.18163e-05;-0.012990796170919196
1.18165e-05;-0.012985313304249254
1.18167e-05;-0.01298262209244948
1.18170e-05;-0.012979930880649686
1.18173e-05;-0.012978483570804783
1.18175e-05;-0.012979799529602709
1.18178e-05;-0.012981115488400644
1.18180e-05;-0.012984626941117006
1.18183e-05;-0.012993015578467161
1.18185e-05;-0.013001404215817261
1.18188e-05;-0.013009792853167416
1.18190e-05;-0.013018181490517573
1.18193e-05;-0.01302657012786767
1.18195e-05;-0.013034958765217828
1.18198e-05;-0.013051048524697588
1.18200e-05;-0.013068939804477434
1.18203e-05;-0.0130868310842574
1.18205e-05;-0.013104722364037367
1.18208e-05;-0.013122613643817211
1.18210e-05;-0.013140504923597179
1.18213e-05;-0.01316051744301137
1.18215e-05;-0.013185242194722094
1.18218e-05;-0.013209966946432986
1.18220e-05;-0.013234691698143878
1.18223e-05;-0.013259416449854603
1.18225e-05;-0.013285267189170086
1.18228e-05;-0.01331361925604459
1.18230e-05;-0.013341971322918901
1.18233e-05;-0.013370323389793406
1.18235e-05;-0.01339867545666791
1.18238e-05;-0.01342738158460294
1.18240e-05;-0.013456874242234575
1.18243e-05;-0.01348634492824817
1.18245e-05;-0.013515766805363936
1.18248e-05;-0.013545075210636732
1.18250e-05;-0.013574006941439853
1.18252e-05;-0.013602501712883927
1.18255e-05;-0.013630438901187678
1.18258e-05;-0.01365737881694927
1.18260e-05;-0.01368309915249225
1.18263e-05;-0.013708819488035406
1.18265e-05;-0.013733844537507712
1.18268e-05;-0.01375695239205296
1.18270e-05;-0.013779052312557464
1.18273e-05;-0.013800861697535962
1.18275e-05;-0.013823134779161146
1.18278e-05;-0.013846079656456935
1.18280e-05;-0.013869564496758297
1.18283e-05;-0.013893437077341456
1.18285e-05;-0.01391754694109312
1.18288e-05;-0.013941772220814915
1.18290e-05;-0.013966178490260958
1.18293e-05;-0.013991152070259933
1.18295e-05;-0.01401710239458374
1.18298e-05;-0.01404421886634541
1.18300e-05;-0.014072262386050754
1.18303e-05;-0.014100844644048548
1.18305e-05;-0.014130623683371878
1.18308e-05;-0.014160402722695007
1.18310e-05;-0.014190181762018337
1.18313e-05;-0.01422073775822947
1.18315e-05;-0.01425301972697186
1.18318e-05;-0.014285301695714469
1.18320e-05;-0.014317583664457078
1.18323e-05;-0.014350317352320263
1.18325e-05;-0.014384054512585709
1.18328e-05;-0.014417791672851154
1.18330e-05;-0.014451646978746683
1.18333e-05;-0.014485764739504288
1.18335e-05;-0.014519882500261894
1.18337e-05;-0.014553984553239708
1.18340e-05;-0.014588051712137425
1.18343e-05;-0.014622118871035143
1.18345e-05;-0.014655850577290628
1.18348e-05;-0.014688837091560934
1.18350e-05;-0.014721410192491914
1.18352e-05;-0.014753064915480304
1.18355e-05;-0.014784234817370985
1.18358e-05;-0.01481432771240196
1.18360e-05;-0.014843744691078166
1.18363e-05;-0.014871660153929501
1.18365e-05;-0.014898692415556141
1.18368e-05;-0.014923762687942215
1.18370e-05;-0.014947703734801338
1.18373e-05;-0.014969136261210964
1.18375e-05;-0.01498926769200275
1.18378e-05;-0.015006508801165202
1.18380e-05;-0.015022419037385522
1.18383e-05;-0.015035372803075849
1.18385e-05;-0.015046631092241317
1.18388e-05;-0.015054122961472398
1.18390e-05;-0.01506161483070348
1.18393e-05;-0.015067016987052855
1.18395e-05;-0.015067776946273743
1.18398e-05;-0.01506853690549463
1.18400e-05;-0.015065955191210564
1.18403e-05;-0.015055950109206774
1.18405e-05;-0.015045945027202984
1.18408e-05;-0.015035939945199263
1.18410e-05;-0.015025934863195475
1.18413e-05;-0.015015929781191685
1.18415e-05;-0.015005924699187963
1.18418e-05;-0.014995919617184173
1.18420e-05;-0.014983484900648937
1.18422e-05;-0.014965652867312896
1.18425e-05;-0.014947167033790187
1.18428e-05;-0.014927228814451531
1.18430e-05;-0.014906903634445457
1.18433e-05;-0.014885514445972945
1.18435e-05;-0.014863516826781225
1.18437e-05;-0.014841076521279653
1.18440e-05;-0.014818370127634999
1.18443e-05;-0.014795575528459167
1.18445e-05;-0.01477287060636391
1.18448e-05;-0.014750432087560179
1.18450e-05;-0.014728432972968174
1.18453e-05;-0.014707043405518965
1.18455e-05;-0.014686439535226725
1.18458e-05;-0.01466681546332158
1.18460e-05;-0.014648372066379553
1.18463e-05;-0.014631309578754293
1.18465e-05;-0.014615828523899354
1.18468e-05;-0.014602131223891916
1.18470e-05;-0.01459041794409467
1.18473e-05;-0.014580862484699402
1.18475e-05;-0.014573579264328009
1.18478e-05;-0.014568620563084726
1.18480e-05;-0.014566016761492375
1.18483e-05;-0.014565799235418285
1.18485e-05;-0.014568382065421933
1.18488e-05;-0.014573497820324313
1.18490e-05;-0.014580157081393222
1.18493e-05;-0.014590245167521422
1.18495e-05;-0.014602195733744603
1.18498e-05;-0.01461828371033937
1.18500e-05;-0.014634371686934027
1.18503e-05;-0.014653130737713814
1.18505e-05;-0.01467782345192814
1.18507e-05;-0.014702516166142297
1.18510e-05;-0.014727208880356623
1.18513e-05;-0.014751901594570948
1.18515e-05;-0.014779247728582192
1.18518e-05;-0.014812488307650853
1.18520e-05;-0.014845728886719513
1.18522e-05;-0.014878969465787949
1.18525e-05;-0.01491221004485661
1.18528e-05;-0.014946841446619721
1.18530e-05;-0.014984562494418513
1.18533e-05;-0.01502228354221705
1.18535e-05;-0.015060506178927366
1.18538e-05;-0.015099843071393117
1.18540e-05;-0.0151391799638586
1.18543e-05;-0.015178507701483506
1.18545e-05;-0.015217815102067727
1.18548e-05;-0.015257122502651682
1.18550e-05;-0.0152958990188337
1.18553e-05;-0.015333496200730068
1.18555e-05;-0.015371093382626183
1.18558e-05;-0.01540686613260096
1.18560e-05;-0.015438585994398743
1.18563e-05;-0.015470305856196312
1.18565e-05;-0.015502025717994096
1.18568e-05;-0.01553374557979188
1.18570e-05;-0.015565465441589448
1.18573e-05;-0.015592957594698047
1.18575e-05;-0.015616234793137194
1.18578e-05;-0.015639511991576184
1.18580e-05;-0.01566278919001533
1.18583e-05;-0.01568606638845448
1.18585e-05;-0.01570934358689347
1.18588e-05;-0.015724307139909396
1.18590e-05;-0.01573555460906713
1.18592e-05;-0.015746802078224785
1.18595e-05;-0.01575804954738252
1.18598e-05;-0.015769297016540253
1.18600e-05;-0.01578054448569791
1.18603e-05;-0.015791791954855642
1.18605e-05;-0.015803039424013378
1.18607e-05;-0.015814286893171034
1.18610e-05;-0.015825534362328766
1.18613e-05;-0.01583145531653495
1.18615e-05;-0.015830627030038343
1.18618e-05;-0.01582979874354174
1.18620e-05;-0.015828970457045136
1.18623e-05;-0.01582814217054853
1.18625e-05;-0.015827313884051928
1.18628e-05;-0.015826485597555322
1.18630e-05;-0.015825657311058717
1.18633e-05;-0.015824829024562115
1.18635e-05;-0.01582400073806551
1.18638e-05;-0.015822261735958108
1.18640e-05;-0.015816667591693288
1.18643e-05;-0.015811073447428433
1.18645e-05;-0.015805479303163575
1.18648e-05;-0.015799885158898755
1.18650e-05;-0.0157942910146339
1.18653e-05;-0.015788696870369042
1.18655e-05;-0.015783102726104222
1.18658e-05;-0.015777573116399036
1.18660e-05;-0.01577207235274432
1.18663e-05;-0.015766571589089645
1.18665e-05;-0.01576107082543493
1.18668e-05;-0.015755570061780216
1.18670e-05;-0.01575006929812554
1.18673e-05;-0.015744568534470826
1.18675e-05;-0.01573913522933265
1.18678e-05;-0.015733987482241342
1.18680e-05;-0.015728839735149998
1.18683e-05;-0.015723691988058654
1.18685e-05;-0.01571854424096734
1.18688e-05;-0.015713396493875997
1.18690e-05;-0.015708248746784653
1.18692e-05;-0.015703100999693343
1.18695e-05;-0.015697953252602
1.18698e-05;-0.01569280550551065
1.18700e-05;-0.015687657758419307
1.18703e-05;-0.015682510011327998
1.18705e-05;-0.015677362264236654
1.18708e-05;-0.01567221451714531
1.18710e-05;-0.015667066770053997
1.18713e-05;-0.015661919022962652
1.18715e-05;-0.01565677127587131
1.18718e-05;-0.01565162352878
1.18720e-05;-0.015646475781688655
1.18723e-05;-0.015641426179360547
1.18725e-05;-0.015636420446376427
1.18728e-05;-0.01563141471339227
1.18730e-05;-0.015626408980408114
1.18733e-05;-0.015621403247423992
1.18735e-05;-0.015616397514439835
1.18738e-05;-0.015611391781455678
1.18740e-05;-0.015606386048471556
1.18743e-05;-0.0156013803154874
1.18745e-05;-0.015596374582503243
1.18748e-05;-0.015591368849519121
1.18750e-05;-0.015586363116534965
1.18753e-05;-0.01558135738355081
1.18755e-05;-0.015576351650566686
1.18758e-05;-0.015571345917582531
1.18760e-05;-0.015566340184598374
1.18763e-05;-0.015561334451614253
1.18765e-05;-0.015556328718630096
1.18768e-05;-0.015551130243227887
1.18770e-05;-0.015545115871608424
1.18773e-05;-0.015539101499988918
1.18775e-05;-0.015533087128369413
1.18777e-05;-0.015527072756749949
1.18780e-05;-0.015521058385130444
1.18783e-05;-0.01551504401351094
1.18785e-05;-0.015509029641891435
1.18788e-05;-0.01550301527027197
1.18790e-05;-0.015493913371270289
1.18793e-05;-0.015483431390476672
1.18795e-05;-0.015472949409683127
1.18798e-05;-0.015462467428889511
1.18800e-05;-0.015451985448095893
1.18803e-05;-0.015441503467302348
1.18805e-05;-0.015431021486508732
1.18808e-05;-0.015420539505715116
1.18810e-05;-0.015409304265042573
1.18813e-05;-0.015394880406668216
1.18815e-05;-0.015380456548293859
1.18818e-05;-0.0153660326899196
1.18820e-05;-0.015351608831545243
1.18823e-05;-0.015337184973170886
1.18825e-05;-0.015322761114796626
1.18828e-05;-0.015308337256422269
1.18830e-05;-0.01529365719091685
1.18833e-05;-0.01527789257728112
1.18835e-05;-0.015262127963645282
1.18838e-05;-0.015246363350009444
1.18840e-05;-0.015230598736373712
1.18843e-05;-0.015214834122737874
1.18845e-05;-0.015199069509102036
1.18848e-05;-0.015183304895466305
1.18850e-05;-0.015167737136645307
1.18853e-05;-0.015153002682192315
1.18855e-05;-0.015138268227739424
1.18858e-05;-0.01512405563468127
1.18860e-05;-0.015112052128457908
1.18862e-05;-0.01510004862223463
1.18865e-05;-0.015088045116011268
1.18868e-05;-0.015076041609787908
1.18870e-05;-0.015064038103564548
1.18873e-05;-0.015052034597341267
1.18875e-05;-0.015040031091117907
1.18878e-05;-0.015028027584894547
1.18880e-05;-0.015016137286070954
1.18883e-05;-0.015004726204485334
1.18885e-05;-0.014993315122899715
1.18888e-05;-0.014981904041314173
1.18890e-05;-0.014970492959728554
1.18893e-05;-0.014959081878142934
1.18895e-05;-0.014947670796557393
1.18898e-05;-0.014936259714971773
1.18900e-05;-0.014924848633386155
1.18903e-05;-0.014913158685887266
1.18905e-05;-0.014900288273567368
1.18908e-05;-0.01488741786124747
1.18910e-05;-0.014874547448927657
1.18913e-05;-0.014861677036607759
1.18915e-05;-0.01484880662428786
1.18918e-05;-0.01483593621196805
1.18920e-05;-0.014823065799648151
1.18923e-05;-0.014810060643333098
1.18925e-05;-0.014796485103408988
1.18928e-05;-0.014782909563484783
1.18930e-05;-0.014769334023560579
1.18933e-05;-0.014755758483636467
1.18935e-05;-0.014742182943712262
1.18938e-05;-0.014728607403788058
1.18940e-05;-0.014715031863863946
1.18943e-05;-0.0147015769194817
1.18945e-05;-0.01468863246701712
1.18947e-05;-0.014675688014552626
1.18950e-05;-0.014662743562088045
1.18953e-05;-0.01465003500616043
1.18955e-05;-0.014638325021768503
1.18958e-05;-0.014626615037376655
1.18960e-05;-0.014614905052984727
1.18963e-05;-0.01460345872813222
1.18965e-05;-0.014593128498134655
1.18968e-05;-0.01458310099164464
1.18970e-05;-0.014574354941346426
1.18973e-05;-0.014566190223404295
1.18975e-05;-0.014560486338296043
1.18978e-05;-0.014555435417649554
1.18980e-05;-0.014553148555067594
1.18983e-05;-0.014551632086142626
1.18985e-05;-0.014553376763765743
1.18988e-05;-0.014555121441388848
1.18990e-05;-0.014558320980156933
1.18993e-05;-0.014567679078718046
1.18995e-05;-0.014577037177279095
1.18998e-05;-0.01458639527584021
1.19000e-05;-0.014595753374401324
1.19003e-05;-0.014605111472962373
1.19005e-05;-0.014620670880852825
1.19008e-05;-0.014639002187754694
1.19010e-05;-0.014657333494656437
1.19013e-05;-0.014675664801558306
1.19015e-05;-0.014693996108460172
1.19018e-05;-0.014713661926189297
1.19020e-05;-0.014738976849851704
1.19023e-05;-0.01476429177351411
1.19025e-05;-0.014789606697176343
1.19028e-05;-0.014814921620838748
1.19030e-05;-0.014840236544501154
1.19032e-05;-0.01486555146816339
1.19035e-05;-0.01489252081606252
1.19038e-05;-0.014920229668582877
1.19040e-05;-0.014947938521103233
1.19043e-05;-0.014975647373623401
1.19045e-05;-0.015003356226143757
1.19048e-05;-0.015031065078664113
1.19050e-05;-0.015058363153742623
1.19053e-05;-0.01508392237048037
1.19055e-05;-0.015109481587218117
1.19058e-05;-0.015134381788583324
1.19060e-05;-0.01515649231782727
1.19063e-05;-0.015178602847071216
1.19065e-05;-0.015199702518276959
1.19068e-05;-0.015216523135297089
1.19070e-05;-0.015233343752317219
1.19073e-05;-0.01524880647376856
1.19075e-05;-0.015258521099544373
1.19078e-05;-0.015268235725320187
1.19080e-05;-0.015276482827261219
1.19083e-05;-0.015278517767086762
1.19085e-05;-0.015280552706912308
1.19088e-05;-0.015280441789917148
1.19090e-05;-0.0152712472654664
1.19093e-05;-0.015262052741015653
1.19095e-05;-0.015252858216564968
1.19098e-05;-0.015243663692114223
1.19100e-05;-0.015234469167663476
1.19103e-05;-0.015216083383450933
1.19105e-05;-0.015193589233971934
1.19108e-05;-0.015171095084492934
1.19110e-05;-0.015148600935014089
1.19113e-05;-0.015126106785535089
1.19115e-05;-0.01510180096532197
1.19117e-05;-0.015069826177808773
1.19120e-05;-0.015037851390295356
1.19123e-05;-0.015005876602781942
1.19125e-05;-0.014973901815268528
1.19128e-05;-0.014938326565721194
1.19130e-05;-0.01490114195972538
1.19133e-05;-0.014863957353729567
1.19135e-05;-0.014826772747734005
1.19138e-05;-0.014789265337512082
1.19140e-05;-0.014750391467586344
1.19143e-05;-0.01471151519509335
1.19145e-05;-0.014672680363022533
1.19148e-05;-0.014634154945418485
1.19150e-05;-0.014596143874730632
1.19153e-05;-0.014558849918346254
1.19155e-05;-0.014522485827268259
1.19158e-05;-0.014487431499235776
1.19160e-05;-0.014454110640161184
1.19163e-05;-0.014422265091019387
1.19165e-05;-0.014396664663257886
1.19168e-05;-0.014371064235496212
1.19170e-05;-0.014345463807734538
1.19173e-05;-0.014319863379973038
1.19175e-05;-0.014294262952211364
1.19178e-05;-0.01426866252444969
1.19180e-05;-0.01424306209668819
1.19183e-05;-0.014218722883398018
1.19185e-05;-0.014199722505892
1.19188e-05;-0.01418072212838611
1.19190e-05;-0.014161721750880093
1.19193e-05;-0.014142721373374075
1.19195e-05;-0.014123720995868188
1.19198e-05;-0.01410472061836217
1.19200e-05;-0.014085720240856152
1.19202e-05;-0.014067354075920292
1.19205e-05;-0.014051672590585259
1.19208e-05;-0.014035991105250226
1.19210e-05;-0.014020309619915194
1.19213e-05;-0.014004628134580269
1.19215e-05;-0.013988946649245236
1.19218e-05;-0.013973265163910203
1.19220e-05;-0.013957583678575278
1.19223e-05;-0.013943346668915408
1.19225e-05;-0.0139297553197905
1.19228e-05;-0.013916163970665684
1.19230e-05;-0.013902572621540776
1.19233e-05;-0.013888981272415866
1.19235e-05;-0.01387538992329105
1.19238e-05;-0.013861798574166142
1.19240e-05;-0.013848460817525866
1.19243e-05;-0.013836196540981697
1.19245e-05;-0.013823932264437445
1.19248e-05;-0.013811884396937804
1.19250e-05;-0.013800752608644358
1.19253e-05;-0.013789620820350838
1.19255e-05;-0.01377866474576075
1.19258e-05;-0.013768452483289303
1.19260e-05;-0.013758240220817786
1.19263e-05;-0.01374827812198143
1.19265e-05;-0.013739374988609025
1.19268e-05;-0.013730471855236558
1.19270e-05;-0.013721867767366773
1.19273e-05;-0.01371452956636057
1.19275e-05;-0.013707191365354315
1.19278e-05;-0.013700151972560113
1.19280e-05;-0.013694377462156678
1.19283e-05;-0.013688602951753203
1.19285e-05;-0.01368335213327131
1.19287e-05;-0.013680318150415394
1.19290e-05;-0.013677284167559459
1.19293e-05;-0.013674250184703522
1.19295e-05;-0.013671216201847587
1.19298e-05;-0.013668182218991671
1.19300e-05;-0.013665148236135734
1.19303e-05;-0.013662740776786057
1.19305e-05;-0.013662985448531015
1.19308e-05;-0.013663230120275975
1.19310e-05;-0.013663474792020937
1.19313e-05;-0.013663719463765895
1.19315e-05;-0.013663964135510855
1.19318e-05;-0.013664208807255815
1.19320e-05;-0.013664873522379923
1.19323e-05;-0.01366731631940497
1.19325e-05;-0.013669759116430017
1.19328e-05;-0.013672201913455048
1.19330e-05;-0.013674644710480095
1.19333e-05;-0.013677087507505141
1.19335e-05;-0.013679530304530172
1.19338e-05;-0.01368197310155522
1.19340e-05;-0.013684762686021014
1.19343e-05;-0.013687707279649242
1.19345e-05;-0.013690651873277488
1.19348e-05;-0.013693596466905737
1.19350e-05;-0.013696541060533965
1.19353e-05;-0.013699485654162211
1.19355e-05;-0.01370243024779046
1.19358e-05;-0.01370510209208782
1.19360e-05;-0.013706619363612801
1.19363e-05;-0.013708136635137784
1.19365e-05;-0.013709653906662754
1.19368e-05;-0.013711171178187735
1.19370e-05;-0.013712688449712717
1.19372e-05;-0.013714205721237688
1.19375e-05;-0.01371572299276267
1.19378e-05;-0.013717240264287651
1.19380e-05;-0.013718757535812632
1.19383e-05;-0.013720337341000675
1.19385e-05;-0.013721945097866325
1.19388e-05;-0.013723552854731978
1.19390e-05;-0.01372516061159762
1.19393e-05;-0.01372676836846327
1.19395e-05;-0.013728376125328923
1.19398e-05;-0.013729983882194565
1.19400e-05;-0.013731591639060216
1.19403e-05;-0.013733199395925868
1.19405e-05;-0.013735007033711784
1.19408e-05;-0.013737660785648007
1.19410e-05;-0.01374031453758423
1.19413e-05;-0.013742968289520437
1.19415e-05;-0.01374562204145666
1.19418e-05;-0.013748275793392883
1.19420e-05;-0.01375092954532909
1.19423e-05;-0.013753583297265315
1.19425e-05;-0.013756237049201538
1.19428e-05;-0.013758947375176139
1.19430e-05;-0.013761897184210803
1.19433e-05;-0.01376484699324547
1.19435e-05;-0.013767796802280114
1.19438e-05;-0.01377074661131478
1.19440e-05;-0.013773696420349446
1.19443e-05;-0.013776646229384092
1.19445e-05;-0.013779596038418756
1.19448e-05;-0.013782545847453422
1.19450e-05;-0.013785351225598031
1.19453e-05;-0.013787545214623253
1.19455e-05;-0.013789739203648475
1.19457e-05;-0.013791933192673682
1.19460e-05;-0.013794127181698904
1.19463e-05;-0.01379559172423912
1.19465e-05;-0.013796730214346443
1.19468e-05;-0.01379786870445376
1.19470e-05;-0.013799007194561085
1.19473e-05;-0.013800216436821272
1.19475e-05;-0.013801725179392139
