Time(s);Current(A)
1.05000e-05;-0.0028835615334903055
1.05002e-05;-0.002924018218813169
1.05005e-05;-0.0029644714954101324
1.05008e-05;-0.0029999578530054607
1.05010e-05;-0.0030318008367345027
1.05013e-05;-0.003063641474992066
1.05015e-05;-0.0030904671456792304
1.05017e-05;-0.00311728958507394
1.05020e-05;-0.0031368151182917534
1.05023e-05;-0.003156335949896552
1.05025e-05;-0.0031758567815012182
1.05028e-05;-0.0031884346918652075
1.05030e-05;-0.0032010081286991256
1.05033e-05;-0.00320820823087294
1.05035e-05;-0.0032154048708478195
1.05038e-05;-0.0032226015108227477
1.05040e-05;-0.003223086552973213
1.05043e-05;-0.003223567270642141
1.05045e-05;-0.003224047988311073
1.05048e-05;-0.0032187374379656053
1.05050e-05;-0.003213423156134432
1.05053e-05;-0.003208108874303223
1.05055e-05;-0.0031985188515509127
1.05058e-05;-0.003188926073812009
1.05060e-05;-0.0031793332960730405
1.05063e-05;-0.0031659060951796463
1.05065e-05;-0.003152476423653782
1.05068e-05;-0.003139046752127827
1.05070e-05;-0.0031233456514077346
1.05073e-05;-0.003107643087138537
1.05075e-05;-0.0030919405228692328
1.05078e-05;-0.003075130243249575
1.05080e-05;-0.003058319249896163
1.05083e-05;-0.0030415082565426375
1.05085e-05;-0.0030245837149974783
1.05087e-05;-0.003007659100289964
1.05090e-05;-0.0029907344855823353
1.05093e-05;-0.0029755426996008762
1.05095e-05;-0.002960352030132508
1.05098e-05;-0.0029451613606640372
1.05100e-05;-0.0029314932696386468
1.05102e-05;-0.002919351683756508
1.05105e-05;-0.002907210097874287
1.05108e-05;-0.0028950685119920666
1.05110e-05;-0.002887214986324356
1.05113e-05;-0.0028793642235811394
1.05115e-05;-0.002871513460837923
1.05118e-05;-0.002863662698094707
1.05120e-05;-0.002855811935351544
1.05123e-05;-0.0028479611726083274
1.05125e-05;-0.0028401104098651113
1.05128e-05;-0.002832259647121948
1.05130e-05;-0.0028244088843787317
1.05133e-05;-0.0028165581216355153
1.05135e-05;-0.002808707358892352
1.05138e-05;-0.002800856596149136
1.05140e-05;-0.0027930058334059197
1.05143e-05;-0.0027893609357733024
1.05145e-05;-0.002785718748104575
1.05148e-05;-0.0027820765604358484
1.05150e-05;-0.002778434372767146
1.05153e-05;-0.002774792185098419
1.05155e-05;-0.002771149997429692
1.05158e-05;-0.00276750780976099
1.05160e-05;-0.0027638656220922626
1.05163e-05;-0.002760223434423536
1.05165e-05;-0.0027565812467548333
1.05168e-05;-0.0027529390590861065
1.05170e-05;-0.0027492968714173793
1.05172e-05;-0.002745654683748677
1.05175e-05;-0.0027437607288430628
1.05178e-05;-0.0027418679003758453
1.05180e-05;-0.002739975071908641
1.05183e-05;-0.0027380822434414235
1.05185e-05;-0.002736189414974206
1.05187e-05;-0.0027342965865070016
1.05190e-05;-0.002732403758039784
1.05193e-05;-0.0027305109295725667
1.05195e-05;-0.0027286181011053623
1.05198e-05;-0.002726725272638145
1.05200e-05;-0.002724832444170928
1.05203e-05;-0.0027235952253630074
1.05205e-05;-0.0027223584289839237
1.05208e-05;-0.0027211216326048318
1.05210e-05;-0.002722333353346464
1.05213e-05;-0.0027235466517405867
1.05215e-05;-0.0027247599501347176
1.05218e-05;-0.002725973248528849
1.05220e-05;-0.0027271865469229717
1.05223e-05;-0.002728399845317103
1.05225e-05;-0.00273159856320751
1.05228e-05;-0.002736787820953045
1.05230e-05;-0.0027419770786986154
1.05233e-05;-0.0027471663364441855
1.05235e-05;-0.0027523555941897206
1.05238e-05;-0.002757544851935291
1.05240e-05;-0.0027627341096808614
1.05243e-05;-0.0027718581320528607
1.05245e-05;-0.0027809846897109765
1.05248e-05;-0.0027901112473690927
1.05250e-05;-0.002799237805027147
1.05253e-05;-0.0028083643626852627
1.05255e-05;-0.002817490920343379
1.05257e-05;-0.002826617478001433
1.05260e-05;-0.002836931988997337
1.05263e-05;-0.002848437517040051
1.05265e-05;-0.002859943045082687
1.05268e-05;-0.002871448573125401
1.05270e-05;-0.0028829541011681143
1.05272e-05;-0.00289445962921075
1.05275e-05;-0.002905965157253464
1.05278e-05;-0.002917470685296178
1.05280e-05;-0.00292901161183243
1.05283e-05;-0.002940552561177065
1.05285e-05;-0.0029520935105217
1.05288e-05;-0.0029628153461698455
1.05290e-05;-0.002973536654038532
1.05293e-05;-0.0029842579619072905
1.05295e-05;-0.0029935693797301564
1.05298e-05;-0.003002879889118739
1.05300e-05;-0.0030121903985073843
1.05303e-05;-0.0030197119033961756
1.05305e-05;-0.00302723225557593
1.05308e-05;-0.003034752607755736
1.05310e-05;-0.003042135057828513
1.05313e-05;-0.003049517419046796
1.05315e-05;-0.003056899780265129
1.05318e-05;-0.003064468053379157
1.05320e-05;-0.0030720364462817184
1.05323e-05;-0.003079604839184331
1.05325e-05;-0.0030871732320869438
1.05328e-05;-0.0030951263601121442
1.05330e-05;-0.003103465215484679
1.05333e-05;-0.003111804070857214
1.05335e-05;-0.003120142926229692
1.05338e-05;-0.003128481781602227
1.05340e-05;-0.003137897478648681
1.05342e-05;-0.003147313869536333
1.05345e-05;-0.0031567302604240486
1.05348e-05;-0.003166146651311764
1.05350e-05;-0.0031755630421994156
1.05353e-05;-0.003185456586283331
1.05355e-05;-0.003195828514132602
1.05357e-05;-0.003206200441981803
1.05360e-05;-0.0032165723698310738
1.05363e-05;-0.003226944297680345
1.05365e-05;-0.0032373162255295456
1.05368e-05;-0.003247470482680061
1.05370e-05;-0.003257624599578836
1.05373e-05;-0.003267778716477611
1.05375e-05;-0.0032779328333763175
1.05378e-05;-0.0032880869502750925
1.05380e-05;-0.0032982410671738675
1.05383e-05;-0.003308395184072574
1.05385e-05;-0.003318549300971349
1.05388e-05;-0.003328703417870124
1.05390e-05;-0.0033388575347688305
1.05393e-05;-0.0033451474298699215
1.05395e-05;-0.0033514348351372796
1.05398e-05;-0.0033577222404045947
1.05400e-05;-0.0033640096456719524
1.05403e-05;-0.0033702970509393105
1.05405e-05;-0.0033765844562066256
1.05408e-05;-0.0033828718614739833
1.05410e-05;-0.0033891592667413413
1.05413e-05;-0.0033954466720086565
1.05415e-05;-0.003401734077276014
1.05418e-05;-0.003401648218000488
1.05420e-05;-0.0034015582522397806
1.05423e-05;-0.0034014682864790726
1.05425e-05;-0.0034013783207183647
1.05427e-05;-0.003401288354957657
1.05430e-05;-0.003401198389196949
1.05433e-05;-0.0034011084234362413
1.05435e-05;-0.003398338028668436
1.05438e-05;-0.0033928802921166694
1.05440e-05;-0.003387422555564903
1.05442e-05;-0.003381964819013173
1.05445e-05;-0.0033765070824614066
1.05448e-05;-0.00337104934590964
1.05450e-05;-0.0033655916093579107
1.05453e-05;-0.003360133872806144
1.05455e-05;-0.003350786660026208
1.05458e-05;-0.0033414369411402215
1.05460e-05;-0.0033320872222542984
1.05463e-05;-0.003322737503368312
1.05465e-05;-0.0033133877844823256
1.05468e-05;-0.0033040380655964025
1.05470e-05;-0.003294688346710416
1.05473e-05;-0.0032853386278244297
1.05475e-05;-0.0032759889089385066
1.05478e-05;-0.0032665655145051567
1.05480e-05;-0.00325706825451656
1.05483e-05;-0.0032475709945280276
1.05485e-05;-0.003238073734539431
1.05488e-05;-0.0032285764745508348
1.05490e-05;-0.0032190792145623025
1.05493e-05;-0.003209581954573706
1.05495e-05;-0.0032000846945851092
1.05498e-05;-0.003190587434596577
1.05500e-05;-0.0031810901746079806
1.05503e-05;-0.003174033523107149
1.05505e-05;-0.0031669784441636264
1.05508e-05;-0.003159923365220056
1.05510e-05;-0.0031534078409307187
1.05512e-05;-0.0031468926642926787
1.05515e-05;-0.0031403774876545944
1.05518e-05;-0.00313386231101651
1.05520e-05;-0.00312734713437847
1.05523e-05;-0.003120831957740386
1.05525e-05;-0.0031143167811023015
1.05527e-05;-0.003107801604464261
1.05530e-05;-0.0031012505907268275
1.05533e-05;-0.003094663647466817
1.05535e-05;-0.003088076704206851
1.05538e-05;-0.0030814897609468405
1.05540e-05;-0.00307490281768683
1.05543e-05;-0.0030683158744268194
1.05545e-05;-0.0030617289311668534
1.05548e-05;-0.003055141987906843
1.05550e-05;-0.0030485550446468323
1.05553e-05;-0.003041580177458401
1.05555e-05;-0.003034605060318883
1.05558e-05;-0.0030276299431793645
1.05560e-05;-0.0030206548260398934
1.05563e-05;-0.0030136797089003755
1.05565e-05;-0.003006704591760857
1.05568e-05;-0.002999729474621386
1.05570e-05;-0.0029927543574818677
1.05573e-05;-0.0029857792403423494
1.05575e-05;-0.0029788041232028787
1.05578e-05;-0.002972761497318716
1.05580e-05;-0.002966719472266705
1.05583e-05;-0.002960677447214735
1.05585e-05;-0.0029546354221627238
1.05588e-05;-0.002948593397110713
1.05590e-05;-0.0029425513720587426
1.05593e-05;-0.002936509347006732
1.05595e-05;-0.0029304673219547207
1.05597e-05;-0.0029244252969027507
1.05600e-05;-0.0029183832718507395
1.05603e-05;-0.002915116831956957
1.05605e-05;-0.0029118521804562198
1.05608e-05;-0.0029085875289554604
1.05610e-05;-0.0029053228774547015
1.05612e-05;-0.002902058225953964
1.05615e-05;-0.002898793574453205
1.05618e-05;-0.0028955289229524455
1.05620e-05;-0.0028961760332439457
1.05623e-05;-0.002896825664001262
1.05625e-05;-0.002897475294758578
1.05628e-05;-0.002898124925515894
1.05630e-05;-0.0028987745562732057
1.05633e-05;-0.002899424187030522
1.05635e-05;-0.002900073817787838
1.05638e-05;-0.0029048536075900857
1.05640e-05;-0.002909636058578098
1.05643e-05;-0.00291441850956611
1.05645e-05;-0.00291920096055409
1.05648e-05;-0.0029239834115421023
1.05650e-05;-0.0029287658625301144
1.05653e-05;-0.002933548313518094
1.05655e-05;-0.0029383307645061063
1.05658e-05;-0.0029444687469376467
1.05660e-05;-0.0029519657567040484
1.05663e-05;-0.0029594627664705007
1.05665e-05;-0.0029669597762369535
1.05668e-05;-0.002974456786003355
1.05670e-05;-0.0029819537957698075
1.05673e-05;-0.00298945080553626
1.05675e-05;-0.0029969478153026616
1.05678e-05;-0.003004444825069114
1.05680e-05;-0.0030122757134199525
1.05682e-05;-0.003020106816898768
1.05685e-05;-0.003027937920377637
1.05688e-05;-0.0030352572038317466
1.05690e-05;-0.003042576157504742
1.05693e-05;-0.0030498951111777865
1.05695e-05;-0.003056226955674431
1.05697e-05;-0.003062558164146839
1.05700e-05;-0.003068889372619289
1.05703e-05;-0.0030739884591167114
1.05705e-05;-0.0030790867517207655
1.05708e-05;-0.0030841850443248543
1.05710e-05;-0.003089360044006451
1.05713e-05;-0.0030945350931127313
1.05715e-05;-0.003099710142218976
1.05718e-05;-0.003105274181783018
1.05720e-05;-0.003110838471985345
1.05723e-05;-0.003116402762187633
1.05725e-05;-0.0031219670523899594
1.05728e-05;-0.003127976768252774
1.05730e-05;-0.003134433058520966
1.05733e-05;-0.003140889348789202
1.05735e-05;-0.003147345639057438
1.05738e-05;-0.00315380192932563
1.05740e-05;-0.0031615392968537648
1.05743e-05;-0.003169277489818642
1.05745e-05;-0.003177015682783467
1.05748e-05;-0.0031847538757483443
1.05750e-05;-0.0031924920687132216
1.05753e-05;-0.0032002302616780465
1.05755e-05;-0.0032079684546429243
1.05758e-05;-0.003216686765282501
1.05760e-05;-0.0032254057074414303
1.05763e-05;-0.0032341246496004187
1.05765e-05;-0.0032428435917594076
1.05767e-05;-0.003251562533918337
1.05770e-05;-0.0032602814760773254
1.05773e-05;-0.003269000418236314
1.05775e-05;-0.0032777505617718502
1.05778e-05;-0.0032865007254114353
1.05780e-05;-0.0032952508890510207
1.05782e-05;-0.003303454640798728
1.05785e-05;-0.0033116580404767993
1.05788e-05;-0.003319861440154871
1.05790e-05;-0.003326980444262019
1.05793e-05;-0.0033340987496603774
1.05795e-05;-0.0033412170550587354
1.05798e-05;-0.003348335360457094
1.05800e-05;-0.00335448091202042
1.05803e-05;-0.003359651201033541
1.05805e-05;-0.0033648214900466617
1.05808e-05;-0.0033699917790597474
1.05810e-05;-0.0033751620680728686
1.05813e-05;-0.0033770213408500665
1.05815e-05;-0.00337887848023936
1.05818e-05;-0.0033807356196286662
1.05820e-05;-0.003382592759017972
1.05823e-05;-0.0033844498984072656
1.05825e-05;-0.0033863070377965717
1.05828e-05;-0.0033881641771858774
1.05830e-05;-0.003390021316575171
1.05833e-05;-0.003391878455964477
1.05835e-05;-0.0033937355953537834
1.05838e-05;-0.0033955927347430765
1.05840e-05;-0.0033974498741323827
1.05843e-05;-0.003399307013521689
1.05845e-05;-0.003401164152910982
1.05848e-05;-0.003403021292300288
1.05850e-05;-0.0034048784316895943
1.05853e-05;-0.0034067355710788874
1.05855e-05;-0.0034057463545894636
1.05858e-05;-0.0034047553041067903
1.05860e-05;-0.003403764253624124
1.05863e-05;-0.0034027732031414507
1.05865e-05;-0.0034017821526587774
1.05867e-05;-0.003400791102176111
1.05870e-05;-0.003399800051693438
1.05873e-05;-0.0033988090012107646
1.05875e-05;-0.0033978179507280983
1.05878e-05;-0.003396826900245425
1.05880e-05;-0.0033958358497627517
1.05883e-05;-0.0033948447992800785
1.05885e-05;-0.003393853748797412
1.05888e-05;-0.003392862698314739
1.05890e-05;-0.0033918716478320656
1.05893e-05;-0.0033908805973493993
1.05895e-05;-0.003389889546866726
1.05898e-05;-0.0033886254524021953
1.05900e-05;-0.0033873984109224296
1.05903e-05;-0.003386213043279328
1.05905e-05;-0.003384833181390219
1.05908e-05;-0.0033824482461338274
1.05910e-05;-0.0033781807416922477
1.05913e-05;-0.003370778048048252
1.05915e-05;-0.0033633733350881784
1.05918e-05;-0.003351348746424281
1.05920e-05;-0.0033393211810344094
1.05923e-05;-0.0033272936156446193
1.05925e-05;-0.0033108740853166475
1.05928e-05;-0.0032944517251124873
1.05930e-05;-0.0032720379526982803
1.05933e-05;-0.0032496203198353548
1.05935e-05;-0.0032272026869724292
1.05938e-05;-0.003197032520306898
1.05940e-05;-0.0031668573584484982
1.05943e-05;-0.003136682196590099
1.05945e-05;-0.0031065070347319032
1.05948e-05;-0.003072390811739514
1.05950e-05;-0.0030343233636831077
1.05952e-05;-0.0029962559156269594
1.05955e-05;-0.002958188467570553
1.05958e-05;-0.0029201210195141463
1.05960e-05;-0.00287740122386721
1.05963e-05;-0.0028346784305712303
1.05965e-05;-0.002791955637275251
1.05968e-05;-0.0027472728191508438
1.05970e-05;-0.0027025887381232415
1.05973e-05;-0.002657904657095336
1.05975e-05;-0.0026125876069477013
1.05978e-05;-0.00256727014895915
1.05980e-05;-0.0025226790038390175
1.05983e-05;-0.002478088326704325
1.05985e-05;-0.0024351829560277727
1.05988e-05;-0.002392278671245065
1.05990e-05;-0.00235102095158025
1.05993e-05;-0.0023111373417786943
1.05995e-05;-0.002273887980727085
1.05998e-05;-0.002236640316431948
1.06000e-05;-0.002205138973988041
1.06003e-05;-0.002173641334073687
1.06005e-05;-0.0021421436941593337
1.06008e-05;-0.002115888195755161
1.06010e-05;-0.0020896360750219
1.06013e-05;-0.002066555082266631
1.06015e-05;-0.0020434761327656702
1.06018e-05;-0.002020397183264553
1.06020e-05;-0.00200218087301841
1.06023e-05;-0.0019839676959187095
1.06025e-05;-0.0019657545188188855
1.06028e-05;-0.0019517736876825873
1.06030e-05;-0.0019377955835756
1.06033e-05;-0.001923817479468518
1.06035e-05;-0.0019131225834263677
1.06037e-05;-0.0019024298028551157
1.06040e-05;-0.0018917370222837912
1.06043e-05;-0.0018829536351343235
1.06045e-05;-0.001876084565700732
1.06048e-05;-0.001869215496267094
1.06050e-05;-0.0018623464268334561
1.06053e-05;-0.0018583022269190118
1.06055e-05;-0.0018542598471539922
1.06058e-05;-0.0018502174673889454
1.06060e-05;-0.0018461750876238984
1.06063e-05;-0.0018435080887686474
1.06065e-05;-0.0018422200179078092
1.06068e-05;-0.001840931947046971
1.06070e-05;-0.0018396438761861416
1.06073e-05;-0.0018383558053253035
1.06075e-05;-0.0018386828230514635
1.06078e-05;-0.0018390108814283698
1.06080e-05;-0.0018393389398052786
1.06083e-05;-0.0018396669981821873
1.06085e-05;-0.0018399950565590939
1.06088e-05;-0.0018406249821889742
1.06090e-05;-0.0018415575535824988
1.06093e-05;-0.0018424901249760172
1.06095e-05;-0.0018434226963695418
1.06098e-05;-0.0018443552677630665
1.06100e-05;-0.0018452878391565849
1.06103e-05;-0.0018459882269203569
1.06105e-05;-0.0018466884650811459
1.06108e-05;-0.0018473887032419301
1.06110e-05;-0.0018492652421645414
1.06113e-05;-0.0018511425390135621
1.06115e-05;-0.0018530198358625704
1.06118e-05;-0.0018548971327115914
1.06120e-05;-0.0018567744295606122
1.06122e-05;-0.0018586517264096204
1.06125e-05;-0.0018605290232586412
1.06128e-05;-0.0018645297145016531
1.06130e-05;-0.0018685317739123514
1.06133e-05;-0.0018725338333230768
1.06135e-05;-0.0018765358927338022
1.06138e-05;-0.0018805379521445273
1.06140e-05;-0.0018845400115552256
1.06143e-05;-0.001888542070965951
1.06145e-05;-0.001894720304514043
1.06148e-05;-0.001900899940237433
1.06150e-05;-0.0019070795759608648
1.06153e-05;-0.0019132592116842969
1.06155e-05;-0.0019194388474076869
1.06158e-05;-0.0019256184831311187
1.06160e-05;-0.0019317981188545507
1.06163e-05;-0.0019379777545779407
1.06165e-05;-0.0019441573903013726
1.06168e-05;-0.0019511429156997971
1.06170e-05;-0.001958128960357477
1.06173e-05;-0.001965115005015204
1.06175e-05;-0.001972101049672931
1.06178e-05;-0.001979087094330611
1.06180e-05;-0.001986073138988338
1.06183e-05;-0.001993059183646065
1.06185e-05;-0.0020000452283037446
1.06188e-05;-0.002007031272961472
1.06190e-05;-0.0020132108074623015
1.06193e-05;-0.0020193898223039753
1.06195e-05;-0.0020255688371456906
1.06198e-05;-0.0020309736844506448
1.06200e-05;-0.0020363780329357797
1.06203e-05;-0.0020408919123041354
1.06205e-05;-0.002045405217916044
1.06207e-05;-0.002048076157584136
1.06210e-05;-0.0020507459101596023
1.06213e-05;-0.0020500410554675614
1.06215e-05;-0.0020493340264130006
1.06218e-05;-0.002048626997358435
1.06220e-05;-0.002043381162442088
1.06222e-05;-0.0020381324030345734
1.06225e-05;-0.0020328836436270233
1.06228e-05;-0.002027634884219473
1.06230e-05;-0.0020166154102662665
1.06233e-05;-0.002005592218065513
1.06235e-05;-0.001994569025864685
1.06238e-05;-0.0019835458336638565
1.06240e-05;-0.0019663787652122486
1.06243e-05;-0.0019492077380734191
1.06245e-05;-0.0019320367109345899
1.06248e-05;-0.001914865683795877
1.06250e-05;-0.0018976946566570479
1.06253e-05;-0.0018778161466130807
1.06255e-05;-0.0018552231711092147
1.06258e-05;-0.0018326301956051957
1.06260e-05;-0.0018100372201011767
1.06263e-05;-0.0017874442445973107
1.06265e-05;-0.0017648512690932917
1.06268e-05;-0.0017399478727491977
1.06270e-05;-0.001715042987730501
1.06273e-05;-0.001690138102711636
1.06275e-05;-0.001664751723722123
1.06278e-05;-0.0016393650344914952
1.06280e-05;-0.0016142785615601272
1.06283e-05;-0.001589192282067302
1.06285e-05;-0.0015649566251180608
1.06288e-05;-0.0015407215162507731
1.06290e-05;-0.0015173892085784378
1.06292e-05;-0.001494832425747801
1.06295e-05;-0.0014732132638377768
1.06298e-05;-0.0014526940058071506
1.06300e-05;-0.0014334370509550395
1.06303e-05;-0.0014156045659744012
1.06305e-05;-0.0013994036247877064
1.06307e-05;-0.0013851267240769486
1.06310e-05;-0.0013730238349738474
1.06313e-05;-0.0013631807449262727
1.06315e-05;-0.0013567346197863005
1.06318e-05;-0.001350290682477236
1.06320e-05;-0.0013483861133413305
1.06323e-05;-0.001346484469059281
1.06325e-05;-0.0013504333875897043
1.06328e-05;-0.0013543860758168105
1.06330e-05;-0.0013583387640439166
1.06333e-05;-0.0013693999646178753
1.06335e-05;-0.001380465745423945
1.06338e-05;-0.0013915315262300147
1.06340e-05;-0.0014079683536639205
1.06343e-05;-0.001424408641827642
1.06345e-05;-0.0014438015319921662
1.06348e-05;-0.0014650936032020727
1.06350e-05;-0.0014882229804510142
1.06353e-05;-0.0015130633950182425
1.06355e-05;-0.0015394571243821508
1.06358e-05;-0.0015672457277398507
1.06360e-05;-0.0015962711128592476
1.06363e-05;-0.0016263751877330966
1.06365e-05;-0.0016574106800082546
1.06368e-05;-0.0016892513819076042
1.06370e-05;-0.0017217606285896496
1.06373e-05;-0.0017547614947023846
1.06375e-05;-0.0017880570184144674
1.06377e-05;-0.0018214499923204202
1.06380e-05;-0.0018547433252058816
1.06383e-05;-0.0018877398095904128
1.06385e-05;-0.0019202493346805888
1.06388e-05;-0.0019520949407170105
1.06390e-05;-0.0019830929286693876
1.06392e-05;-0.002013034465641878
1.06395e-05;-0.002041698370469361
1.06398e-05;-0.002068862988678715
1.06400e-05;-0.0020943073635393424
1.06403e-05;-0.002117809608047375
1.06405e-05;-0.0021391743602018616
1.06408e-05;-0.00215829515912777
1.06410e-05;-0.0021739998071813684
1.06413e-05;-0.002189702255035351
1.06415e-05;-0.0021995065180898405
1.06418e-05;-0.0022093069807629043
1.06420e-05;-0.002219107443436034
1.06423e-05;-0.0022196468514922374
1.06425e-05;-0.002220180292366917
1.06428e-05;-0.0022207137332416007
1.06430e-05;-0.002221247174116284
1.06433e-05;-0.0022165574048816647
1.06435e-05;-0.0022066309549602387
1.06438e-05;-0.0021967045050388127
1.06440e-05;-0.002186778055117454
1.06443e-05;-0.002176851605196028
