Time(s);Current(A)
2.50000e-06;0.006148532748606562
2.50025e-06;0.006146331645311672
2.50050e-06;0.0061650904498895985
2.50075e-06;0.00618748487729838
2.50100e-06;0.006209879304707161
2.50125e-06;0.0062322737321159035
2.50150e-06;0.006254668159524685
2.50175e-06;0.006277062586933466
2.50200e-06;0.006299457014342247
2.50225e-06;0.00632185144175099
2.50250e-06;0.006344245869159771
2.50275e-06;0.006366640296568552
2.50300e-06;0.006389034723977295
2.50325e-06;0.006411429151386076
2.50350e-06;0.006436331669793116
2.50375e-06;0.006461669231758062
2.50400e-06;0.006487006793723051
2.50425e-06;0.0065123443556880396
2.50450e-06;0.006537681917653028
2.50475e-06;0.006563019479617974
2.50500e-06;0.006588357041582962
2.50525e-06;0.006613694603547951
2.50550e-06;0.006633017280887415
2.50575e-06;0.006651296640097697
2.50600e-06;0.00666957599930798
2.50625e-06;0.006687855358518262
2.50650e-06;0.006706134717728514
2.50675e-06;0.006724414076938796
2.50700e-06;0.006742693436149079
2.50725e-06;0.00676097279535933
2.50750e-06;0.006779493291909544
2.50775e-06;0.006798055615190287
2.50800e-06;0.006816617938470998
2.50825e-06;0.00683518026175174
2.50850e-06;0.006853742585032482
2.50875e-06;0.006872304908313224
2.50900e-06;0.006890867231593935
2.50925e-06;0.006909429554874677
2.50950e-06;0.00692799187815542
2.50975e-06;0.0069465542014361305
2.51000e-06;0.006965116524716873
2.51025e-06;0.006983678847997615
2.51050e-06;0.007002241171278357
2.51075e-06;0.007020803494559068
2.51100e-06;0.00703936581783981
2.51125e-06;0.0070579281411205525
2.51150e-06;0.0070764904644012635
2.51175e-06;0.007094620834986647
2.51200e-06;0.007111956659655055
2.51225e-06;0.007129292484323434
2.51250e-06;0.007146628308991843
2.51275e-06;0.007163964133660251
2.51300e-06;0.007181299958328659
2.51325e-06;0.007198635782997038
2.51350e-06;0.0072159716076654465
2.51375e-06;0.007233307432333855
2.51400e-06;0.007250643257002234
2.51425e-06;0.0072679790816706415
2.51450e-06;0.00728531490633905
2.51475e-06;0.0073026507310074585
2.51500e-06;0.0073199865556758375
2.51525e-06;0.007337322380344246
2.51550e-06;0.007354658205012654
2.51575e-06;0.007371994029681033
2.51600e-06;0.007389329854349441
2.51625e-06;0.0074057492899486585
2.51650e-06;0.007422009772319483
2.51675e-06;0.007438270254690335
2.51700e-06;0.007454530737061188
2.51725e-06;0.00747079121943204
2.51750e-06;0.007487051701802865
2.51775e-06;0.007503312184173717
2.51800e-06;0.00751957266654457
2.51825e-06;0.007535833148915394
2.51850e-06;0.0075520936312862465
2.51875e-06;0.007568354113657099
2.51900e-06;0.007584614596027951
2.51925e-06;0.00760446128756524
2.51950e-06;0.007630904552943716
2.51975e-06;0.007657347818322193
2.52000e-06;0.007683791083700625
2.52025e-06;0.007710234349079102
2.52050e-06;0.007736677614457579
2.52075e-06;0.007763120879836011
2.52100e-06;0.0077895641452144886
2.52125e-06;0.007816007410592966
2.52150e-06;0.007842450675971443
2.52175e-06;0.007868893941349875
2.52200e-06;0.007895337206728352
2.52225e-06;0.007921780472106829
2.52250e-06;0.007949925228746471
2.52275e-06;0.007978365119339767
2.52300e-06;0.008006805009933062
2.52325e-06;0.008035244900526357
2.52350e-06;0.008063684791119604
2.52375e-06;0.008092124681712899
2.52400e-06;0.008120564572306194
2.52425e-06;0.00814900446289944
2.52450e-06;0.008177444353492736
2.52475e-06;0.008205884244086031
2.52500e-06;0.00822090711107793
2.52525e-06;0.008233602714150575
2.52550e-06;0.00824629831722322
2.52575e-06;0.008258993920295866
2.52600e-06;0.00827168952336849
2.52625e-06;0.008284385126441135
2.52650e-06;0.008297080729513781
2.52675e-06;0.008309776332586404
2.52700e-06;0.00832247193565905
2.52725e-06;0.008335167538731696
2.52750e-06;0.008315366187300428
2.52775e-06;0.00828992804249742
2.52800e-06;0.008264489897694368
2.52825e-06;0.008239051752891318
2.52850e-06;0.008213613608088309
2.52875e-06;0.008188175463285258
2.52900e-06;0.008162737318482206
2.52925e-06;0.008137299173679197
2.52950e-06;0.008111861028876146
2.52975e-06;0.008086422884073095
2.53000e-06;0.008031856147934387
2.53025e-06;0.007972236881394666
2.53050e-06;0.007912617614854843
2.53075e-06;0.00785299834831502
2.53100e-06;0.0077933790817753
2.53125e-06;0.007733759815235478
2.53150e-06;0.007674140548695656
2.53175e-06;0.007614521282155833
2.53200e-06;0.007554902015616112
2.53225e-06;0.00749528274907629
2.53250e-06;0.007426898087437964
2.53275e-06;0.007356993014987445
2.53300e-06;0.0072870879425368075
2.53325e-06;0.00721718287008617
2.53350e-06;0.00714727779763565
2.53375e-06;0.007077372725185012
2.53400e-06;0.007007467652734374
2.53425e-06;0.006937562580283736
2.53450e-06;0.006881015860279759
2.53475e-06;0.0068267862273284395
2.53500e-06;0.00677255659437712
2.53525e-06;0.006718326961425893
2.53550e-06;0.006664097328474574
2.53575e-06;0.006609867695523255
2.53600e-06;0.006555638062571935
2.53625e-06;0.006501408429620708
2.53650e-06;0.006472042890989943
2.53675e-06;0.006446990179952349
2.53700e-06;0.006421937468914798
2.53725e-06;0.006396884757877203
2.53750e-06;0.0063718320468396095
2.53775e-06;0.0063467793358020575
2.53800e-06;0.006321726624764464
2.53825e-06;0.006296673913726869
2.53850e-06;0.006271621202689275
2.53875e-06;0.006246568491651724
2.53900e-06;0.006221515780614129
2.53925e-06;0.006205146837707829
2.53950e-06;0.006205076328260172
2.53975e-06;0.006205005818812515
2.54000e-06;0.0062049353093648575
2.54025e-06;0.0062048647999172
2.54050e-06;0.006204794290469543
2.54075e-06;0.006204723781021886
2.54100e-06;0.0062046532715742285
2.54125e-06;0.006204582762126571
2.54150e-06;0.006204512252678914
2.54175e-06;0.006204441743231257
2.54200e-06;0.0062043712337835994
2.54225e-06;0.006205569491811407
2.54250e-06;0.0016301782069258622
2.54275e-06;-0.03694533362686231
2.54300e-06;-0.017362293691861198
2.54325e-06;-0.00043370812977712274
2.54350e-06;0.020047793435584646
2.54375e-06;0.028557103171742433
2.54400e-06;0.02334625541836916
2.54425e-06;0.01035704167549066
2.54450e-06;-0.006828671569680674
2.54475e-06;-0.013437462601272238
2.54500e-06;-0.00751407521836813
2.54525e-06;0.0035042481852778154
2.54550e-06;0.016158311387952477
2.54575e-06;0.021260803443915278
2.54600e-06;0.017864824817214825
2.54625e-06;0.009647651909302366
2.54650e-06;-0.0011706693777141213
2.54675e-06;-0.005348948388725987
2.54700e-06;-0.00166977863165599
2.54725e-06;0.005204123138027798
2.54750e-06;0.013103872367409132
2.54775e-06;0.0162737526179755
2.54800e-06;0.014120592017886317
2.54825e-06;0.008947969802136158
2.54850e-06;0.0021466220367125487
2.54875e-06;-0.0004949388615348851
2.54900e-06;0.001785452092816369
2.54925e-06;0.006066777137537109
2.54950e-06;0.010990357823191077
2.54975e-06;0.012950962520190967
2.55000e-06;0.011577353720358551
2.55025e-06;0.008312769913128177
2.55050e-06;0.004028541116163979
2.55075e-06;0.0023505535669083675
2.55100e-06;0.0037560090996956877
2.55125e-06;0.006415031277005793
2.55150e-06;0.009476513460490997
2.55175e-06;0.010682254714355797
2.55200e-06;0.009799937193876888
2.55225e-06;0.007733797603908102
2.55250e-06;0.005029764470632291
2.55275e-06;0.003959088245915042
2.55300e-06;0.004820570508118339
2.55325e-06;0.00646790118195841
2.55350e-06;0.008367947729621435
2.55375e-06;0.009106263325166295
2.55400e-06;0.008537485001579938
2.55425e-06;0.007228166005314663
2.55450e-06;0.0055203750340061235
2.55475e-06;0.004836839384129148
2.55500e-06;0.005364674081943223
2.55525e-06;0.006385802416220237
2.55550e-06;0.007566289014628335
2.55575e-06;0.008020201674283554
2.55600e-06;0.007656606475957896
2.55625e-06;0.006830482597967183
2.55650e-06;0.005756121993400264
2.55675e-06;0.005324650958616991
2.55700e-06;0.00565315151513386
2.55725e-06;0.006291708460066291
2.55750e-06;0.007031062563989255
2.55775e-06;0.007316220035210438
2.55800e-06;0.007090200071207328
2.55825e-06;0.00657533503187828
2.55850e-06;0.005905814221600981
2.55875e-06;0.005639763641380998
2.55900e-06;0.005850419902666581
2.55925e-06;0.00625586402151005
2.55950e-06;0.006724941699404686
2.55975e-06;0.0069099529499931315
2.56000e-06;0.006775171115927112
2.56025e-06;0.006459824563125346
2.56050e-06;0.006047920611126153
2.56075e-06;0.005888999724616114
2.56100e-06;0.006028849981290589
2.56125e-06;0.006290796519191789
2.56150e-06;0.006592615408145352
2.56175e-06;0.006716452886442613
2.56200e-06;0.006639885792884245
2.56225e-06;0.006450079611867836
2.56250e-06;0.006199602591141181
2.56275e-06;0.006107341273889516
2.56300e-06;0.006201899994895072
2.56325e-06;0.006372537244646535
2.56350e-06;0.006567682617357628
2.56375e-06;0.006650815626117116
2.56400e-06;0.006607840650933953
2.56425e-06;0.006493306460140436
2.56450e-06;0.006340086411809739
2.56475e-06;0.006285226559574891
2.56500e-06;0.00634657506847554
2.56525e-06;0.006458303735154218
2.56550e-06;0.006578770775842119
2.56575e-06;0.006628614222612793
2.56600e-06;0.006600465423790256
2.56625e-06;0.006521713234772404
2.56650e-06;0.006430021966164353
2.56675e-06;0.006400749568247294
2.56700e-06;0.006443209449927565
2.56725e-06;0.006519258969325273
2.56750e-06;0.006601447255212445
2.56775e-06;0.006640813756656138
2.56800e-06;0.00663279389467393
2.56825e-06;0.006594605510062199
2.56850e-06;0.006548810283592602
2.56875e-06;0.006543140485006715
2.56900e-06;0.006583436126774387
2.56925e-06;0.00664577818128811
2.56950e-06;0.006712288350123687
2.56975e-06;0.006752594846029156
2.57000e-06;0.0067638120497117305
2.57025e-06;0.006756632468817895
2.57050e-06;0.006744842623515185
2.57075e-06;0.0067584142978522836
2.57100e-06;0.006800936519967537
2.57125e-06;0.006857251270200861
2.57150e-06;0.006916158354367914
2.57175e-06;0.006958476158961585
2.57200e-06;0.006982293276220615
2.57225e-06;0.006999168088715513
2.57250e-06;0.007015159673423816
2.57275e-06;0.0070311512581320915
2.57300e-06;0.007068198738401429
2.57325e-06;0.007113444914079363
2.57350e-06;0.007158329695122047
2.57375e-06;0.0072032144761648076
2.57400e-06;0.007232665101367231
2.57425e-06;0.007252515478713513
2.57450e-06;0.007271089155259937
2.57475e-06;0.007289662831806363
2.57500e-06;0.007319519516330362
2.57525e-06;0.0073514769458305484
2.57550e-06;0.007382256380819462
2.57575e-06;0.007413035815808375
2.57600e-06;0.0074316923700218345
2.57625e-06;0.0074406180188363764
2.57650e-06;0.007447600454619131
2.57675e-06;0.007454582890401885
2.57700e-06;0.0074661348901181165
2.57725e-06;0.007475767230965081
2.57750e-06;0.007483732988166201
2.57775e-06;0.007491698745367307
2.57800e-06;0.007490150505177492
2.57825e-06;0.007480101824190523
2.57850e-06;0.007468157301730236
2.57875e-06;0.0074562127792699275
2.57900e-06;0.007445792494537957
2.57925e-06;0.007430057981858161
2.57950e-06;0.007411760804636155
2.57975e-06;0.007393463627414119
2.58000e-06;0.007375166450192082
2.58025e-06;0.007354811705311087
2.58050e-06;0.007326206960274055
2.58075e-06;0.007297602215237024
2.58100e-06;0.007268997470199993
2.58125e-06;0.0072403927251630095
2.58150e-06;0.007206883690575681
2.58175e-06;0.00717126898399981
2.58200e-06;0.0071356542774239995
2.58225e-06;0.007100039570848129
2.58250e-06;0.0070644248642722585
2.58275e-06;0.007028810157696449
2.58300e-06;0.006993195451120578
2.58325e-06;0.006957580744544708
2.58350e-06;0.006921966037968837
2.58375e-06;0.006888903709241915
2.58400e-06;0.006856937251891529
2.58425e-06;0.006824970794541143
2.58450e-06;0.00679300433719081
2.58475e-06;0.006761037879840424
2.58500e-06;0.006729071422490037
2.58525e-06;0.00669710496513965
2.58550e-06;0.0066651385077893185
2.58575e-06;0.006633172050438931
2.58600e-06;0.006616950713985944
2.58625e-06;0.0066074895942149535
2.58650e-06;0.0065980284744439465
2.58675e-06;0.0065885673546729395
2.58700e-06;0.006579106234901949
2.58725e-06;0.006569645115130942
2.58750e-06;0.006560183995359935
2.58775e-06;0.006550722875588928
2.58800e-06;0.006541261755817937
2.58825e-06;0.00653180063604693
2.58850e-06;0.006543733858638083
2.58875e-06;0.006564852808736808
2.58900e-06;0.006585971758835568
2.58925e-06;0.006607090708934327
2.58950e-06;0.006628209659033088
2.58975e-06;0.006649328609131812
2.59000e-06;0.006670447559230573
2.59025e-06;0.0066915665093293325
2.59050e-06;0.006712685459428057
2.59075e-06;0.006733804409526817
2.59100e-06;0.006768647004940636
2.59125e-06;0.006809381890201029
2.59150e-06;0.006850116775461492
2.59175e-06;0.0068908516607219545
2.59200e-06;0.006931586545982417
2.59225e-06;0.0069723214312428115
2.59250e-06;0.007013056316503274
2.59275e-06;0.007053791201763736
2.59300e-06;0.00709452608702413
2.59325e-06;0.007135260972284593
2.59350e-06;0.0071740925585304805
2.59375e-06;0.007212106957418234
2.59400e-06;0.007250121356305923
2.59425e-06;0.007288135755193677
2.59450e-06;0.00732615015408143
2.59475e-06;0.00736416455296912
2.59500e-06;0.0074021789518568725
2.59525e-06;0.007440193350744626
2.59550e-06;0.007478207749632315
2.59575e-06;0.007516222148520069
2.59600e-06;0.007533459425762492
2.59625e-06;0.0075417759811333826
2.59650e-06;0.007550092536504258
2.59675e-06;0.007558409091875148
2.59700e-06;0.007566725647246039
2.59725e-06;0.007575042202616915
2.59750e-06;0.0075833587579878054
2.59775e-06;0.007591675313358696
2.59800e-06;0.007599991868729586
2.59825e-06;0.007580258077146451
2.59850e-06;0.0075484807817589915
2.59875e-06;0.007516703486371532
2.59900e-06;0.007484926190984126
2.59925e-06;0.007453148895596667
2.59950e-06;0.007421371600209207
2.59975e-06;0.007389594304821802
2.60000e-06;0.007357817009434342
2.60025e-06;0.007326039714046883
2.60050e-06;0.007273592433102457
2.60075e-06;0.007212270429499586
2.60100e-06;0.00715094842589661
2.60125e-06;0.007089626422293635
2.60150e-06;0.0070283044186907635
2.60175e-06;0.006966982415087788
2.60200e-06;0.0069056604114848125
2.60225e-06;0.006844338407881837
2.60250e-06;0.00678161461429494
2.60275e-06;0.006713270219344627
2.60300e-06;0.006644925824394314
2.60325e-06;0.006576581429444118
2.60350e-06;0.006508237034493805
2.60375e-06;0.006439892639543493
2.60400e-06;0.0063715482445932965
2.60425e-06;0.006303203849642984
2.60450e-06;0.006234859454692671
2.60475e-06;0.006180779954073351
2.60500e-06;0.006132825130251649
2.60525e-06;0.006084870306429866
2.60550e-06;0.006036915482608082
2.60575e-06;0.005988960658786381
2.60600e-06;0.0059410058349645975
2.60625e-06;0.005893051011142815
2.60650e-06;0.005845096187321031
2.60675e-06;0.00579714136349933
2.60700e-06;0.0057491865396775465
2.60725e-06;0.00571676535546437
2.60750e-06;0.0056910135877843646
2.60775e-06;0.005665261820104316
2.60800e-06;0.005639510052424267
2.60825e-06;0.005613758284744261
2.60850e-06;0.005588006517064212
2.60875e-06;0.005562254749384163
2.60900e-06;0.005536502981704114
2.60925e-06;0.0055107512140241096
2.60950e-06;0.005484999446344061
2.60975e-06;0.005468361960021942
2.61000e-06;0.00545563771878015
2.61025e-06;0.005442913477538338
2.61050e-06;0.005430189236296525
2.61075e-06;0.0054174649950547125
2.61100e-06;0.005404740753812921
2.61125e-06;0.005392016512571108
2.61150e-06;0.005379292271329296
2.61175e-06;0.005366568030087505
2.61200e-06;0.0053538437888456915
2.61225e-06;0.005345875025970672
2.61250e-06;0.005339948042539701
2.61275e-06;0.005334021059108718
2.61300e-06;0.005328094075677737
2.61325e-06;0.005322167092246755
2.61350e-06;0.0053162401088157835
2.61375e-06;0.005310313125384802
2.61400e-06;0.005304386141953821
2.61425e-06;0.005298459158522849
2.61450e-06;0.005292532175091867
2.61475e-06;0.005289957743639292
2.61500e-06;0.005288822740817607
2.61525e-06;0.005287687737995925
2.61550e-06;0.005286552735174241
2.61575e-06;0.005285417732352557
2.61600e-06;0.0052842827295308745
2.61625e-06;0.00528314772670919
2.61650e-06;0.0052820127238875055
2.61675e-06;0.005280877721065823
2.61700e-06;0.005279742718244139
2.61725e-06;0.005290803789145658
2.61750e-06;0.0053071012822756315
2.61775e-06;0.005323398775405578
2.61800e-06;0.005339696268535552
2.61825e-06;0.0053559937616655265
2.61850e-06;0.005372291254795473
2.61875e-06;0.005388588747925447
2.61900e-06;0.0054048862410554215
2.61925e-06;0.005421183734185368
2.61950e-06;0.005437481227315342
2.61975e-06;0.005467018836199164
2.62000e-06;0.00550224113000822
2.62025e-06;0.005537463423817217
2.62050e-06;0.0055726857176262735
2.62075e-06;0.005607908011435329
2.62100e-06;0.005643130305244326
2.62125e-06;0.005678352599053383
2.62150e-06;0.005713574892862438
2.62175e-06;0.005748797186671495
2.62200e-06;0.005784019480480492
2.62225e-06;0.00582310945693815
2.62250e-06;0.005863860034983994
2.62275e-06;0.00590461061302977
2.62300e-06;0.005945361191075615
2.62325e-06;0.005986111769121461
2.62350e-06;0.006026862347167236
2.62375e-06;0.0060676129252130815
2.62400e-06;0.006108363503258926
2.62425e-06;0.006149114081304772
2.62450e-06;0.006189864659350547
2.62475e-06;0.006220510407845735
2.62500e-06;0.006246817616309293
2.62525e-06;0.006273124824772807
2.62550e-06;0.006299432033236366
2.62575e-06;0.006325739241699924
2.62600e-06;0.006352046450163483
2.62625e-06;0.0063783536586269965
2.62650e-06;0.006404660867090555
2.62675e-06;0.006430968075554114
2.62700e-06;0.006457275284017627
2.62725e-06;0.006467161057155161
2.62750e-06;0.006469996235902935
2.62775e-06;0.006472831414650704
2.62800e-06;0.006475666593398478
2.62825e-06;0.0064785017721462525
2.62850e-06;0.006481336950894027
2.62875e-06;0.006484172129641795
2.62900e-06;0.0064870073083895695
2.62925e-06;0.0064898424871373435
2.62950e-06;0.006492677665885113
2.62975e-06;0.00648225005426846
2.63000e-06;0.006466128022311548
2.63025e-06;0.006450005990354637
2.63050e-06;0.006433883958397753
2.63075e-06;0.006417761926440843
2.63100e-06;0.006401639894483931
2.63125e-06;0.0063855178625270475
2.63150e-06;0.006369395830570136
2.63175e-06;0.0063532737986132255
2.63200e-06;0.006337151766656342
2.63225e-06;0.006315927458585254
2.63250e-06;0.006292512472377172
2.63275e-06;0.006269097486169091
2.63300e-06;0.00624568249996105
2.63325e-06;0.006222267513752968
2.63350e-06;0.006198852527544887
2.63375e-06;0.006175437541336846
2.63400e-06;0.006152022555128764
2.63425e-06;0.006128607568920683
2.63450e-06;0.006105192582712602
2.63475e-06;0.006085764196751491
2.63500e-06;0.0060680474700198035
2.63525e-06;0.0060503307432881155
2.63550e-06;0.006032614016556458
2.63575e-06;0.00601489728982477
2.63600e-06;0.005997180563093082
2.63625e-06;0.0059794638363614245
2.63650e-06;0.005961747109629737
2.63675e-06;0.005944030382898049
2.63700e-06;0.005926313656166362
2.63725e-06;0.005909001137667614
2.63750e-06;0.005893309327956613
2.63775e-06;0.005877617518245612
2.63800e-06;0.005861925708534638
2.63825e-06;0.005846233898823636
2.63850e-06;0.005830542089112636
2.63875e-06;0.0058148502794016345
2.63900e-06;0.00579915846969066
2.63925e-06;0.00578346665997966
2.63950e-06;0.005767774850268658
2.63975e-06;0.005752083040557685
2.64000e-06;0.005735261112142587
2.64025e-06;0.005717953963742909
2.64050e-06;0.00570064681534326
2.64075e-06;0.005683339666943582
2.64100e-06;0.0056660325185439045
2.64125e-06;0.005648725370144226
2.64150e-06;0.005631418221744578
2.64175e-06;0.005614111073344899
2.64200e-06;0.005596803924945221
2.64225e-06;0.005579496776545572
2.64250e-06;0.005562189628145894
2.64275e-06;0.005546062205155369
2.64300e-06;0.005530441300942722
2.64325e-06;0.005514820396730099
2.64350e-06;0.005499199492517451
2.64375e-06;0.0054835785883048035
2.64400e-06;0.005467957684092181
2.64425e-06;0.005452336779879533
2.64450e-06;0.005436715875666885
2.64475e-06;0.005421094971454263
2.64500e-06;0.0054054740672416154
2.64525e-06;0.005389853163028967
2.64550e-06;0.005382532584245187
2.64575e-06;0.005378775776030125
2.64600e-06;0.005375018967815058
2.64625e-06;0.005371262159599989
2.64650e-06;0.005367505351384929
2.64675e-06;0.00536374854316986
2.64700e-06;0.005359991734954793
2.64725e-06;0.005356234926739725
2.64750e-06;0.005352478118524664
2.64775e-06;0.005353664613533754
2.64800e-06;0.0053746717215946965
2.64825e-06;0.005395678829655604
2.64850e-06;0.005416685937716547
2.64875e-06;0.00543769304577749
2.64900e-06;0.005458700153838396
2.64925e-06;0.005479707261899339
2.64950e-06;0.005500714369960282
2.64975e-06;0.005521721478021225
2.65000e-06;0.005542728586082133
2.65025e-06;0.0055781938449287125
2.65050e-06;0.005619866755835475
2.65075e-06;0.005661539666742168
