Time(s);Current(A)
5.00000e-06;-0.0114518675305162
5.00025e-06;-0.01143783602853913
5.00050e-06;-0.011421899741506637
5.00075e-06;-0.011405627842814329
5.00100e-06;-0.011389355944122019
5.00125e-06;-0.011373084045429653
5.00150e-06;-0.011356812146737344
5.00175e-06;-0.011341197645968937
5.00200e-06;-0.011326802954924258
5.00225e-06;-0.01131240826387963
5.00250e-06;-0.011298013572834999
5.00275e-06;-0.01128361888179032
5.00300e-06;-0.011269224190745691
5.00325e-06;-0.011256378072808253
5.00350e-06;-0.011243804804129757
5.00375e-06;-0.011231231535451304
5.00400e-06;-0.011218658266772808
5.00425e-06;-0.011206084998094355
5.00450e-06;-0.0111935117294159
5.00475e-06;-0.011180938460737406
5.00500e-06;-0.011168365192058952
5.00525e-06;-0.011155791923380499
5.00550e-06;-0.011140126459301814
5.00575e-06;-0.011123916169008914
5.00600e-06;-0.011107705878716016
5.00625e-06;-0.011091495588423062
5.00650e-06;-0.011075285298130164
5.00675e-06;-0.011059075007837264
5.00700e-06;-0.01104286471754431
5.00725e-06;-0.011026654427251412
5.00750e-06;-0.011010444136958513
5.00775e-06;-0.010990949805448874
5.00800e-06;-0.01097087684564714
5.00825e-06;-0.010950803885845337
5.00850e-06;-0.010930730926043604
5.00875e-06;-0.01091065796624187
5.00900e-06;-0.010890585006440067
5.00925e-06;-0.010870512046638333
5.00950e-06;-0.010850439086836599
5.00975e-06;-0.010830267898609233
5.01000e-06;-0.010809914446361505
5.01025e-06;-0.010789560994113778
5.01050e-06;-0.010769207541865982
5.01075e-06;-0.010748854089618254
5.01100e-06;-0.010728500637370526
5.01125e-06;-0.010708147185122729
5.01150e-06;-0.010687793732875001
5.01175e-06;-0.010667440280627273
5.01200e-06;-0.010653898449055526
5.01225e-06;-0.010641556784040192
5.01250e-06;-0.010629215119024817
5.01275e-06;-0.010616873454009482
5.01300e-06;-0.010604531788994148
5.01325e-06;-0.010592190123978771
5.01350e-06;-0.010579848458963438
5.01375e-06;-0.010567506793948104
5.01400e-06;-0.010555165128932727
5.01425e-06;-0.010542823463917394
5.01450e-06;-0.010530481798902059
5.01475e-06;-0.010518140133886683
5.01500e-06;-0.010505798468871348
5.01525e-06;-0.010493456803856015
5.01550e-06;-0.01048111513884064
5.01575e-06;-0.010468773473825304
5.01600e-06;-0.01045643180880997
5.01625e-06;-0.010444090143794594
5.01650e-06;-0.01043174847877926
5.01675e-06;-0.010419406813763884
5.01700e-06;-0.01040706514874855
5.01725e-06;-0.010399932276195728
5.01750e-06;-0.010393717161517052
5.01775e-06;-0.010387502046838396
5.01800e-06;-0.010381286932159742
5.01825e-06;-0.010375071817481065
5.01850e-06;-0.01036885670280241
5.01875e-06;-0.010362641588123753
5.01900e-06;-0.010356426473445077
5.01925e-06;-0.010350211358766423
5.01950e-06;-0.010343996244087767
5.01975e-06;-0.01033778112940909
5.02000e-06;-0.010331566014730434
5.02025e-06;-0.01032535090005178
5.02050e-06;-0.010319135785373103
5.02075e-06;-0.010312920670694448
5.02100e-06;-0.010306705556015771
5.02125e-06;-0.010300490441337117
5.02150e-06;-0.010294275326658461
5.02175e-06;-0.010288060211979784
5.02200e-06;-0.010281845097301128
5.02225e-06;-0.010275629982622474
5.02250e-06;-0.010271825774945549
5.02275e-06;-0.010268446354568235
5.02300e-06;-0.01026506693419092
5.02325e-06;-0.010261687513813596
5.02350e-06;-0.010258308093436282
5.02375e-06;-0.010254928673058968
5.02400e-06;-0.010251549252681642
5.02425e-06;-0.010248169832304328
5.02450e-06;-0.010250432456623205
5.02475e-06;-0.010253689175251324
5.02500e-06;-0.010256945893879432
5.02525e-06;-0.010260202612507553
5.02550e-06;-0.010263459331135661
5.02575e-06;-0.01026671604976377
5.02600e-06;-0.010269972768391889
5.02625e-06;-0.010273229487019997
5.02650e-06;-0.010283385068799349
5.02675e-06;-0.010294756188733354
5.02700e-06;-0.010306127308667323
5.02725e-06;-0.01031749842860129
5.02750e-06;-0.010328869548535296
5.02775e-06;-0.010340240668469263
5.02800e-06;-0.010351611788403232
5.02825e-06;-0.010362982908337237
5.02850e-06;-0.01037613940664727
5.02875e-06;-0.010392608695922049
5.02900e-06;-0.010409077985196885
5.02925e-06;-0.010425547274471664
5.02950e-06;-0.010442016563746501
5.02975e-06;-0.01045848585302128
5.03000e-06;-0.01047495514229606
5.03025e-06;-0.010491424431570896
5.03050e-06;-0.010507893720845676
5.03075e-06;-0.010524769661556419
5.03100e-06;-0.010541717251802097
5.03125e-06;-0.010558664842047717
5.03150e-06;-0.010572606393045263
5.03175e-06;-0.012280127206878377
5.03200e-06;-0.017213048049865152
5.03225e-06;-0.0201034395489645
5.03250e-06;-0.019911530639983736
5.03275e-06;-0.017779197333436157
5.03300e-06;-0.014029592540844078
5.03325e-06;-0.011478825353829148
5.03350e-06;-0.010943537688343833
5.03375e-06;-0.012167961561716095
5.03400e-06;-0.015044850445823637
5.03425e-06;-0.01685735358391382
5.03450e-06;-0.016747008158431418
5.03475e-06;-0.015381029226932926
5.03500e-06;-0.013013372350074714
5.03525e-06;-0.011357827144426052
5.03550e-06;-0.010996493204353044
5.03575e-06;-0.011759292780155152
5.03600e-06;-0.01355603565337304
5.03625e-06;-0.01488466446088971
5.03650e-06;-0.014865907540754921
5.03675e-06;-0.013960963243652424
5.03700e-06;-0.012143477800761814
5.03725e-06;-0.010651332213509803
5.03750e-06;-0.010065957658289056
5.03775e-06;-0.010428398025704133
5.03800e-06;-0.011667194767846282
5.03825e-06;-0.012736468463977859
5.03850e-06;-0.013054502691284319
5.03875e-06;-0.012569271157747218
5.03900e-06;-0.01143993251463377
5.03925e-06;-0.0105101169041081
5.03950e-06;-0.010148458731666383
5.03975e-06;-0.010380602890730315
5.04000e-06;-0.011161684366699278
5.04025e-06;-0.01183649920452715
5.04050e-06;-0.012040641349913337
5.04075e-06;-0.01174152080502747
5.04100e-06;-0.011038834603806514
5.04125e-06;-0.010461003241709142
5.04150e-06;-0.010238876722699615
5.04175e-06;-0.010388447322699019
5.04200e-06;-0.01088154268527434
5.04225e-06;-0.01130769253693012
5.04250e-06;-0.011438615424435144
5.04275e-06;-0.011253890209365036
5.04300e-06;-0.010815958128025318
5.04325e-06;-0.010455746516344306
5.04350e-06;-0.010317115350218665
5.04375e-06;-0.010408626735812648
5.04400e-06;-0.010711734268814499
5.04425e-06;-0.010969293618835039
5.04450e-06;-0.011038515266331036
5.04475e-06;-0.01090682483900517
5.04500e-06;-0.010613555171101435
5.04525e-06;-0.01036620484519945
5.04550e-06;-0.010255079741007367
5.04575e-06;-0.010285732885074702
5.04600e-06;-0.01044673816839014
5.04625e-06;-0.010577215996130967
5.04650e-06;-0.010587934309071772
5.04675e-06;-0.010471230207163118
5.04700e-06;-0.010251953612145728
5.04725e-06;-0.010060290170648476
5.04750e-06;-0.009953003260825832
5.04775e-06;-0.009933767724408345
5.04800e-06;-0.009995621227937061
5.04825e-06;-0.01003799042710953
5.04850e-06;-0.01000518715658316
5.04875e-06;-0.009892622827303603
5.04900e-06;-0.009716073897524862
5.04925e-06;-0.00955729279550832
5.04950e-06;-0.00945203859321142
5.04975e-06;-0.009402811194159297
5.05000e-06;-0.009405447288540253
5.05025e-06;-0.009397150847466194
5.05050e-06;-0.009343244792618883
5.05075e-06;-0.00924106301928566
5.05100e-06;-0.009100697262021675
5.05125e-06;-0.008973560453913104
5.05150e-06;-0.008882254841797778
5.05175e-06;-0.008828547694489907
5.05200e-06;-0.008810030594602615
5.05225e-06;-0.008787571326843512
5.05250e-06;-0.0087396539922905
5.05275e-06;-0.008664815973995101
5.05300e-06;-0.008569583868433806
5.05325e-06;-0.008486345845724923
5.05350e-06;-0.008429132913691038
5.05375e-06;-0.008398488658639177
5.05400e-06;-0.00839240764956559
5.05425e-06;-0.00838616094952079
5.05450e-06;-0.008366139459137736
5.05475e-06;-0.008331295937229371
5.05500e-06;-0.008285591397371053
5.05525e-06;-0.008249181522691383
5.05550e-06;-0.008230723414857933
5.05575e-06;-0.008230424995640369
5.05600e-06;-0.008247238327275261
5.05625e-06;-0.00826453298748587
5.05650e-06;-0.008274641318347159
5.05675e-06;-0.00827646887536732
5.05700e-06;-0.00827571549776315
5.05725e-06;-0.008274894071252335
5.05750e-06;-0.008289083384320857
5.05775e-06;-0.008320469105584306
5.05800e-06;-0.008352340826732904
5.05825e-06;-0.008390089227537045
5.05850e-06;-0.008423363159384016
5.05875e-06;-0.008449508863090267
5.05900e-06;-0.008475451784728756
5.05925e-06;-0.008503414843282703
5.05950e-06;-0.008541615450840848
5.05975e-06;-0.008580111203801291
5.06000e-06;-0.008627599824320643
5.06025e-06;-0.008675349198382466
5.06050e-06;-0.008716886108381946
5.06075e-06;-0.008758242884291747
5.06100e-06;-0.008794459715065895
5.06125e-06;-0.008830527510074316
5.06150e-06;-0.008871279995349018
5.06175e-06;-0.008912168316003648
5.06200e-06;-0.008955267292758569
5.06225e-06;-0.008998430368801843
5.06250e-06;-0.00903377039223375
5.06275e-06;-0.00906888358160319
5.06300e-06;-0.009095900686117108
5.06325e-06;-0.009122683039836184
5.06350e-06;-0.00914946539355535
5.06375e-06;-0.009173622414025036
5.06400e-06;-0.00919770331139601
5.06425e-06;-0.009221784208767065
5.06450e-06;-0.009235097981530152
5.06475e-06;-0.009248099555112643
5.06500e-06;-0.009261101128695177
5.06525e-06;-0.009262914564965818
5.06550e-06;-0.009264403594542198
5.06575e-06;-0.009265892624118584
5.06600e-06;-0.009267381653694966
5.06625e-06;-0.009268870683271346
5.06650e-06;-0.009270359712847733
5.06675e-06;-0.009257762541311452
5.06700e-06;-0.009244756931997803
5.06725e-06;-0.009231751322684112
5.06750e-06;-0.009218745713370466
5.06775e-06;-0.009205740104056774
5.06800e-06;-0.009192734494743128
5.06825e-06;-0.009169969476073049
5.06850e-06;-0.009146921477525417
5.06875e-06;-0.009123873478977862
5.06900e-06;-0.009100825480430308
5.06925e-06;-0.009077777481882677
5.06950e-06;-0.009049886585213576
5.06975e-06;-0.00902185526583377
5.07000e-06;-0.008993823946453868
5.07025e-06;-0.008965792627074061
5.07050e-06;-0.008937761307694254
5.07075e-06;-0.008907975854194328
5.07100e-06;-0.00887813953853266
5.07125e-06;-0.008848778389484176
5.07150e-06;-0.00881943101817408
5.07175e-06;-0.008791334013866212
5.07200e-06;-0.008764372030918496
5.07225e-06;-0.008738373233912765
5.07250e-06;-0.008713337293232627
5.07275e-06;-0.008689448071184994
5.07300e-06;-0.008666963412276685
5.07325e-06;-0.00864640743865079
5.07350e-06;-0.00862841511453336
5.07375e-06;-0.008613776449204363
5.07400e-06;-0.00860294736117543
5.07425e-06;-0.008595754879743735
5.07450e-06;-0.008592027995525331
5.07475e-06;-0.008593362086131581
5.07500e-06;-0.008594840095057501
5.07525e-06;-0.008603269112725008
5.07550e-06;-0.00861189967902397
5.07575e-06;-0.00863037328400369
5.07600e-06;-0.008649132293742453
5.07625e-06;-0.00866789130348128
5.07650e-06;-0.008700597645005104
5.07675e-06;-0.008733708397706864
5.07700e-06;-0.008766819150408736
5.07725e-06;-0.008799929903110494
5.07750e-06;-0.008833040655812254
5.07775e-06;-0.008880754862426517
5.07800e-06;-0.008928892504869697
5.07825e-06;-0.008977030147312878
5.07850e-06;-0.00902516778975622
5.07875e-06;-0.0090733054321994
5.07900e-06;-0.009129413745682265
5.07925e-06;-0.009185753173511245
5.07950e-06;-0.009242092601340034
5.07975e-06;-0.009301915980946148
5.08000e-06;-0.009361840379805694
5.08025e-06;-0.009421764778665034
5.08050e-06;-0.009482387597022723
5.08075e-06;-0.00954303066646881
5.08100e-06;-0.009603673735914897
5.08125e-06;-0.009662048676727469
5.08150e-06;-0.00972035785180157
5.08175e-06;-0.00977866702687567
5.08200e-06;-0.009833108798258059
5.08225e-06;-0.009887438431970827
5.08250e-06;-0.009936905527341732
5.08275e-06;-0.009986231630522547
5.08300e-06;-0.010027314422619938
5.08325e-06;-0.010068158195011417
5.08350e-06;-0.010109001967403034
5.08375e-06;-0.010138422432719743
5.08400e-06;-0.010167511672456142
5.08425e-06;-0.010196600912192638
5.08450e-06;-0.010213597689585583
5.08475e-06;-0.010230243838843403
5.08500e-06;-0.010246889988101276
5.08525e-06;-0.010245758872162988
5.08550e-06;-0.010244112293851063
5.08575e-06;-0.010242465715539143
5.08600e-06;-0.010240819137227224
5.08625e-06;-0.010239172558915299
5.08650e-06;-0.010227446211599702
5.08675e-06;-0.010204436109414359
5.08700e-06;-0.010181426007228938
5.08725e-06;-0.010158415905043594
5.08750e-06;-0.010135405802858252
5.08775e-06;-0.01011239570067283
5.08800e-06;-0.010073856166208118
5.08825e-06;-0.01003486634662184
5.08850e-06;-0.009995876527035432
5.08875e-06;-0.009956886707449155
5.08900e-06;-0.009917896887862878
5.08925e-06;-0.009869836001868056
5.08950e-06;-0.009821512094909954
5.08975e-06;-0.009773188187951688
5.09000e-06;-0.009724864280993584
5.09025e-06;-0.00967654037403548
5.09050e-06;-0.009625578070516774
5.09075e-06;-0.00957453926512141
5.09100e-06;-0.009523505437661993
5.09125e-06;-0.009472855508148255
5.09150e-06;-0.009422904566038797
5.09175e-06;-0.009373995403334204
5.09200e-06;-0.009326475298381402
5.09225e-06;-0.009280682583708417
5.09250e-06;-0.0092445104785601
5.09275e-06;-0.009208615909550435
5.09300e-06;-0.009172721340540892
5.09325e-06;-0.00913682677153135
5.09350e-06;-0.009100932202521686
5.09375e-06;-0.009065037633512144
5.09400e-06;-0.00902914306450248
5.09425e-06;-0.008993248495492937
5.09450e-06;-0.008966450878158958
5.09475e-06;-0.008939917032346785
5.09500e-06;-0.008913383186534703
5.09525e-06;-0.00888684934072262
5.09550e-06;-0.00886031549491045
5.09575e-06;-0.008833781649098368
5.09600e-06;-0.008807247803286285
5.09625e-06;-0.008780713957474113
5.09650e-06;-0.008756804087292947
5.09675e-06;-0.008732970300845104
5.09700e-06;-0.00870913651439718
5.09725e-06;-0.008685302727949337
5.09750e-06;-0.008661468941501495
5.09775e-06;-0.008637635155053572
5.09800e-06;-0.008615132740202085
5.09825e-06;-0.008592668929261426
5.09850e-06;-0.008570205118320842
5.09875e-06;-0.008547741307380258
5.09900e-06;-0.008525277496439599
5.09925e-06;-0.008502813685499015
5.09950e-06;-0.008481656809014687
5.09975e-06;-0.008460537827871779
5.10000e-06;-0.00843941884672894
5.10025e-06;-0.008418917431336785
5.10050e-06;-0.008398433922630623
5.10075e-06;-0.00837795041392453
5.10100e-06;-0.008358711841745164
5.10125e-06;-0.00833950936724039
5.10150e-06;-0.008321579434179943
5.10175e-06;-0.008303686399215143
5.10200e-06;-0.008286862262860297
5.10225e-06;-0.008270069119856118
5.10250e-06;-0.008254265681026357
5.10275e-06;-0.008239301890277483
5.10300e-06;-0.008225285699463382
5.10325e-06;-0.008212338049302157
5.10350e-06;-0.008200624360612502
5.10375e-06;-0.008191085182905393
5.10400e-06;-0.008181608044386075
5.10425e-06;-0.008175162921399035
5.10450e-06;-0.00816880571350471
5.10475e-06;-0.00816550948367905
5.10500e-06;-0.008162302008732074
5.10525e-06;-0.008163004174509728
5.10550e-06;-0.008163819702644235
5.10575e-06;-0.008164635230778742
5.10600e-06;-0.008171735931011132
5.10625e-06;-0.008179018873544651
5.10650e-06;-0.008186301816078144
5.10675e-06;-0.008193584758611662
5.10700e-06;-0.008200867701145155
5.10725e-06;-0.008214891130984671
5.10750e-06;-0.008229110005260403
5.10775e-06;-0.008243328879536087
5.10800e-06;-0.008257547753811772
5.10825e-06;-0.008271766628087504
5.10850e-06;-0.008289331218368187
5.10875e-06;-0.008309521611135068
5.10900e-06;-0.008329785327713621
5.10925e-06;-0.008350049044292105
5.10950e-06;-0.008370312760870588
5.10975e-06;-0.00839057647744914
5.11000e-06;-0.008410840194027623
5.11025e-06;-0.008432580999963949
5.11050e-06;-0.008454364634984278
5.11075e-06;-0.008476148270004534
5.11100e-06;-0.008497931905024864
5.11125e-06;-0.00851971554004512
5.11150e-06;-0.008541499175065376
5.11175e-06;-0.008561598457576532
5.11200e-06;-0.008581648901285429
5.11225e-06;-0.008601699344994326
5.11250e-06;-0.008618988090177583
5.11275e-06;-0.00863619675827047
5.11300e-06;-0.008653405426363356
5.11325e-06;-0.008667537730040009
5.11350e-06;-0.008681580832701779
5.11375e-06;-0.008695623935363547
5.11400e-06;-0.008710711499495328
5.11425e-06;-0.008725829348408203
5.11450e-06;-0.008740947197321079
5.11475e-06;-0.008758247235437087
5.11500e-06;-0.008775610547426052
5.11525e-06;-0.008792973859415078
5.11550e-06;-0.008810337171404045
5.11575e-06;-0.008827700483393012
5.11600e-06;-0.008845063795382038
5.11625e-06;-0.008862427107371004
5.11650e-06;-0.00888460156213019
5.11675e-06;-0.008906915518833724
5.11700e-06;-0.008929229475537183
5.11725e-06;-0.008951543432240642
5.11750e-06;-0.008973857388944175
5.11775e-06;-0.008996171345647635
5.11800e-06;-0.009018485302351092
5.11825e-06;-0.009044784297192054
5.11850e-06;-0.009071198840582323
5.11875e-06;-0.00909761338397259
5.11900e-06;-0.009124027927362948
5.11925e-06;-0.009150442470753216
5.11950e-06;-0.009176857014143574
5.11975e-06;-0.009203271557533843
5.12000e-06;-0.009229499904880369
5.12025e-06;-0.009255519815851786
5.12050e-06;-0.009281539726823116
5.12075e-06;-0.009307559637794446
5.12100e-06;-0.009333579548765862
5.12125e-06;-0.009359599459737192
5.12150e-06;-0.009385619370708522
5.12175e-06;-0.00941163928167994
5.12200e-06;-0.009431641105133611
5.12225e-06;-0.009451468430562847
5.12250e-06;-0.00947129575599215
5.12275e-06;-0.009491123081421384
5.12300e-06;-0.00951095040685062
5.12325e-06;-0.009530777732279921
5.12350e-06;-0.009550605057709157
5.12375e-06;-0.009563763500531315
5.12400e-06;-0.009576728575138619
5.12425e-06;-0.009589693649745924
5.12450e-06;-0.009602658724353272
5.12475e-06;-0.009615623798960575
5.12500e-06;-0.00962858887356788
5.12525e-06;-0.009641553948175228
5.12550e-06;-0.009647685231749761
5.12575e-06;-0.009653618365491745
5.12600e-06;-0.009659551499233749
5.12625e-06;-0.009665484632975733
5.12650e-06;-0.009671417766717717
5.12675e-06;-0.009677350900459722
5.12700e-06;-0.009683284034201706
5.12725e-06;-0.00968921716794369
5.12750e-06;-0.009695150301685693
5.12775e-06;-0.009701083435427678
5.12800e-06;-0.009707016569169682
5.12825e-06;-0.009712949702911667
5.12850e-06;-0.009718882836653649
5.12875e-06;-0.009724815970395654
5.12900e-06;-0.009730749104137638
5.12925e-06;-0.009736682237879622
5.12950e-06;-0.009742615371621625
5.12975e-06;-0.00974854850536361
5.13000e-06;-0.009754481639105594
5.13025e-06;-0.009760414772847599
5.13050e-06;-0.009766347906589583
5.13075e-06;-0.009772281040331567
5.13100e-06;-0.00977821417407357
5.13125e-06;-0.009784147307815554
5.13150e-06;-0.009790080441557538
5.13175e-06;-0.009796013575299542
5.13200e-06;-0.009797005602856259
5.13225e-06;-0.009797854360102626
5.13250e-06;-0.009798703117348992
5.13275e-06;-0.009799551874595358
5.13300e-06;-0.009800400631841727
5.13325e-06;-0.009801249389088093
5.13350e-06;-0.009802098146334459
5.13375e-06;-0.009802946903580828
5.13400e-06;-0.009803795660827194
5.13425e-06;-0.00980464441807356
5.13450e-06;-0.009805493175319929
5.13475e-06;-0.009806341932566295
5.13500e-06;-0.00980719068981266
5.13525e-06;-0.00980803944705903
5.13550e-06;-0.009808888204305396
5.13575e-06;-0.009809736961551761
5.13600e-06;-0.00981058571879813
5.13625e-06;-0.009811434476044496
5.13650e-06;-0.009812283233290866
5.13675e-06;-0.009813131990537231
5.13700e-06;-0.009813980747783597
5.13725e-06;-0.009814829505029965
5.13750e-06;-0.009815678262276332
5.13775e-06;-0.009816527019522698
5.13800e-06;-0.009817375776769065
5.13825e-06;-0.009818224534015431
5.13850e-06;-0.009817905697238982
5.13875e-06;-0.009817553005379974
5.13900e-06;-0.009817200313520968
5.13925e-06;-0.00981684762166196
5.13950e-06;-0.009816494929802952
5.13975e-06;-0.009816142237943946
5.14000e-06;-0.009815789546084938
5.14025e-06;-0.00981543685422593
5.14050e-06;-0.009815084162366924
5.14075e-06;-0.009814731470507916
5.14100e-06;-0.009813971221456545
5.14125e-06;-0.009813199155042189
5.14150e-06;-0.00981242708862783
5.14175e-06;-0.009811655022213473
5.14200e-06;-0.009810882955799117
5.14225e-06;-0.009810110889384759
5.14250e-06;-0.009809338822970403
5.14275e-06;-0.009808566756556046
5.14300e-06;-0.009807794690141687
5.14325e-06;-0.00980702262372733
5.14350e-06;-0.009803333582118115
5.14375e-06;-0.009799559961079715
5.14400e-06;-0.009795786340041327
5.14425e-06;-0.00979201271900294
5.14450e-06;-0.00978823909796454
5.14475e-06;-0.009784465476926152
5.14500e-06;-0.009780691855887752
5.14525e-06;-0.009776918234849365
5.14550e-06;-0.009773144613810977
5.14575e-06;-0.009766527865957273
5.14600e-06;-0.009756728391793215
5.14625e-06;-0.009746928917629159
5.14650e-06;-0.009737129443465067
5.14675e-06;-0.009727329969301009
5.14700e-06;-0.009717530495136953
5.14725e-06;-0.009707731020972861
