Time(s);Current(A)
1.50000e-06;-0.011854925051570228
1.50025e-06;-0.011789457339987689
1.50050e-06;-0.011726033132253953
1.50075e-06;-0.011665096405273395
1.50100e-06;-0.011607090732555144
1.50125e-06;-0.01155303949124569
1.50150e-06;-0.011503099180827042
1.50175e-06;-0.011455391739040217
1.50200e-06;-0.011413329486280247
1.50225e-06;-0.01137318374170108
1.50250e-06;-0.011337883356494141
1.50275e-06;-0.011304599653678344
1.50300e-06;-0.011276414572941469
1.50325e-06;-0.011250992971794486
1.50350e-06;-0.011232558062311689
1.50375e-06;-0.011214123152828891
1.50400e-06;-0.011199838032101964
1.50425e-06;-0.011196044501258488
1.50450e-06;-0.011192250970415011
1.50475e-06;-0.011188457439571538
1.50500e-06;-0.011184663908728062
1.50525e-06;-0.011180870377884585
1.50550e-06;-0.01118979872034716
1.50575e-06;-0.011202243899246069
1.50600e-06;-0.011214689078144968
1.50625e-06;-0.011227134257043877
1.50650e-06;-0.011239579435942776
1.50675e-06;-0.011255464917878086
1.50700e-06;-0.011280048251838051
1.50725e-06;-0.011304631585797996
1.50750e-06;-0.011329214919757961
1.50775e-06;-0.011353798253717906
1.50800e-06;-0.01137838158767785
1.50825e-06;-0.011402964921637816
1.50850e-06;-0.011431739445816755
1.50875e-06;-0.011461672583206111
1.50900e-06;-0.011491605720595443
1.50925e-06;-0.011521538857984775
1.50950e-06;-0.011551471995374131
1.50975e-06;-0.011581405132763463
1.51000e-06;-0.01161085289512153
1.51025e-06;-0.01163907352133667
1.51050e-06;-0.011667294147551834
1.51075e-06;-0.011694582674076236
1.51100e-06;-0.01171951464505998
1.51125e-06;-0.011743431279811027
1.51150e-06;-0.011764780918511512
1.51175e-06;-0.011785912523225736
1.51200e-06;-0.011806492889479589
1.51225e-06;-0.011828562538724476
1.51250e-06;-0.01185439742694433
1.51275e-06;-0.011881932769086223
1.51300e-06;-0.011913767237331757
1.51325e-06;-0.011945601705577263
1.51350e-06;-0.011980664713394453
1.51375e-06;-0.012023890188050118
1.51400e-06;-0.012067115662705746
1.51425e-06;-0.01211034113736141
1.51450e-06;-0.012153566612017039
1.51475e-06;-0.012196792086672703
1.51500e-06;-0.012245059927215718
1.51525e-06;-0.012306075991352939
1.51550e-06;-0.012367092055490211
1.51575e-06;-0.012428108119627431
1.51600e-06;-0.012489124183764704
1.51625e-06;-0.012550140247901924
1.51650e-06;-0.012615032648899146
1.51675e-06;-0.01268972529250496
1.51700e-06;-0.012764417936110712
1.51725e-06;-0.012839110579716526
1.51750e-06;-0.012913803223322275
1.51775e-06;-0.012988495866928027
1.51800e-06;-0.01306318851053384
1.51825e-06;-0.013140322591475935
1.51850e-06;-0.0132181315836968
1.51875e-06;-0.013295940575917601
1.51900e-06;-0.013373749568138468
1.51925e-06;-0.013451558560359267
1.51950e-06;-0.013529367552580067
1.51975e-06;-0.01360536801467924
1.52000e-06;-0.013676796109980233
1.52025e-06;-0.013748224205281285
1.52050e-06;-0.013813689259536579
1.52075e-06;-0.01386407841841917
1.52100e-06;-0.013914467577301803
1.52125e-06;-0.013964856736184394
1.52150e-06;-0.014015245895067027
1.52175e-06;-0.014065635053949617
1.52200e-06;-0.014116024212832208
1.52225e-06;-0.014166413371714842
1.52250e-06;-0.014216802530597433
1.52275e-06;-0.014267191689480065
1.52300e-06;-0.014292973440459262
1.52325e-06;-0.014311952716156436
1.52350e-06;-0.014330931991853592
1.52375e-06;-0.014349911267550749
1.52400e-06;-0.014368890543247921
1.52425e-06;-0.01438786981894508
1.52450e-06;-0.014406849094642252
1.52475e-06;-0.014425828370339408
1.52500e-06;-0.014444807646036565
1.52525e-06;-0.014458469309819597
1.52550e-06;-0.014458686866773027
1.52575e-06;-0.014458904423726457
1.52600e-06;-0.014459121980679886
1.52625e-06;-0.014459339537633318
1.52650e-06;-0.014457058678508914
1.52675e-06;-0.014448461267293608
1.52700e-06;-0.014439863856078296
1.52725e-06;-0.01443126644486299
1.52750e-06;-0.014422669033647677
1.52775e-06;-0.014412823971779063
1.52800e-06;-0.0143991062246289
1.52825e-06;-0.014383572337205884
1.52850e-06;-0.01436803844978288
1.52875e-06;-0.014352504562359866
1.52900e-06;-0.014336970674936863
1.52925e-06;-0.01432143678751386
1.52950e-06;-0.014305902900090844
1.52975e-06;-0.014289935503196892
1.53000e-06;-0.01427384826688416
1.53025e-06;-0.014257761030571442
1.53050e-06;-0.014241673794258723
1.53075e-06;-0.01422558655794599
1.53100e-06;-0.014209499321633273
1.53125e-06;-0.01419416531578765
1.53150e-06;-0.014180735644261694
1.53175e-06;-0.0141662042763909
1.53200e-06;-0.014148887574879358
1.53225e-06;-0.014131570873367815
1.53250e-06;-0.0141107059722874
1.53275e-06;-0.014080870432727877
1.53300e-06;-0.014051034893168328
1.53325e-06;-0.014018159108116985
1.53350e-06;-0.013977596905583898
1.53375e-06;-0.013937034703050778
1.53400e-06;-0.013891020313444202
1.53425e-06;-0.01383122158104421
1.53450e-06;-0.01377142284864427
1.53475e-06;-0.013711624116244329
1.53500e-06;-0.013651825383844338
1.53525e-06;-0.013585957757264332
1.53550e-06;-0.013504746615022309
1.53575e-06;-0.013423535472780353
1.53600e-06;-0.01334232433053833
1.53625e-06;-0.013261113188296375
1.53650e-06;-0.013175726967979105
1.53675e-06;-0.01307978522075072
1.53700e-06;-0.012983843473522416
1.53725e-06;-0.012886301886521618
1.53750e-06;-0.012784715548388998
1.53775e-06;-0.012682342202592725
1.53800e-06;-0.012577979126203802
1.53825e-06;-0.012473084690959714
1.53850e-06;-0.01236667475791928
1.53875e-06;-0.01225983709785168
1.53900e-06;-0.012153204482180236
1.53925e-06;-0.012047407555719453
1.53950e-06;-0.011943068626079446
1.53975e-06;-0.01184073670414107
1.54000e-06;-0.011740764247023769
1.54025e-06;-0.011643425438269314
1.54050e-06;-0.01154919061712205
1.54075e-06;-0.011458700583548042
1.54100e-06;-0.011372621900546897
1.54125e-06;-0.011291620991686938
1.54150e-06;-0.011216357696344118
1.54175e-06;-0.011147395283664813
1.54200e-06;-0.011084997639281894
1.54225e-06;-0.011029156814486393
1.54250e-06;-0.010979897208904119
1.54275e-06;-0.010937360184536732
1.54300e-06;-0.010901708847366945
1.54325e-06;-0.010874144502266158
1.54350e-06;-0.010854336202426646
1.54375e-06;-0.010838628446122739
1.54400e-06;-0.010833287776818601
1.54425e-06;-0.010832719878513933
1.54450e-06;-0.010844218607901851
1.54475e-06;-0.01085571733728978
1.54500e-06;-0.01087420369518877
1.54525e-06;-0.01091035633368377
1.54550e-06;-0.010946508972178737
1.54575e-06;-0.010982661610673737
1.54600e-06;-0.011018814249168705
1.54625e-06;-0.011061918845885015
1.54650e-06;-0.011122599540763167
1.54675e-06;-0.011183280235641269
1.54700e-06;-0.011243960930519421
1.54725e-06;-0.011304641625397523
1.54750e-06;-0.011369094167458306
1.54775e-06;-0.011443082778957838
1.54800e-06;-0.011517071390457306
1.54825e-06;-0.011592496756179037
1.54850e-06;-0.011671554556452137
1.54875e-06;-0.011750612356725237
1.54900e-06;-0.011829882559759896
1.54925e-06;-0.011909689764264705
1.54950e-06;-0.011989496968769579
1.54975e-06;-0.012068554032535737
1.55000e-06;-0.012145714573503982
1.55025e-06;-0.01222153774256938
1.55050e-06;-0.01229397973771327
1.55075e-06;-0.012360641317618472
1.55100e-06;-0.012412688720853658
1.55125e-06;-0.012464736124088889
1.55150e-06;-0.012516783527324077
1.55175e-06;-0.012568830930559263
1.55200e-06;-0.012620878333794494
1.55225e-06;-0.01267292573702968
1.55250e-06;-0.012724973140264911
1.55275e-06;-0.0127770205435001
1.55300e-06;-0.012829067946735285
1.55325e-06;-0.01286480992197033
1.55350e-06;-0.012896044422409872
1.55375e-06;-0.012927278922849441
1.55400e-06;-0.012958513423288983
1.55425e-06;-0.012989747923728551
1.55450e-06;-0.013020982424168093
1.55475e-06;-0.013052216924607635
1.55500e-06;-0.013083451425047203
1.55525e-06;-0.013114685925486745
1.55550e-06;-0.01314268788648351
1.55575e-06;-0.013162517268079469
1.55600e-06;-0.013182346649675426
1.55625e-06;-0.013202176031271402
1.55650e-06;-0.01322200541286736
1.55675e-06;-0.013241834794463335
1.55700e-06;-0.013261664176059293
1.55725e-06;-0.013281493557655252
1.55750e-06;-0.013301322939251226
1.55775e-06;-0.013321152320847185
1.55800e-06;-0.013340981702443161
1.55825e-06;-0.013358667723085454
1.55850e-06;-0.013370934850041235
1.55875e-06;-0.013383201976997003
1.55900e-06;-0.013395469103952774
1.55925e-06;-0.013407736230908553
1.55950e-06;-0.013420003357864321
1.55975e-06;-0.013432270484820102
1.56000e-06;-0.01344453761177587
1.56025e-06;-0.01345680473873164
1.56050e-06;-0.01346907186568742
1.56075e-06;-0.013481338992643189
1.56100e-06;-0.013492452406414408
1.56125e-06;-0.013500648976393598
1.56150e-06;-0.013508141819244987
1.56175e-06;-0.013513855483240259
1.56200e-06;-0.013516551338654703
1.56225e-06;-0.013511617502095246
1.56250e-06;-0.01350668366553579
1.56275e-06;-0.013497470626033872
1.56300e-06;-0.013477438808776467
1.56325e-06;-0.013457406991519063
1.56350e-06;-0.013433296319740025
1.56375e-06;-0.013398873395618804
1.56400e-06;-0.013364450471497554
1.56425e-06;-0.01332387490632365
1.56450e-06;-0.01326774409475158
1.56475e-06;-0.013211613283179463
1.56500e-06;-0.013155482471607393
1.56525e-06;-0.013099351660035275
1.56550e-06;-0.013026144381828624
1.56575e-06;-0.012948216482799096
1.56600e-06;-0.012870288583769504
1.56625e-06;-0.012792360684739976
1.56650e-06;-0.01271000271286931
1.56675e-06;-0.012616444530550304
1.56700e-06;-0.01252288634823122
1.56725e-06;-0.012427390100698288
1.56750e-06;-0.012326993992816027
1.56775e-06;-0.012225575817627253
1.56800e-06;-0.01212157362873608
1.56825e-06;-0.012016943338306687
1.56850e-06;-0.011910500698234943
1.56875e-06;-0.011803443553593222
1.56900e-06;-0.011696397877683652
1.56925e-06;-0.011589991521353291
1.56950e-06;-0.011484845582026152
1.56975e-06;-0.01138152532669801
1.57000e-06;-0.011280449341726909
1.57025e-06;-0.011181986630990588
1.57050e-06;-0.011086660459453251
1.57075e-06;-0.010995127753327083
1.57100e-06;-0.010908063318083586
1.57125e-06;-0.010826142502020795
1.57150e-06;-0.01075001383877589
1.57175e-06;-0.010680036121497321
1.57200e-06;-0.010615759287009469
1.57225e-06;-0.010556272888320204
1.57250e-06;-0.010501213221267817
1.57275e-06;-0.010451508380882144
1.57300e-06;-0.010407108042798638
1.57325e-06;-0.010365773378707132
1.57350e-06;-0.01033218942100521
1.57375e-06;-0.010302195677089338
1.57400e-06;-0.010281278792945192
1.57425e-06;-0.010260361908801044
1.57450e-06;-0.010244214883257963
1.57475e-06;-0.010240127122213461
1.57500e-06;-0.010236039361168956
1.57525e-06;-0.010231951600124453
1.57550e-06;-0.010227863839079952
1.57575e-06;-0.01022898270851236
1.57600e-06;-0.010243265098987632
1.57625e-06;-0.010257547489462919
1.57650e-06;-0.010271829879938191
1.57675e-06;-0.010286112270413476
1.57700e-06;-0.010304234997843968
1.57725e-06;-0.010332066952104636
1.57750e-06;-0.010359898906365326
1.57775e-06;-0.010387730860625992
1.57800e-06;-0.010415562814886684
1.57825e-06;-0.01044339476914735
1.57850e-06;-0.010472988592876419
1.57875e-06;-0.010507036814881816
1.57900e-06;-0.010541085036887183
1.57925e-06;-0.010575133258892578
1.57950e-06;-0.010609181480897945
1.57975e-06;-0.010643229702903313
1.58000e-06;-0.010676842296875443
1.58025e-06;-0.010709353526191836
1.58050e-06;-0.010741864755508257
1.58075e-06;-0.010773319162302416
1.58100e-06;-0.010802101686470932
1.58125e-06;-0.010829727521864356
1.58150e-06;-0.010854428990510883
1.58175e-06;-0.01087865004528919
1.58200e-06;-0.010901656506849915
1.58225e-06;-0.010925974603856426
1.58250e-06;-0.010953608807290417
1.58275e-06;-0.010981243010724407
1.58300e-06;-0.011010085639811618
1.58325e-06;-0.011041983437992198
1.58350e-06;-0.011073881236172804
1.58375e-06;-0.011108476946047115
1.58400e-06;-0.011149893577342243
1.58425e-06;-0.011191310208637407
1.58450e-06;-0.011232726839932535
1.58475e-06;-0.011274143471227698
1.58500e-06;-0.011315560102522826
1.58525e-06;-0.011356976733817989
1.58550e-06;-0.011409117617145557
1.58575e-06;-0.01146422311420318
1.58600e-06;-0.011519328611260853
1.58625e-06;-0.011574434108318477
1.58650e-06;-0.01162953960537615
1.58675e-06;-0.011684645102433774
1.58700e-06;-0.011742105625286495
1.58725e-06;-0.011805520177668609
1.58750e-06;-0.01186893473005067
1.58775e-06;-0.011932349282432784
1.58800e-06;-0.011995763834814845
1.58825e-06;-0.012059178387196905
1.58850e-06;-0.012122592939579018
1.58875e-06;-0.012185314851307066
1.58900e-06;-0.012246285613253388
1.58925e-06;-0.012307256375199657
1.58950e-06;-0.012368227137145978
1.58975e-06;-0.012429197899092248
1.59000e-06;-0.012490168661038517
1.59025e-06;-0.012551139422984837
1.59050e-06;-0.012606721963423983
1.59075e-06;-0.012648681880268107
1.59100e-06;-0.012690641797112196
1.59125e-06;-0.012732601713956286
1.59150e-06;-0.012774561630800412
1.59175e-06;-0.012816521547644502
1.59200e-06;-0.012858481464488626
1.59225e-06;-0.012900441381332716
1.59250e-06;-0.012942401298176805
1.59275e-06;-0.012962501565645027
1.59300e-06;-0.012976558948586273
1.59325e-06;-0.01299061633152753
1.59350e-06;-0.013004673714468775
1.59375e-06;-0.013018731097410032
1.59400e-06;-0.013032788480351278
1.59425e-06;-0.013046845863292522
1.59450e-06;-0.01306090324623378
1.59475e-06;-0.013068226822945676
1.59500e-06;-0.01305852583830639
1.59525e-06;-0.01304882485366711
1.59550e-06;-0.01303912386902783
1.59575e-06;-0.013029422884388542
1.59600e-06;-0.013019721899749263
1.59625e-06;-0.013010020915109975
1.59650e-06;-0.013000319930470695
1.59675e-06;-0.012990618945831416
1.59700e-06;-0.012969410058947185
1.59725e-06;-0.012945019925958983
1.59750e-06;-0.01292062979297076
1.59775e-06;-0.012896239659982559
1.59800e-06;-0.012871849526994337
1.59825e-06;-0.012847459394006135
1.59850e-06;-0.012823069261017932
1.59875e-06;-0.01279867912802971
1.59900e-06;-0.012773321015442384
1.59925e-06;-0.012745515634919156
1.59950e-06;-0.01271771025439595
1.59975e-06;-0.012689904873872747
1.60000e-06;-0.012662099493349517
1.60025e-06;-0.012635246968860231
1.60050e-06;-0.012610803476566852
1.60075e-06;-0.012586359984273494
1.60100e-06;-0.012561916491980137
1.60125e-06;-0.012537472999686758
1.60150e-06;-0.012514078739079804
1.60175e-06;-0.012493337169775133
1.60200e-06;-0.012472595600470482
1.60225e-06;-0.012451854031165811
1.60250e-06;-0.01243111246186116
1.60275e-06;-0.012410252286480567
1.60300e-06;-0.012386215948016586
1.60325e-06;-0.012362179609552626
1.60350e-06;-0.012338143271088647
1.60375e-06;-0.012314106932624688
1.60400e-06;-0.012290070594160728
1.60425e-06;-0.012268846181771672
1.60450e-06;-0.018578240600209142
1.60475e-06;-0.032459846010595025
1.60500e-06;-0.029511713051237023
1.60525e-06;-0.025991342231166135
1.60550e-06;-0.01931735976687779
1.60575e-06;-0.008025771934819362
1.60600e-06;-0.00802400799157425
1.60625e-06;-0.008834570109901066
1.60650e-06;-0.013004470258815879
1.60675e-06;-0.01909261270853649
1.60700e-06;-0.019851129218462892
1.60725e-06;-0.017319669266254105
1.60750e-06;-0.0131609946269853
1.60775e-06;-0.009206633279336192
1.60800e-06;-0.007921161155286101
1.60825e-06;-0.009160076624981113
1.60850e-06;-0.012155126617001109
1.60875e-06;-0.015185463070220496
1.60900e-06;-0.01576097604256702
1.60925e-06;-0.014226710892364606
1.60950e-06;-0.011662290097242584
1.60975e-06;-0.009217474641215596
1.61000e-06;-0.00843797346137411
1.61025e-06;-0.009234730194696065
1.61050e-06;-0.011127694322770304
1.61075e-06;-0.013039943187378531
1.61100e-06;-0.013412616615418298
1.61125e-06;-0.012462696868334943
1.61150e-06;-0.010867141191127718
1.61175e-06;-0.009346666956895875
1.61200e-06;-0.008869813574488282
1.61225e-06;-0.009380932189643951
1.61250e-06;-0.010579373138113201
1.61275e-06;-0.011790595332098712
1.61300e-06;-0.01203821633139123
1.61325e-06;-0.011458251929025278
1.61350e-06;-0.01047479755882357
1.61375e-06;-0.009539304244812712
1.61400e-06;-0.009258396289856448
1.61425e-06;-0.009597110981290536
1.61450e-06;-0.010367018327959835
1.61475e-06;-0.011145505635526735
1.61500e-06;-0.01132092708301152
1.61525e-06;-0.010978462572253307
1.61550e-06;-0.010383724968777331
1.61575e-06;-0.009819434567199517
1.61600e-06;-0.009665478973408383
1.61625e-06;-0.00989983798919844
1.61650e-06;-0.01040436636313521
1.61675e-06;-0.010914243039905153
1.61700e-06;-0.011046263687412822
1.61725e-06;-0.010853730056385243
1.61750e-06;-0.010502957349375262
1.61775e-06;-0.010170959184770529
1.61800e-06;-0.010095595681333882
1.61825e-06;-0.010262962365956653
1.61850e-06;-0.010598944966829648
1.61875e-06;-0.010937562175716611
1.61900e-06;-0.011038698458122739
1.61925e-06;-0.010935672188154257
1.61950e-06;-0.010732585886628216
1.61975e-06;-0.010540236350593951
1.62000e-06;-0.010507521114244104
1.62025e-06;-0.010625625672480283
1.62050e-06;-0.010848024235646712
1.62075e-06;-0.01107065170925401
1.62100e-06;-0.011143016270121086
1.62125e-06;-0.011085910908194992
1.62150e-06;-0.010964463189218461
1.62175e-06;-0.010847968918970618
1.62200e-06;-0.010829557918436818
1.62225e-06;-0.01090361306263438
1.62250e-06;-0.011041008838691234
1.62275e-06;-0.011176651808599605
1.62300e-06;-0.011216386151135772
1.62325e-06;-0.011173351143040536
1.62350e-06;-0.011088455126333802
1.62375e-06;-0.011005213331351023
1.62400e-06;-0.01098206581237275
1.62425e-06;-0.011015596475610007
1.62450e-06;-0.011087662287422643
1.62475e-06;-0.011157594632801407
1.62500e-06;-0.01116652393423075
1.62525e-06;-0.011122792343572628
1.62550e-06;-0.0110521350076998
1.62575e-06;-0.01098191759578431
1.62600e-06;-0.010948852418834172
1.62625e-06;-0.010950902803439747
1.62650e-06;-0.010976808567168516
1.62675e-06;-0.011001199410563656
1.62700e-06;-0.010987308367301392
1.62725e-06;-0.010940471807582525
1.62750e-06;-0.010876918554363254
1.62775e-06;-0.010813897810384967
1.62800e-06;-0.010774511273197816
1.62825e-06;-0.010757587640493812
1.62850e-06;-0.01075617875645803
1.62875e-06;-0.010754499218926562
1.62900e-06;-0.010729625253487
1.62925e-06;-0.010685008563850615
1.62950e-06;-0.010633842493922411
1.62975e-06;-0.010582867949784653
1.63000e-06;-0.010541654678219388
1.63025e-06;-0.010520421708323046
1.63050e-06;-0.01050798581980614
1.63075e-06;-0.010497916825790685
1.63100e-06;-0.01047998713458108
1.63125e-06;-0.01044774878234819
1.63150e-06;-0.010413608370249634
1.63175e-06;-0.010381306378071671
1.63200e-06;-0.01035604354054865
1.63225e-06;-0.010345213130444078
1.63250e-06;-0.010341241691951048
1.63275e-06;-0.010339727361444721
1.63300e-06;-0.010333860684349752
1.63325e-06;-0.010321084065178699
1.63350e-06;-0.01030819797559546
1.63375e-06;-0.010295311886012223
1.63400e-06;-0.010287663726158882
1.63425e-06;-0.010291480840613813
1.63450e-06;-0.010300379317373412
1.63475e-06;-0.010309277794133006
1.63500e-06;-0.010316165359773885
1.63525e-06;-0.010320123807332908
1.63550e-06;-0.01032444576496084
1.63575e-06;-0.010328767722588774
1.63600e-06;-0.010336564652450081
1.63625e-06;-0.01035192766919206
1.63650e-06;-0.010370598513727108
1.63675e-06;-0.010389269358262142
1.63700e-06;-0.010406534267129985
1.63725e-06;-0.010421589562209932
1.63750e-06;-0.010438281483985307
1.63775e-06;-0.010457545581000368
1.63800e-06;-0.010476809678015429
1.63825e-06;-0.010496073775030507
1.63850e-06;-0.010515337872045567
1.63875e-06;-0.010535796412117542
1.63900e-06;-0.01055640430412749
1.63925e-06;-0.01057701219613744
1.63950e-06;-0.010597620088147405
1.63975e-06;-0.010617201758831258
1.64000e-06;-0.010635170587018542
1.64025e-06;-0.010653139415205813
1.64050e-06;-0.010671108243393084
1.64075e-06;-0.010689077071580368
1.64100e-06;-0.010707045899767639
1.64125e-06;-0.010725014727954925
1.64150e-06;-0.010742983556142194
1.64175e-06;-0.01076095238432948
1.64200e-06;-0.010764447427226844
1.64225e-06;-0.010766132682817451
1.64250e-06;-0.010767817938408059
1.64275e-06;-0.010769503193998666
1.64300e-06;-0.010771188449589275
1.64325e-06;-0.010772873705179882
1.64350e-06;-0.01077455896077049
1.64375e-06;-0.010776244216361098
1.64400e-06;-0.010770431838268521
1.64425e-06;-0.010752835937537852
1.64450e-06;-0.010735240036807198
1.64475e-06;-0.010717644136076543
1.64500e-06;-0.010700048235345873
1.64525e-06;-0.01068245233461522
1.64550e-06;-0.010652286460527542
1.64575e-06;-0.010620548849829797
1.64600e-06;-0.010588811239132027
1.64625e-06;-0.010557073628434284
1.64650e-06;-0.01052533601773654
1.64675e-06;-0.010489762779380926
1.64700e-06;-0.010448161345030911
1.64725e-06;-0.010406559910680862
