Time(s);Current(A)
1.00000e-05;0.005939423637660943
1.00003e-05;0.005932490137160841
1.00005e-05;0.005925556636660787
1.00008e-05;0.005915610074324848
1.00010e-05;0.005905348835723201
1.00013e-05;0.005895087597121624
1.00015e-05;0.005884826358519977
1.00018e-05;0.00587456511991833
1.00020e-05;0.005864303881316753
1.00023e-05;0.005854042642715105
1.00025e-05;0.005843781404113459
1.00028e-05;0.005833520165511881
1.00030e-05;0.005823258926910235
1.00033e-05;0.0058129976883085875
1.00035e-05;0.0058027364497070105
1.00038e-05;0.005792475211105363
1.00040e-05;0.005782213972503716
1.00042e-05;0.005771952733902139
1.00045e-05;0.005761691495300492
1.00048e-05;0.0057514302566988446
1.00050e-05;0.005741169018097268
1.00053e-05;0.00573090777949562
1.00055e-05;0.005729453046292338
1.00057e-05;0.005728918041387049
1.00060e-05;0.005728383036481756
1.00063e-05;0.005727848031576464
1.00065e-05;0.005727313026671175
1.00068e-05;0.005726778021765883
1.00070e-05;0.005726243016860591
1.00073e-05;0.005725708011955298
1.00075e-05;0.005725173007050009
1.00078e-05;0.005724638002144717
1.00080e-05;0.005724102997239425
1.00083e-05;0.005723567992334136
1.00085e-05;0.005723032987428844
1.00088e-05;0.005722497982523551
1.00090e-05;0.005721962977618262
1.00093e-05;0.00572142797271297
1.00095e-05;0.005720892967807678
1.00098e-05;0.005724152749504268
1.00100e-05;0.005732977456646219
1.00103e-05;0.005741802163788171
1.00105e-05;0.0057506268709300624
1.00108e-05;0.0057594515780720135
1.00110e-05;0.0057682762852139646
1.00113e-05;0.005777100992355856
1.00115e-05;0.005785925699497807
1.00118e-05;0.005794750406639758
1.00120e-05;0.00580357511378165
1.00123e-05;0.005812399820923601
1.00125e-05;0.005821224528065552
1.00127e-05;0.005830049235207443
1.00130e-05;0.005838873942349394
1.00133e-05;0.005847698649491345
1.00135e-05;0.0058565233566332375
1.00138e-05;0.0058653480637751885
1.00140e-05;0.00587417277091714
1.00142e-05;0.005877676152168354
1.00145e-05;0.005880623788117014
1.00148e-05;0.005883571424065675
1.00150e-05;0.005886519060014315
1.00153e-05;0.005889466695962976
1.00155e-05;0.005892414331911636
1.00157e-05;0.005895361967860276
1.00160e-05;0.005898309603808937
1.00163e-05;0.0059012572397575975
1.00165e-05;0.005904204875706258
1.00168e-05;0.005907152511654898
1.00170e-05;0.0059101001476035584
1.00173e-05;0.005913047783552219
1.00175e-05;0.00591599541950086
1.00178e-05;0.005918943055449519
1.00180e-05;0.00592189069139818
1.00183e-05;0.005919756611065679
1.00185e-05;0.005910170366695673
1.00188e-05;0.005900584122325667
1.00190e-05;0.005890997877955727
1.00193e-05;0.00588141163358572
1.00195e-05;0.005871825389215714
1.00198e-05;0.005862239144845773
1.00200e-05;0.005852652900475768
1.00203e-05;0.005843066656105761
1.00205e-05;0.00583348041173582
1.00208e-05;0.005823894167365814
1.00210e-05;0.005814307922995809
1.00212e-05;0.005804721678625867
1.00215e-05;0.005795135434255861
1.00218e-05;0.005785549189885855
1.00220e-05;0.005775962945515914
1.00223e-05;0.005766376701145908
1.00225e-05;0.005755937261371332
1.00227e-05;0.0057454087161091585
1.00230e-05;0.005734880170846914
1.00233e-05;0.00572435162558467
1.00235e-05;0.005713823080322498
1.00238e-05;0.005703294535060253
1.00240e-05;0.005692765989798009
1.00242e-05;0.005682237444535836
1.00245e-05;0.0056717088992735915
1.00248e-05;0.005661180354011347
1.00250e-05;0.005650651808749103
1.00253e-05;0.0056401232634869305
1.00255e-05;0.005629594718224686
1.00258e-05;0.005619066172962442
1.00260e-05;0.005608537627700269
1.00263e-05;0.005598009082438024
1.00265e-05;0.0055921562713314565
1.00268e-05;0.005593160265288783
1.00270e-05;0.0055941642592461155
1.00273e-05;0.005595168253203448
1.00275e-05;0.005596172247160774
1.00278e-05;0.005597176241118106
1.00280e-05;0.005598180235075439
1.00283e-05;0.005599184229032764
1.00285e-05;0.005600188222990097
1.00288e-05;0.005601192216947429
1.00290e-05;0.005602196210904755
1.00293e-05;0.005603200204862087
1.00295e-05;0.00560420419881942
1.00297e-05;0.0056052081927767455
1.00300e-05;0.005606212186734078
1.00303e-05;0.0056072161806914106
1.00305e-05;0.005608220174648736
1.00308e-05;0.005615653209570197
1.00310e-05;0.005623757676648456
1.00312e-05;0.00563186214372666
1.00315e-05;0.005639966610804919
1.00318e-05;0.005648071077883178
1.00320e-05;0.005656175544961383
1.00323e-05;0.005664280012039642
1.00325e-05;0.0056723844791179015
1.00327e-05;0.005680488946196105
1.00330e-05;0.005688363557939677
1.00333e-05;0.0056959010946548835
1.00335e-05;0.005703438631370091
1.00338e-05;0.005710976168085246
1.00340e-05;0.005718513704800452
1.00343e-05;0.005726051241515658
1.00345e-05;0.0057335887782308135
1.00348e-05;0.00574112631494602
1.00350e-05;0.005748663851661226
1.00353e-05;0.005756201388376381
1.00355e-05;0.005771212286175877
1.00358e-05;0.005787003682183695
1.00360e-05;0.005802795078191406
1.00363e-05;0.005818586474199225
1.00365e-05;0.005834377870207043
1.00368e-05;0.005850169266214754
1.00370e-05;0.005865960662222573
1.00373e-05;0.005881752058230391
1.00375e-05;0.005907627344381652
1.00378e-05;0.005948290312365066
1.00380e-05;0.0059889532803484805
1.00382e-05;0.006029616248331619
1.00385e-05;0.006070279216315033
1.00388e-05;0.0061109421842984474
1.00390e-05;0.006151605152281586
1.00393e-05;0.006192268120265
1.00395e-05;0.006232931088248414
1.00397e-05;0.006293828539449592
1.00400e-05;0.006356839226948262
1.00403e-05;0.006419849914446931
1.00405e-05;0.006482860601945174
1.00408e-05;0.006545871289443845
1.00410e-05;0.006608881976942514
1.00412e-05;0.006671892664440757
1.00415e-05;0.006734903351939427
1.00418e-05;0.006797914039438097
1.00420e-05;0.006862153834915477
1.00423e-05;0.006928196075428029
1.00425e-05;0.006994238315941027
1.00428e-05;0.007060280556454026
1.00430e-05;0.007126322796966576
1.00433e-05;0.007192365037479575
1.00435e-05;0.007258407277992573
1.00438e-05;0.0073244495185051245
1.00440e-05;0.0073904917590181226
1.00443e-05;0.0074565339995311215
1.00445e-05;0.007494100233814491
1.00448e-05;0.007528692508776324
1.00450e-05;0.007563284783738157
1.00453e-05;0.007597877058699755
1.00455e-05;0.007632469333661588
1.00458e-05;0.007667061608623421
1.00460e-05;0.0077016538835850195
1.00463e-05;0.007736246158546852
1.00465e-05;0.007770838433508685
1.00467e-05;0.007805430708470283
1.00470e-05;0.007840022983432116
1.00473e-05;0.007874615258393948
1.00475e-05;0.007909207533355547
1.00478e-05;0.00794379980831738
1.00480e-05;0.007963920704889764
1.00482e-05;0.007962819817377433
1.00485e-05;0.007961718929865092
1.00488e-05;0.007960618042352752
1.00490e-05;0.007959517154840421
1.00493e-05;0.007958416267328081
1.00495e-05;0.007957315379815741
1.00497e-05;0.00795621449230341
1.00500e-05;0.00795511360479107
1.00503e-05;0.00795401271727873
1.00505e-05;0.007952911829766391
1.00508e-05;0.007951810942254058
1.00510e-05;0.007950710054741718
1.00513e-05;0.00794960916722938
1.00515e-05;0.007948508279717046
1.00518e-05;0.007935344634918906
1.00520e-05;0.007920921187422155
1.00523e-05;0.007906497739925501
1.00525e-05;0.007892074292428752
1.00528e-05;0.007877650844932001
1.00530e-05;0.007863227397435347
1.00533e-05;0.007848803949938596
1.00535e-05;0.007834380502441845
1.00538e-05;0.007820485242214565
1.00540e-05;0.0078073645506486575
1.00543e-05;0.007794243859082751
1.00545e-05;0.007781123167516934
1.00548e-05;0.007768002475951028
1.00550e-05;0.007754881784385122
1.00552e-05;0.007741761092819304
1.00555e-05;0.007728640401253398
1.00558e-05;0.007715519709687492
1.00560e-05;0.007697029772093849
1.00563e-05;0.00767797908454235
1.00565e-05;0.007658928396990852
1.00567e-05;0.007639877709439483
1.00570e-05;0.007620827021887985
1.00573e-05;0.007601776334336486
1.00575e-05;0.007582725646785117
1.00578e-05;0.007563674959233618
1.00580e-05;0.00754462427168212
1.00582e-05;0.0075255735841307505
1.00585e-05;0.007506522896579252
1.00588e-05;0.007487472209027754
1.00590e-05;0.007463234619430619
1.00593e-05;0.007431390614442164
1.00595e-05;0.007399546609453494
1.00598e-05;0.007367702604464824
1.00600e-05;0.007335858599476369
1.00603e-05;0.007304014594487699
1.00605e-05;0.007272170589499028
1.00608e-05;0.007240326584510574
1.00610e-05;0.007208482579521903
1.00613e-05;0.007176638574533233
1.00615e-05;0.007144794569544779
1.00618e-05;0.007112950564556108
1.00620e-05;0.007081106559567438
1.00623e-05;0.007048922008527206
1.00625e-05;0.007016701891751218
1.00628e-05;0.00698448177497523
1.00630e-05;0.006952261658199461
1.00633e-05;0.006920041541423473
1.00635e-05;0.006887821424647485
1.00637e-05;0.006855601307871715
1.00640e-05;0.006823381191095728
1.00643e-05;0.00679116107431974
1.00645e-05;0.006758940957543971
1.00648e-05;0.006726720840767982
1.00650e-05;0.006703022821912502
1.00652e-05;0.0066918221697382365
1.00655e-05;0.006680621517563896
1.00658e-05;0.006669420865389555
1.00660e-05;0.00665822021321529
1.00663e-05;0.0066470195610409495
1.00665e-05;0.006635818908866608
1.00667e-05;0.006624618256692343
1.00670e-05;0.006613417604518002
1.00673e-05;0.0066022169523436616
1.00675e-05;0.006591016300169321
1.00678e-05;0.006579815647995055
1.00680e-05;0.006596597173546575
1.00683e-05;0.006616301084273143
1.00685e-05;0.0066360049949995776
1.00688e-05;0.006655708905726146
1.00690e-05;0.006675412816452713
1.00693e-05;0.006695116727179148
1.00695e-05;0.006714820637905716
1.00698e-05;0.006734524548632284
1.00700e-05;0.006754228459358718
1.00703e-05;0.006773932370085286
1.00705e-05;0.006793636280811854
1.00708e-05;0.0068200449463059615
1.00710e-05;0.0068562859065748535
1.00713e-05;0.006892526866843746
1.00715e-05;0.006928767827112392
1.00718e-05;0.006965008787381284
1.00720e-05;0.007001249747650176
1.00722e-05;0.007037490707918822
1.00725e-05;0.007073731668187714
1.00728e-05;0.007109972628456606
1.00730e-05;0.007146213588725253
1.00733e-05;0.007182454548994145
1.00735e-05;0.007218695509263037
1.00737e-05;0.007245296824439573
1.00740e-05;0.00727089140039107
1.00743e-05;0.007296485976342567
1.00745e-05;0.007322080552293889
1.00748e-05;0.007347675128245386
1.00750e-05;0.007373269704196883
1.00752e-05;0.0073988642801482065
1.00755e-05;0.007424458856099703
1.00758e-05;0.0074500534320512
1.00760e-05;0.007475648008002697
1.00763e-05;0.0075012425839540205
1.00765e-05;0.007526837159905517
1.00768e-05;0.007552431735857013
1.00770e-05;0.007578026311808337
1.00773e-05;0.007603620887759834
1.00775e-05;0.007617972847896944
1.00778e-05;0.007631150658754548
1.00780e-05;0.007644328469612241
1.00783e-05;0.007657506280469935
1.00785e-05;0.007670684091327539
1.00788e-05;0.007683861902185232
1.00790e-05;0.007697039713042925
1.00793e-05;0.00771021752390053
1.00795e-05;0.007723395334758223
1.00798e-05;0.007736573145615916
1.00800e-05;0.007749750956473521
1.00803e-05;0.007762928767331214
1.00805e-05;0.007776106578188907
1.00808e-05;0.007789284389046511
1.00810e-05;0.007802462199904205
1.00813e-05;0.007812090981831579
1.00815e-05;0.007821349112494843
1.00818e-05;0.007830607243158169
1.00820e-05;0.007839865373821494
1.00822e-05;0.007849123504484759
1.00825e-05;0.007858381635148085
1.00828e-05;0.007867639765811412
1.00830e-05;0.007876897896474675
1.00833e-05;0.007886156027138
1.00835e-05;0.007893851992106921
1.00837e-05;0.00789925709422809
1.00840e-05;0.007904662196349298
1.00843e-05;0.007910067298470503
1.00845e-05;0.00791547240059171
1.00848e-05;0.00792087750271288
1.00850e-05;0.007926282604834085
1.00853e-05;0.007931687706955293
1.00855e-05;0.007937092809076462
1.00858e-05;0.00794249791119767
1.00860e-05;0.007929437761261803
1.00863e-05;0.00791444914887829
1.00865e-05;0.007899460536494676
1.00868e-05;0.007884471924111063
1.00870e-05;0.00786948331172755
1.00873e-05;0.007854494699343935
1.00875e-05;0.00783950608696032
1.00878e-05;0.007824517474576808
1.00880e-05;0.007809528862193194
1.00883e-05;0.00779454024980958
1.00885e-05;0.007753524143622399
1.00888e-05;0.007709789794311972
1.00890e-05;0.007666055445001544
1.00893e-05;0.007622321095691413
1.00895e-05;0.007578586746380985
1.00898e-05;0.007534852397070557
1.00900e-05;0.0074911180477604256
1.00903e-05;0.007447383698449998
1.00905e-05;0.0074036493491395705
1.00907e-05;0.007359914999829438
1.00910e-05;0.007302280253553297
1.00913e-05;0.007243193786310394
1.00915e-05;0.0071841073190678905
1.00918e-05;0.007125020851824987
1.00920e-05;0.007065934384582084
1.00922e-05;0.007006847917339582
1.00925e-05;0.006947761450096679
1.00928e-05;0.006888674982853775
1.00930e-05;0.006829588515610872
1.00933e-05;0.006777302526887867
1.00935e-05;0.006725726762288093
1.00938e-05;0.00667415099768832
1.00940e-05;0.006622575233088896
1.00943e-05;0.006570999468489122
1.00945e-05;0.006519423703889349
1.00948e-05;0.006467847939289924
1.00950e-05;0.006416272174690151
1.00953e-05;0.006364696410090377
1.00955e-05;0.006343267421287253
1.00958e-05;0.00632498688260592
1.00960e-05;0.006306706343924588
1.00963e-05;0.006288425805243379
1.00965e-05;0.006270145266562047
1.00968e-05;0.006251864727880714
1.00970e-05;0.006233584189199506
1.00973e-05;0.006215303650518173
1.00975e-05;0.006197023111836841
1.00978e-05;0.006195605957660041
1.00980e-05;0.006218918383195051
1.00983e-05;0.00624223080873006
1.00985e-05;0.0062655432342649114
1.00988e-05;0.006288855659799921
1.00990e-05;0.00631216808533493
1.00992e-05;0.0063354805108697815
1.00995e-05;0.006358792936404791
1.00998e-05;0.0063821053619398
1.01000e-05;0.0064054177874746515
1.01003e-05;0.0064543139918354095
1.01005e-05;0.006505882098894014
1.01007e-05;0.006557450205952269
1.01010e-05;0.006609018313010874
1.01013e-05;0.006660586420069479
1.01015e-05;0.006712154527128083
1.01018e-05;0.006763722634186338
1.01020e-05;0.006815290741244943
1.01023e-05;0.006866858848303547
1.01025e-05;0.006921817122406294
1.01028e-05;0.006977129456655711
1.01030e-05;0.007032441790905128
1.01033e-05;0.00708775412515417
1.01035e-05;0.007143066459403587
1.01038e-05;0.0071983787936530045
1.01040e-05;0.007253691127902046
1.01043e-05;0.0073090034621514635
1.01045e-05;0.007364315796400881
1.01048e-05;0.007398019891475354
1.01050e-05;0.00742946727877584
1.01053e-05;0.007460914666076324
1.01055e-05;0.007492362053376596
1.01058e-05;0.007523809440677081
1.01060e-05;0.0075552568279775665
1.01063e-05;0.007586704215277838
1.01065e-05;0.007618151602578323
1.01068e-05;0.007610955554825037
1.01070e-05;0.007599723688159909
1.01073e-05;0.007588491821494706
1.01075e-05;0.007577259954829502
1.01077e-05;0.007566028088164375
1.01080e-05;0.007554796221499171
1.01083e-05;0.007543564354833968
1.01085e-05;0.0075323324881688405
1.01088e-05;0.007482555084660312
1.01090e-05;0.007428752086471648
1.01092e-05;0.007374949088283349
1.01095e-05;0.007321146090094685
1.01098e-05;0.007267343091906021
1.01100e-05;0.007213540093717357
1.01103e-05;0.007159737095529058
1.01105e-05;0.007105934097340394
1.01108e-05;0.007041900480463118
1.01110e-05;0.006962864009303635
1.01113e-05;0.006883827538143616
1.01115e-05;0.006804791066983597
1.01118e-05;0.006725754595824114
1.01120e-05;0.006646718124664094
1.01123e-05;0.006567681653504075
1.01125e-05;0.006488645182344591
1.01128e-05;0.006409608711184572
1.01130e-05;0.006332879356527368
1.01133e-05;0.006256390951061806
1.01135e-05;0.006179902545595727
1.01138e-05;0.006103414140129647
1.01140e-05;0.0060269257346640855
1.01143e-05;0.005950437329198006
1.01145e-05;0.005873948923731926
1.01148e-05;0.005808760394107893
1.01150e-05;0.005760142748009756
1.01153e-05;0.005711525101911619
1.01155e-05;0.005662907455813812
1.01158e-05;0.0056142898097156745
1.01160e-05;0.005565672163617538
1.01162e-05;0.005517054517519731
1.01165e-05;0.005468436871421594
1.01168e-05;0.0054586397439688504
1.01170e-05;0.00545289692957703
1.01173e-05;0.0054471541151851705
1.01175e-05;0.005441411300793311
1.01177e-05;0.005435668486401491
1.01180e-05;0.005429925672009632
1.01183e-05;0.005424182857617773
1.01185e-05;0.005418440043225913
1.01188e-05;0.005412697228834093
1.01190e-05;0.005406954414442234
1.01193e-05;0.0054367051395754346
1.01195e-05;0.005470162716803799
1.01198e-05;0.005503620294032391
1.01200e-05;0.005537077871260982
1.01203e-05;0.005570535448489347
1.01205e-05;0.005603993025717939
1.01208e-05;0.00563745060294653
1.01210e-05;0.005670908180174895
1.01213e-05;0.005704365757403487
1.01215e-05;0.005737823334632078
1.01218e-05;0.005785349851289968
1.01220e-05;0.005834345691050551
1.01223e-05;0.005883341530811136
1.01225e-05;0.005932337370571388
1.01228e-05;0.005981333210331972
1.01230e-05;0.006030329050092556
1.01233e-05;0.006079324889852807
1.01235e-05;0.006128320729613392
1.01238e-05;0.006173190600540656
1.01240e-05;0.006212009878528153
1.01243e-05;0.006250829156515914
1.01245e-05;0.0062896484345036745
1.01247e-05;0.006328467712491172
1.01250e-05;0.006367286990478933
1.01253e-05;0.006406106268466693
1.01255e-05;0.006444925546454192
1.01258e-05;0.006483744824441952
1.01260e-05;0.006495344215235716
1.01262e-05;0.006504100832463091
1.01265e-05;0.0065128574496905265
1.01268e-05;0.006521614066917961
1.01270e-05;0.006530370684145396
1.01273e-05;0.006539127301372772
1.01275e-05;0.006547883918600207
1.01278e-05;0.0065566405358276425
1.01280e-05;0.006565397153055018
1.01283e-05;0.0065741537702824525
1.01285e-05;0.006582910387509888
1.01288e-05;0.006591667004737263
1.01290e-05;0.006600423621964699
1.01293e-05;0.006583469322862598
1.01295e-05;0.006563829843149913
1.01298e-05;0.006544190363437095
1.01300e-05;0.006524550883724276
1.01303e-05;0.00650491140401159
1.01305e-05;0.006485271924298772
1.01308e-05;0.006465632444585954
1.01310e-05;0.006445992964873268
1.01313e-05;0.006426353485160449
1.01315e-05;0.006406714005447631
1.01318e-05;0.0063870745257349456
1.01320e-05;0.0063674350460221265
1.01323e-05;0.006347795566309308
1.01325e-05;0.006322146645386735
1.01328e-05;0.006295870114198605
1.01330e-05;0.0062695935830104745
1.01332e-05;0.006243317051822522
1.01335e-05;0.006217040520634392
1.01338e-05;0.006190763989446262
1.01340e-05;0.0061644874582583095
1.01343e-05;0.006138210927070179
1.01345e-05;0.006111934395882049
1.01347e-05;0.006091584499467776
1.01350e-05;0.00607992581134291
1.01353e-05;0.006068267123218045
1.01355e-05;0.006056608435093178
1.01358e-05;0.006044949746968392
1.01360e-05;0.006033291058843526
1.01363e-05;0.0060216323707186605
1.01365e-05;0.006009973682593874
1.01368e-05;0.005998314994469007
1.01370e-05;0.005986656306344142
1.01373e-05;0.006003298039869907
1.01375e-05;0.006022895395146265
1.01378e-05;0.006042492750422623
1.01380e-05;0.006062090105698848
1.01383e-05;0.0060816874609752065
1.01385e-05;0.006101284816251565
1.01388e-05;0.0061208821715277905
1.01390e-05;0.006140479526804149
1.01393e-05;0.006160076882080507
1.01395e-05;0.006179674237356733
1.01398e-05;0.006199271592633091
1.01400e-05;0.0062415002696612504
1.01403e-05;0.006286092502527697
1.01405e-05;0.006330684735394445
1.01408e-05;0.006375276968261193
1.01410e-05;0.006419869201127639
1.01413e-05;0.006464461433994387
1.01415e-05;0.006509053666861135
1.01417e-05;0.006553645899727581
1.01420e-05;0.006598238132594329
1.01423e-05;0.006642830365461077
1.01425e-05;0.006687422598327523
1.01428e-05;0.006732570310660152
1.01430e-05;0.006777776035810128
1.01432e-05;0.0068229817609597974
1.01435e-05;0.0068681874861097735
1.01438e-05;0.00691339321125975
1.01440e-05;0.006958598936409726
1.01443e-05;0.007003804661559395
1.01445e-05;0.007049010386709371
1.01448e-05;0.007094216111859347
1.01450e-05;0.007123173948707014
1.01453e-05;0.007150434898749156
1.01455e-05;0.007177695848791298
1.01458e-05;0.007204956798833255
1.01460e-05;0.007232217748875397
1.01463e-05;0.007259478698917538
1.01465e-05;0.007286739648959496
1.01468e-05;0.0073140005990016375
1.01470e-05;0.007341261549043779
1.01473e-05;0.007352525728438699
1.01475e-05;0.00736211924709631
1.01478e-05;0.007371712765753921
1.01480e-05;0.007381306284411467
1.01483e-05;0.0073908998030690785
1.01485e-05;0.00740049332172669
1.01488e-05;0.007410086840384236
1.01490e-05;0.007419680359041847
1.01493e-05;0.007429273877699458
1.01495e-05;0.007432112647093726
1.01498e-05;0.007430424464803974
1.01500e-05;0.00742873628251422
1.01502e-05;0.007427048100224479
1.01505e-05;0.007425359917934727
1.01508e-05;0.0074236717356449735
1.01510e-05;0.007421983553355232
