Time(s);Current(A)
5.00000e-06;0.0009833318658953576
5.00025e-06;0.0009514619685869086
5.00050e-06;0.0009171139109870772
5.00075e-06;0.0008806084719788015
5.00100e-06;0.0008441030329705259
5.00125e-06;0.0008058310331965384
5.00150e-06;0.0007660211404275668
5.00175e-06;0.0007262112476585952
5.00200e-06;0.0006864013548894887
5.00225e-06;0.0006462415189891482
5.00250e-06;0.0006057770374174589
5.00275e-06;0.0005653125558456325
5.00300e-06;0.0005248480742739433
5.00325e-06;0.0004853612598909431
5.00350e-06;0.0004467255611616175
5.00375e-06;0.00040941124919014333
5.00400e-06;0.0003732472805738556
5.00425e-06;0.00033842753140978356
5.00450e-06;0.00030586457452818174
5.00475e-06;0.00027547692794723785
5.00500e-06;0.0002475798516433251
5.00525e-06;0.00022268234041362552
5.00550e-06;0.00020144891132621798
5.00575e-06;0.00018434135514816226
5.00600e-06;0.00017147804734778406
5.00625e-06;0.00016284079783101578
5.00650e-06;0.0001584056318140828
5.00675e-06;0.00015814856774065187
5.00700e-06;0.00016207574609621153
5.00725e-06;0.000170314634152337
5.00750e-06;0.00018309011012423396
5.00775e-06;0.00020050004315019522
5.00800e-06;0.00022242715415579187
5.00825e-06;0.00024866865051195443
5.00850e-06;0.0002790181491772837
5.00875e-06;0.0003132692136614595
5.00900e-06;0.00035123429424843233
5.00925e-06;0.00039280189367309963
5.00950e-06;0.0004379214957058178
5.00975e-06;0.0004864630337150872
5.01000e-06;0.0005388806134820257
5.01025e-06;0.0005933249744944547
5.01050e-06;0.0006503021386759812
5.01075e-06;0.000709484254040801
5.01100e-06;0.0007709237903132227
5.01125e-06;0.0008343285416341175
5.01150e-06;0.0008977332929547975
5.01175e-06;0.0009626447272295967
5.01200e-06;0.0010288678158816916
5.01225e-06;0.0010950909045335622
5.01250e-06;0.0011613139931856572
5.01275e-06;0.0012274217129335668
5.01300e-06;0.001290310433937719
5.01325e-06;0.0013531991549420841
5.01350e-06;0.0014160878759462362
5.01375e-06;0.0014789765969503883
5.01400e-06;0.0015373367635570193
5.01425e-06;0.0015917545624735182
5.01450e-06;0.0016461723613900169
5.01475e-06;0.0016949867966913467
5.01500e-06;0.0017389231809122648
5.01525e-06;0.0017828595651331828
5.01550e-06;0.00182394109757889
5.01575e-06;0.0018625373169620701
5.01600e-06;0.0019011335363452503
5.01625e-06;0.0019356253025294696
5.01650e-06;0.0019665439055680917
5.01675e-06;0.0019974625086068187
5.01700e-06;0.0020283811116454413
5.01725e-06;0.0020592997146840633
5.01750e-06;0.0020902183177227904
5.01775e-06;0.002121136920761413
5.01800e-06;0.002152055523800035
5.01825e-06;0.002182974126838762
5.01850e-06;0.0022104404299466062
5.01875e-06;0.002234901306928024
5.01900e-06;0.002259362183909524
5.01925e-06;0.0022838230608909415
5.01950e-06;0.0023082839378723587
5.01975e-06;0.0023327448148538587
5.02000e-06;0.0023572056918352764
5.02025e-06;0.0023816665688166936
5.02050e-06;0.0024061274457981936
5.02075e-06;0.002428328823893491
5.02100e-06;0.0024485631779408716
5.02125e-06;0.002468797531988183
5.02150e-06;0.002489031886035495
5.02175e-06;0.002509266240082875
5.02200e-06;0.002529500594130187
5.02225e-06;0.0025497349481774984
5.02250e-06;0.002569969302224879
5.02275e-06;0.0025902036562721904
5.02300e-06;0.0026074511429564
5.02325e-06;0.002622098389398357
5.02350e-06;0.0026367456358402644
5.02375e-06;0.0026513928822821716
5.02400e-06;0.0026660401287241287
5.02425e-06;0.002680687375166036
5.02450e-06;0.0026953346216079433
5.02475e-06;0.0027099818680499004
5.02500e-06;0.0027246291144918076
5.02525e-06;0.002733927029302834
5.02550e-06;0.0027385680425227868
5.02575e-06;0.0027432090557427393
5.02600e-06;0.0027413792237361346
5.02625e-06;0.0027339161478946677
5.02650e-06;0.0027264530720532013
5.02675e-06;0.0027128945562660033
5.02700e-06;0.002694029608584378
5.02725e-06;0.002675164660902752
5.02750e-06;0.0026490878906610987
5.02775e-06;0.0026167328130963824
5.02800e-06;0.002584377735531666
5.02825e-06;0.0025451943313187977
5.02850e-06;0.0025000664750840884
5.02875e-06;0.0024549386188493787
5.02900e-06;0.002404066207113953
5.02925e-06;0.002348192828623545
5.02950e-06;0.0022923194501329475
5.02975e-06;0.0022310326511493445
5.03000e-06;0.0021650331575255714
5.03025e-06;0.0020990336639015745
5.03050e-06;0.0020284890736506946
5.03075e-06;0.00195398771474675
5.03100e-06;0.001879486355842553
5.03125e-06;0.0018049849969386086
5.03150e-06;0.001730483638034664
5.03175e-06;0.0016539525638471606
5.03200e-06;0.0015756545054863454
5.03225e-06;0.0014973564471255304
5.03250e-06;0.00141905838876445
5.03275e-06;0.0013407603304036349
5.03300e-06;0.0012645378632787391
5.03325e-06;0.0011901223179887719
5.03350e-06;0.0011157067726990568
5.03375e-06;0.0010442911037465727
5.03400e-06;0.0009754870000982825
5.03425e-06;0.0009102714336186205
5.03450e-06;0.000848179895634322
5.03475e-06;0.0007894581832790104
5.03500e-06;0.0007361432798565426
5.03525e-06;0.0006870938872342067
5.03550e-06;0.0006413600873977308
5.03575e-06;0.0005981692298845489
5.03600e-06;0.0005574587453051884
5.03625e-06;0.0005194851986615363
5.03650e-06;0.00048451974429987145
5.03675e-06;0.0004528335175325893
5.03700e-06;0.00042461297405070944
5.03725e-06;0.00039965961020924974
5.03750e-06;0.0003773316176496114
5.03775e-06;0.00035709825092524654
5.03800e-06;0.0003388735849898213
5.03825e-06;0.00032277159025016175
5.03850e-06;0.0003089154029988836
5.03875e-06;0.00029742813243878376
5.03900e-06;0.0002883798163448338
5.03925e-06;0.00028159933766352274
5.03950e-06;0.00027663792930630356
5.03975e-06;0.00027311644937922036
5.04000e-06;0.0002709343855462537
5.04025e-06;0.00027011647049783106
5.04050e-06;0.00027069315635757816
5.04075e-06;0.0002726948586422983
5.04100e-06;0.0002764254288321542
5.04125e-06;0.0002810779817208829
5.04150e-06;0.00028659505743511114
5.04175e-06;0.00029286475011127425
5.04200e-06;0.0002998331828776694
5.04225e-06;0.00030740990917709523
5.04250e-06;0.00031498663547649533
5.04275e-06;0.0003232251321770243
5.04300e-06;0.0003320397381647851
5.04325e-06;0.0003408543441525161
5.04350e-06;0.000349668950140247
5.04375e-06;0.00035844657876011856
5.04400e-06;0.0003661924726909308
5.04425e-06;0.0003739383666217431
5.04450e-06;0.00038168426055258165
5.04475e-06;0.0003894301544833939
5.04500e-06;0.0003963525768974469
5.04525e-06;0.0004025581198806447
5.04550e-06;0.00040876366286382153
5.04575e-06;0.00041496920584699836
5.04600e-06;0.00042117474883019616
5.04625e-06;0.000427380291813373
5.04650e-06;0.0004337247576739861
5.04675e-06;0.00044019016390867263
5.04700e-06;0.0004466555701433592
5.04725e-06;0.0004531209763780677
5.04750e-06;0.00045958638261275425
5.04775e-06;0.0004660517888474408
5.04800e-06;0.000473197099888544
5.04825e-06;0.0004809343072620488
5.04850e-06;0.0004886715146355536
5.04875e-06;0.0004964087220090845
5.04900e-06;0.0005041459293825893
5.04925e-06;0.0005118831367560941
5.04950e-06;0.000519620344129625
5.04975e-06;0.0005273575515031298
5.05000e-06;0.0005350947588766346
5.05025e-06;0.0005428594982224744
5.05050e-06;0.000551392428829158
5.05075e-06;0.0005599253594358705
5.05100e-06;0.0005684582900425541
5.05125e-06;0.0005769912206492376
5.05150e-06;0.0005855241512559501
5.05175e-06;0.0005940570818626337
5.05200e-06;0.0006025900124693172
5.05225e-06;0.0006111229430760298
5.05250e-06;0.0006196558736827133
5.05275e-06;0.0006275890288231086
5.05300e-06;0.0006350000448413967
5.05325e-06;0.0006424110608596596
5.05350e-06;0.0006498220768779225
5.05375e-06;0.0006572330928962106
5.05400e-06;0.0006646441089144735
5.05425e-06;0.0006720551249327364
5.05450e-06;0.0006785705569925382
5.05475e-06;0.0006843063315835711
5.05500e-06;0.0006900421061746235
5.05525e-06;0.0006957778807656566
5.05550e-06;0.0007015136553566895
5.05575e-06;0.0007072494299477419
5.05600e-06;0.0007129852045387748
5.05625e-06;0.0007198526709667928
5.05650e-06;0.0007277053403840566
5.05675e-06;0.0007355580098012938
5.05700e-06;0.000743410679218531
5.05725e-06;0.0007512633486357949
5.05750e-06;0.0007591160180530322
5.05775e-06;0.0007669686874702693
5.05800e-06;0.0007748213568875332
5.05825e-06;0.0007826740263047704
5.05850e-06;0.0007905266957220077
5.05875e-06;0.0007983793651392716
5.05900e-06;0.0008062320345565087
5.05925e-06;0.0008158817316711384
5.05950e-06;0.0008270958449997442
5.05975e-06;0.0008383099583283501
5.06000e-06;0.000849524071656994
5.06025e-06;0.0008607381849855999
5.06050e-06;0.0008719522983142058
5.06075e-06;0.0008831664116428497
5.06100e-06;0.0008943805249714556
5.06125e-06;0.0009055946383000615
5.06150e-06;0.0009168087516287053
5.06175e-06;0.0009280228649573112
5.06200e-06;0.0009392369782859171
5.06225e-06;0.0009503681667952736
5.06250e-06;0.000961427164468569
5.06275e-06;0.0009724861621418645
5.06300e-06;0.0009835451598151975
5.06325e-06;0.0009946041574884928
5.06350e-06;0.0010056631551618258
5.06375e-06;0.0010167221528351214
5.06400e-06;0.0010276464041496843
5.06425e-06;0.0010348109911060093
5.06450e-06;0.00104197557806231
5.06475e-06;0.0010491401650186106
5.06500e-06;0.0010563047519749355
5.06525e-06;0.0010634693389312364
5.06550e-06;0.001070633925887537
5.06575e-06;0.001077798512843862
5.06600e-06;0.0010799146464711565
5.06625e-06;0.0010776358104192725
5.06650e-06;0.0010753569743673808
5.06675e-06;0.0010730781383154967
5.06700e-06;0.0010707993022636127
5.06725e-06;0.001068520466211721
5.06750e-06;0.001066241630159837
5.06775e-06;0.001063962794107945
5.06800e-06;0.001061683958056061
5.06825e-06;0.0010590392812408684
5.06850e-06;0.0010461869929483958
5.06875e-06;0.0010333347046559667
5.06900e-06;0.0010204824163635375
5.06925e-06;0.0010076301280710648
5.06950e-06;0.0009947778397786358
5.06975e-06;0.0009819255514862068
5.07000e-06;0.000969073263193734
5.07025e-06;0.000956220974901305
5.07050e-06;0.0009433686866088759
5.07075e-06;0.000927681953944941
5.07100e-06;0.0009095276740429415
5.07125e-06;0.0008913733941409419
5.07150e-06;0.0008732191142388809
5.07175e-06;0.0008550648343368813
5.07200e-06;0.0008369105544348203
5.07225e-06;0.0008187566122619925
5.07250e-06;0.0008006120933369675
5.07275e-06;0.0007824675744118809
5.07300e-06;0.0007643230554868559
5.07325e-06;0.0007461785365618309
5.07350e-06;0.0007280340176367443
5.07375e-06;0.0007098894987117193
5.07400e-06;0.0006931701795547387
5.07425e-06;0.0006776915789620233
5.07450e-06;0.0006622129783693605
5.07475e-06;0.0006477135591882026
5.07500e-06;0.0006381995167912655
5.07525e-06;3.559823625381433e-05
5.07550e-06;-0.013293046200287534
5.07575e-06;-0.016150971110115517
5.07600e-06;-0.013390990676722433
5.07625e-06;-0.010210651426810394
5.07650e-06;-0.0011741763498124154
5.07675e-06;0.003709315707600014
5.07700e-06;0.002844537747262915
5.07725e-06;0.0016552521193704203
5.07750e-06;-0.00569215079773167
5.07775e-06;-0.011021411908888898
5.07800e-06;-0.0069357292328377385
5.07825e-06;-0.003566214823465646
5.07850e-06;0.0008207158982718979
5.07875e-06;0.0036122471866211273
5.07900e-06;0.0036572105728788985
5.07925e-06;0.0015014834401306004
5.07950e-06;-0.001946903538945569
5.07975e-06;-0.003986913809147218
5.08000e-06;-0.003497862196645801
5.08025e-06;-0.0013724339997448051
5.08050e-06;0.0014149772943661911
5.08075e-06;0.003141414944203916
5.08100e-06;0.0031523435150219606
5.08125e-06;0.0017889163013364638
5.08150e-06;-0.0003807582150118119
5.08175e-06;-0.0016654170255064953
5.08200e-06;-0.001363736596669394
5.08225e-06;-3.548914126189637e-05
5.08250e-06;0.0017084941038845213
5.08275e-06;0.0027886177896917635
5.08300e-06;0.002794660049803483
5.08325e-06;0.001940146272103158
5.08350e-06;0.0005807732349993647
5.08375e-06;-0.0002242568260259609
5.08400e-06;-3.5883872819864786e-05
5.08425e-06;0.0007950183649002165
5.08450e-06;0.0018856423445035339
5.08475e-06;0.0025596088205185733
5.08500e-06;0.002559872171575955
5.08525e-06;0.0020200205852329346
5.08550e-06;0.0011626148538931126
5.08575e-06;0.0006509794181639393
5.08600e-06;0.0007601085676245155
5.08625e-06;0.0012702372821924975
5.08650e-06;0.0019416267186532605
5.08675e-06;0.0023506782942800627
5.08700e-06;0.0023364929812015748
5.08725e-06;0.0019828695524338686
5.08750e-06;0.001429330723733694
5.08775e-06;0.0010914692019330108
5.08800e-06;0.0011416022854597845
5.08825e-06;0.001442130338754088
5.08850e-06;0.001842956128436402
5.08875e-06;0.002078832517857224
5.08900e-06;0.0020490842953054013
5.08925e-06;0.001806317641483823
5.08950e-06;0.001438037646078822
5.08975e-06;0.001204663959468154
5.09000e-06;0.0012142123282167692
5.09025e-06;0.0013805661178603332
5.09050e-06;0.0016097886994309112
5.09075e-06;0.0017358256061157976
5.09100e-06;0.0016957208190947184
5.09125e-06;0.0015225348475846594
5.09150e-06;0.0012711850327802433
5.09175e-06;0.0011048922478786875
5.09200e-06;0.001091401320548619
5.09225e-06;0.0011768522287269698
5.09250e-06;0.0013024916221768693
5.09275e-06;0.0013643993327225525
5.09300e-06;0.0013232422635906223
5.09325e-06;0.0011998328729823625
5.09350e-06;0.0010286723396724505
5.09375e-06;0.0009120966900538826
5.09400e-06;0.0008926293187923299
5.09425e-06;0.0009366200965156241
5.09450e-06;0.0010073570151466677
5.09475e-06;0.001039840113819502
5.09500e-06;0.001009515477441818
5.09525e-06;0.0009293776420804712
5.09550e-06;0.0008208219460375575
5.09575e-06;0.000747737569054626
5.09600e-06;0.0007366469775094304
5.09625e-06;0.0007663986531748129
5.09650e-06;0.0008139294978218231
5.09675e-06;0.0008384596975764231
5.09700e-06;0.0008245472460999878
5.09725e-06;0.0007802710977171309
5.09750e-06;0.0007189712549124967
5.09775e-06;0.0006806033587490209
5.09800e-06;0.0006817141304940239
5.09825e-06;0.0007089871616191956
5.09850e-06;0.0007479098086725799
5.09875e-06;0.0007728737160959564
5.09900e-06;0.0007741436504322666
5.09925e-06;0.000756717992009601
5.09950e-06;0.0007288901509290654
5.09975e-06;0.000715623946833256
5.10000e-06;0.0007272183215488117
5.10025e-06;0.0007552658475082178
5.10050e-06;0.0007906106559557808
5.10075e-06;0.0008171476310348498
5.10100e-06;0.0008287155517307087
5.10125e-06;0.0008283825418602009
5.10150e-06;0.0008212802804008391
5.10175e-06;0.0008229818865322454
5.10200e-06;0.0008398733016410018
5.10225e-06;0.0008666229010557666
5.10250e-06;0.0008974307116748445
5.10275e-06;0.0009221444545671846
5.10300e-06;0.0009368413371445397
5.10325e-06;0.0009417214880336953
5.10350e-06;0.0009444292502117289
5.10375e-06;0.0009511260261072272
5.10400e-06;0.0009659597771590122
5.10425e-06;0.0009863033650240498
5.10450e-06;0.0010076588826982873
5.10475e-06;0.001024231615906197
5.10500e-06;0.0010335530201914648
5.10525e-06;0.001036886763705818
5.10550e-06;0.0010389754292023832
5.10575e-06;0.0010458181951769358
5.10600e-06;0.0010619343383847448
5.10625e-06;0.0010803439663402141
5.10650e-06;0.0011024490932385028
5.10675e-06;0.0011238688238968603
5.10700e-06;0.001142430302946268
5.10725e-06;0.0011594182135460436
5.10750e-06;0.0011761470370849699
5.10775e-06;0.0011974510920797264
5.10800e-06;0.0012263809723402287
5.10825e-06;0.001257140636127072
5.10850e-06;0.0012911424475176435
5.10875e-06;0.001326086485424469
5.10900e-06;0.0013597402850595301
5.10925e-06;0.0013930191182029432
5.10950e-06;0.0014283074090576167
5.10975e-06;0.001464179684533151
5.11000e-06;0.0015063869872282785
5.11025e-06;0.0015504353629887775
5.11050e-06;0.0015944837387494256
5.11075e-06;0.0016385321145099246
5.11100e-06;0.0016828863344901357
5.11125e-06;0.0017280475889871905
5.11150e-06;0.0017732088434842456
5.11175e-06;0.0018183700979814536
5.11200e-06;0.0018635313524785085
5.11225e-06;0.0019090003895789783
5.11250e-06;0.0019545588738503015
5.11275e-06;0.00200011735812147
5.11300e-06;0.002045675842392639
5.11325e-06;0.002091234326663962
5.11350e-06;0.0021315260337744345
5.11375e-06;0.002170287120536386
5.11400e-06;0.0022090482072984687
5.11425e-06;0.00224780929406042
5.11450e-06;0.0022865703808223714
5.11475e-06;0.00231780671331369
5.11500e-06;0.0023468562166202383
5.11525e-06;0.0023759057199268844
5.11550e-06;0.0023979895241064884
5.11575e-06;0.002418048970600273
5.11600e-06;0.0024381084170941253
5.11625e-06;0.0024517905770956735
5.11650e-06;0.002463619382726079
5.11675e-06;0.0024754481883565247
5.11700e-06;0.0024792148088117042
5.11725e-06;0.0024806384129772187
5.11750e-06;0.0024820620171427375
5.11775e-06;0.002476959923739562
5.11800e-06;0.0024699613450321852
5.11825e-06;0.0024629627663247844
5.11850e-06;0.0024454359972616592
5.11875e-06;0.002424849546366981
5.11900e-06;0.002404263095472233
5.11925e-06;0.0023836766445775545
5.11950e-06;0.0023630901936828063
5.11975e-06;0.002342503742788128
5.12000e-06;0.0023219172918934497
5.12025e-06;0.0022977863042847684
5.12050e-06;0.0022643023085391965
5.12075e-06;0.0022308183127936246
5.12100e-06;0.002197334317047939
5.12125e-06;0.0021638503213023672
5.12150e-06;0.002130366325556796
5.12175e-06;0.0020968823298111103
5.12200e-06;0.0020633983340655384
5.12225e-06;0.0020287540251799235
5.12250e-06;0.0019937725083873045
5.12275e-06;0.001958790991594804
5.12300e-06;0.001923809474802303
5.12325e-06;0.0018888279580096838
5.12350e-06;0.0018538464412171832
5.12375e-06;0.001818864924424564
5.12400e-06;0.001783883407632063
5.12425e-06;0.0017512390242026658
5.12450e-06;0.0017247616603654654
5.12475e-06;0.0016982842965283548
5.12500e-06;0.0016718069326912442
5.12525e-06;0.0016453295688540438
5.12550e-06;0.0016188522050169332
5.12575e-06;0.0015923748411798225
5.12600e-06;0.0015658974773426221
5.12625e-06;0.0015394201135055115
5.12650e-06;0.0015128874747641417
5.12675e-06;0.001486338772139474
5.12700e-06;0.001459790069514896
5.12725e-06;0.0014332413668903183
5.12750e-06;0.0014066926642656505
5.12775e-06;0.0013801439616410727
5.12800e-06;0.001353595259016405
5.12825e-06;0.0013270465563918273
5.12850e-06;0.0013004978537672492
5.12875e-06;0.0012739491511425814
5.12900e-06;0.0012460944256706228
5.12925e-06;0.0012147934833014575
5.12950e-06;0.0011834925409321862
5.12975e-06;0.0011521915985630209
5.13000e-06;0.0011208906561938558
5.13025e-06;0.0010895897138245845
5.13050e-06;0.0010582887714554192
5.13075e-06;0.001026987829086254
5.13100e-06;0.0009956868867169826
5.13125e-06;0.0009643859443478174
5.13150e-06;0.0009330850019786521
5.13175e-06;0.0009013636720918469
5.13200e-06;0.0008695201700173669
5.13225e-06;0.0008376766679427789
5.13250e-06;0.0008058331658682989
5.13275e-06;0.0007739896637938188
5.13300e-06;0.0007446815737331279
5.13325e-06;0.0007161103200906882
5.13350e-06;0.0006875390664482483
5.13375e-06;0.0006589678128057116
5.13400e-06;0.0006303965591632718
5.13425e-06;0.000604775647663619
5.13450e-06;0.0005800121587543055
5.13475e-06;0.0005577235884098078
5.13500e-06;0.0005361542739970352
5.13525e-06;0.0005175588036552596
5.13550e-06;0.0004998275859877992
5.13575e-06;0.00048448309264077674
5.13600e-06;0.0004714630624732256
5.13625e-06;0.0004605734610215617
5.13650e-06;0.0004518480558500979
5.13675e-06;0.0004453190071046109
5.13700e-06;0.00044101934876770483
5.13725e-06;0.00043896720948322245
5.13750e-06;0.00043914325440443336
5.13775e-06;0.00044149958951703364
5.13800e-06;0.00044597730701764147
5.13825e-06;0.00045251463722560984
5.13850e-06;0.0004617940770965832
5.13875e-06;0.0004717365567610767
5.13900e-06;0.00048455519257380365
5.13925e-06;0.0004982096911900372
5.13950e-06;0.0005144676902123519
5.13975e-06;0.0005314823133663066
5.14000e-06;0.0005507387300281404
5.14025e-06;0.000570646652279358
5.14050e-06;0.0005928072222520489
5.14075e-06;0.0006156224522441981
5.14100e-06;0.0006384376822362698
5.14125e-06;0.0006634902873797412
5.14150e-06;0.0006891931140585811
5.14175e-06;0.0007148959407373341
5.14200e-06;0.0007405987674160869
5.14225e-06;0.000766301594094927
5.14250e-06;0.0007922021508713011
5.14275e-06;0.0008181601715770309
5.14300e-06;0.0008441181922828485
5.14325e-06;0.0008700762129885783
5.14350e-06;0.000896034233694308
5.14375e-06;0.0009199192318876523
5.14400e-06;0.000943201772384091
5.14425e-06;0.0009664843128805297
5.14450e-06;0.0009866817310655656
5.14475e-06;0.001005982557114665
5.14500e-06;0.0010252833831638298
5.14525e-06;0.0010408588235977722
5.14550e-06;0.001055351599842651
5.14575e-06;0.0010698443760875787
5.14600e-06;0.0010808080596087807
5.14625e-06;0.001090746125192288
5.14650e-06;0.001100684190775829
5.14675e-06;0.0011067429724267491
5.14700e-06;0.0011116743642644452
