Time(s);Current(A)
1.27500e-05;6.191359228157666e-05
1.27503e-05;4.8017064985339515e-05
1.27505e-05;3.2789718771006026e-05
1.27508e-05;1.6295498655648595e-05
1.27510e-05;-1.3630755771598516e-06
1.27513e-05;-1.9989777537460416e-05
1.27515e-05;-3.934718654295279e-05
1.27518e-05;-5.925500912287296e-05
1.27520e-05;-7.968910321858208e-05
1.27523e-05;-0.00010027586140119898
1.27525e-05;-0.00012109005418729988
1.27528e-05;-0.00014199519736117703
1.27530e-05;-0.00016290034053505418
1.27533e-05;-0.00018337151882815244
1.27535e-05;-0.00020366915592103335
1.27538e-05;-0.00022298111399375202
1.27540e-05;-0.00024189890210476293
1.27543e-05;-0.0002594143799623633
1.27545e-05;-0.0002763690783294076
1.27548e-05;-0.00029159679449600943
1.27550e-05;-0.0003061338958746738
1.27553e-05;-0.0003196952818319271
1.27555e-05;-0.0003328664822395068
1.27558e-05;-0.00034603768264717576
1.27560e-05;-0.00035848443535233535
1.27563e-05;-0.0003706414836838266
1.27565e-05;-0.0003827985320154002
1.27568e-05;-0.0003949555803469738
1.27570e-05;-0.00040711262867846503
1.27573e-05;-0.00041869571135312085
1.27575e-05;-0.000430049266954211
1.27577e-05;-0.00044140282255522426
1.27580e-05;-0.0004527563781563145
1.27583e-05;-0.00046410993375740466
1.27585e-05;-0.0004753598859496655
1.27588e-05;-0.00048656840746223696
1.27590e-05;-0.0004977769289748844
1.27593e-05;-0.0005089854504875319
1.27595e-05;-0.0005201939720001034
1.27598e-05;-0.0005314024935127509
1.27600e-05;-0.0005426110150253984
1.27603e-05;-0.0005537611632071147
1.27605e-05;-0.0005646973427158803
1.27608e-05;-0.0005756335222246458
1.27610e-05;-0.0005865697017333372
1.27613e-05;-0.0005975058812421027
1.27615e-05;-0.0006084420607508683
1.27618e-05;-0.0006193782402595597
1.27620e-05;-0.0006303144197683252
1.27623e-05;-0.0006405264703543559
1.27625e-05;-0.0006504489440456925
1.27628e-05;-0.0006603714177370964
1.27630e-05;-0.0006702938914285002
1.27633e-05;-0.0006802163651198369
1.27635e-05;-0.0006889199221839638
1.27638e-05;-0.0006971360382956893
1.27640e-05;-0.0007053521544073592
1.27643e-05;-0.0007135682705190848
1.27645e-05;-0.0007217843866308103
1.27648e-05;-0.0007288123012341946
1.27650e-05;-0.0007353650577653587
1.27653e-05;-0.00074240007950209
1.27655e-05;-0.0007496279575883099
1.27658e-05;-0.0007568558356745788
1.27660e-05;-0.0007658738309773813
1.27662e-05;-0.0007756076885642953
1.27665e-05;-0.0007853415461512752
1.27668e-05;-0.000795075403738255
1.27670e-05;-0.0008048092613252349
1.27673e-05;-0.0008171714715589091
1.27675e-05;-0.000830584751807551
1.27678e-05;-0.000843998032056193
1.27680e-05;-0.0008574113123047441
1.27683e-05;-0.000870824592553386
1.27685e-05;-0.0008873523297643181
1.27688e-05;-0.0009051255285877138
1.27690e-05;-0.00092289872741123
1.27693e-05;-0.0009406719262347461
1.27695e-05;-0.0009584451250581419
1.27698e-05;-0.0009762183238816581
1.27700e-05;-0.0009947047621123063
1.27703e-05;-0.00101580559440483
1.27705e-05;-0.001036906426697497
1.27708e-05;-0.0010580072589901636
1.27710e-05;-0.0010791080912826876
1.27713e-05;-0.0011002089235753543
1.27715e-05;-0.0011213097558680212
1.27718e-05;-0.001142566520334068
1.27720e-05;-0.0011638856415894742
1.27723e-05;-0.0011852047628448804
1.27725e-05;-0.0012065238841001424
1.27728e-05;-0.0012278430053555486
1.27730e-05;-0.001249162126610955
1.27733e-05;-0.0012704812478662169
1.27735e-05;-0.0012885351658756092
1.27738e-05;-0.0013052833393040425
1.27740e-05;-0.0013220315127323624
1.27743e-05;-0.0013387796861607957
1.27745e-05;-0.001355527859589229
1.27747e-05;-0.0013722760330175487
1.27750e-05;-0.001389024206445982
1.27753e-05;-0.001399399616523767
1.27755e-05;-0.0014072265784393877
1.27758e-05;-0.0014150535403549553
1.27760e-05;-0.001422880502270576
1.27763e-05;-0.0014307074641861967
1.27765e-05;-0.0014364248889551141
1.27768e-05;-0.001434409760900707
1.27770e-05;-0.0014323946328463001
1.27773e-05;-0.0014303795047919067
1.27775e-05;-0.0014283643767374996
1.27778e-05;-0.0014263492486830925
1.27780e-05;-0.001417275116702073
1.27783e-05;-0.0014053781110956304
1.27785e-05;-0.0013934811054891877
1.27788e-05;-0.0013815840998828255
1.27790e-05;-0.0013696870942763828
1.27793e-05;-0.00135779008866994
1.27795e-05;-0.001340205720229731
1.27798e-05;-0.0013203469931533298
1.27800e-05;-0.0013004882660769283
1.27803e-05;-0.0012806295390006617
1.27805e-05;-0.0012607708119242603
1.27808e-05;-0.001240912084847859
1.27810e-05;-0.001218568636178751
1.27813e-05;-0.0011952315551040362
1.27815e-05;-0.0011711926874070641
1.27818e-05;-0.0011468731774316168
1.27820e-05;-0.0011222440630485348
1.27823e-05;-0.001097491138829761
1.27825e-05;-0.0010728363017448125
1.27828e-05;-0.0010482206893981335
1.27830e-05;-0.0010241061156104094
1.27832e-05;-0.0010001919055778997
1.27835e-05;-0.000977189606512499
1.27838e-05;-0.0009545519777951509
1.27840e-05;-0.0009337162098616764
1.27843e-05;-0.0009136010004288731
1.27845e-05;-0.0008934857909959334
1.27848e-05;-0.0008762159400382791
1.27850e-05;-0.0008600839390494182
1.27853e-05;-0.000843951938060448
1.27855e-05;-0.000829724507294903
1.27858e-05;-0.0008162587082141654
1.27860e-05;-0.0008027929091333366
1.27863e-05;-0.0007911918882509438
1.27865e-05;-0.0007803365863468358
1.27868e-05;-0.0007694812844426541
1.27870e-05;-0.0007608338335498807
1.27873e-05;-0.0007530692953819575
1.27875e-05;-0.0007453047572139816
1.27878e-05;-0.0007375402190460058
1.27880e-05;-0.0007308340052914096
1.27883e-05;-0.0007266919829599884
1.27885e-05;-0.0007234061281638288
1.27888e-05;-0.0007201202733676915
1.27890e-05;-0.0007168344185715319
1.27893e-05;-0.0007135485637753724
1.27895e-05;-0.000710262708979235
1.27898e-05;-0.0007069768541830754
1.27900e-05;-0.0007036909993869159
1.27903e-05;-0.0007004051445907786
1.27905e-05;-0.0006995520549129676
1.27908e-05;-0.0006996718204090561
1.27910e-05;-0.0006997915859051439
1.27913e-05;-0.0006999113514012325
1.27915e-05;-0.0007000311168973211
1.27917e-05;-0.0007001508823934089
1.27920e-05;-0.0007002706478894975
1.27923e-05;-0.000700390413385586
1.27925e-05;-0.0007005101788816746
1.27928e-05;-0.0007013713336050823
1.27930e-05;-0.0007025289675653293
1.27933e-05;-0.0007036866015255763
1.27935e-05;-0.0007048442354858156
1.27938e-05;-0.0007060018694460626
1.27940e-05;-0.0007071595034063096
1.27943e-05;-0.0007083171373665488
1.27945e-05;-0.0007094156294662181
1.27948e-05;-0.0007102973358306709
1.27950e-05;-0.0007111790421951178
1.27953e-05;-0.0007120607485595707
1.27955e-05;-0.0007129424549240235
1.27958e-05;-0.0007138241612884704
1.27960e-05;-0.0007147058676529232
1.27963e-05;-0.000715587574017376
1.27965e-05;-0.000716531604588953
1.27968e-05;-0.000717500558416349
1.27970e-05;-0.000718469512243745
1.27973e-05;-0.0007194384660711346
1.27975e-05;-0.0007204074198985306
1.27978e-05;-0.0007213763737259266
1.27980e-05;-0.0007223453275533161
1.27983e-05;-0.0007233142813807121
1.27985e-05;-0.0007242832352081081
1.27988e-05;-0.0007252521890354977
1.27990e-05;-0.0007262211428628937
1.27993e-05;-0.0007271900966902897
1.27995e-05;-0.0007281590505176792
1.27998e-05;-0.0007291280043450752
1.28000e-05;-0.0007300969581724712
1.28002e-05;-0.0007310659119998608
1.28005e-05;-0.0007320841562751093
1.28008e-05;-0.0007331221116465395
1.28010e-05;-0.0007341600670179696
1.28013e-05;-0.0007351980223893927
1.28015e-05;-0.0007362359777608228
1.28018e-05;-0.000737273933132253
1.28020e-05;-0.0007383118885036762
1.28023e-05;-0.0007393498438751063
1.28025e-05;-0.0007403877992465365
1.28028e-05;-0.0007414257546179596
1.28030e-05;-0.0007424637099893897
1.28033e-05;-0.0007435016653608199
1.28035e-05;-0.000744539620732243
1.28038e-05;-0.0007455775761036731
1.28040e-05;-0.0007466155314751032
1.28043e-05;-0.0007476534868465263
1.28045e-05;-0.0007484656656155022
1.28048e-05;-0.0007491875570261534
1.28050e-05;-0.000749448887972317
1.28053e-05;-0.000749526042226858
1.28055e-05;-0.0007476411003789768
1.28058e-05;-0.0007449715224265084
1.28060e-05;-0.000742301944474022
1.28063e-05;-0.0007372301534366222
1.28065e-05;-0.0007311977248876813
1.28068e-05;-0.0007251652963386995
1.28070e-05;-0.0007167116526615495
1.28073e-05;-0.0007072897726150868
1.28075e-05;-0.0006978678925685601
1.28078e-05;-0.0006854606127306469
1.28080e-05;-0.0006718594808382864
1.28083e-05;-0.0006582583489458337
1.28085e-05;-0.0006422067434910207
1.28087e-05;-0.0006251752013104092
1.28090e-05;-0.0006081436591296823
1.28093e-05;-0.0005888531606979856
1.28095e-05;-0.0005686593127151518
1.28098e-05;-0.0005484654647324548
1.28100e-05;-0.0005265779054509644
1.28103e-05;-0.0005040130363097582
1.28105e-05;-0.0004805340316736264
1.28108e-05;-0.0004566894671072377
1.28110e-05;-0.0004322324608651207
1.28113e-05;-0.0004075305411093897
1.28115e-05;-0.0003823460650883999
1.28118e-05;-0.0003569686163237702
1.28120e-05;-0.000331462415202685
1.28123e-05;-0.00030590472641603677
1.28125e-05;-0.00028065574806755467
1.28128e-05;-0.00025553022205952877
1.28130e-05;-0.00023109696086175466
1.28133e-05;-0.0002069405342001068
1.28135e-05;-0.00018346475074927174
1.28138e-05;-0.00016083614291663187
1.28140e-05;-0.00013912960087478343
1.28143e-05;-0.0001185090789715999
1.28145e-05;-9.913851908376017e-05
1.28148e-05;-8.118163959606907e-05
1.28150e-05;-6.459678404269098e-05
1.28153e-05;-4.887148225359744e-05
1.28155e-05;-3.3354212670526744e-05
1.28158e-05;-1.7778940664496364e-05
1.28160e-05;-2.2100220021960254e-06
1.28163e-05;1.3216680725321523e-05
1.28165e-05;2.8365333511221502e-05
1.28168e-05;4.310025684272084e-05
1.28170e-05;5.740624965483803e-05
1.28172e-05;7.159240249384374e-05
1.28175e-05;8.615700316592956e-05
1.28178e-05;0.00010087294394477177
1.28180e-05;0.00011599739487012467
1.28183e-05;0.00013128520772744405
1.28185e-05;0.00014657302058486703
1.28188e-05;0.00016192186763104195
1.28190e-05;0.0001772951220586241
1.28193e-05;0.00019266837648631042
1.28195e-05;0.00020804163091399676
1.28198e-05;0.0002239172258729471
1.28200e-05;0.00023999370524202307
1.28203e-05;0.00025607018461109904
1.28205e-05;0.00027214666398006604
1.28208e-05;0.00028812806469912314
1.28210e-05;0.0003040714437629032
1.28213e-05;0.0003200148228265753
1.28215e-05;0.00033590819505439445
1.28218e-05;0.0003517815697046493
1.28220e-05;0.0003674978344631585
1.28223e-05;0.0003831512714666518
1.28225e-05;0.0003983608007810812
1.28228e-05;0.0004133928127965605
1.28230e-05;0.00042794436833526965
1.28233e-05;0.0004419899036854296
1.28235e-05;0.0004556133266680289
1.28238e-05;0.00046878045261162463
1.28240e-05;0.0004814062173075513
1.28243e-05;0.0004933945490113913
1.28245e-05;0.0005046494591388988
1.28248e-05;0.0005150748468311016
1.28250e-05;0.0005244639919094801
1.28253e-05;0.0005323757743954676
1.28255e-05;0.0005383486532128076
1.28257e-05;0.0005421836257528824
1.28260e-05;0.0005438827286988518
1.28263e-05;0.0005434900086222813
1.28265e-05;0.00054104961188241
1.28268e-05;0.0005358754284070674
1.28270e-05;0.0005298404872273691
1.28273e-05;0.0005205887953406415
1.28275e-05;0.0005100507348897866
1.28278e-05;0.0004961240529532131
1.28280e-05;0.0004808422718646523
1.28283e-05;0.0004625157979576796
1.28285e-05;0.0004429717608987301
1.28288e-05;0.00042073810311855036
1.28290e-05;0.00039742887440974076
1.28293e-05;0.00037217106308692346
1.28295e-05;0.00034482497846363274
1.28298e-05;0.00031519705807155703
1.28300e-05;0.0002848659772921238
1.28303e-05;0.0002530434959912068
1.28305e-05;0.0002198083104373768
1.28308e-05;0.00018556380139677554
1.28310e-05;0.00015046959722355872
1.28313e-05;0.00011462768364797776
1.28315e-05;7.813502420738521e-05
1.28318e-05;4.11531266447453e-05
1.28320e-05;3.8929000031409485e-06
1.28323e-05;-3.3424451405865294e-05
1.28325e-05;-7.057774042061657e-05
1.28328e-05;-0.00010734582275678647
1.28330e-05;-0.00014352461074857724
1.28333e-05;-0.0001789460839004116
1.28335e-05;-0.00021344543075269243
1.28338e-05;-0.0002468173875754064
1.28340e-05;-0.0002788258005465558
1.28342e-05;-0.000309228026869136
1.28345e-05;-0.000337781481965144
1.28348e-05;-0.0003642439471510463
1.28350e-05;-0.00038839857580287357
1.28353e-05;-0.00041187707238961844
1.28355e-05;-0.0004353259848325799
1.28358e-05;-0.0004587630666687439
1.28360e-05;-0.0004823387761026455
1.28363e-05;-0.000505969922280295
1.28365e-05;-0.0005296010684579445
1.28368e-05;-0.0005526788130428766
1.28370e-05;-0.0005755352540588751
1.28373e-05;-0.0005983916950748737
1.28375e-05;-0.0006225677420633799
1.28378e-05;-0.0006472714953605971
1.28380e-05;-0.0006719752486578143
1.28383e-05;-0.0006966790019548642
1.28385e-05;-0.000722387077687443
1.28388e-05;-0.000748496778826364
1.28390e-05;-0.0007746064799651082
1.28393e-05;-0.0008007161811040293
1.28395e-05;-0.0008283357706019795
1.28398e-05;-0.0008565591597405663
1.28400e-05;-0.0008847825488793443
1.28403e-05;-0.0009130059380181223
1.28405e-05;-0.0009412293271567092
1.28408e-05;-0.0009694527162954872
1.28410e-05;-0.0009976761054342653
1.28413e-05;-0.0010257945287079123
1.28415e-05;-0.0010535281973928718
1.28418e-05;-0.0010812618660778312
1.28420e-05;-0.0011089955347626027
1.28423e-05;-0.0011367292034475621
1.28425e-05;-0.0011644628721325214
1.28427e-05;-0.001192196540817293
1.28430e-05;-0.0012199302095022523
1.28433e-05;-0.0012453729552612581
1.28435e-05;-0.0012698995680944004
1.28438e-05;-0.0012944261809273766
1.28440e-05;-0.001316683137599853
1.28443e-05;-0.0013380324658594802
1.28445e-05;-0.0013593817941189626
1.28448e-05;-0.0013778216337415783
1.28450e-05;-0.0013950979779415536
1.28453e-05;-0.001412374322141412
1.28455e-05;-0.0014285445838757534
1.28458e-05;-0.001444272526685216
1.28460e-05;-0.001460000469494572
1.28463e-05;-0.0014745413690297317
1.28465e-05;-0.001488607573665365
1.28468e-05;-0.001502673778300903
1.28470e-05;-0.0015167399829365364
1.28473e-05;-0.0015305882378475841
1.28475e-05;-0.001543637593452078
1.28478e-05;-0.0015566869490566604
1.28480e-05;-0.0015697363046612428
1.28483e-05;-0.0015827856602657368
1.28485e-05;-0.0015954244935919705
1.28488e-05;-0.0016078991603406985
1.28490e-05;-0.0016203738270893421
1.28493e-05;-0.0016328484938380702
1.28495e-05;-0.0016453231605867982
1.28498e-05;-0.0016577978273354418
1.28500e-05;-0.0016702724940841698
1.28503e-05;-0.0016823304464400122
1.28505e-05;-0.0016942217560109848
1.28508e-05;-0.0017061130655820383
1.28510e-05;-0.0017180043751530915
1.28512e-05;-0.0017298956847240643
1.28515e-05;-0.0017417869942951175
1.28518e-05;-0.0017536783038661708
1.28520e-05;-0.0017648273635711405
1.28523e-05;-0.0017756795998717738
1.28525e-05;-0.0017865318361724807
1.28528e-05;-0.0017973840724731876
1.28530e-05;-0.001808236308773821
1.28533e-05;-0.001817831349934131
1.28535e-05;-0.0018269236426825225
1.28538e-05;-0.0018360159354308524
1.28540e-05;-0.0018451082281792442
1.28543e-05;-0.0018542005209276357
1.28545e-05;-0.0018623036928754112
1.28548e-05;-0.0018695671613342447
1.28550e-05;-0.0018758651555820397
1.28553e-05;-0.0018801918751158364
1.28555e-05;-0.0018814320851767731
1.28558e-05;-0.0018778703172518869
1.28560e-05;-0.0018727759245610967
1.28563e-05;-0.0018618168859371375
1.28565e-05;-0.00184851259371276
1.28568e-05;-0.0018352083014884725
1.28570e-05;-0.0018161163694231472
1.28573e-05;-0.0017947099782532714
1.28575e-05;-0.001766063309642444
1.28578e-05;-0.001734521276685367
1.28580e-05;-0.00170297924372829
1.28583e-05;-0.0016660284059767986
1.28585e-05;-0.0016245457103998655
1.28588e-05;-0.0015799478886682101
1.28590e-05;-0.0015324013396917397
1.28593e-05;-0.0014818204497740715
1.28595e-05;-0.001428076732571315
1.28597e-05;-0.001371293921724031
1.28600e-05;-0.0013117960753866854
1.28603e-05;-0.001249949718897291
1.28605e-05;-0.0011861215272642076
1.28608e-05;-0.001120677792952003
1.28610e-05;-0.0010539127088103155
1.28613e-05;-0.0009859626791470248
1.28615e-05;-0.0009169371278628639
1.28618e-05;-0.0008471034718635798
1.28620e-05;-0.0007768546510042852
1.28623e-05;-0.0007066102344298886
1.28625e-05;-0.0006367896748471062
1.28628e-05;-0.0005678123168733329
1.28630e-05;-0.0005000522702880872
1.28633e-05;-0.00043378468921967866
1.28635e-05;-0.00036926793783237144
1.28638e-05;-0.0003068592599976232
1.28640e-05;-0.0002469945759529336
1.28643e-05;-0.0001901263567074212
1.28645e-05;-0.000136707009870329
1.28648e-05;-8.718888588003782e-05
1.28650e-05;-4.2010340404700093e-05
1.28653e-05;-1.532090627007792e-06
1.28655e-05;3.402474304927746e-05
1.28658e-05;6.454465073631519e-05
1.28660e-05;8.994522323251965e-05
1.28663e-05;0.00011014752731475301
1.28665e-05;0.00012507268328983655
1.28668e-05;0.0001346418790279496
1.28670e-05;0.00013878506537159238
1.28673e-05;0.00013748083977906233
1.28675e-05;0.0001307952730587465
1.28678e-05;0.00011886057946367398
1.28680e-05;0.000101829696900441
1.28682e-05;7.985773839332334e-05
1.28685e-05;5.3099848148368806e-05
1.28688e-05;2.1711204673308764e-05
1.28690e-05;-1.4147520683730088e-05
1.28693e-05;-5.42851909811563e-05
1.28695e-05;-9.845589812759216e-05
1.28698e-05;-0.0001463723129162835
1.28700e-05;-0.0001977341438561372
1.28703e-05;-0.00025223975884898806
1.28705e-05;-0.000309587505005669
1.28708e-05;-0.0003694757211230855
1.28710e-05;-0.0004322482229555956
1.28713e-05;-0.0004958937745188362
1.28715e-05;-0.000561599644451169
1.28718e-05;-0.0006281294292684176
1.28720e-05;-0.000695607507520065
1.28723e-05;-0.0007634648053554768
1.28725e-05;-0.000831146802065819
1.28728e-05;-0.0008987586964032794
1.28730e-05;-0.0009650620277133638
1.28733e-05;-0.0010308420687542164
1.28735e-05;-0.0010941040064239766
1.28738e-05;-0.0011563589624156573
1.28740e-05;-0.0012148161292943396
1.28743e-05;-0.0012717545721615889
1.28745e-05;-0.0013236084923689388
1.28748e-05;-0.0013734291278367065
1.28750e-05;-0.001417856301517198
1.28753e-05;-0.0014601266466646107
1.28755e-05;-0.0014982537840833481
1.28758e-05;-0.001534724065664432
1.28760e-05;-0.0015711943472452687
1.28763e-05;-0.0016022876188446812
1.28765e-05;-0.0016312306409368648
1.28767e-05;-0.0016601736630288521
1.28770e-05;-0.0016840727306459168
1.28773e-05;-0.0017059547366131166
1.28775e-05;-0.0017245732975761602
1.28778e-05;-0.0017418868170687883
1.28780e-05;-0.0017592003365615337
1.28783e-05;-0.0017714903127212212
1.28785e-05;-0.0017817713895829038
1.28788e-05;-0.0017920524664446563
1.28790e-05;-0.0018023335433064087
1.28793e-05;-0.0018111526003754255
1.28795e-05;-0.0018146125930904849
1.28798e-05;-0.001818072585805544
1.28800e-05;-0.00182153257852058
1.28803e-05;-0.0018249925712356392
1.28805e-05;-0.0018253334753394134
1.28808e-05;-0.001824427065643671
1.28810e-05;-0.0018235206559479224
1.28813e-05;-0.0018207587265273448
1.28815e-05;-0.001817254780560799
1.28818e-05;-0.0018137508345942295
1.28820e-05;-0.001809248664587349
1.28823e-05;-0.0018043473079027174
1.28825e-05;-0.0017994459512180525
1.28828e-05;-0.001793734672287138
1.28830e-05;-0.0017876995079781342
1.28833e-05;-0.0017816643436690896
1.28835e-05;-0.0017756694010445987
1.28838e-05;-0.0017696905429462515
1.28840e-05;-0.00176385204633344
1.28843e-05;-0.001758528047703393
1.28845e-05;-0.0017532040490733823
1.28848e-05;-0.0017483399497860324
1.28850e-05;-0.001743659762810285
1.28853e-05;-0.0017378734240694163
1.28855e-05;-0.001731644738690388
1.28858e-05;-0.0017230153509670888
1.28860e-05;-0.0017134259298698996
1.28863e-05;-0.001700782418884361
1.28865e-05;-0.0016869175868854168
1.28868e-05;-0.0016730527548864725
1.28870e-05;-0.0016591879228876221
1.28873e-05;-0.0016404443890483502
1.28875e-05;-0.001619749877571446
1.28878e-05;-0.0015990553660946822
1.28880e-05;-0.001578360854617778
1.28883e-05;-0.001553120475047258
1.28885e-05;-0.001526062217015636
1.28888e-05;-0.0014990039589838308
1.28890e-05;-0.0014694139108433776
1.28893e-05;-0.0014388114077413122
1.28895e-05;-0.0014059395949790803
1.28898e-05;-0.0013721602923671332
1.28900e-05;-0.001336885025833887
1.28903e-05;-0.0013002252508905827
1.28905e-05;-0.0012626228561000744
1.28908e-05;-0.0012242993133092692
1.28910e-05;-0.001185419113165365
1.28913e-05;-0.0011460199000469717
1.28915e-05;-0.001106111354061399
1.28918e-05;-0.0010658204593013635
1.28920e-05;-0.0010253701548816779
1.28923e-05;-0.0009850037405006655
1.28925e-05;-0.0009449645907126247
1.28928e-05;-0.0009054960052158799
1.28930e-05;-0.0008668055997970562
