Time(s);Current(A)
1.05000e-05;0.004004446447162468
1.05002e-05;0.003972761057052115
1.05005e-05;0.003941075666941547
1.05008e-05;0.003909390276830979
1.05010e-05;0.0038777048867206262
1.05013e-05;0.0038460194966100586
1.05015e-05;0.003812296167297636
1.05017e-05;0.0037785079239892015
1.05020e-05;0.003744719680680538
1.05023e-05;0.003710931437371875
1.05025e-05;0.0036771431940634406
1.05028e-05;0.003643354950754777
1.05030e-05;0.0036095667074461137
1.05033e-05;0.00357577846413745
1.05035e-05;0.003541990220829016
1.05038e-05;0.0035082019775203527
1.05040e-05;0.003486855072951212
1.05043e-05;0.0034659044594079627
1.05045e-05;0.0034449538458645713
1.05048e-05;0.00342400323232118
1.05050e-05;0.003403052618777931
1.05053e-05;0.0033821020052345395
1.05055e-05;0.0033611513916911484
1.05058e-05;0.003340200778147899
1.05060e-05;0.003319250164604508
1.05063e-05;0.0032982995510611166
1.05065e-05;0.0032892200028966073
1.05068e-05;0.0032805185809753157
1.05070e-05;0.003271817159054024
1.05073e-05;0.003263115737132791
1.05075e-05;0.0032544143152114994
1.05078e-05;0.003245712893290208
1.05080e-05;0.0032370114713689752
1.05083e-05;0.0032283100494476837
1.05085e-05;0.003219608627526392
1.05087e-05;0.003210907205605159
1.05090e-05;0.0032022057836838674
1.05093e-05;0.003193504361762576
1.05095e-05;0.0031848029398413432
1.05098e-05;0.0031761015179200516
1.05100e-05;0.00316740009599876
1.05102e-05;0.0031617454646897148
1.05105e-05;0.00315953859069984
1.05108e-05;0.003157331716709966
1.05110e-05;0.003155124842720107
1.05113e-05;0.003152917968730232
1.05115e-05;0.003150711094740358
1.05118e-05;0.0031485042207504838
1.05120e-05;0.0031462973467606243
1.05123e-05;0.00314409047277075
1.05125e-05;0.003141883598780876
1.05128e-05;0.0031396767247910164
1.05130e-05;0.003137469850801142
1.05133e-05;0.0031352629768112675
1.05135e-05;0.0031330561028214085
1.05138e-05;0.0031308492288315342
1.05140e-05;0.0031286423548416596
1.05143e-05;0.0031253966973354692
1.05145e-05;0.0031221179517030464
1.05148e-05;0.003118839206070624
1.05150e-05;0.003115560460438224
1.05153e-05;0.003112281714805801
1.05155e-05;0.0031090029691733783
1.05158e-05;0.003105724223540978
1.05160e-05;0.0031024454779085553
1.05163e-05;0.003099166732276133
1.05165e-05;0.0030958879866437323
1.05168e-05;0.00309260924101131
1.05170e-05;0.003089330495378887
1.05172e-05;0.003086051749746487
1.05175e-05;0.003082773004114064
1.05178e-05;0.003079494258481642
1.05180e-05;0.003076215512849241
1.05183e-05;0.003072936767216819
1.05185e-05;0.003069658021584396
1.05187e-05;0.0030663792759519958
1.05190e-05;0.0030603151421495466
1.05193e-05;0.003054162286034883
1.05195e-05;0.003048009429920261
1.05198e-05;0.0030418565738055976
1.05200e-05;0.003035703717690934
1.05203e-05;0.00302955086157627
1.05205e-05;0.0030233980054616486
1.05208e-05;0.003017245149346985
1.05210e-05;0.003011092293232321
1.05213e-05;0.003004939437117699
1.05215e-05;0.002998786581003036
1.05218e-05;0.002992633724888372
1.05220e-05;0.00298648086877375
1.05223e-05;0.002980328012659087
1.05225e-05;0.002974175156544423
1.05228e-05;0.002968022300429801
1.05230e-05;0.002961869444315138
1.05233e-05;0.002955716588200474
1.05235e-05;0.002949563732085852
1.05238e-05;0.00295065444039848
1.05240e-05;0.0029519758762601256
1.05243e-05;0.0029532973121217626
1.05245e-05;0.0029546187479834087
1.05248e-05;0.002955940183845055
1.05250e-05;0.002957261619706692
1.05253e-05;0.002958583055568338
1.05255e-05;0.0029599044914299837
1.05257e-05;0.0029612259272916207
1.05260e-05;0.002962547363153267
1.05263e-05;0.002974660459008291
1.05265e-05;0.0029989854294167223
1.05268e-05;0.0030233103998253182
1.05270e-05;0.003047635370233914
1.05272e-05;0.0030719603406423454
1.05275e-05;0.003096285311050941
1.05278e-05;0.003120610281459537
1.05280e-05;0.003144935251867968
1.05283e-05;0.003169260222276564
1.05285e-05;0.00319358519268516
1.05288e-05;0.003217910163093756
1.05290e-05;0.0032595377232568683
1.05293e-05;0.0033017164187304692
1.05295e-05;0.00334389511420407
1.05298e-05;0.0033860738096773853
1.05300e-05;0.003428252505150986
1.05303e-05;0.0034704312006245868
1.05305e-05;0.003512609896097902
1.05308e-05;0.003554788591571503
1.05310e-05;0.003598161572705048
1.05313e-05;0.003642886011044217
1.05315e-05;0.0036876104493836887
1.05318e-05;0.0037323348877231605
1.05320e-05;0.003777059326062329
1.05323e-05;0.003821783764401801
1.05325e-05;0.003866508202741273
1.05328e-05;0.003911232641080442
1.05330e-05;0.003955957079419914
1.05333e-05;0.00398379048657027
1.05335e-05;0.0040110858676874256
1.05338e-05;0.004038381248804766
1.05340e-05;0.004065676629922105
1.05342e-05;0.00409297201103926
1.05345e-05;0.004120267392156599
1.05348e-05;0.004147562773273939
1.05350e-05;0.004174858154391095
1.05353e-05;0.004202153535508434
1.05355e-05;0.004229448916625774
1.05357e-05;0.004256744297742929
1.05360e-05;0.004284039678860268
1.05363e-05;0.004311335059977608
1.05365e-05;0.004319236331628145
1.05368e-05;0.004326519847283222
1.05370e-05;0.004333803362938299
1.05373e-05;0.004341086878593377
1.05375e-05;0.004348370394248405
1.05378e-05;0.0043556539099034825
1.05380e-05;0.00436293742555856
1.05383e-05;0.004370220941213588
1.05385e-05;0.004377504456868665
1.05388e-05;0.004384787972523742
1.05390e-05;0.004392071488178771
1.05393e-05;0.004399355003833848
1.05395e-05;0.004406638519488926
1.05398e-05;0.004404645971155911
1.05400e-05;0.004402357954543795
1.05403e-05;0.004400069937931679
1.05405e-05;0.004397781921319578
1.05408e-05;0.004395493904707461
1.05410e-05;0.0043932058880953445
1.05413e-05;0.0043909178714832435
1.05415e-05;0.004388629854871127
1.05418e-05;0.004386341838259011
1.05420e-05;0.00438405382164691
1.05423e-05;0.004381765805034793
1.05425e-05;0.0043783606618405715
1.05427e-05;0.004373691374882049
1.05430e-05;0.004369022087923494
1.05433e-05;0.004364352800964939
1.05435e-05;0.004359683514006416
1.05438e-05;0.004355014227047861
1.05440e-05;0.004350344940089306
1.05442e-05;0.004345675653130783
1.05445e-05;0.0043410063661722285
1.05448e-05;0.004336337079213673
1.05450e-05;0.00433166779225515
1.05453e-05;0.004326998505296596
1.05455e-05;0.004310432763325482
1.05458e-05;0.004293488086377392
1.05460e-05;0.004276543409429416
1.05463e-05;0.004259598732481326
1.05465e-05;0.004242654055533235
1.05468e-05;0.00422570937858526
1.05470e-05;0.00420876470163717
1.05473e-05;0.0041918200246890795
1.05475e-05;0.004174875347741104
1.05478e-05;0.004157930670793013
1.05480e-05;0.004140985993844923
1.05483e-05;0.004124041316896947
1.05485e-05;0.00409306429795798
1.05488e-05;0.004061640310137235
1.05490e-05;0.004030216322316703
1.05493e-05;0.003998792334495959
1.05495e-05;0.003967368346675214
1.05498e-05;0.003935944358854683
1.05500e-05;0.0039045203710339382
1.05503e-05;0.0038730963832131937
1.05505e-05;0.003841672395392662
1.05508e-05;0.0038102484075719176
1.05510e-05;0.003778824419751173
1.05512e-05;0.0037474004319306416
1.05515e-05;0.0037146738336518255
1.05518e-05;0.0036819057436290976
1.05520e-05;0.003649137653606592
1.05523e-05;0.003616369563583864
1.05525e-05;0.003583601473561136
1.05527e-05;0.0035508333835386303
1.05530e-05;0.0035180652935159025
1.05533e-05;0.0034852972034931746
1.05535e-05;0.0034642483203707235
1.05538e-05;0.0034435727263836162
1.05540e-05;0.003422897132396509
1.05543e-05;0.0034022215384094017
1.05545e-05;0.003381545944422435
1.05548e-05;0.0033608703504353276
1.05550e-05;0.0033401947564482204
1.05553e-05;0.003319519162461253
1.05555e-05;0.0033255565062912345
1.05558e-05;0.0033324447310345505
1.05560e-05;0.0033393329557778197
1.05563e-05;0.0033462211805211357
1.05565e-05;0.0033531094052644517
1.05568e-05;0.003359997630007721
1.05570e-05;0.003366885854751037
1.05573e-05;0.003373774079494353
1.05575e-05;0.0033806623042376225
1.05578e-05;0.0033875505289809385
1.05580e-05;0.003422019041750495
1.05583e-05;0.0034573660629351652
1.05585e-05;0.0034927130841200748
1.05588e-05;0.0035280601053049843
1.05590e-05;0.0035634071264896545
1.05593e-05;0.003598754147674564
1.05595e-05;0.0036341011688594735
1.05597e-05;0.0036694481900441433
1.05600e-05;0.0037047952112290532
1.05603e-05;0.0037401422324139628
1.05605e-05;0.0037850219899649928
1.05608e-05;0.0038302053915215393
1.05610e-05;0.0038753887930780863
1.05612e-05;0.003920572194634327
1.05615e-05;0.003942925724102702
1.05618e-05;0.003999257503036239
1.05620e-05;-0.056993524890940804
1.05623e-05;-0.026543802776716603
1.05625e-05;-0.010958076734912265
1.05628e-05;0.007893844843127707
1.05630e-05;0.026552860659538553
1.05633e-05;0.026678348559457988
1.05635e-05;0.01688195895066099
1.05638e-05;0.002095033875764398
1.05640e-05;-0.014288359497463283
1.05643e-05;-0.013634680575710769
1.05645e-05;-0.0036711147469263277
1.05648e-05;0.007944981668753667
1.05650e-05;0.01942098977548562
1.05653e-05;0.019374769276312594
1.05655e-05;0.013158825852875733
1.05658e-05;0.003839110097139227
1.05660e-05;-0.006469450853889851
1.05663e-05;-0.006100705319081018
1.05665e-05;0.0001017035237728418
1.05668e-05;0.0073396835704892995
1.05670e-05;0.014489737033954819
1.05673e-05;0.01442220493553582
1.05675e-05;0.010490313034715159
1.05678e-05;0.004614827258929406
1.05680e-05;-0.0018793178841578903
1.05682e-05;-0.001684686159154231
1.05685e-05;0.002164255656354798
1.05688e-05;0.006661857068720398
1.05690e-05;0.011104401668502843
1.05693e-05;0.011026158086852159
1.05695e-05;0.008527970629698324
1.05697e-05;0.004813243070110623
1.05700e-05;0.0007120596344308942
1.05703e-05;0.0008016885203095234
1.05705e-05;0.0031811231809517394
1.05708e-05;0.00596758099582417
1.05710e-05;0.008720314863610907
1.05713e-05;0.008642204402748172
1.05715e-05;0.007049492879680707
1.05718e-05;0.004696175211988543
1.05720e-05;0.002102339503711414
1.05723e-05;0.0021351522692235965
1.05725e-05;0.0036037213833054996
1.05728e-05;0.005328678919341597
1.05730e-05;0.00703401215656468
1.05733e-05;0.00696777489709285
1.05735e-05;0.005954667174503825
1.05738e-05;0.0044671394147598725
1.05740e-05;0.0028310879194494466
1.05743e-05;0.0028423902895903888
1.05745e-05;0.003754063816365978
1.05748e-05;0.00482567107529467
1.05750e-05;0.005883383220598512
1.05753e-05;0.0058297715257319745
1.05755e-05;0.0051815949860129894
1.05758e-05;0.004234929723944325
1.05760e-05;0.0031940299946393567
1.05763e-05;0.003183883920095153
1.05765e-05;0.0037366045115570156
1.05767e-05;0.004388448573843032
1.05770e-05;0.005030621617374772
1.05773e-05;0.0049758251070479605
1.05775e-05;0.004547900720451568
1.05778e-05;0.00393243392696537
1.05780e-05;0.0032574770911604836
1.05782e-05;0.003227791826346717
1.05785e-05;0.0035503468946340953
1.05788e-05;0.003934733298697662
1.05790e-05;0.004312897625033936
1.05793e-05;0.004254436231461365
1.05795e-05;0.003962331722219557
1.05798e-05;0.0035529498635317094
1.05800e-05;0.0031066085676371576
1.05803e-05;0.003064852093831854
1.05805e-05;0.0032441966593101386
1.05808e-05;0.0034628181455100926
1.05810e-05;0.003678186555335971
1.05813e-05;0.003620809423099482
1.05815e-05;0.003417954788464383
1.05818e-05;0.003142623534326499
1.05820e-05;0.00284523202655273
1.05823e-05;0.0028024521885874148
1.05825e-05;0.0028994332463691866
1.05828e-05;0.003022374074042614
1.05830e-05;0.0031447331376380653
1.05833e-05;0.0030978100967932517
1.05835e-05;0.0029614381008478377
1.05838e-05;0.0027814522416572725
1.05840e-05;0.0025895370371605483
1.05843e-05;0.00255901568663549
1.05845e-05;0.0026174225471424194
1.05848e-05;0.0026924697220700464
1.05850e-05;0.002766933912038089
1.05853e-05;0.0027350687422345423
1.05855e-05;0.0026469034692907937
1.05858e-05;0.002531170803524561
1.05860e-05;0.0024077367966743
1.05863e-05;0.00238518455371366
1.05865e-05;0.002418132433267356
1.05867e-05;0.0024613142038813983
1.05870e-05;0.002503958466708434
1.05873e-05;0.0024798474157779315
1.05875e-05;0.002420341598376292
1.05878e-05;0.0023434598185136514
1.05880e-05;0.0022616655761779274
1.05883e-05;0.002242990300862462
1.05885e-05;0.00225902091764343
1.05888e-05;0.0022814193961657727
1.05890e-05;0.0023034564773950984
1.05893e-05;0.002283673770074594
1.05895e-05;0.002241737013074929
1.05898e-05;0.0021889526472487534
1.05900e-05;0.0021331474655445597
1.05903e-05;0.0021169531957509436
1.05905e-05;0.0021225875269219215
1.05908e-05;0.0021323170956835283
1.05910e-05;0.0021419451622438205
1.05913e-05;0.002125521939851838
1.05915e-05;0.002095387049502783
1.05918e-05;0.0020579357373042765
1.05920e-05;0.0020201771261615133
1.05923e-05;0.0020068106948030024
1.05925e-05;0.0020073244830961855
1.05928e-05;0.0020107157369293836
1.05930e-05;0.002014211572628513
1.05933e-05;0.002001734668082801
1.05935e-05;0.001980987086658818
1.05938e-05;0.0019561614386967483
1.05940e-05;0.001931165672116559
1.05943e-05;0.001921936438155794
1.05945e-05;0.0019214568388434303
1.05948e-05;0.001921957214550854
1.05950e-05;0.0019224855654889675
1.05952e-05;0.0019119329844585198
1.05955e-05;0.0018954774828350352
1.05958e-05;0.0018755098776994902
1.05960e-05;0.0018553934847108466
1.05963e-05;0.0018465689077311995
1.05965e-05;0.0018382587163978774
1.05968e-05;0.0018319119512364187
1.05970e-05;0.0018256546276882422
1.05973e-05;0.001809994091665298
1.05975e-05;0.0017939052031504567
1.05978e-05;0.001775243043143421
1.05980e-05;0.0017564636607232957
1.05983e-05;0.0017376842783031704
1.05985e-05;0.0017250948732067254
1.05988e-05;0.0017108051650943671
1.05990e-05;0.0016964251564912315
1.05993e-05;0.001682045147888193
1.05995e-05;0.0016611046859862507
1.05998e-05;0.00163986537020575
1.06000e-05;0.0016186260544253934
1.06003e-05;0.0016016166672072035
1.06005e-05;0.001584799969502908
1.06008e-05;0.0015679832717987268
1.06010e-05;0.0015496290728167178
1.06013e-05;0.0015312048347384216
1.06015e-05;0.00151278059666025
1.06018e-05;0.0014932954804734748
1.06020e-05;0.0014737620372088115
1.06023e-05;0.0014542285939442808
1.06025e-05;0.0014387541674139095
1.06028e-05;0.0014234646447064472
1.06030e-05;0.0014081751219990886
1.06033e-05;0.00139249600939852
1.06035e-05;0.0013767991494799852
1.06037e-05;0.001361102289561557
1.06040e-05;0.0013487061248857934
1.06043e-05;0.0013364603195726034
1.06045e-05;0.0013242145142594967
1.06048e-05;0.0013156352779783457
1.06050e-05;0.001307223068018024
1.06053e-05;0.0012988108580577024
1.06055e-05;0.0012920119369869475
1.06058e-05;0.0012852865074296836
1.06060e-05;0.0012785610778724198
1.06063e-05;0.001276116126694772
1.06065e-05;0.0012738661677698126
1.06068e-05;0.0012716162088448532
1.06070e-05;0.0012718764825977971
1.06073e-05;0.001272251107103437
1.06075e-05;0.001272625731609077
1.06078e-05;0.0012752555757264432
1.06080e-05;0.001277988153770592
1.06083e-05;0.0012807207318147407
1.06085e-05;0.0012865230792832901
1.06088e-05;0.0012924652665553024
1.06090e-05;0.0012984074538273146
1.06093e-05;0.001305679747090412
1.06095e-05;0.0013130126317969688
1.06098e-05;0.0013203455165035256
1.06100e-05;0.0013293094307843835
1.06103e-05;0.0013383476447352757
1.06105e-05;0.0013473858586861682
1.06108e-05;0.0013575444080197645
1.06110e-05;0.0013677539929388793
1.06113e-05;0.0013779635778579944
1.06115e-05;0.0013881890106273163
1.06118e-05;0.0013984151653272379
1.06120e-05;0.0014086413200271595
1.06122e-05;0.0014189392539832974
1.06125e-05;0.00142924045776069
1.06128e-05;0.0014395416615380827
1.06130e-05;0.0014488798578889167
1.06133e-05;0.0014581741855478282
1.06135e-05;0.00146746851320674
1.06138e-05;0.0014751822126512408
1.06140e-05;0.0014828239084014455
1.06143e-05;0.0014904656041517018
1.06145e-05;0.001500402417497296
1.06148e-05;0.0015104437822763027
1.06150e-05;0.0015204851470553779
1.06153e-05;0.0015380164582527167
1.06155e-05;0.0015558889653156467
1.06158e-05;0.0015737614723786977
1.06160e-05;0.0015981336764613547
1.06163e-05;0.0016228019667409931
1.06165e-05;0.0016474702570207988
1.06168e-05;0.0016809763403946548
1.06170e-05;0.001714885019234029
1.06173e-05;0.001748793698073633
1.06175e-05;0.0017915063216712736
1.06178e-05;0.0018346199988125485
1.06180e-05;0.0018777336759541155
1.06183e-05;0.0019278391128761572
1.06185e-05;0.0019782630513463977
1.06188e-05;0.0020286869898169797
1.06190e-05;0.002086315019570152
1.06193e-05;0.0021442712233880803
1.06195e-05;0.0022022274272064015
1.06198e-05;0.0022649192804479056
1.06200e-05;0.0023278268607337437
1.06203e-05;0.002390734441020008
1.06205e-05;0.0024562905051367678
1.06207e-05;0.0025219672178777774
1.06210e-05;0.0025876439306192316
1.06213e-05;0.0026542058961118707
1.06215e-05;0.0027208081882716126
1.06218e-05;0.0027874104804318056
1.06220e-05;0.0028516154790441156
1.06222e-05;0.002915711271714726
1.06225e-05;0.0029798070643857707
1.06228e-05;0.003039042057865322
1.06230e-05;0.00309805562324669
1.06233e-05;0.003157069188627658
1.06235e-05;0.003208175901497356
1.06238e-05;0.0032589224268247206
1.06240e-05;0.0033096689521517416
1.06243e-05;0.003349211307135926
1.06245e-05;0.0033882432690687044
1.06248e-05;0.003427275231001218
1.06250e-05;0.003453955148320912
1.06253e-05;0.0034800723825012827
1.06255e-05;0.0035061896166814766
1.06258e-05;0.003519224691704161
1.06260e-05;0.003531663824061826
1.06263e-05;0.003544102956419407
1.06265e-05;0.0035431860995506536
1.06268e-05;0.00354166082600407
1.06270e-05;0.003540135552457497
1.06273e-05;0.003526238044062326
1.06275e-05;0.0035117769327849516
1.06278e-05;0.0034973158215076752
1.06280e-05;0.0034714274823224806
1.06283e-05;0.0034450185889558257
1.06285e-05;0.00341860969558935
1.06288e-05;0.0033823503426311974
1.06290e-05;0.0033456422633527283
1.06292e-05;0.003308934184074508
1.06295e-05;0.0032644508599592344
1.06298e-05;0.003219613343537161
1.06300e-05;0.003174775827115392
1.06303e-05;0.003124238354839985
1.06305e-05;0.003073441227652733
1.06307e-05;0.0030226441004658254
1.06310e-05;0.0029687494051665007
1.06313e-05;0.0029147136037260234
1.06315e-05;0.002860677802285546
1.06318e-05;0.002806248885084078
1.06320e-05;0.002751802059947337
1.06323e-05;0.002697355234810596
1.06325e-05;0.0026453310152450907
1.06328e-05;0.0025934171546806604
1.06330e-05;0.0025415032941162297
1.06333e-05;0.0024951359584614577
1.06335e-05;0.0024490212883487286
1.06338e-05;0.0024029066182359995
1.06340e-05;0.00236503780359581
1.06343e-05;0.00232754461938694
1.06345e-05;0.00229005143517807
1.06348e-05;0.0022575326202350925
1.06350e-05;0.0022252404069441627
1.06353e-05;0.002192948193653233
1.06355e-05;0.002164136717575681
1.06358e-05;0.0021354838024654904
1.06360e-05;0.0021068308873552996
1.06363e-05;0.0020826764606298375
1.06365e-05;0.0020587269573520985
1.06368e-05;0.0020347774540743595
1.06370e-05;0.0020126326015501125
1.06373e-05;0.0019905699578085445
1.06375e-05;0.001968507314066977
1.06377e-05;0.001948714438782901
1.06380e-05;0.0019290249601818825
1.06383e-05;0.0019093354815808638
1.06385e-05;0.0018918124820525067
1.06388e-05;0.0018743881739784894
1.06390e-05;0.0018569638659044721
1.06392e-05;0.0018404675292600014
1.06395e-05;0.001824013465283197
1.06398e-05;0.0018075594013063927
1.06400e-05;0.001792799387160602
1.06403e-05;0.0017781165435003866
1.06405e-05;0.0017634336998400718
1.06408e-05;0.0017498913817977284
1.06410e-05;0.0017364010190840855
1.06413e-05;0.001722910656370351
1.06415e-05;0.0017113359747988265
1.06418e-05;0.0016998485598715494
1.06420e-05;0.0016883611449441947
1.06423e-05;0.0016768737300168397
1.06425e-05;0.0016653863150895626
1.06428e-05;0.0016538989001622078
1.06430e-05;0.0016424114852348528
1.06433e-05;0.0016347166109259008
1.06435e-05;0.001627194501429087
1.06438e-05;0.0016196723919322735
1.06440e-05;0.0016121502824355109
1.06443e-05;0.0016046281729386973
1.06445e-05;0.0015971060634418835
1.06448e-05;0.001589583953945121
1.06450e-05;0.0015903122755955262
1.06453e-05;0.0015914164361179523
1.06455e-05;0.001592520596640371
1.06458e-05;0.001600428755174808
1.06460e-05;0.0016086468619885552
1.06462e-05;0.001616864968802247
1.06465e-05;0.0016323504098406118
1.06468e-05;0.0016481669059048773
1.06470e-05;0.0016639834019690357
1.06473e-05;0.0016878204319614415
1.06475e-05;0.0017120228281232957
1.06477e-05;0.001736225224284986
1.06480e-05;0.0017711314568173845
1.06483e-05;0.0018065252902662288
1.06485e-05;0.0018419191237150731
1.06488e-05;0.0018773129571636776
1.06490e-05;0.001912706790612522
