Time(s);Current(A)
5.30000e-06;0.011035950511257435
5.30025e-06;0.01107735401244518
5.30050e-06;0.011118757513632786
5.30075e-06;0.01116298383955884
5.30100e-06;0.011209240957599327
5.30125e-06;0.011255498075639655
5.30150e-06;0.011301755193679985
5.30175e-06;0.01134801231172047
5.30200e-06;0.0113942694297608
5.30225e-06;0.011440526547801129
5.30250e-06;0.011487930769411316
5.30275e-06;0.011543183357864632
5.30300e-06;0.011602338945623358
5.30325e-06;0.011659016333707752
5.30350e-06;0.011710625574180069
5.30375e-06;0.011761706345012916
5.30400e-06;0.011809478163948787
5.30425e-06;0.01185724998288466
5.30450e-06;0.011905021801820691
5.30475e-06;0.011952793620756562
5.30500e-06;0.011998941733269727
5.30525e-06;0.012034923194675603
5.30550e-06;0.012070904656081356
5.30575e-06;0.012106886117487111
5.30600e-06;0.012142867578892987
5.30625e-06;0.012176994389877729
5.30650e-06;0.012199508520459245
5.30675e-06;0.012222022651040837
5.30700e-06;0.012244536781622352
5.30725e-06;0.012267050912203946
5.30750e-06;0.012289565042785461
5.30775e-06;0.012303260460479668
5.30800e-06;0.012311945974810558
5.30825e-06;0.012320631489141419
5.30850e-06;0.01232931700347228
5.30875e-06;0.01233800251780317
5.30900e-06;0.012344274579710135
5.30925e-06;0.012335435086713602
5.30950e-06;0.01232659559371704
5.30975e-06;0.012317756100720507
5.31000e-06;0.012308916607723975
5.31025e-06;0.012300077114727413
5.31050e-06;0.01229123762173088
5.31075e-06;0.012282398128734348
5.31100e-06;0.012273558635737784
5.31125e-06;0.012264719142741251
5.31150e-06;0.01225587964974469
5.31175e-06;0.012247040156748157
5.31200e-06;0.012238200663751624
5.31225e-06;0.012229361170755062
5.31250e-06;0.012215061106159521
5.31275e-06;0.012197658895438257
5.31300e-06;0.012180256684716931
5.31325e-06;0.012162854473995666
5.31350e-06;0.012145452263274402
5.31375e-06;0.012128050052553076
5.31400e-06;0.012110647841831811
5.31425e-06;0.012093245631110546
5.31450e-06;0.012075843420389221
5.31475e-06;0.012058441209667956
5.31500e-06;0.012041038998946691
5.31525e-06;0.012023636788225366
5.31550e-06;0.012006234577504101
5.31575e-06;0.011988795709346387
5.31600e-06;0.011971127314864957
5.31625e-06;0.011953458920383525
5.31650e-06;0.011935790525902034
5.31675e-06;0.011918122131420603
5.31700e-06;0.011900453736939171
5.31725e-06;0.011882785342457682
5.31750e-06;0.01186511694797625
5.31775e-06;0.01184744855349482
5.31800e-06;0.011822027710265876
5.31825e-06;0.011792202707434299
5.31850e-06;0.011762377704602723
5.31875e-06;0.011732552701771044
5.31900e-06;0.011702727698939467
5.31925e-06;0.011672902696107889
5.31950e-06;0.01164307769327621
5.31975e-06;0.011613252690444633
5.32000e-06;0.011581706436355704
5.32025e-06;0.011539382765398312
5.32050e-06;0.011497059094440917
5.32075e-06;0.011454735423483381
5.32100e-06;0.011412411752525988
5.32125e-06;0.011370088081568594
5.32150e-06;0.011327764410611058
5.32175e-06;0.011285440739653665
5.32200e-06;0.011243117068696271
5.32225e-06;0.011200793397738735
5.32250e-06;0.011158469726781342
5.32275e-06;0.011116146055823948
5.32300e-06;0.011075307490149946
5.32325e-06;0.01103531261153651
5.32350e-06;0.010995317732923074
5.32375e-06;0.010955322854309502
5.32400e-06;0.010915327975696065
5.32425e-06;0.010875333097082492
5.32450e-06;0.010835338218469057
5.32475e-06;0.01079534333985562
5.32500e-06;0.010755348461242048
5.32525e-06;0.010715353582628612
5.32550e-06;0.010675358704015175
5.32575e-06;0.01063695712589929
5.32600e-06;0.010608531815678307
5.32625e-06;0.010580106505457324
5.32650e-06;0.010551681195236244
5.32675e-06;0.010523255885015261
5.32700e-06;0.010494830574794278
5.32725e-06;0.010466405264573198
5.32750e-06;0.010437979954352215
5.32775e-06;0.01040955464413123
5.32800e-06;0.010380903245535778
5.32825e-06;0.01035083622057632
5.32850e-06;0.01032076919561676
5.32875e-06;0.010290702170657301
5.32900e-06;0.010260635145697842
5.32925e-06;0.010230568120738283
5.32950e-06;0.010200501095778823
5.32975e-06;0.010170434070819365
5.33000e-06;0.010140367045859806
5.33025e-06;0.010109856738664264
5.33050e-06;0.01007657087070926
5.33075e-06;0.010043285002754143
5.33100e-06;0.01000999913479914
5.33125e-06;0.009976713266844137
5.33150e-06;0.00994342739888902
5.33175e-06;0.009910141530934016
5.33200e-06;0.009876855662979014
5.33225e-06;0.009843569795023897
5.33250e-06;0.009810283927068893
5.33275e-06;0.009776998059113777
5.33300e-06;0.009743712191158774
5.33325e-06;0.00971042632320377
5.33350e-06;0.009677140455248654
5.33375e-06;0.009645230820239617
5.33400e-06;0.009621938309602401
5.33425e-06;0.009598645798965107
5.33450e-06;0.009575353288327893
5.33475e-06;0.009552060777690677
5.33500e-06;0.009528768267053383
5.33525e-06;0.009505475756416169
5.33550e-06;0.009482183245778953
5.33575e-06;0.009458890735141659
5.33600e-06;0.009435598224504443
5.33625e-06;0.009412305713867229
5.33650e-06;0.009389013203229934
5.33675e-06;0.009365720692592719
5.33700e-06;0.009342428181955425
5.33725e-06;0.009321988892149382
5.33750e-06;0.009319414716553145
5.33775e-06;0.009316840540956899
5.33800e-06;0.009314266365360662
5.33825e-06;0.009311692189764425
5.33850e-06;0.009309118014168179
5.33875e-06;0.009306543838571942
5.33900e-06;0.009303969662975704
5.33925e-06;0.009301395487379458
5.33950e-06;0.009298821311783221
5.33975e-06;0.009296247136186984
5.34000e-06;0.009293672960590738
5.34025e-06;0.009291098784994501
5.34050e-06;0.009288524609398264
5.34075e-06;0.009285950433802018
5.34100e-06;0.00928337625820578
5.34125e-06;0.009280802082609535
5.34150e-06;0.009279587309208312
5.34175e-06;0.009286884276364106
5.34200e-06;0.009294181243519923
5.34225e-06;0.009301478210675717
5.34250e-06;0.009308775177831508
5.34275e-06;0.009316072144987328
5.34300e-06;0.00932336911214312
5.34325e-06;0.009330666079298913
5.34350e-06;0.00933796304645473
5.34375e-06;0.009345260013610523
5.34400e-06;0.009352556980766317
5.34425e-06;0.009359853947922134
5.34450e-06;0.009367150915077928
5.34475e-06;0.009374447882233721
5.34500e-06;0.009381744849389539
5.34525e-06;0.009389041816545332
5.34550e-06;0.00939633878370115
5.34575e-06;0.009402322544457267
5.34600e-06;0.009400083814319268
5.34625e-06;0.009397845084181263
5.34650e-06;0.009395606354043264
5.34675e-06;0.009393367623905266
5.34700e-06;0.00939112889376726
5.34725e-06;0.009388890163629262
5.34750e-06;0.009386651433491263
5.34775e-06;0.009384412703353258
5.34800e-06;0.009382173973215259
5.34825e-06;0.00937993524307726
5.34850e-06;0.009375507890932742
5.34875e-06;0.009357376733718751
5.34900e-06;0.00933924557650476
5.34925e-06;0.009321114419290708
5.34950e-06;0.009302983262076715
5.34975e-06;0.009284852104862663
5.35000e-06;0.009266720947648672
5.35025e-06;0.009248589790434681
5.35050e-06;0.009230458633220627
5.35075e-06;0.009212327476006636
5.35100e-06;0.009194196318792645
5.35125e-06;0.009174878424004985
5.35150e-06;0.009148129908339454
5.35175e-06;0.009121381392673922
5.35200e-06;0.009094632877008301
5.35225e-06;0.00906788436134277
5.35250e-06;0.009041135845677239
5.35275e-06;0.009014387330011617
5.35300e-06;0.008987638814346086
5.35325e-06;0.008960890298680555
5.35350e-06;0.008934141783014932
5.35375e-06;0.0089073932673494
5.35400e-06;0.00888064475168378
5.35425e-06;0.008853896236018248
5.35450e-06;0.008828594674987906
5.35475e-06;0.008812353054048339
5.35500e-06;0.008796111433108827
5.35525e-06;0.008779869812169315
5.35550e-06;0.00876362819122975
5.35575e-06;0.008747386570290238
5.35600e-06;0.008731144949350726
5.35625e-06;0.008714903328411159
5.35650e-06;0.008698661707471649
5.35675e-06;0.008682420086532137
5.35700e-06;0.00866617846559257
5.35725e-06;0.008649936844653058
5.35750e-06;0.008633695223713548
5.35775e-06;0.008620713343867027
5.35800e-06;0.008628141958097017
5.35825e-06;0.008635570572327033
5.35850e-06;0.008642999186557023
5.35875e-06;0.008650427800787015
5.35900e-06;0.00865785641501703
5.35925e-06;0.008665285029247021
5.35950e-06;0.008672713643477012
5.35975e-06;0.008680142257707028
5.36000e-06;0.008687570871937018
5.36025e-06;0.008694999486167008
5.36050e-06;0.008702428100397024
5.36075e-06;0.008709856714627016
5.36100e-06;0.008717285328857006
5.36125e-06;0.008724713943087022
5.36150e-06;0.008739840433059072
5.36175e-06;0.008759340079751515
5.36200e-06;0.008778839726444025
5.36225e-06;0.008798339373136467
5.36250e-06;0.008817839019828976
5.36275e-06;0.008837338666521418
5.36300e-06;0.008856838313213862
5.36325e-06;0.00887633795990637
5.36350e-06;0.008895837606598813
5.36375e-06;0.008915337253291255
5.36400e-06;0.008934836899983764
5.36425e-06;0.008954336546676206
5.36450e-06;0.00897383619336865
5.36475e-06;0.008993335840061158
5.36500e-06;0.009012217117223154
5.36525e-06;0.009027226544666301
5.36550e-06;0.009042235972109498
5.36575e-06;0.009057245399552645
5.36600e-06;0.00907271956579381
5.36625e-06;0.009091103640586136
5.36650e-06;0.009109487715378402
5.36675e-06;0.00912787179017073
5.36700e-06;0.009147202048017456
5.36725e-06;0.009174102434373398
5.36750e-06;0.00921130725783023
5.36775e-06;0.009248512081286934
5.36800e-06;0.009285716904743639
5.36825e-06;0.009322921728200468
5.36850e-06;0.009360126551657173
5.36875e-06;0.009397331375113878
5.36900e-06;0.009434536198570709
5.36925e-06;0.009474956710541282
5.36950e-06;0.00953551188641939
5.36975e-06;0.009596067062297702
5.37000e-06;0.009656622238175809
5.37025e-06;0.009717177414053917
5.37050e-06;0.009777732589932229
5.37075e-06;0.009838287765810336
5.37100e-06;0.00989884294168865
5.37125e-06;0.009961214860214156
5.37150e-06;0.01003496210394637
5.37175e-06;0.010108709347678834
5.37200e-06;0.010182456591411048
5.37225e-06;0.010256203835143262
5.37250e-06;0.010329951078875726
5.37275e-06;0.01040369832260794
5.37300e-06;0.010477445566340154
5.37325e-06;0.010551192810072618
5.37350e-06;0.010624940053804832
5.37375e-06;0.010696637778274853
5.37400e-06;0.010755502673529427
5.37425e-06;0.0108143675687838
5.37450e-06;0.010873232464038173
5.37475e-06;0.010932097359292747
5.37500e-06;0.01099096225454712
5.37525e-06;0.011049827149801694
5.37550e-06;0.011108692045056066
5.37575e-06;0.01116755694031044
5.37600e-06;0.011226421835565013
5.37625e-06;0.011279453988493877
5.37650e-06;0.011295965095978381
5.37675e-06;0.01131247620346294
5.37700e-06;0.011328987310947444
5.37725e-06;0.011345498418431946
5.37750e-06;0.011362009525916506
5.37775e-06;0.01137852063340101
5.37800e-06;0.011395031740885513
5.37825e-06;0.01138394838094153
5.37850e-06;0.011357188627316937
5.37875e-06;0.011330428873692346
5.37900e-06;0.011303669120067663
5.37925e-06;0.01127690936644307
5.37950e-06;0.011250149612818387
5.37975e-06;0.011223389859193796
5.38000e-06;0.011191474018856003
5.38025e-06;0.011127273934395387
5.38050e-06;0.01106307384993499
5.38075e-06;0.010998873765474593
5.38100e-06;0.010934673681013979
5.38125e-06;0.01087047359655358
5.38150e-06;0.010806273512093182
5.38175e-06;0.010742073427632568
5.38200e-06;0.01067787334317217
5.38225e-06;0.010613673258711771
5.38250e-06;0.01054144677660889
5.38275e-06;0.010464660504773248
5.38300e-06;0.010387874232937605
5.38325e-06;0.010311087961101703
5.38350e-06;0.010234301689266062
5.38375e-06;0.010157515417430159
5.38400e-06;0.010080729145594517
5.38425e-06;0.010003942873758874
5.38450e-06;0.009927156601922973
5.38475e-06;0.009853649782710026
5.38500e-06;0.0098006768790279
5.38525e-06;0.009747703975345594
5.38550e-06;0.009694731071663468
5.38575e-06;0.009641758167981343
5.38600e-06;0.009588785264299036
5.38625e-06;0.00953581236061691
5.38650e-06;0.009482839456934785
5.38675e-06;0.009429866553252479
5.38700e-06;0.009381409916272078
5.38725e-06;0.009361231363969028
5.38750e-06;0.00934105281166591
5.38775e-06;0.009320874259362861
5.38800e-06;0.009300695707059813
5.38825e-06;0.009280517154756694
5.38850e-06;0.009260338602453646
5.38875e-06;0.009240160050150527
5.38900e-06;0.009219981497847479
5.38925e-06;0.009203820360823673
5.38950e-06;0.009212813807650636
5.38975e-06;0.00922180725447757
5.39000e-06;0.009230800701304503
5.39025e-06;0.009239794148131468
5.39050e-06;0.009248787594958402
5.39075e-06;0.009257781041785335
5.39100e-06;0.009266774488612298
5.39125e-06;0.009275767935439232
5.39150e-06;0.009284761382266166
5.39175e-06;0.00929375482909313
5.39200e-06;0.009302748275920064
5.39225e-06;0.009311741722746998
5.39250e-06;0.009328025728867085
5.39275e-06;0.009348451495573555
5.39300e-06;0.009368877262280093
5.39325e-06;0.009389303028986563
5.39350e-06;0.009409728795693031
5.39375e-06;0.009430154562399571
5.39400e-06;0.00945058032910604
5.39425e-06;0.00947100609581251
5.39450e-06;0.009491431862519049
5.39475e-06;0.009511857629225517
5.39500e-06;0.009532283395931988
5.39525e-06;0.009552709162638525
5.39550e-06;0.009572799874282563
5.39575e-06;0.009590792677178168
5.39600e-06;0.009608785480073835
5.39625e-06;0.00962677828296944
5.39650e-06;0.009644771085865046
5.39675e-06;0.009662763888760712
5.39700e-06;0.009680756691656318
5.39725e-06;0.009698749494551984
5.39750e-06;0.009718602519178388
5.39775e-06;0.009750103108280894
5.39800e-06;0.009781603697383507
5.39825e-06;0.009813104286486013
5.39850e-06;0.00984460487558852
5.39875e-06;0.009876105464691134
5.39900e-06;0.00990760605379364
5.39925e-06;0.009939106642896147
5.39950e-06;0.009972981141347637
5.39975e-06;0.010021719600229838
5.40000e-06;0.010070458059112039
5.40025e-06;0.010119196517994403
5.40050e-06;0.010167934976876604
5.40075e-06;0.010216673435758805
5.40100e-06;0.010265411894641169
5.40125e-06;0.01031415035352337
5.40150e-06;0.010362888812405735
5.40175e-06;0.010411627271287936
5.40200e-06;0.010460365730170135
5.40225e-06;0.010509104189052501
5.40250e-06;0.010559029503009874
5.40275e-06;0.010609629068334457
5.40300e-06;0.010660228633659213
5.40325e-06;0.010710828198983795
5.40350e-06;0.01076142776430838
5.40375e-06;0.010812027329633133
5.40400e-06;0.010862626894957718
5.40425e-06;0.0109132264602823
5.40450e-06;0.010963826025607056
5.40475e-06;0.011014425590931638
5.40500e-06;0.011065025156256222
5.40525e-06;0.01111233928446326
5.40550e-06;0.011139082025928835
5.40575e-06;0.0111658247673945
5.40600e-06;0.011192567508860076
5.40625e-06;0.01121931025032565
5.40650e-06;0.011246052991791315
5.40675e-06;0.01127279573325689
5.40700e-06;0.011299538474722464
5.40725e-06;0.011303182630078503
5.40750e-06;0.011293704498148472
5.40775e-06;0.01128422636621844
5.40800e-06;0.011274748234288378
5.40825e-06;0.011265270102358347
5.40850e-06;0.011255791970428315
5.40875e-06;0.011246313838498253
5.40900e-06;0.01123145469778736
5.40925e-06;0.011182902989327514
5.40950e-06;0.011134351280867504
5.40975e-06;0.011085799572407658
5.41000e-06;0.01103724786394765
5.41025e-06;0.010988696155487804
5.41050e-06;0.010940144447027959
5.41075e-06;0.010891592738567948
5.41100e-06;0.010843041030108103
5.41125e-06;0.010794489321648258
5.41150e-06;0.01073109090940046
5.41175e-06;0.01065925809725431
5.41200e-06;0.01058742528510816
5.41225e-06;0.010515592472961768
5.41250e-06;0.010443759660815618
5.41275e-06;0.010371926848669468
5.41300e-06;0.010300094036523075
5.41325e-06;0.010228261224376927
5.41350e-06;0.010156428412230778
5.41375e-06;0.010085205982443998
5.41400e-06;0.010017805391616931
5.41425e-06;0.009950404800789634
5.41450e-06;0.009883004209962567
5.41475e-06;0.009815603619135499
5.41500e-06;0.009748203028308203
5.41525e-06;0.009683518063119408
5.41550e-06;0.009635836675605532
5.41575e-06;0.009588155288091494
5.41600e-06;0.009540473900577618
5.41625e-06;0.009492792513063742
5.41650e-06;0.009445111125549705
5.41675e-06;0.009401988901917785
5.41700e-06;0.009387413358690764
5.41725e-06;0.009372837815463693
5.41750e-06;0.009358262272236673
5.41775e-06;0.009343686729009652
5.41800e-06;0.009329111185782581
5.41825e-06;0.009314535642555561
5.41850e-06;0.00929996009932849
5.41875e-06;0.00928538455610147
5.41900e-06;0.009270809012874448
5.41925e-06;0.009256233469647377
5.41950e-06;0.009241657926420357
5.41975e-06;0.009227082383193336
5.42000e-06;0.009212506839966265
5.42025e-06;0.009217485810378694
5.42050e-06;0.009233573683493172
5.42075e-06;0.009249661556607705
5.42100e-06;0.009265749429722183
5.42125e-06;0.009281837302836661
5.42150e-06;0.009297925175951193
5.42175e-06;0.009314013049065671
5.42200e-06;0.009330100922180149
5.42225e-06;0.009346188795294681
5.42250e-06;0.009362276668409159
5.42275e-06;0.009378364541523692
5.42300e-06;0.009394452414638169
5.42325e-06;0.009410540287752647
5.42350e-06;0.009427076672320862
5.42375e-06;0.009446421359782714
5.42400e-06;0.009465766047244566
5.42425e-06;0.009485110734706486
5.42450e-06;0.009504455422168339
5.42475e-06;0.009523800109630191
5.42500e-06;0.009543144797092111
5.42525e-06;0.009562489484553963
5.42550e-06;0.009581834172015816
5.42575e-06;0.009601178859477736
5.42600e-06;0.009618563781837189
5.42625e-06;0.009623677860358918
5.42650e-06;0.009628791938880664
5.42675e-06;0.009633906017402393
5.42700e-06;0.009639020095924138
5.42725e-06;0.009644134174445866
5.42750e-06;0.009649248252967596
5.42775e-06;0.00965436233148934
5.42800e-06;0.00965947641001107
5.42825e-06;0.009664590488532798
5.42850e-06;0.009667075571712726
5.42875e-06;0.009653099502866613
5.42900e-06;0.009639123434020501
5.42925e-06;0.009625147365174343
5.42950e-06;0.00961117129632823
5.42975e-06;0.009597195227482118
5.43000e-06;0.009583219158635957
5.43025e-06;0.009569243089789846
5.43050e-06;0.009555267020943734
5.43075e-06;0.009541290952097574
5.43100e-06;0.009527314883251462
5.43125e-06;0.009513338814405302
5.43150e-06;0.00949936274555919
5.43175e-06;0.009485386676713076
5.43200e-06;0.009471410607866918
5.43225e-06;0.009453020293453587
5.43250e-06;0.009432122249858078
5.43275e-06;0.009411224206262498
5.43300e-06;0.00939032616266699
5.43325e-06;0.009369428119071481
5.43350e-06;0.0093485300754759
5.43375e-06;0.009327632031880391
5.43400e-06;0.009306733988284884
5.43425e-06;0.009285835944689303
5.43450e-06;0.009264937901093794
5.43475e-06;0.009244039857498285
5.43500e-06;0.009223141813902706
5.43525e-06;0.009202243770307197
5.43550e-06;0.009181345726711617
5.43575e-06;0.009162619105587702
5.43600e-06;0.009157488596575076
5.43625e-06;0.009152358087562434
5.43650e-06;0.00914722757854981
5.43675e-06;0.009142097069537185
5.43700e-06;0.009136966560524543
5.43725e-06;0.009131836051511919
5.43750e-06;0.009126705542499293
5.43775e-06;0.00912157503348665
5.43800e-06;0.009116444524474026
5.43825e-06;0.009126367402773868
5.43850e-06;0.009144842097703552
5.43875e-06;0.009163316792633172
5.43900e-06;0.009181791487562794
5.43925e-06;0.009200266182492478
5.43950e-06;0.0092187408774221
5.43975e-06;0.009237215572351784
5.44000e-06;0.009255690267281406
5.44025e-06;0.009274164962211028
5.44050e-06;0.00929506197697979
5.44075e-06;0.009331126068872266
5.44100e-06;0.009367190160764741
5.44125e-06;0.00940325425265734
5.44150e-06;0.009439318344549814
5.44175e-06;0.00947538243644229
5.44200e-06;0.009511446528334888
5.44225e-06;0.009547510620227363
5.44250e-06;0.009583574712119838
5.44275e-06;0.009619638804012435
5.44300e-06;0.009655702895904911
5.44325e-06;0.009691026230435522
5.44350e-06;0.009725928741334088
5.44375e-06;0.009760831252232536
5.44400e-06;0.009795733763131103
5.44425e-06;0.009830636274029551
5.44450e-06;0.009865538784928
5.44475e-06;0.009900441295826566
5.44500e-06;0.009935343806725014
5.44525e-06;0.00997024631762346
5.44550e-06;0.010005148828522029
5.44575e-06;0.010038512879840247
5.44600e-06;0.010062244043410102
5.44625e-06;0.010085975206980038
5.44650e-06;0.010109706370549894
5.44675e-06;0.010133437534119749
5.44700e-06;0.010157168697689685
5.44725e-06;0.01018089986125954
5.44750e-06;0.010204631024829394
5.44775e-06;0.01022836218839933
5.44800e-06;0.010252093351969185
5.44825e-06;0.010275824515539121
5.44850e-06;0.010300553405063952
5.44875e-06;0.010325849101861781
5.44900e-06;0.010351144798659695
5.44925e-06;0.010376440495457525
5.44950e-06;0.010401736192255354
5.44975e-06;0.010427031889053268
5.45000e-06;0.010452327585851098
5.45025e-06;0.010477623282648927
5.45050e-06;0.010502918979446841
5.45075e-06;0.01052821467624467
5.45100e-06;0.010553747073878936
5.45125e-06;0.01058076154658122
5.45150e-06;0.010607776019283414
5.45175e-06;0.010634790491985608
