Time(s);Current(A)
8.30000e-06;-0.004269102684867982
8.30025e-06;-0.004300008582173753
8.30050e-06;-0.004330914479479523
8.30075e-06;-0.004361820376785084
8.30100e-06;-0.004392726274090854
8.30125e-06;-0.004423632171396625
8.30150e-06;-0.0044545380687021855
8.30175e-06;-0.0044854439660079555
8.30200e-06;-0.004516349863313726
8.30225e-06;-0.004547255760619287
8.30250e-06;-0.00457283836448231
8.30275e-06;-0.004598381487965995
8.30300e-06;-0.004623924611449508
8.30325e-06;-0.004649467734933193
8.30350e-06;-0.004675010858416879
8.30375e-06;-0.004700553981900391
8.30400e-06;-0.004726097105384077
8.30425e-06;-0.004751640228867762
8.30450e-06;-0.004777183352351275
8.30475e-06;-0.00480272647583496
8.30500e-06;-0.0048282695993186455
8.30525e-06;-0.004853812722802158
8.30550e-06;-0.004867608640966251
8.30575e-06;-0.004869306255755262
8.30600e-06;-0.004871003870544261
8.30625e-06;-0.004872701485333273
8.30650e-06;-0.0048743991001222835
8.30675e-06;-0.004876096714911283
8.30700e-06;-0.0048777943297002935
8.30725e-06;-0.004879491944489305
8.30750e-06;-0.004881189559278316
8.30775e-06;-0.004882887174067315
8.30800e-06;-0.004884584788856326
8.30825e-06;-0.004886282403645337
8.30850e-06;-0.004887980018434337
8.30875e-06;-0.0048702281577742215
8.30900e-06;-0.004852332049444926
8.30925e-06;-0.004834435941115751
8.30950e-06;-0.004816539832786454
8.30975e-06;-0.004798643724457158
8.31000e-06;-0.004780747616127984
8.31025e-06;-0.004762851507798688
8.31050e-06;-0.004744955399469391
8.31075e-06;-0.004727059291140217
8.31100e-06;-0.004709163182810921
8.31125e-06;-0.004687391157321436
8.31150e-06;-0.004665590385965955
8.31175e-06;-0.004643789614610327
8.31200e-06;-0.0046219888432546975
8.31225e-06;-0.0046001880718992165
8.31250e-06;-0.004578387300543587
8.31275e-06;-0.004556586529187959
8.31300e-06;-0.004534785757832477
8.31325e-06;-0.004512984986476848
8.31350e-06;-0.004491184215121219
8.31375e-06;-0.004483799766769766
8.31400e-06;-0.004476522237548732
8.31425e-06;-0.0044692447083276975
8.31450e-06;-0.004461967179106713
8.31475e-06;-0.004454689649885679
8.31500e-06;-0.0044474121206646445
8.31525e-06;-0.004440134591443659
8.31550e-06;-0.004432857062222625
8.31575e-06;-0.004425579533001591
8.31600e-06;-0.004418302003780556
8.31625e-06;-0.004411024474559572
8.31650e-06;-0.0044037469453385375
8.31675e-06;-0.0043964694161175025
8.31700e-06;-0.004389191886896518
8.31725e-06;-0.004381914357675484
8.31750e-06;-0.0043746368284544495
8.31775e-06;-0.004382725372629415
8.31800e-06;-0.004390927879790026
8.31825e-06;-0.004399130386950637
8.31850e-06;-0.004407332894111192
8.31875e-06;-0.004415535401271803
8.31900e-06;-0.004423737908432414
8.31925e-06;-0.0044319404155929686
8.31950e-06;-0.0044401429227535795
8.31975e-06;-0.0044483454299141904
8.32000e-06;-0.004456547937074746
8.32025e-06;-0.004464750444235357
8.32050e-06;-0.004472952951395968
8.32075e-06;-0.004481155458556523
8.32100e-06;-0.004489357965717134
8.32125e-06;-0.004497560472877745
8.32150e-06;-0.0045057629800383005
8.32175e-06;-0.004517342585487116
8.32200e-06;-0.004528947237295861
8.32225e-06;-0.004540551889104527
8.32250e-06;-0.004552156540913272
8.32275e-06;-0.0045637611927220175
8.32300e-06;-0.004575365844530684
8.32325e-06;-0.004586970496339429
8.32350e-06;-0.004598575148148174
8.32375e-06;-0.00461017979995684
8.32400e-06;-0.004621784451765585
8.32425e-06;-0.0046333891035743304
8.32450e-06;-0.004644993755383076
8.32475e-06;-0.004651777560026759
8.32500e-06;-0.004653596433014984
8.32525e-06;-0.004655415306003211
8.32550e-06;-0.004657234178991425
8.32575e-06;-0.00465905305197965
8.32600e-06;-0.004660871924967876
8.32625e-06;-0.00466269079795609
8.32650e-06;-0.0046645096709443164
8.32675e-06;-0.004666328543932542
8.32700e-06;-0.004668147416920756
8.32725e-06;-0.004669966289908982
8.32750e-06;-0.004671785162897207
8.32775e-06;-0.004673604035885422
8.32800e-06;-0.004661823608534501
8.32825e-06;-0.0046499423215272725
8.32850e-06;-0.004638061034520125
8.32875e-06;-0.004626179747512896
8.32900e-06;-0.0046142984605056685
8.32925e-06;-0.004602417173498521
8.32950e-06;-0.0045905358864912925
8.32975e-06;-0.0045786545994840645
8.33000e-06;-0.004566773312476917
8.33025e-06;-0.0045548920254696885
8.33050e-06;-0.0045430107384624606
8.33075e-06;-0.0045293347261668926
8.33100e-06;-0.004513810348201484
8.33125e-06;-0.004498285970236075
8.33150e-06;-0.0044827615922707715
8.33175e-06;-0.004467237214305363
8.33200e-06;-0.004451712836339954
8.33225e-06;-0.0044361884583746505
8.33250e-06;-0.004420664080409241
8.33275e-06;-0.004405139702443833
8.33300e-06;-0.004389615324478424
8.33325e-06;-0.00437409094651312
8.33350e-06;-0.004358566568547712
8.33375e-06;-0.00434847263417715
8.33400e-06;-0.004338418974869673
8.33425e-06;-0.004328365315562127
8.33450e-06;-0.004318311656254581
8.33475e-06;-0.004308257996947104
8.33500e-06;-0.004298204337639558
8.33525e-06;-0.004288150678332012
8.33550e-06;-0.004278097019024535
8.33575e-06;-0.00426804335971699
8.33600e-06;-0.004257989700409443
8.33625e-06;-0.004247936041101966
8.33650e-06;-0.004237882381794421
8.33675e-06;-0.004227828722486875
8.33700e-06;-0.0042177750631793975
8.33725e-06;-0.004205064875730904
8.33750e-06;-0.004189618762372621
8.33775e-06;-0.0041741726490144414
8.33800e-06;-0.004158726535656157
8.33825e-06;-0.004143280422297874
8.33850e-06;-0.0041278343089396945
8.33875e-06;-0.00411238819558141
8.33900e-06;-0.004096942082223127
8.33925e-06;-0.0040814959688649476
8.33950e-06;-0.004066049855506664
8.33975e-06;-0.00405060374214838
8.34000e-06;-0.004035157628790201
8.34025e-06;-0.004019711515431916
8.34050e-06;-0.004004265402073633
8.34075e-06;-0.003988819288715454
8.34100e-06;-0.003972545861562429
8.34125e-06;-0.0039562662986094566
8.34150e-06;-0.003939986735656484
8.34175e-06;-0.003923707172703622
8.34200e-06;-0.003907427609750649
8.34225e-06;-0.0038911480467976765
8.34250e-06;-0.003874868483844814
8.34275e-06;-0.0038585889208918416
8.34300e-06;-0.003842309357938869
8.34325e-06;-0.0038260297949860066
8.34350e-06;-0.0038127478888133268
8.34375e-06;-0.0038025532327733394
8.34400e-06;-0.003792358576733421
8.34425e-06;-0.0037821639206934337
8.34450e-06;-0.0037719692646534463
8.34475e-06;-0.0037617746086135283
8.34500e-06;-0.003751579952573541
8.34525e-06;-0.0037413852965335536
8.34550e-06;-0.0037311906404936357
8.34575e-06;-0.0037209959844536483
8.34600e-06;-0.003710801328413661
8.34625e-06;-0.0036976389985962322
8.34650e-06;-0.00368445465892849
8.34675e-06;-0.0036712703192607484
8.34700e-06;-0.0036580859795930956
8.34725e-06;-0.0036449016399253535
8.34750e-06;-0.0036317173002576113
8.34775e-06;-0.0036185329605899585
8.34800e-06;-0.0036053486209222164
8.34825e-06;-0.0035921642812544747
8.34850e-06;-0.003578979941586822
8.34875e-06;-0.0035657956019190798
8.34900e-06;-0.0035526112622513376
8.34925e-06;-0.003539426922583685
8.34950e-06;-0.0035220723512623775
8.34975e-06;-0.003504686851280644
8.35000e-06;-0.0034873013512990284
8.35025e-06;-0.003469915851317295
8.35050e-06;-0.0034525303513355614
8.35075e-06;-0.003435144851353828
8.35100e-06;-0.0034177593513722124
8.35125e-06;-0.003400373851390479
8.35150e-06;-0.0033829883514087454
8.35175e-06;-0.00336560285142713
8.35200e-06;-0.0033482173514453963
8.35225e-06;-0.003330831851463663
8.35250e-06;-0.0033134463514820473
8.35275e-06;-0.0033027947361294633
8.35300e-06;-0.003292193062854231
8.35325e-06;-0.0032815913895790708
8.35350e-06;-0.003270989716303838
8.35375e-06;-0.0032603880430286058
8.35400e-06;-0.0032497863697534455
8.35425e-06;-0.003239184696478213
8.35450e-06;-0.003228583023202981
8.35475e-06;-0.00321798134992782
8.35500e-06;-0.003207379676652588
8.35525e-06;-0.0031967780033773556
8.35550e-06;-0.0031861763301021953
8.35575e-06;-0.0031788562409006266
8.35600e-06;-0.0031749158150874285
8.35625e-06;-0.0031709753892742573
8.35650e-06;-0.003167034963461059
8.35675e-06;-0.003163094537647861
8.35700e-06;-0.0031591541118346895
8.35725e-06;-0.0031552136860214914
8.35750e-06;-0.0031512732602082933
8.35775e-06;-0.003147332834395122
8.35800e-06;-0.003143392408581924
8.35825e-06;-0.003139451982768726
8.35850e-06;-0.0031355115569555547
8.35875e-06;-0.0031315711311423566
8.35900e-06;-0.0031295424174715386
8.35925e-06;-0.003127527882076954
8.35950e-06;-0.0031255133466823832
8.35975e-06;-0.0031234988112877993
8.36000e-06;-0.003121484275893215
8.36025e-06;-0.003119469740498644
8.36050e-06;-0.0031174552051040595
8.36075e-06;-0.003115440669709475
8.36100e-06;-0.0031134261343149046
8.36125e-06;-0.00311141159892032
8.36150e-06;-0.0031093970635257357
8.36175e-06;-0.00310953348793437
8.36200e-06;-0.0031096858650074303
8.36225e-06;-0.003109838242080491
8.36250e-06;-0.0031099906191535505
8.36275e-06;-0.003110142996226611
8.36300e-06;-0.003110295373299672
8.36325e-06;-0.003110447750372731
8.36350e-06;-0.0031106001274457916
8.36375e-06;-0.0031107525045188525
8.36400e-06;-0.0031109048815919117
8.36425e-06;-0.0031110572586649727
8.36450e-06;-0.0031270457657777274
8.36475e-06;-0.003143151722072089
8.36500e-06;-0.003159257678366559
8.36525e-06;-0.0031753636346610295
8.36550e-06;-0.0031914695909553907
8.36575e-06;-0.003207575547249861
8.36600e-06;-0.0032236815035443316
8.36625e-06;-0.0032397874598386928
8.36650e-06;-0.0032558934161331632
8.36675e-06;-0.003305706438729265
8.36700e-06;-0.0033557694508967372
8.36725e-06;-0.0034058324630645486
8.36750e-06;-0.00345589547523236
8.36775e-06;-0.0035059584874001714
8.36800e-06;-0.0035560214995676437
8.36825e-06;-0.003606084511735455
8.36850e-06;-0.0036561475239032665
8.36875e-06;-0.0037062105360707383
8.36900e-06;-0.0037822920804803355
8.36925e-06;-0.003858566592195112
8.36950e-06;-0.003934841103909371
8.36975e-06;-0.004011115615624148
8.37000e-06;-0.004087390127338924
8.37025e-06;-0.004163664639053184
8.37050e-06;-0.00423993915076796
8.37075e-06;-0.004319934692998253
8.37100e-06;-0.0044037624791452784
8.37125e-06;-0.004487590265292873
8.37150e-06;-0.004571418051440467
8.37175e-06;-0.004655245837587494
8.37200e-06;-0.004739073623735089
8.37225e-06;-0.004822901409882683
8.37250e-06;-0.004906729196029709
8.37275e-06;-0.0049740240744632295
8.37300e-06;-0.005041196336039138
8.37325e-06;-0.005108368597614591
8.37350e-06;-0.005175540859190499
8.37375e-06;-0.005242713120766408
8.37400e-06;-0.005309885382341861
8.37425e-06;-0.005377057643917769
8.37450e-06;-0.0054442299054936775
8.37475e-06;-0.0055114021670691305
8.37500e-06;-0.005539066336688932
8.37525e-06;-0.005566437493235737
8.37550e-06;-0.005593808649782356
8.37575e-06;-0.005621179806329161
8.37600e-06;-0.005648550962875965
8.37625e-06;-0.00567592211942277
8.37650e-06;-0.00570329327596939
8.37675e-06;-0.005730664432516194
8.37700e-06;-0.005758035589062999
8.37725e-06;-0.005745201246594668
8.37750e-06;-0.005732068718710139
8.37775e-06;-0.00571893619082561
8.37800e-06;-0.005705803662941169
8.37825e-06;-0.005692671135056639
8.37850e-06;-0.00567953860717211
8.37875e-06;-0.005666406079287669
8.37900e-06;-0.00565327355140314
8.37925e-06;-0.005640141023518609
8.37950e-06;-0.005601148709655522
8.37975e-06;-0.005561964605832122
8.38000e-06;-0.0055227805020087225
8.38025e-06;-0.005483596398185587
8.38050e-06;-0.0054444122943621874
8.38075e-06;-0.005405228190538788
8.38100e-06;-0.005366044086715653
8.38125e-06;-0.0053268599828922535
8.38150e-06;-0.005287675879068854
8.38175e-06;-0.00524591891812167
8.38200e-06;-0.00520414287549401
8.38225e-06;-0.005162366832866349
8.38250e-06;-0.005120590790238971
8.38275e-06;-0.00507881474761131
8.38300e-06;-0.005037038704983649
8.38325e-06;-0.004995262662356272
8.38350e-06;-0.0049534866197286104
8.38375e-06;-0.00491171057710095
8.38400e-06;-0.0048808758976581134
8.38425e-06;-0.00486130959463707
8.38450e-06;-0.004841743291616026
8.38475e-06;-0.004822176988594984
8.38500e-06;-0.004802610685574073
8.38525e-06;-0.004783044382553029
8.38550e-06;-0.004763478079531986
8.38575e-06;-0.004743911776511075
8.38600e-06;-0.0047243454734900315
8.38625e-06;-0.004704779170468988
8.38650e-06;-0.0047153502766724255
8.38675e-06;-0.0047261448979720524
8.38700e-06;-0.004736939519271679
8.38725e-06;-0.0047477341405712335
8.38750e-06;-0.00475852876187086
8.38775e-06;-0.004769323383170487
8.38800e-06;-0.004780118004470041
8.38825e-06;-0.004790912625769668
8.38850e-06;-0.004801707247069294
8.38875e-06;-0.0048125018683688485
8.38900e-06;-0.004823296489668475
8.38925e-06;-0.00485505422338487
8.38950e-06;-0.004886967430720579
8.38975e-06;-0.004918880638056504
8.39000e-06;-0.00495079384539243
8.39025e-06;-0.004982707052728139
8.39050e-06;-0.005014620260064064
8.39075e-06;-0.005046533467399989
8.39100e-06;-0.005078446674735698
8.39125e-06;-0.005110359882071623
8.39150e-06;-0.005142273089407548
8.39175e-06;-0.0051741862967432575
8.39200e-06;-0.005208836542461462
8.39225e-06;-0.0052435070875157955
8.39250e-06;-0.005278177632569893
8.39275e-06;-0.005312848177624227
8.39300e-06;-0.005347518722678561
8.39325e-06;-0.005382189267732895
8.39350e-06;-0.005416859812786993
8.39375e-06;-0.0054446947884294015
8.39400e-06;-0.005472479067843987
8.39425e-06;-0.005500263347258384
8.39450e-06;-0.00552804762667297
8.39475e-06;-0.0055558319060875555
8.39500e-06;-0.005583616185501953
8.39525e-06;-0.005611400464916538
8.39550e-06;-0.005641746616370961
8.39575e-06;-0.005672111768034376
8.39600e-06;-0.005702476919697997
8.39625e-06;-0.005732842071361618
8.39650e-06;-0.0057632072230250336
8.39675e-06;-0.005793572374688655
8.39700e-06;-0.005823937526352276
8.39725e-06;-0.005854302678015692
8.39750e-06;-0.005884667829679313
8.39775e-06;-0.005915032981342935
8.39800e-06;-0.00594539813300635
8.39825e-06;-0.005975763284669971
8.39850e-06;-0.006013656095289686
8.39875e-06;-0.006051604735042394
8.39900e-06;-0.006089553374795357
8.39925e-06;-0.006127502014548322
8.39950e-06;-0.0061654506543010286
8.39975e-06;-0.006203399294053993
8.40000e-06;-0.006241347933806957
8.40025e-06;-0.006279296573559664
8.40050e-06;-0.006317245213312628
8.40075e-06;-0.006355193853065592
8.40100e-06;-0.006393142492818299
8.40125e-06;-0.006431091132571264
8.40150e-06;-0.006465397194593859
8.40175e-06;-0.006499676241317353
8.40200e-06;-0.006533955288040614
8.40225e-06;-0.006568234334764108
8.40250e-06;-0.006602513381487601
8.40275e-06;-0.0066367924282108625
8.40300e-06;-0.006671071474934356
8.40325e-06;-0.00670535052165785
8.40350e-06;-0.006739629568381112
8.40375e-06;-0.006773908615104606
8.40400e-06;-0.006808187661828099
8.40425e-06;-0.00684246670855136
8.40450e-06;-0.006876745755274854
8.40475e-06;-0.006889978616918529
8.40500e-06;-0.006903055388828814
8.40525e-06;-0.006916132160739188
8.40550e-06;-0.006929208932649562
8.40575e-06;-0.006942285704559847
8.40600e-06;-0.0069553624764702214
8.40625e-06;-0.0069684392483805955
8.40650e-06;-0.006981516020290881
8.40675e-06;-0.006994592792201255
8.40700e-06;-0.007007669564111628
8.40725e-06;-0.007020746336021914
8.40750e-06;-0.007033823107932288
8.40775e-06;-0.007046899879842662
8.40800e-06;-0.007039366604245239
8.40825e-06;-0.007031680473542739
8.40850e-06;-0.00702399434284024
8.40875e-06;-0.007016308212137792
8.40900e-06;-0.0070086220814352925
8.40925e-06;-0.007000935950732793
8.40950e-06;-0.006993249820030345
8.40975e-06;-0.006985563689327845
8.41000e-06;-0.006977877558625345
8.41025e-06;-0.006970191427922845
8.41050e-06;-0.006962505297220398
8.41075e-06;-0.0069548191665178985
8.41100e-06;-0.0069444438331707735
8.41125e-06;-0.006931298922835314
8.41150e-06;-0.006918154012499766
8.41175e-06;-0.006905009102164218
8.41200e-06;-0.00689186419182876
8.41225e-06;-0.006878719281493212
8.41250e-06;-0.006865574371157664
8.41275e-06;-0.006852429460822205
8.41300e-06;-0.006839284550486657
8.41325e-06;-0.006826139640151109
8.41350e-06;-0.006812994729815651
8.41375e-06;-0.006799849819480103
8.41400e-06;-0.006786704909144555
8.41425e-06;-0.006786838070433519
8.41450e-06;-0.006787069708984278
8.41475e-06;-0.006787301347535036
8.41500e-06;-0.0067875329860857935
8.41525e-06;-0.0067877646246365525
8.41550e-06;-0.006787996263187311
8.41575e-06;-0.006788227901738068
8.41600e-06;-0.006788459540288827
8.41625e-06;-0.006788691178839585
8.41650e-06;-0.006788922817390342
8.41675e-06;-0.006789154455941101
8.41700e-06;-0.006789386094491859
8.41725e-06;-0.006798682984816826
8.41750e-06;-0.0068173160673258865
8.41775e-06;-0.006835949149834948
8.41800e-06;-0.0068545822323438825
8.41825e-06;-0.006873215314852943
8.41850e-06;-0.006891848397362004
8.41875e-06;-0.006910481479871066
8.41900e-06;-0.00692911456238
8.41925e-06;-0.006947747644889061
8.41950e-06;-0.006966380727398123
8.41975e-06;-0.006985013809907057
8.42000e-06;-0.007003646892416118
8.42025e-06;-0.00702227997492518
8.42050e-06;-0.007048865821404004
8.42075e-06;-0.007075510649822895
8.42100e-06;-0.007102155478241785
8.42125e-06;-0.007128800306660496
8.42150e-06;-0.007155445135079387
8.42175e-06;-0.007182089963498277
8.42200e-06;-0.007208734791916987
8.42225e-06;-0.007235379620335877
8.42250e-06;-0.007262024448754768
8.42275e-06;-0.007284969614640984
8.42300e-06;-0.007307887341856406
8.42325e-06;-0.007330805069071828
8.42350e-06;-0.007353722796287095
8.42375e-06;-0.007376640523502518
8.42400e-06;-0.007399558250717941
8.42425e-06;-0.007422475977933208
8.42450e-06;-0.00744539370514863
8.42475e-06;-0.007468311432364053
8.42500e-06;-0.007490790256392169
8.42525e-06;-0.007513265825280257
8.42550e-06;-0.007535741394168345
8.42575e-06;-0.007558216963056281
8.42600e-06;-0.007580692531944369
8.42625e-06;-0.007603168100832457
8.42650e-06;-0.0076256436697203925
8.42675e-06;-0.007648119238608481
8.42700e-06;-0.007670594807496569
8.42725e-06;-0.007693070376384657
8.42750e-06;-0.007715545945272593
8.42775e-06;-0.0077380215141606805
8.42800e-06;-0.007766931021402763
8.42825e-06;-0.007795888246164013
8.42850e-06;-0.007824845470925459
8.42875e-06;-0.007853802695686906
8.42900e-06;-0.007882759920448155
8.42925e-06;-0.007911717145209602
8.42950e-06;-0.007940674369971049
8.42975e-06;-0.007969631594732298
8.43000e-06;-0.007998588819493745
8.43025e-06;-0.008027546044255192
8.43050e-06;-0.00805650326901644
8.43075e-06;-0.008085460493777888
8.43100e-06;-0.008114914982326365
8.43125e-06;-0.008144373158848193
8.43150e-06;-0.00817383133537022
8.43175e-06;-0.008203289511892248
8.43200e-06;-0.008232747688414076
8.43225e-06;-0.008262205864936105
8.43250e-06;-0.008291664041458133
8.43275e-06;-0.00832112221797996
8.43300e-06;-0.008350580394501988
8.43325e-06;-0.008380038571024017
8.43350e-06;-0.008405236503236253
8.43375e-06;-0.008426046861817341
8.43400e-06;-0.008446857220398429
8.43425e-06;-0.008467667578979378
8.43450e-06;-0.008488477937560466
8.43475e-06;-0.008509288296141556
8.43500e-06;-0.008530098654722503
8.43525e-06;-0.008550909013303592
8.43550e-06;-0.008571719371884681
8.43575e-06;-0.00859252973046577
8.43600e-06;-0.008613340089046717
8.43625e-06;-0.008629230482322295
8.43650e-06;-0.008640908035718375
8.43675e-06;-0.008652554615068492
8.43700e-06;-0.008664201194418686
8.43725e-06;-0.008675847773768881
8.43750e-06;-0.008687494353118996
8.43775e-06;-0.008699140932469191
8.43800e-06;-0.008710787511819387
8.43825e-06;-0.008722434091169502
8.43850e-06;-0.008734080670519697
8.43875e-06;-0.00874572724986989
8.43900e-06;-0.008757373829220007
8.43925e-06;-0.008769020408570201
8.43950e-06;-0.008780666987920396
8.43975e-06;-0.008792313567270511
8.44000e-06;-0.008803960146620706
8.44025e-06;-0.008813473845348469
8.44050e-06;-0.008820790916347873
8.44075e-06;-0.008828107987347325
8.44100e-06;-0.008835425058346778
8.44125e-06;-0.008842742129346182
8.44150e-06;-0.008850059200345635
8.44175e-06;-0.008857376271345089
8.44200e-06;-0.008864693342344491
8.44225e-06;-0.008872010413343945
8.44250e-06;-0.008879327484343398
8.44275e-06;-0.008886644555342802
8.44300e-06;-0.008893961626342255
8.44325e-06;-0.008901278697341707
8.44350e-06;-0.008908595768341111
8.44375e-06;-0.008915912839340564
8.44400e-06;-0.008923229910340018
8.44425e-06;-0.008923407072733706
8.44450e-06;-0.008923531281754972
8.44475e-06;-0.00892365549077624
8.44500e-06;-0.008923779699797506
8.44525e-06;-0.008923903908818774
8.44550e-06;-0.00892402811784004
8.44575e-06;-0.008924152326861308
8.44600e-06;-0.008924276535882575
