Time(s);Current(A)
1.47500e-05;0.005297071799944883
1.47503e-05;0.005318566470969943
1.47505e-05;0.005340061141994857
1.47508e-05;0.005361555813019917
1.47510e-05;0.0053830504840449754
1.47513e-05;0.005404545155069889
1.47515e-05;0.005426039826094949
1.47518e-05;0.005447534497120009
1.47520e-05;0.005468846779527956
1.47523e-05;0.00548934201443192
1.47525e-05;0.0055098372493358845
1.47528e-05;0.00553033248423971
1.47530e-05;0.005550827719143674
1.47533e-05;0.005571322954047638
1.47535e-05;0.005591818188951463
1.47538e-05;0.005612313423855427
1.47540e-05;0.005632808658759391
1.47543e-05;0.0056533038936632165
1.47545e-05;0.005673799128567181
1.47548e-05;0.005690373823878727
1.47550e-05;0.0056893856518219574
1.47553e-05;0.005688397479765182
1.47555e-05;0.0056874093077084065
1.47558e-05;0.005686421135651638
1.47560e-05;0.005685432963594863
1.47563e-05;0.005684444791538087
1.47565e-05;0.005683456619481319
1.47568e-05;0.005682468447424543
1.47570e-05;0.005681480275367768
1.47573e-05;0.005680492103310992
1.47575e-05;0.005679503931254224
1.47578e-05;0.005673285138498782
1.47580e-05;0.0056436346993009295
1.47583e-05;0.005613984260103279
1.47585e-05;0.0055843338209054265
1.47588e-05;0.005554683381707575
1.47590e-05;0.0055250329425099234
1.47593e-05;0.005495382503312072
1.47595e-05;0.00546573206411422
1.47598e-05;0.005436081624916569
1.47600e-05;0.005406431185718717
1.47603e-05;0.005376780746520865
1.47605e-05;0.005347130307323214
1.47608e-05;0.005315364590806317
1.47610e-05;0.005274123052369343
1.47613e-05;0.005232881513932648
1.47615e-05;0.005191639975495674
1.47618e-05;0.0051503984370587005
1.47620e-05;0.005109156898622007
1.47623e-05;0.005067915360185033
1.47625e-05;0.005026673821748059
1.47628e-05;0.0049854322833113645
1.47630e-05;0.004949264523521102
1.47633e-05;0.004915457185360475
1.47635e-05;0.0048816498472000775
1.47638e-05;0.00484784250903945
1.47640e-05;0.004814035170878823
1.47643e-05;0.004780227832718425
1.47645e-05;0.004746420494557798
1.47648e-05;0.004712613156397171
1.47650e-05;0.004680108760986098
1.47653e-05;0.004653441166904272
1.47655e-05;0.004626773572822446
1.47658e-05;0.004600105978740621
1.47660e-05;0.004573438384658976
1.47663e-05;0.00454677079057715
1.47665e-05;0.0045201031964953245
1.47668e-05;0.004493435602413679
1.47670e-05;0.004466768008331854
1.47673e-05;0.004440100414250028
1.47675e-05;0.004413432820168383
1.47678e-05;0.004386765226086557
1.47680e-05;0.004360097632004732
1.47683e-05;0.004333430037923087
1.47685e-05;0.004304863023668002
1.47688e-05;0.004275412361785796
1.47690e-05;0.004245961699903789
1.47693e-05;0.004216511038021583
1.47695e-05;0.004187060376139377
1.47698e-05;0.00415760971425737
1.47700e-05;0.004128159052375163
1.47703e-05;0.004098708390492958
1.47705e-05;0.004069257728610951
1.47708e-05;0.004039807066728744
1.47710e-05;0.004010356404846538
1.47713e-05;0.003980905742964532
1.47715e-05;0.003951455081082325
1.47718e-05;0.00392288556296763
1.47720e-05;0.0038982633104702614
1.47723e-05;0.0038736410579727257
1.47725e-05;0.0038490188054751905
1.47728e-05;0.003824396552977822
1.47730e-05;0.003799774300480286
1.47733e-05;0.003775152047982751
1.47735e-05;0.0037505297954853823
1.47738e-05;0.0037259075429878466
1.47740e-05;0.0037012852904903114
1.47743e-05;0.0036766630379927757
1.47745e-05;0.003652040785495407
1.47748e-05;0.003627418532997872
1.47750e-05;0.00360450683081195
1.47753e-05;0.003589257892276785
1.47755e-05;0.0035740089537415164
1.47758e-05;0.003558760015206248
1.47760e-05;0.0035435110766710827
1.47763e-05;0.003528262138135814
1.47765e-05;0.0035130131996005455
1.47768e-05;0.0034977642610653802
1.47770e-05;0.003482515322530112
1.47773e-05;0.0034672663839948434
1.47775e-05;0.003452017445459678
1.47778e-05;0.0034367685069244098
1.47780e-05;0.0034215195683891413
1.47783e-05;0.00340668297852328
1.47785e-05;0.0033936935897444743
1.47788e-05;0.0033807042009656686
1.47790e-05;0.0033677148121869505
1.47793e-05;0.0033547254234081447
1.47795e-05;0.003341736034629339
1.47798e-05;0.0033287466458506213
1.47800e-05;0.0033157572570718156
1.47803e-05;0.00330276786829301
1.47805e-05;0.003289778479514292
1.47808e-05;0.0032767890907354864
1.47810e-05;0.0032637997019566807
1.47813e-05;0.003250810313177963
1.47815e-05;0.0032378209243991572
1.47818e-05;0.0032254745431498748
1.47820e-05;0.0032160086470245882
1.47823e-05;0.0032065427508992375
1.47825e-05;0.0031970768547738867
1.47828e-05;0.0031876109586485364
1.47830e-05;0.00317814506252325
1.47833e-05;0.003168679166397899
1.47835e-05;0.0031592132702725484
1.47838e-05;0.003149747374147262
1.47840e-05;0.003140281478021911
1.47843e-05;0.0031308155818965604
1.47845e-05;0.003121349685771274
1.47848e-05;0.003111883789645923
1.47850e-05;0.0031024178935205723
1.47853e-05;0.0030954273421536353
1.47855e-05;0.0030995256092331857
1.47858e-05;0.0031036238763127357
1.47860e-05;0.0031077221433922584
1.47863e-05;0.0031118204104718084
1.47865e-05;0.0031159186775513584
1.47868e-05;0.003120016944630881
1.47870e-05;0.003124115211710431
1.47873e-05;0.003128213478789981
1.47875e-05;0.0031323117458695038
1.47878e-05;0.003136410012949054
1.47880e-05;0.0031405082800286042
1.47883e-05;0.0031446065471081265
1.47885e-05;0.0031513314504680394
1.47888e-05;0.0031698229139171977
1.47890e-05;0.0031883143773662305
1.47893e-05;0.0032068058408153887
1.47895e-05;0.003225297304264547
1.47898e-05;0.00324378876771358
1.47900e-05;0.003262280231162738
1.47903e-05;0.003280771694611896
1.47905e-05;0.0032992631580609287
1.47908e-05;0.003317754621510087
1.47910e-05;0.003336246084959245
1.47913e-05;0.0033547375484084033
1.47915e-05;0.003373229011857436
1.47918e-05;0.0033920690234919416
1.47920e-05;0.0034124704287605504
1.47923e-05;0.0034328718340290204
1.47925e-05;0.0034532732392976288
1.47928e-05;0.003473674644566237
1.47930e-05;0.003494076049834707
1.47933e-05;0.0035144774551033155
1.47935e-05;0.003534878860371924
1.47938e-05;0.0035552802656403943
1.47940e-05;0.0035756816709090027
1.47943e-05;0.0035879450356765645
1.47945e-05;0.0035964224239204393
1.47948e-05;0.0036048998121643717
1.47950e-05;0.0036133772004083037
1.47953e-05;0.0036218545886521785
1.47955e-05;0.003630331976896111
1.47958e-05;0.003638809365140043
1.47960e-05;0.0036472867533839178
1.47963e-05;0.0036557641416278502
1.47965e-05;0.0036603635956896784
1.47968e-05;0.0036475910420893853
1.47970e-05;0.003634818488489006
1.47973e-05;0.003622045934888626
1.47975e-05;0.0036092733812883335
1.47978e-05;0.0035965008276879536
1.47980e-05;0.0035837282740875743
1.47983e-05;0.003570955720487281
1.47985e-05;0.003558183166886902
1.47988e-05;0.003545410613286522
1.47990e-05;0.0035295613694507305
1.47993e-05;0.0034999294558111056
1.47995e-05;0.0034702975421714802
1.47998e-05;0.0034406656285318553
1.48000e-05;0.003411033714892431
1.48003e-05;0.003381401801252806
1.48005e-05;0.0033517698876131805
1.48008e-05;0.0033221379739737564
1.48010e-05;0.003292506060334131
1.48013e-05;0.003262874146694506
1.48015e-05;0.003232728180015111
1.48018e-05;0.0032002794064976904
1.48020e-05;0.00316783063298027
1.48023e-05;0.0031353818594630697
1.48025e-05;0.003102933085945649
1.48028e-05;0.0030704843124282287
1.48030e-05;0.0030380355389110283
1.48033e-05;0.0030055867653936076
1.48035e-05;0.0029731379918761873
1.48038e-05;0.002940689218358987
1.48040e-05;0.0029152349050338196
1.48043e-05;0.002893034552178401
1.48045e-05;0.0028708341993231327
1.48048e-05;0.002848633846467714
1.48050e-05;0.002826433493612295
1.48053e-05;0.0028042331407570264
1.48055e-05;0.0027820327879016075
1.48058e-05;0.0027598324350461886
1.48060e-05;0.00273763208219092
1.48063e-05;0.002717012403708053
1.48065e-05;0.0027034736827751794
1.48068e-05;0.0026899349618423976
1.48070e-05;0.0026763962409095234
1.48073e-05;0.0026628575199766497
1.48075e-05;0.002649318799043868
1.48078e-05;0.002635780078110994
1.48080e-05;0.00262224135717812
1.48083e-05;0.0026087026362452462
1.48085e-05;0.002595163915312464
1.48088e-05;0.0025816251943795903
1.48090e-05;0.0025680864734467165
1.48093e-05;0.0025545477525139347
1.48095e-05;0.0025410090315810606
1.48098e-05;0.002527470310648187
1.48100e-05;0.0025139315897154046
1.48103e-05;0.002500392868782531
1.48105e-05;0.00249020771622182
1.48108e-05;0.0024815827096364685
1.48110e-05;0.0024729577030510584
1.48113e-05;0.0024643326964656482
1.48115e-05;0.0024557076898802962
1.48118e-05;0.002447082683294886
1.48120e-05;0.002438457676709476
1.48123e-05;0.0024298326701241244
1.48125e-05;0.0024212076635387143
1.48128e-05;0.002412582656953304
1.48130e-05;0.0024039576503679526
1.48133e-05;0.002395332643782542
1.48135e-05;0.002386707637197132
1.48138e-05;0.0023780826306117804
1.48140e-05;0.0023694576240263702
1.48143e-05;0.00236083261744096
1.48145e-05;0.0023531911373563066
1.48148e-05;0.0023499555675116487
1.48150e-05;0.002346719997666991
1.48153e-05;0.0023455091714245325
1.48155e-05;0.0023533686026317303
1.48158e-05;0.002361228033838928
1.48160e-05;0.0023711226752574774
1.48163e-05;0.002390134461465077
1.48165e-05;0.0024091462476726767
1.48168e-05;0.0024303741082322655
1.48170e-05;0.0024615293318798076
1.48173e-05;0.0024926845555275612
1.48175e-05;0.002526353918197326
1.48178e-05;0.002571285886250204
1.48180e-05;0.0026162178543033855
1.48183e-05;0.002663179834671293
1.48185e-05;0.0027192356747757314
1.48188e-05;0.0027752915148805497
1.48190e-05;0.0028342566069880313
1.48193e-05;0.0029062542947403012
1.48195e-05;0.002978251982493059
1.48198e-05;0.003050249670245817
1.48200e-05;0.0031222473579980868
1.48203e-05;0.0031942450457508446
1.48205e-05;0.0032662427335036024
1.48208e-05;0.0033400538235212134
1.48210e-05;0.0034219884237914333
1.48213e-05;0.0035039230240616536
1.48215e-05;0.003585857624331319
1.48218e-05;0.0036677922246015388
1.48220e-05;0.003749726824871759
1.48223e-05;0.003831661425141424
1.48225e-05;0.003912783616328736
1.48228e-05;0.003990266453115393
1.48230e-05;0.004067749289901525
1.48233e-05;0.004145232126688183
1.48235e-05;0.004219913484871302
1.48238e-05;0.004282045040621847
1.48240e-05;0.004344176596372813
1.48243e-05;0.004406308152123779
1.48245e-05;0.004459630090478571
1.48248e-05;0.004511992186179425
1.48250e-05;0.0011698147566366573
1.48253e-05;-0.00769452273433807
1.48255e-05;-0.008966688195700408
1.48258e-05;-0.007140851420034816
1.48260e-05;-0.0032915969531878853
1.48263e-05;0.0039889329156036395
1.48265e-05;0.0059337622403547
1.48268e-05;0.005680737801204978
1.48270e-05;0.0035634904661814605
1.48273e-05;-0.0019795134710544754
1.48275e-05;-0.003303999691612748
1.48278e-05;-0.0018173811355652067
1.48280e-05;0.00019506635832169434
1.48283e-05;0.003055083905860877
1.48285e-05;0.006099419788184252
1.48288e-05;0.006717558667573065
1.48290e-05;0.005403339324324583
1.48293e-05;0.0030333161795589735
1.48295e-05;0.0013410877380583806
1.48298e-05;0.0015724121268400246
1.48300e-05;0.0030188044118901044
1.48303e-05;0.005013951395403163
1.48305e-05;0.006560277911481128
1.48308e-05;0.006801517216568648
1.48310e-05;0.005968638466598507
1.48313e-05;0.004476045367697472
1.48315e-05;0.003409413435354224
1.48318e-05;0.0035487801522246717
1.48320e-05;0.004450057650904828
1.48323e-05;0.005695636366389672
1.48325e-05;0.0066604710471244105
1.48328e-05;0.006808102716418118
1.48330e-05;0.006283147125608359
1.48333e-05;0.005345117210886124
1.48335e-05;0.004673977944038169
1.48338e-05;0.004758198856554139
1.48340e-05;0.005319457905415926
1.48343e-05;0.0060960505686540635
1.48345e-05;0.006696361040105747
1.48348e-05;0.0067842042838812235
1.48350e-05;0.006449796654606858
1.48353e-05;0.0058552575097261614
1.48355e-05;0.0054263395401127935
1.48358e-05;0.005469039040753852
1.48360e-05;0.00580906219410392
1.48363e-05;0.006282542500363335
1.48365e-05;0.006644257814351566
1.48368e-05;0.006683730020413868
1.48370e-05;0.006457586701852783
1.48373e-05;0.006067489937360353
1.48375e-05;0.005780225231751663
1.48378e-05;0.0057875425229335885
1.48380e-05;0.005980336774444853
1.48383e-05;0.006256044702269572
1.48385e-05;0.00646115288337209
1.48388e-05;0.006463926883089204
1.48390e-05;0.006299951340555289
1.48393e-05;0.0060330150628503665
1.48395e-05;0.005830331545031778
1.48398e-05;0.005812098699332261
1.48400e-05;0.0059100568441582384
1.48403e-05;0.006060049852364918
1.48405e-05;0.006166015117258718
1.48408e-05;0.0061455406833972204
1.48410e-05;0.006021024448954073
1.48413e-05;0.005832530587651784
1.48415e-05;0.005684900678016998
1.48418e-05;0.005653517655409801
1.48420e-05;0.005695713696980742
1.48423e-05;0.005771396162690116
1.48425e-05;0.005820489287600712
1.48428e-05;0.005791473932819562
1.48430e-05;0.005699318675828807
1.48433e-05;0.005568916285915451
1.48435e-05;0.0054619642315090824
1.48438e-05;0.005431516416762549
1.48440e-05;0.00544852291251895
1.48443e-05;0.005488048475416408
1.48445e-05;0.005513668257943637
1.48448e-05;0.0054916651861876605
1.48450e-05;0.005432408820766978
1.48453e-05;0.005351446155387657
1.48455e-05;0.005285991749501621
1.48458e-05;0.005271120191504124
1.48460e-05;0.005287998751276201
1.48463e-05;0.005320814600684597
1.48465e-05;0.005345555106582797
1.48468e-05;0.005342520760566404
1.48470e-05;0.005317677996338422
1.48473e-05;0.0052805971551993375
1.48475e-05;0.005256874665665763
1.48478e-05;0.005268314100849726
1.48480e-05;0.005287066902292099
1.48483e-05;0.005325069985610699
1.48485e-05;0.005356315208253975
1.48488e-05;0.0053697723537959275
1.48490e-05;0.00537849776611202
1.48493e-05;0.005374768284861984
1.48495e-05;0.005379507283026527
1.48498e-05;0.005406537058109684
1.48500e-05;0.005438126389174495
1.48503e-05;0.005481717407940808
1.48505e-05;0.0055209325221786554
1.48508e-05;0.005548629357055789
1.48510e-05;0.005574357264592855
1.48513e-05;0.00559490255102973
1.48515e-05;0.005615447837466606
1.48518e-05;0.005640801437327947
1.48520e-05;0.005679218081465349
1.48523e-05;0.005718704916865612
1.48525e-05;0.0057581917522656085
1.48528e-05;0.005794130386029467
1.48530e-05;0.005819318442804388
1.48533e-05;0.005840792506200697
1.48535e-05;0.00586226656959715
1.48538e-05;0.005889978291373589
1.48540e-05;0.005919497677962916
1.48543e-05;0.005945960546681352
1.48545e-05;0.0059643780326709825
1.48548e-05;0.005982795518660489
1.48550e-05;0.006001213004650119
1.48553e-05;0.006016227201645555
1.48555e-05;0.006022283243102284
1.48558e-05;0.006028339284559053
1.48560e-05;0.0060343953260158225
1.48563e-05;0.006034015047480984
1.48565e-05;0.006016693052952798
1.48568e-05;0.005999371058424611
1.48570e-05;0.005982049063896543
1.48573e-05;0.005964727069368357
1.48575e-05;0.005947405074840171
1.48578e-05;0.005930083080312102
1.48580e-05;0.0059127610857839154
1.48583e-05;0.005895439091255729
1.48585e-05;0.005878117096727661
1.48588e-05;0.005853492889643253
1.48590e-05;0.005809647759512545
1.48593e-05;0.005765802629381837
1.48595e-05;0.005721957499251426
1.48598e-05;0.005678112369120718
1.48600e-05;0.00563426723899001
1.48603e-05;0.0055904221088595996
1.48605e-05;0.0055465769787288914
1.48608e-05;0.005502731848598183
1.48610e-05;0.005458886718467772
1.48613e-05;0.005412789985803768
1.48615e-05;0.005360766572877911
1.48618e-05;0.0053087431599524075
1.48620e-05;0.005256719747026552
1.48623e-05;0.005204696334100695
1.48625e-05;0.0051526729211751904
1.48628e-05;0.005100649508249335
1.48630e-05;0.005050933427899833
1.48633e-05;0.005007290720731073
1.48635e-05;0.004963648013562017
1.48638e-05;0.004920005306392961
1.48640e-05;0.004876362599224201
1.48643e-05;0.004832719892055145
1.48645e-05;0.004789077184886089
1.48648e-05;0.0047467607087515636
1.48650e-05;0.004707935145057262
1.48653e-05;0.004669109581362961
1.48655e-05;0.004630284017668922
1.48658e-05;0.004591458453974621
1.48660e-05;0.00455263289028032
1.48663e-05;0.004513807326586281
1.48665e-05;0.00447498176289198
1.48668e-05;0.0044361561991976784
1.48670e-05;0.00439733063550364
1.48673e-05;0.004349176824707965
1.48675e-05;0.004298319700740117
1.48678e-05;0.004247462576772613
1.48680e-05;0.004196605452804765
1.48683e-05;0.004145748328836916
1.48685e-05;0.004094891204869068
1.48688e-05;0.004044034080901564
1.48690e-05;0.003993176956933716
1.48693e-05;0.003942319832965868
1.48695e-05;0.003888625890779574
1.48698e-05;0.0038274648604628486
1.48700e-05;0.003766303830146123
1.48703e-05;0.003705142799829812
1.48705e-05;0.0036439817695130866
1.48708e-05;0.0035828207391963613
1.48710e-05;0.0035216597088800505
1.48713e-05;0.003460498678563325
1.48715e-05;0.0033999076328075995
1.48718e-05;0.003340816903470814
1.48720e-05;0.0032817261741336285
1.48723e-05;0.003222635444796443
1.48725e-05;0.003163544715459658
1.48728e-05;0.0031044539861224724
1.48730e-05;0.0030453632567852868
1.48733e-05;0.0029862725274485014
1.48735e-05;0.002931875118373174
1.48738e-05;0.0028898314920646952
1.48740e-05;0.002847787865756501
1.48743e-05;0.0028057442394480215
1.48745e-05;0.0027637006131395426
1.48748e-05;0.0027216569868313482
1.48750e-05;0.0026796133605228693
1.48753e-05;0.00263756973421439
1.48755e-05;0.002621060918666108
1.48758e-05;0.0026119520561368936
1.48760e-05;0.0026028431936076786
1.48763e-05;0.0025937343310785256
1.48765e-05;0.0025846254685493106
1.48768e-05;0.002575516606020096
1.48770e-05;0.002566407743490881
1.48773e-05;0.002564560213705274
1.48775e-05;0.0025818260029161094
1.48778e-05;0.0025990917921269448
1.48780e-05;0.002620138899592749
1.48783e-05;0.0026511392132522577
1.48785e-05;0.002682139526911767
1.48788e-05;0.0027164898396593528
1.48790e-05;0.002759658037976642
1.48793e-05;0.0028028262362939315
1.48795e-05;0.002849963998276454
1.48798e-05;0.002907550467032653
1.48800e-05;0.002965136935788852
1.48803e-05;0.0030227234045446605
1.48805e-05;0.0030803098733008594
1.48808e-05;0.0031378963420570583
1.48810e-05;0.003195482810812867
1.48813e-05;0.0032595838899839714
1.48815e-05;0.003325572894288747
1.48818e-05;0.003391561898593076
1.48820e-05;0.0034575509028978517
1.48823e-05;0.0035235399072026273
1.48825e-05;0.003589528911506956
1.48828e-05;0.0036531691890168646
1.48830e-05;0.0037106271352577666
1.48833e-05;0.003768085081498279
1.48835e-05;0.003825543027739181
1.48838e-05;0.003883000973980083
1.48840e-05;0.003940458920220596
1.48843e-05;0.003997916866461498
1.48845e-05;0.004047619052946792
1.48848e-05;0.0040769064869966365
1.48850e-05;0.00410619392104668
1.48853e-05;0.004135481355096724
1.48855e-05;0.004164768789146766
1.48858e-05;0.004194056223196611
1.48860e-05;0.004223343657246655
1.48863e-05;0.0042452313647535185
1.48865e-05;0.004247641472356184
1.48868e-05;0.004250051579958865
1.48870e-05;0.004247884183099647
1.48873e-05;0.0042336678544390325
1.48875e-05;0.004219451525778321
1.48878e-05;0.0041981595969983404
1.48880e-05;0.0041582432356269345
1.48883e-05;0.004118326874255259
1.48885e-05;0.004078410512883582
1.48888e-05;0.004038494151512177
1.48890e-05;0.0039985777901405005
1.48893e-05;0.003958661428768825
1.48895e-05;0.003918745067397419
1.48898e-05;0.003858917145812482
1.48900e-05;0.0037933188814758957
1.48903e-05;0.003727720617139754
1.48905e-05;0.003662122352803168
1.48908e-05;0.003596524088466582
1.48910e-05;0.0035309258241304404
1.48913e-05;0.0034653275597938548
1.48915e-05;0.003397767466317441
1.48918e-05;0.0033250434356543643
1.48920e-05;0.0032523194049907944
1.48923e-05;0.003179595374327225
1.48925e-05;0.0031068713436641477
1.48928e-05;0.003034147313000578
1.48930e-05;0.002964178107554867
1.48933e-05;0.0029014601678282836
1.48935e-05;0.0028387422281012753
1.48938e-05;0.002776024288374267
1.48940e-05;0.0027133063486472586
1.48943e-05;0.0026505884089206753
1.48945e-05;0.0025923678358098943
1.48948e-05;0.0025459852552365343
1.48950e-05;0.0024996026746634883
1.48953e-05;0.002455504359199538
1.48955e-05;0.0024174186986127837
1.48958e-05;0.0023793330380262874
1.48960e-05;0.002343736191165806
1.48963e-05;0.002314690413149557
1.48965e-05;0.0022856446351335043
1.48968e-05;0.0022590432910798266
1.48970e-05;0.0022388761992184593
1.48973e-05;0.0022187091073572287
1.48975e-05;0.0022019845234324677
1.48978e-05;0.002194321327370115
1.48980e-05;0.002186658131307814
1.48983e-05;0.0021789949352454614
1.48985e-05;0.0021713317391831087
1.48988e-05;0.002163668543120808
1.48990e-05;0.0021560053470584552
1.48993e-05;0.0021483421509961025
1.48995e-05;0.0021406789549338018
