Time(s);Current(A)
1.03000e-05;0.0031751557187869556
1.03003e-05;0.003196262545495206
1.03005e-05;0.0032173693722035994
1.03008e-05;0.003247604431379093
1.03010e-05;0.003287532529355194
1.03013e-05;0.0033274606273315656
1.03015e-05;0.003367388725307937
1.03018e-05;0.0034073168232840382
1.03020e-05;0.00344724492126041
1.03023e-05;0.0034871730192367815
1.03025e-05;0.003527101117212883
1.03028e-05;0.0035667645123236683
1.03030e-05;0.003606146826167485
1.03032e-05;0.0036455291400110342
1.03035e-05;0.0036849114538548508
1.03038e-05;0.0037242937676986673
1.03040e-05;0.003763676081542217
1.03043e-05;0.0038030583953860336
1.03045e-05;0.00384244070922985
1.03047e-05;0.0038708827856363654
1.03050e-05;0.003887707701068396
1.03053e-05;0.0039045326165004267
1.03055e-05;0.003921357531932343
1.03058e-05;0.003938182447364374
1.03060e-05;0.003955007362796404
1.03063e-05;0.003971832278228435
1.03065e-05;0.003988657193660351
1.03068e-05;0.004005482109092382
1.03070e-05;0.004022307024524412
1.03073e-05;0.0040391319399563285
1.03075e-05;0.004055956855388359
1.03078e-05;0.004072781770820389
1.03080e-05;0.004074768446158902
1.03083e-05;0.004060998770252999
1.03085e-05;0.004047229094347097
1.03088e-05;0.004033459418441288
1.03090e-05;0.004019689742535386
1.03093e-05;0.004005920066629484
1.03095e-05;0.003992150390723675
1.03098e-05;0.003978380714817773
1.03100e-05;0.00396461103891187
1.03103e-05;0.003950841363006061
1.03105e-05;0.003937071687100159
1.03108e-05;0.0039233020111942565
1.03110e-05;0.003909532335288448
1.03113e-05;0.0038892152736021645
1.03115e-05;0.0038619457088262072
1.03117e-05;0.003834676144050435
1.03120e-05;0.0038074065792744784
1.03123e-05;0.003780137014498521
1.03125e-05;0.003752867449722749
1.03128e-05;0.003725597884946792
1.03130e-05;0.003698328320170835
1.03132e-05;0.003671058755395063
1.03135e-05;0.003645883614382552
1.03138e-05;0.003622932488904801
1.03140e-05;0.0035999813634272054
1.03143e-05;0.0035770302379494546
1.03145e-05;0.0035540791124717033
1.03148e-05;0.003531127986993952
1.03150e-05;0.0035081768615163565
1.03153e-05;0.0034852257360386057
1.03155e-05;0.0034622746105608545
1.03158e-05;0.0034474188610278097
1.03160e-05;0.003441159386124458
1.03163e-05;0.003434899911221106
1.03165e-05;0.0034286404363177963
1.03168e-05;0.0034223809614144446
1.03170e-05;0.0034161214865110925
1.03173e-05;0.0034098620116077834
1.03175e-05;0.0034036025367044313
1.03178e-05;0.0033973430618010796
1.03180e-05;0.00339108358689777
1.03183e-05;0.003384824111994418
1.03185e-05;0.0033785646370910662
1.03188e-05;0.0033723051621877566
1.03190e-05;0.0033823087363649544
1.03193e-05;0.0033925600460876274
1.03195e-05;0.003402811355810231
1.03198e-05;0.003413062665532904
1.03200e-05;0.003423313975255577
1.03202e-05;0.0034335652849781808
1.03205e-05;0.003443816594700854
1.03208e-05;0.003454067904423527
1.03210e-05;0.0034643192141461305
1.03213e-05;0.0034745705238688035
1.03215e-05;0.0034848218335914766
1.03217e-05;0.0034950731433140802
1.03220e-05;0.0035074894200549105
1.03223e-05;0.0035222046204259876
1.03225e-05;0.003536919820796965
1.03228e-05;0.003551635021168042
1.03230e-05;0.0035663502215391193
1.03232e-05;0.0035810654219100967
1.03235e-05;0.003595780622281174
1.03238e-05;0.003610495822652251
1.03240e-05;0.003625211023023328
1.03243e-05;0.0036399262233943056
1.03245e-05;0.0036546414237653827
1.03248e-05;0.00366935662413646
1.03250e-05;0.0036755541831662796
1.03253e-05;0.0036816219926936182
1.03255e-05;0.003687689802220957
1.03258e-05;0.0036937576117482543
1.03260e-05;0.003699825421275593
1.03263e-05;0.003705893230802931
1.03265e-05;0.0037119610403302285
1.03268e-05;0.003718028849857567
1.03270e-05;0.0037240966593849057
1.03273e-05;0.003730164468912203
1.03275e-05;0.0037362322784395417
1.03278e-05;0.003736099071551062
1.03280e-05;0.003729381162423634
1.03283e-05;0.00372266325329616
1.03285e-05;0.003715945344168686
1.03287e-05;0.0037092274350412576
1.03290e-05;0.003702509525913784
1.03293e-05;0.0036957916167863103
1.03295e-05;0.0036890737076588818
1.03298e-05;0.003682355798531408
1.03300e-05;0.003675637889403934
1.03302e-05;0.003668919980276506
1.03305e-05;0.0036622020711490322
1.03308e-05;0.003655484162021558
1.03310e-05;0.003642287992302353
1.03313e-05;0.003628993139032292
1.03315e-05;0.003615698285762231
1.03317e-05;0.0036024034324922596
1.03320e-05;0.0035891085792221986
1.03323e-05;0.0035758137259521375
1.03325e-05;0.0035625188726820765
1.03328e-05;0.0035492240194121053
1.03330e-05;0.0035359291661420443
1.03333e-05;0.0035226343128719833
1.03335e-05;0.0035093394596020125
1.03338e-05;0.003496044606331951
1.03340e-05;0.0034852999467376343
1.03343e-05;0.003477263273203027
1.03345e-05;0.0034692265996683655
1.03348e-05;0.003461189926133704
1.03350e-05;0.003453153252599097
1.03353e-05;0.0034451165790644355
1.03355e-05;0.003437079905529774
1.03358e-05;0.003429043231995167
1.03360e-05;0.0034210065584605056
1.03363e-05;0.003412969884925844
1.03365e-05;0.0034049332113912367
1.03368e-05;0.003396896537856575
1.03370e-05;0.0033888598643219137
1.03373e-05;0.0033808231907873068
1.03375e-05;0.0033727865172526452
1.03378e-05;0.0033647498437179837
1.03380e-05;0.0033567131701833764
1.03383e-05;0.003348676496648715
1.03385e-05;0.0033406398231140533
1.03387e-05;0.0033326031495794464
1.03390e-05;0.003327017331264448
1.03393e-05;0.00332403401401965
1.03395e-05;0.0033210506967748725
1.03398e-05;0.0033180673795300745
1.03400e-05;0.0033150840622852766
1.03402e-05;0.0033121007450404986
1.03405e-05;0.0033091174277957006
1.03408e-05;0.0033061341105509027
1.03410e-05;0.0033031507933061048
1.03413e-05;0.003300167476061327
1.03415e-05;0.0032971841588165293
1.03418e-05;0.0032942008415717313
1.03420e-05;0.0032912175243269537
1.03423e-05;0.003288234207082156
1.03425e-05;0.003285250889837358
1.03428e-05;0.00328226757259258
1.03430e-05;0.003279284255347782
1.03433e-05;0.003276300938102984
1.03435e-05;0.0032733176208582064
1.03438e-05;0.0032703343036134085
1.03440e-05;0.00326746097073719
1.03443e-05;0.003264704427475769
1.03445e-05;0.0032619478842143288
1.03448e-05;0.0032591913409528886
1.03450e-05;0.003256434797691467
1.03453e-05;0.003253678254430027
1.03455e-05;0.0032509217111685866
1.03458e-05;0.003248165167907165
1.03460e-05;0.003245408624645725
1.03463e-05;0.0032426520813842847
1.03465e-05;0.003230336041755905
1.03468e-05;0.0032178743820123075
1.03470e-05;0.0032054127222687096
1.03472e-05;0.0031929510625251967
1.03475e-05;0.0031804894027815988
1.03478e-05;0.0031680277430380013
1.03480e-05;0.003155566083294488
1.03483e-05;0.0031431044235508904
1.03485e-05;0.003130642763807293
1.03487e-05;0.003112042483649439
1.03490e-05;0.0030869237579809958
1.03493e-05;0.003061805032312553
1.03495e-05;0.00303668630664411
1.03498e-05;0.0030115675809758375
1.03500e-05;0.002986448855307395
1.03503e-05;0.0029613301296389518
1.03505e-05;0.002936211403970679
1.03508e-05;0.002911092678302236
1.03510e-05;0.0028859739526337935
1.03513e-05;0.0028553409722632634
1.03515e-05;0.0028246239930733406
1.03518e-05;0.002793907013883418
1.03520e-05;0.0027631900346937028
1.03523e-05;0.00273247305550378
1.03525e-05;0.002701756076313857
1.03528e-05;0.002671039097124142
1.03530e-05;0.0026403221179342193
1.03533e-05;0.0026096051387442965
1.03535e-05;0.0025822555035614763
1.03538e-05;0.002558481565676226
1.03540e-05;0.0025347076277909756
1.03543e-05;0.0025109336899058867
1.03545e-05;0.002487159752020636
1.03548e-05;0.0024633858141353856
1.03550e-05;0.0024396118762502967
1.03553e-05;0.002415837938365046
1.03555e-05;0.0023920640004797956
1.03557e-05;0.0023682900625947067
1.03560e-05;0.002344516124709456
1.03563e-05;0.002330088221465123
1.03565e-05;0.0023158026866675397
1.03568e-05;0.00230151715186986
1.03570e-05;0.00228723161707218
1.03572e-05;0.002272946082274597
1.03575e-05;0.002258660547476917
1.03578e-05;0.0022443750126792373
1.03580e-05;0.0022300894778815574
1.03583e-05;0.0022158039430839748
1.03585e-05;0.002201518408286295
1.03588e-05;0.002189474312500411
1.03590e-05;0.002179810344020417
1.03593e-05;0.0021701463755403583
1.03595e-05;0.002160482407060299
1.03598e-05;0.0021508184385803054
1.03600e-05;0.0021411544701002466
1.03603e-05;0.0021314905016201874
1.03605e-05;0.0021218265331401937
1.03608e-05;0.0021121625646601345
1.03610e-05;0.0021024985961800757
1.03613e-05;0.002092834627700082
1.03615e-05;0.002083170659220023
1.03618e-05;0.0020735066907399636
1.03620e-05;0.0020638427222599703
1.03623e-05;0.0020559334862968568
1.03625e-05;0.0020498875563423335
1.03628e-05;0.0020438416263878515
1.03630e-05;0.0020377956964333283
1.03633e-05;0.0020317497664788047
1.03635e-05;0.0020257038365243227
1.03638e-05;0.0020196579065697995
1.03640e-05;0.0020136119766152763
1.03642e-05;0.002007566046660794
1.03645e-05;0.0020015201167062706
1.03648e-05;0.0019954741867517474
1.03650e-05;0.0019894282567972654
1.03653e-05;0.0019833823268427422
1.03655e-05;0.001977336396888219
1.03657e-05;0.001977232455625732
1.03660e-05;0.001983438161632546
1.03663e-05;0.0019896438676393602
1.03665e-05;0.0019958495736461745
1.03668e-05;0.0020020552796529466
1.03670e-05;0.002008260985659761
1.03673e-05;0.0020144666916665746
1.03675e-05;0.0020206723976733468
1.03678e-05;0.002026878103680161
1.03680e-05;0.0020330838096869752
1.03683e-05;0.0020392895156937474
1.03685e-05;0.002045495221700561
1.03688e-05;0.0020678838140770713
1.03690e-05;0.0020905189208841007
1.03693e-05;0.002113154027691284
1.03695e-05;0.002135789134498467
1.03698e-05;0.002158424241305497
1.03700e-05;0.0021810593481126797
1.03703e-05;0.0022036944549198626
1.03705e-05;0.0022263295617268924
1.03708e-05;0.0022489646685340753
1.03710e-05;0.0022715997753412587
1.03713e-05;0.002294234882148288
1.03715e-05;0.002319909881831897
1.03718e-05;0.002348812866754649
1.03720e-05;0.0023777158516772048
1.03723e-05;0.0024066188365999565
1.03725e-05;0.0024355218215227083
1.03727e-05;0.0024644248064452645
1.03730e-05;0.0024933277913680163
1.03733e-05;0.002522230776290768
1.03735e-05;0.0025486143906797458
1.03738e-05;0.002572322749319597
1.03740e-05;0.002596031107959448
1.03742e-05;0.002619739466599139
1.03745e-05;0.00264344782523899
1.03748e-05;0.0026671561838788414
1.03750e-05;0.0026908645425186926
1.03753e-05;0.002714572901158383
1.03755e-05;0.00273332093019826
1.03758e-05;0.0027468017108898996
1.03760e-05;0.002760282491581448
1.03763e-05;0.002773763272273088
1.03765e-05;0.0027872440529647276
1.03768e-05;0.002800724833656276
1.03770e-05;0.0028142056143479156
1.03773e-05;0.0028276863950395556
1.03775e-05;0.002841167175731104
1.03778e-05;0.0028546479564227436
1.03780e-05;0.0028681287371143836
1.03783e-05;0.002881609517805932
1.03785e-05;0.0028950902984975716
1.03788e-05;0.0029085710791892116
1.03790e-05;0.00292205185988076
1.03793e-05;0.0029355326405723996
1.03795e-05;0.0029490134212640396
1.03798e-05;0.002962494201955588
1.03800e-05;0.0029759749826472276
1.03803e-05;0.0029894557633388676
1.03805e-05;0.0030029365440304157
1.03808e-05;0.0030109526345175907
1.03810e-05;0.003018885481201872
1.03812e-05;0.0030268183278861
1.03815e-05;0.003034751174570381
1.03818e-05;0.003042684021254663
1.03820e-05;0.0030506168679388904
1.03823e-05;0.0030585497146231717
1.03825e-05;0.0030664825613074534
1.03827e-05;0.003074415407991681
1.03830e-05;0.003082348254675962
1.03833e-05;0.003090281101360244
1.03835e-05;0.003098213948044525
1.03838e-05;0.0031061467947287526
1.03840e-05;0.0031140796414130343
1.03843e-05;0.0031220124880973156
1.03845e-05;0.003129945334781543
1.03848e-05;0.0031378781814658248
1.03850e-05;0.003145811028150106
1.03853e-05;0.003153743874834334
1.03855e-05;0.0031616767215186152
1.03858e-05;0.0031626466238167143
1.03860e-05;0.0031562227518525344
1.03863e-05;0.0031497988798883116
1.03865e-05;0.0031433750079240884
1.03868e-05;0.0031369511359599085
1.03870e-05;0.0031305272639956853
1.03873e-05;0.003124103392031462
1.03875e-05;0.0031176795200672826
1.03878e-05;0.0031112556481030593
1.03880e-05;0.003104831776138836
1.03883e-05;0.0030984079041746562
1.03885e-05;0.0030919840322104334
1.03888e-05;0.00308556016024621
1.03890e-05;0.003062618051184012
1.03893e-05;0.0030394243192799694
1.03895e-05;0.0030162305873759274
1.03897e-05;0.002993036855472042
1.03900e-05;0.0029698431235679994
1.03903e-05;0.002946649391663957
1.03905e-05;0.002923455659760072
1.03908e-05;0.0029002619278560293
1.03910e-05;0.002877068195951987
1.03912e-05;0.0028538744640481018
1.03915e-05;0.0028306807321440593
1.03918e-05;0.0028074870002400168
1.03920e-05;0.0027821065451637947
1.03923e-05;0.0027544040641437405
1.03925e-05;0.0027267015831234985
1.03928e-05;0.0026989991021032565
1.03930e-05;0.002671296621083202
1.03933e-05;0.00264359414006296
1.03935e-05;0.002615891659042718
1.03938e-05;0.0025881891780226637
1.03940e-05;0.0025640864894097277
1.03943e-05;0.002543806329167036
1.03945e-05;0.002523526168924482
1.03948e-05;0.0025032460086817903
1.03950e-05;0.0024829658484390987
1.03953e-05;0.0024626856881965445
1.03955e-05;0.002442405527953853
1.03958e-05;0.0024221253677111612
1.03960e-05;0.00241164948398988
1.03963e-05;0.0024115845131531272
1.03965e-05;0.002411519542316374
1.03968e-05;0.0024114545714796214
1.03970e-05;0.0024113896006428687
1.03973e-05;0.0024113246298061155
1.03975e-05;0.002411259658969363
1.03978e-05;0.0024111946881326097
1.03980e-05;0.002411129717295857
1.03982e-05;0.0024110647464591043
1.03985e-05;0.002410999775622351
1.03988e-05;0.002433209993908292
1.03990e-05;0.0024557595308743107
1.03993e-05;0.002478309067840482
1.03995e-05;0.0025008586048066534
1.03997e-05;0.0025234081417726717
1.04000e-05;0.002545957678738843
1.04003e-05;0.0025685072157050144
1.04005e-05;0.002591056752671186
1.04008e-05;0.002613606289637204
1.04010e-05;0.0026361558266033754
1.04013e-05;0.0026636293169144546
1.04015e-05;0.0026963314285533154
1.04018e-05;0.002729033540192398
1.04020e-05;0.0027617356518314803
1.04023e-05;0.002794437763470341
1.04025e-05;0.0028271398751094235
1.04028e-05;0.002859841986748506
1.04030e-05;0.0028925440983873668
1.04033e-05;0.0029233818707509007
1.04035e-05;0.0029522399484632578
1.04038e-05;0.002981098026175419
1.04040e-05;0.0030099561038877762
1.04043e-05;0.0030388141816001333
1.04045e-05;0.003067672259312295
1.04048e-05;0.0030965303370246522
1.04050e-05;0.0031253884147370093
1.04053e-05;0.003148164386015653
1.04055e-05;0.0031644819225378883
1.04058e-05;0.003180799459060124
1.04060e-05;0.0031971169955822484
1.04063e-05;0.0032134345321044836
1.04065e-05;0.0032297520686267187
1.04067e-05;0.0032460696051488432
1.04070e-05;0.0032623871416710784
1.04073e-05;0.0032787046781933135
1.04075e-05;0.0032950222147154385
1.04078e-05;0.0033113397512376736
1.04080e-05;0.0033276572877599087
1.04082e-05;0.0033439748242820332
1.04085e-05;0.0033602923608042684
1.04088e-05;0.0033732145962566467
1.04090e-05;0.0033825314475085383
1.04093e-05;0.003391848298760367
1.04095e-05;0.0034011651500122585
1.04098e-05;0.00341048200126415
1.04100e-05;0.0034197988525159788
1.04103e-05;0.0034291157037678703
1.04105e-05;0.0034384325550197623
1.04108e-05;0.0034477494062715905
1.04110e-05;0.0034570662575234825
1.04113e-05;0.003466383108775374
1.04115e-05;0.0034756999600272028
1.04118e-05;0.0034850168112790943
1.04120e-05;0.003494333662530986
1.04123e-05;0.003502272039149173
1.04125e-05;0.0035087466484715855
1.04128e-05;0.0035152212577939986
1.04130e-05;0.0035216958671163675
1.04133e-05;0.00352817047643878
1.04135e-05;0.003534645085761193
1.04138e-05;0.003541119695083562
1.04140e-05;0.003547594304405975
1.04143e-05;0.0035540689137283877
1.04145e-05;0.0035551746595798026
1.04148e-05;0.0035561986213587535
1.04150e-05;0.0035572225831377044
1.04152e-05;0.0035582465449166484
1.04155e-05;0.0035592705066955993
1.04158e-05;0.0035602944684745503
1.04160e-05;0.0035613184302534942
1.04163e-05;0.003562342392032445
1.04165e-05;0.0035527208769131884
1.04167e-05;0.00353179519953186
1.04170e-05;0.0035108695221503904
1.04173e-05;0.0034899438447689203
1.04175e-05;0.00346901816738745
1.04178e-05;0.003448092490006122
1.04180e-05;0.0034271668126246518
1.04183e-05;0.0034062411352431816
1.04185e-05;0.0033853154578618533
1.04188e-05;0.003364389780480383
1.04190e-05;0.0033315001151423673
1.04193e-05;0.003285906194047543
1.04195e-05;0.00324031227295241
1.04198e-05;0.0031947183518572777
1.04200e-05;0.0031491244307624536
1.04203e-05;0.0031035305096673207
1.04205e-05;0.003057936588572188
1.04208e-05;0.003012342667477364
1.04210e-05;0.002966748746382231
1.04213e-05;0.0029211548252870987
1.04215e-05;0.0028709959023096427
1.04218e-05;0.0028159895194660198
1.04220e-05;0.0027609831366223973
1.04223e-05;0.0027059767537791473
1.04225e-05;0.0026509703709355244
1.04228e-05;0.0025959639880919014
1.04230e-05;0.0025409576052486515
1.04233e-05;0.002490916759669705
1.04235e-05;0.0024409515542822774
1.04237e-05;0.002390986348895189
1.04240e-05;0.0023410211435077617
1.04243e-05;0.002291055938120334
1.04245e-05;0.002241090732733246
1.04248e-05;0.0021965618386364945
1.04250e-05;0.0021578056257960166
1.04252e-05;0.002119049412955802
1.04255e-05;0.0020852440691810866
1.04258e-05;0.00205669592786054
1.04260e-05;0.002028147786539994
1.04263e-05;0.0020047436482409035
1.04265e-05;0.001986801796451151
1.04268e-05;0.001968859944661398
1.04270e-05;0.0019563987534837817
1.04273e-05;0.0019497573369837396
1.04275e-05;0.0019431159204836975
1.04278e-05;0.0019417389193074318
1.04280e-05;0.0019459520674145725
1.04283e-05;0.0019501652155217136
1.04285e-05;0.0019592246294471067
1.04288e-05;0.0019734301702879634
1.04290e-05;0.00198763571112882
1.04293e-05;0.002006259995771199
1.04295e-05;0.0020295764325288426
1.04298e-05;0.0020528928692864867
1.04300e-05;0.002081613319625274
1.04303e-05;0.002116072155101485
1.04305e-05;0.002150530990577696
1.04308e-05;0.002184989826053674
1.04310e-05;0.0022194486615298853
1.04313e-05;0.0022539074970060963
1.04315e-05;0.002288366332482074
1.04318e-05;0.0023262463119925582
1.04320e-05;0.0023677591176949893
1.04322e-05;0.002409271923397139
1.04325e-05;0.0024507847290995695
1.04328e-05;0.0024922975348020005
1.04330e-05;0.00253381034050415
1.04333e-05;0.0025753231462065807
1.04335e-05;0.002612751969517553
1.04337e-05;0.00264584411537441
1.04340e-05;0.002678936261231492
1.04343e-05;0.002712028407088574
1.04345e-05;0.002745120552945655
1.04348e-05;0.0027782126988025128
1.04350e-05;0.0028113048446595946
1.04353e-05;0.002844396990516676
1.04355e-05;0.0028774891363735336
1.04358e-05;0.0029105812822306154
1.04360e-05;0.002918717418813773
1.04363e-05;0.002926473399689663
1.04365e-05;0.0029342293805656055
1.04368e-05;0.002941985361441548
1.04370e-05;0.0029497413423174375
1.04373e-05;0.00295749732319338
1.04375e-05;0.0029652533040693224
1.04378e-05;0.002973009284945212
1.04380e-05;0.0029807652658211544
1.04383e-05;0.0029762776209275063
1.04385e-05;0.002958788779960208
1.04388e-05;0.002941299938992791
1.04390e-05;0.0029238110980253744
1.04393e-05;0.002906322257058076
1.04395e-05;0.0028888334160906593
1.04398e-05;0.0028713445751232425
1.04400e-05;0.002853855734155944
1.04403e-05;0.0028363668931885274
1.04405e-05;0.0028039785036678886
1.04407e-05;0.0027713631488356025
1.04410e-05;0.0027387477940030956
1.04413e-05;0.0027061324391705888
1.04415e-05;0.0026735170843383027
1.04418e-05;0.002640901729505796
1.04420e-05;0.002608286374673289
1.04422e-05;0.002575671019841003
1.04425e-05;0.0025417657370692156
1.04428e-05;0.0025064907124923864
1.04430e-05;0.0024712156879155575
1.04433e-05;0.0024359406633389672
1.04435e-05;0.0024006656387621384
1.04438e-05;0.0023653906141853096
1.04440e-05;0.0023301155896087193
1.04443e-05;0.002302846759991275
1.04445e-05;0.002275699889004502
1.04448e-05;0.002248553018017912
1.04450e-05;0.002221406147031139
1.04453e-05;0.0021942592760443654
1.04455e-05;0.002167112405057776
1.04458e-05;0.002146108510119737
1.04460e-05;0.002131627685847899
1.04463e-05;0.0021171468615761592
1.04465e-05;0.002107440447202226
1.04468e-05;0.002102803857764482
1.04470e-05;0.0020981672683267694
1.04473e-05;0.0020964364975312676
1.04475e-05;0.0020976127866977755
1.04478e-05;0.0009900069766368967
1.04480e-05;-0.0070288303424317
1.04483e-05;-0.011907583379885091
1.04485e-05;-0.010008804932323423
1.04488e-05;-0.00757593908715626
