Time(s);Current(A)
1.75000e-06;0.005751140665048145
1.75025e-06;0.005818069066199266
1.75050e-06;0.005884997467350387
1.75075e-06;0.005951925868501564
1.75100e-06;0.006018854269652685
1.75125e-06;0.006085782670803863
1.75150e-06;0.0061557745303663786
1.75175e-06;0.006235001429601137
1.75200e-06;0.006314228328835829
1.75225e-06;0.00639345522807052
1.75250e-06;0.00647268212730528
1.75275e-06;0.006551909026539971
1.75300e-06;0.006631135925774729
1.75325e-06;0.006710362825009421
1.75350e-06;0.006789589724244112
1.75375e-06;0.006859329864120132
1.75400e-06;0.006925892419850475
1.75425e-06;0.006992454975580874
1.75450e-06;0.007059017531311217
1.75475e-06;0.00712558008704156
1.75500e-06;0.007192142642771959
1.75525e-06;0.007258705198502302
1.75550e-06;0.007325267754232701
1.75575e-06;0.00736825064783874
1.75600e-06;0.0074033355482850055
1.75625e-06;0.007438420448731242
1.75650e-06;0.007473505349177478
1.75675e-06;0.007508590249623744
1.75700e-06;0.0075436751500699804
1.75725e-06;0.007578760050516246
1.75750e-06;0.007613844950962482
1.75775e-06;0.007620242101912559
1.75800e-06;0.007617030309015463
1.75825e-06;0.007613818516118368
1.75850e-06;0.007610606723221271
1.75875e-06;0.007607394930324177
1.75900e-06;0.007604183137427082
1.75925e-06;0.007600971344529985
1.75950e-06;0.007597759551632891
1.75975e-06;0.007594547758735794
1.76000e-06;0.007591335965838699
1.76025e-06;0.007588124172941602
1.76050e-06;0.0075636973981858795
1.76075e-06;0.007532164678454549
1.76100e-06;0.007500631958723191
1.76125e-06;0.00746909923899186
1.76150e-06;0.007437566519260502
1.76175e-06;0.007406033799529171
1.76200e-06;0.0073745010797978405
1.76225e-06;0.007342968360066484
1.76250e-06;0.007311435640335153
1.76275e-06;0.007279902920603795
1.76300e-06;0.007248370200872464
1.76325e-06;0.007213656612393412
1.76350e-06;0.007177877593906133
1.76375e-06;0.007142098575418883
1.76400e-06;0.007106319556931604
1.76425e-06;0.007070540538444354
1.76450e-06;0.007034761519957106
1.76475e-06;0.0069989825014698265
1.76500e-06;0.00696980690510999
1.76525e-06;0.006942843120883617
1.76550e-06;0.006915879336657268
1.76575e-06;0.006888915552430896
1.76600e-06;0.006861951768204546
1.76625e-06;0.0068349879839781965
1.76650e-06;0.006808024199751825
1.76675e-06;0.0067827462281231715
1.76700e-06;0.006758032918375318
1.76725e-06;0.006733319608627486
1.76750e-06;0.006708606298879654
1.76775e-06;0.006683892989131801
1.76800e-06;0.006659179679383969
1.76825e-06;0.0066344663696361154
1.76850e-06;0.006609753059888283
1.76875e-06;0.0065850397501404515
1.76900e-06;0.006560326440392598
1.76925e-06;0.006535613130644766
1.76950e-06;0.006510899820896913
1.76975e-06;0.006486186511149081
1.77000e-06;0.006461473201401228
1.77025e-06;0.006435412886027364
1.77050e-06;0.0064089013919570725
1.77075e-06;0.0063823898978867585
1.77100e-06;0.006355878403816467
1.77125e-06;0.006329366909746153
1.77150e-06;0.006302855415675861
1.77175e-06;0.00627634392160557
1.77200e-06;0.006249832427535256
1.77225e-06;0.006223320933464964
1.77250e-06;0.006196809439394651
1.77275e-06;0.0061702979453243595
1.77300e-06;0.006143786451254068
1.77325e-06;0.006117274957183754
1.77350e-06;0.006090763463113462
1.77375e-06;0.00606913561914141
1.77400e-06;0.00604914355073149
1.77425e-06;0.0060291514823215524
1.77450e-06;0.0060091594139116316
1.77475e-06;0.0059891673455017115
1.77500e-06;0.005969175277091774
1.77525e-06;0.005949183208681854
1.77550e-06;0.005929191140271917
1.77575e-06;0.005909199071861996
1.77600e-06;0.005889207003452076
1.77625e-06;0.0058692149350421385
1.77650e-06;0.005849222866632218
1.77675e-06;0.0058293871468820604
1.77700e-06;0.005810022752634529
1.77725e-06;0.005790658358386998
1.77750e-06;0.00577129396413945
1.77775e-06;0.005751929569891919
1.77800e-06;0.005732565175644371
1.77825e-06;0.0057132007813968395
1.77850e-06;0.0056938363871492925
1.77875e-06;0.005674471992901761
1.77900e-06;0.00565510759865423
1.77925e-06;0.005635743204406682
1.77950e-06;0.005616378810159151
1.77975e-06;0.005597014415911603
1.78000e-06;0.00557387201392013
1.78025e-06;0.005549464170585323
1.78050e-06;0.005525056327250495
1.78075e-06;0.005500648483915688
1.78100e-06;0.00547624064058086
1.78125e-06;0.005451832797246052
1.78150e-06;0.005427424953911245
1.78175e-06;0.005403017110576417
1.78200e-06;0.00537860926724161
1.78225e-06;0.005354188168625936
1.78250e-06;0.0053297626301622115
1.78275e-06;0.005305337091698466
1.78300e-06;0.005280911553234741
1.78325e-06;0.005256486014771016
1.78350e-06;0.005232060476307271
1.78375e-06;0.005207634937843545
1.78400e-06;0.0051832093993797995
1.78425e-06;0.005158783860916075
1.78450e-06;0.005141273393175518
1.78475e-06;0.005126079124071369
1.78500e-06;0.005110884854967233
1.78525e-06;0.005095690585863083
1.78550e-06;0.005080496316758947
1.78575e-06;0.0050653020476548105
1.78600e-06;0.005050107778550661
1.78625e-06;0.005034913509446525
1.78650e-06;0.005019719240342376
1.78675e-06;0.005027016372868579
1.78700e-06;0.005041846986377413
1.78725e-06;0.0050566775998862334
1.78750e-06;0.005071508213395054
1.78775e-06;0.005086338826903887
1.78800e-06;0.005101169440412707
1.78825e-06;0.005116000053921541
1.78850e-06;0.005130830667430361
1.78875e-06;0.005145661280939182
1.78900e-06;0.0051604918944480145
1.78925e-06;0.005200163950730992
1.78950e-06;0.005248156632815474
1.78975e-06;0.005296149314899915
1.79000e-06;0.005344141996984356
1.79025e-06;0.005392134679068838
1.79050e-06;0.0054401273611532795
1.79075e-06;0.0054881200432377614
1.79100e-06;0.005536112725322203
1.79125e-06;0.005584105407406684
1.79150e-06;0.005632098089491125
1.79175e-06;0.0056907245538868455
1.79200e-06;0.005752912797051637
1.79225e-06;0.005815101040216376
1.79250e-06;0.0058772892833811674
1.79275e-06;0.005939477526545906
1.79300e-06;0.006001665769710645
1.79325e-06;0.006063854012875436
1.79350e-06;0.006126042256040175
1.79375e-06;0.006185483618540382
1.79400e-06;0.0062366442902338165
1.79425e-06;0.0062878049619272515
1.79450e-06;0.00633896563362073
1.79475e-06;0.006390126305314164
1.79500e-06;0.006441286977007642
1.79525e-06;0.006492447648701077
1.79550e-06;0.006543608320394555
1.79575e-06;0.00659476899208799
1.79600e-06;0.006617361109163967
1.79625e-06;0.006630384206645971
1.79650e-06;0.006643407304127963
1.79675e-06;0.006656430401609967
1.79700e-06;0.006669453499091959
1.79725e-06;0.006682476596573951
1.79750e-06;0.006695499694055956
1.79775e-06;0.006708522791537948
1.79800e-06;0.006721545889019951
1.79825e-06;0.006699779610485114
1.79850e-06;0.006666360652099328
1.79875e-06;0.006632941693713514
1.79900e-06;0.006599522735327729
1.79925e-06;0.0065661037769419155
1.79950e-06;0.00653268481855613
1.79975e-06;0.006499265860170317
1.80000e-06;0.0064658469017845315
1.80025e-06;0.0064324279433987455
1.80050e-06;0.0063769903419676945
1.80075e-06;0.006314177609748764
1.80100e-06;0.00625136487752978
1.80125e-06;0.00618855214531085
1.80150e-06;0.006125739413091919
1.80175e-06;0.006062926680872935
1.80200e-06;0.006036964362973197
1.80225e-06;-0.0032381038654686147
1.80250e-06;-0.019540420860500382
1.80275e-06;-0.013802851688898892
1.80300e-06;-0.009213426950900862
1.80325e-06;-0.00012213907505682995
1.80350e-06;0.013732210123765482
1.80375e-06;0.011603773755328698
1.80400e-06;0.009616566241774574
1.80425e-06;0.0038777836198334798
1.80450e-06;-0.0033907654926973643
1.80475e-06;-0.004136476133166784
1.80500e-06;-0.0009157021090244079
1.80525e-06;0.003990630024462646
1.80550e-06;0.009463139201390065
1.80575e-06;0.01056562326997927
1.80600e-06;0.008845904548554724
1.80625e-06;0.004988437471475087
1.80650e-06;0.00032685293989534285
1.80675e-06;-0.00022124952296105995
1.80700e-06;0.0017365210715567883
1.80725e-06;0.0047666131182362275
1.80750e-06;0.008164225038724727
1.80775e-06;0.008834685418697636
1.80800e-06;0.007745623708779475
1.80825e-06;0.005324263923195956
1.80850e-06;0.0024047730315883875
1.80875e-06;0.002066407912037767
1.80900e-06;0.0033011577877863083
1.80925e-06;0.005210287679242548
1.80950e-06;0.007351733698813476
1.80975e-06;0.00778662248540888
1.81000e-06;0.007120830867640968
1.81025e-06;0.005621742451887468
1.81050e-06;0.003811653721765665
1.81075e-06;0.0036191018597932097
1.81100e-06;0.004412329466098268
1.81125e-06;0.00562810286235448
1.81150e-06;0.006989298621417271
1.81175e-06;0.007281272602553884
1.81200e-06;0.0068834559123259415
1.81225e-06;0.0059632276197419684
1.81250e-06;0.004847627306800107
1.81275e-06;0.004744494795535902
1.81300e-06;0.005257871156154128
1.81325e-06;0.006034756177045629
1.81350e-06;0.006901394975386337
1.81375e-06;0.007096814652661207
1.81400e-06;0.006858593614325708
1.81425e-06;0.006291467057963015
1.81450e-06;0.005600166462941586
1.81475e-06;0.005541113050279091
1.81500e-06;0.005866087223621029
1.81525e-06;0.006353800718707903
1.81550e-06;0.006895314521855407
1.81575e-06;0.007014327627179353
1.81600e-06;0.00686107697509378
1.81625e-06;0.006502901655774477
1.81650e-06;0.006068762096600591
1.81675e-06;0.0060324223609928415
1.81700e-06;0.006238271157922679
1.81725e-06;0.006547580222097951
1.81750e-06;0.006892005985354038
1.81775e-06;0.006973106749650831
1.81800e-06;0.006884913048617102
1.81825e-06;0.006669521605830373
1.81850e-06;0.0064076235723495335
1.81875e-06;0.0063958766935788116
1.81900e-06;0.00653669072169957
1.81925e-06;0.006743058743293966
1.81950e-06;0.006972068865484262
1.81975e-06;0.007036686298132431
1.82000e-06;0.006995727277005669
1.82025e-06;0.0068754713656245005
1.82050e-06;0.0067263704702735325
1.82075e-06;0.006734148673520194
1.82100e-06;0.006837565101314507
1.82125e-06;0.0069820158655309
1.82150e-06;0.007140521327086258
1.82175e-06;0.007195829169924124
1.82200e-06;0.007184692593819848
1.82225e-06;0.007123481418198436
1.82250e-06;0.007043704099464364
1.82275e-06;0.007061596609232591
1.82300e-06;0.007138693974142668
1.82325e-06;0.007240691222171855
1.82350e-06;0.007350589453052632
1.82375e-06;0.007394847723620932
1.82400e-06;0.007396394843086719
1.82425e-06;0.007365391702964602
1.82450e-06;0.007321480649516785
1.82475e-06;0.00733737184997025
1.82500e-06;0.007388869606227503
1.82525e-06;0.007454385536557815
1.82550e-06;0.007523198871277469
1.82575e-06;0.007549376209174798
1.82600e-06;0.007547894604693702
1.82625e-06;0.007525902157857495
1.82650e-06;0.007496047715556833
1.82675e-06;0.00750388975765072
1.82700e-06;0.007535448621683488
1.82725e-06;0.007577882704981372
1.82750e-06;0.007615229490883353
1.82775e-06;0.0076303239687818625
1.82800e-06;0.007626817941554189
1.82825e-06;0.0076083339824157955
1.82850e-06;0.007594013359722403
1.82875e-06;0.007598253794587457
1.82900e-06;0.007617488262922573
1.82925e-06;0.007643666343511152
1.82950e-06;0.007666689229795214
1.82975e-06;0.007675904048224673
1.83000e-06;0.007674428859936728
1.83025e-06;0.007666785495566853
1.83050e-06;0.007659142131196984
1.83075e-06;0.007655538854288469
1.83100e-06;0.007666972457431004
1.83125e-06;0.007680417340559011
1.83150e-06;0.00769386222368703
1.83175e-06;0.007704419476943388
1.83200e-06;0.007703538521537825
1.83225e-06;0.007698745314687138
1.83250e-06;0.00769395210783645
1.83275e-06;0.007691667300609913
1.83300e-06;0.007698687211573634
1.83325e-06;0.007706843579461694
1.83350e-06;0.0077149999473497466
1.83375e-06;0.0077213046677552495
1.83400e-06;0.0077202364339911435
1.83425e-06;0.007716522009122718
1.83450e-06;0.00771280758425429
1.83475e-06;0.007710601477671402
1.83500e-06;0.007713913980851564
1.83525e-06;0.007717636166741444
1.83550e-06;0.007721358352631324
1.83575e-06;0.007723644902928451
1.83600e-06;0.0077193865159706455
1.83625e-06;0.007710108059600602
1.83650e-06;0.007700829603230566
1.83675e-06;0.007691385866552596
1.83700e-06;0.007681349934488532
1.83725e-06;0.007667370220488072
1.83750e-06;0.007639260030233858
1.83775e-06;0.0076111498399796685
1.83800e-06;0.007583039649725479
1.83825e-06;0.007554929459471266
1.83850e-06;0.007526819269217076
1.83875e-06;0.007498709078962862
1.83900e-06;0.007470598888708673
1.83925e-06;0.00744248869845446
1.83950e-06;0.00741437850820027
1.83975e-06;0.007386268317946081
1.84000e-06;0.007358158127691867
1.84025e-06;0.007315063688274996
1.84050e-06;0.0072660898477350825
1.84075e-06;0.0072171160071952106
1.84100e-06;0.007168142166655339
1.84125e-06;0.007119168326115426
1.84150e-06;0.007070194485575554
1.84175e-06;0.00702122064503564
1.84200e-06;0.006972246804495768
1.84225e-06;0.006923272963955896
1.84250e-06;0.0068742991234159835
1.84275e-06;0.0068253252828761116
1.84300e-06;0.006776272445299494
1.84325e-06;0.006726936563231817
1.84350e-06;0.0066776006811641395
1.84375e-06;0.006628264799096421
1.84400e-06;0.006578928917028744
1.84425e-06;0.006529593034961025
1.84450e-06;0.006480257152893348
1.84475e-06;0.00643919869914034
1.84500e-06;0.00640138807721392
1.84525e-06;0.0063635774552875
1.84550e-06;0.006325766833361048
1.84575e-06;0.0062879562114346275
1.84600e-06;0.006250145589508175
1.84625e-06;0.006213564125968318
1.84650e-06;0.006181386707497934
1.84675e-06;0.0061492092890275225
1.84700e-06;0.006117031870557139
1.84725e-06;0.006084854452086728
1.84750e-06;0.006052677033616344
1.84775e-06;0.0060204996151459605
1.84800e-06;0.005988322196675549
1.84825e-06;0.005956144778205165
1.84850e-06;0.005923967359734755
1.84875e-06;0.005891789941264371
1.84900e-06;0.005859612522793959
1.84925e-06;0.0058274351043235756
1.84950e-06;0.005794124157139861
1.84975e-06;0.0057603684449287025
1.85000e-06;0.005726612732717571
1.85025e-06;0.005692857020506412
1.85050e-06;0.0056591013082952805
1.85075e-06;0.00562534559608415
1.85100e-06;0.0055915898838729905
1.85125e-06;0.005557834171661859
1.85150e-06;0.0055240784594507
1.85175e-06;0.0054903227472395694
1.85200e-06;0.005456567035028438
1.85225e-06;0.005422811322817279
1.85250e-06;0.005390034194328132
1.85275e-06;0.005360763307884551
1.85300e-06;0.005331492421440996
1.85325e-06;0.005302221534997416
1.85350e-06;0.005272950648553861
1.85375e-06;0.005243679762110306
1.85400e-06;0.005214408875666725
1.85425e-06;0.00518513798922317
1.85450e-06;0.00515586710277959
1.85475e-06;0.005126596216336035
1.85500e-06;0.005097325329892479
1.85525e-06;0.005068054443448899
1.85550e-06;0.005041685835183412
1.85575e-06;0.0050257160201402865
1.85600e-06;0.005009746205097175
1.85625e-06;0.004993776390054063
1.85650e-06;0.004977806575010938
1.85675e-06;0.004961836759967826
1.85700e-06;0.004945866944924701
1.85725e-06;0.00492989712988159
1.85750e-06;0.0049139273148384646
1.85775e-06;0.004897957499795353
1.85800e-06;0.004881987684752241
1.85825e-06;0.004866017869709116
1.85850e-06;0.00485216780243644
1.85875e-06;0.0048459127406716325
1.85900e-06;0.004839657678906831
1.85925e-06;0.004833402617142028
1.85950e-06;0.00482714755537722
1.85975e-06;0.0048208924936124185
1.86000e-06;0.004814637431847611
1.86025e-06;0.004808382370082809
1.86050e-06;0.004802127308318006
1.86075e-06;0.0047958722465531985
1.86100e-06;0.004789617184788397
1.86125e-06;0.004783362123023589
1.86150e-06;0.004777107061258787
1.86175e-06;0.004770851999493979
1.86200e-06;0.004765571723826488
1.86225e-06;0.004763784083406034
1.86250e-06;0.004761996442985579
1.86275e-06;0.004760208802565125
1.86300e-06;0.004758421162144669
1.86325e-06;0.004756633521724216
1.86350e-06;0.0047548458813037615
1.86375e-06;0.0047530582408833065
1.86400e-06;0.004751270600462852
1.86425e-06;0.0047494829600423965
1.86450e-06;0.004747695319621943
1.86475e-06;0.004745907679201489
1.86500e-06;0.004744120038781034
1.86525e-06;0.00474233239836058
1.86550e-06;0.004742849925524143
1.86575e-06;0.004751626812947605
1.86600e-06;0.004760403700371074
1.86625e-06;0.004769180587794537
1.86650e-06;0.004777957475218
1.86675e-06;0.004786734362641469
1.86700e-06;0.004795511250064931
1.86725e-06;0.004804288137488401
1.86750e-06;0.004813065024911863
1.86775e-06;0.004827704486144279
1.86800e-06;0.004863349408963711
1.86825e-06;0.004898994331783114
1.86850e-06;0.004934639254602547
1.86875e-06;0.004970284177421949
1.86900e-06;0.005005929100241352
1.86925e-06;0.005041574023060784
1.86950e-06;0.005077218945880186
1.86975e-06;0.00511286386869962
1.87000e-06;0.005153443887654531
1.87025e-06;0.005211706237899235
1.87050e-06;0.005269968588143889
1.87075e-06;0.005328230938388545
1.87100e-06;0.005386493288633248
1.87125e-06;0.005444755638877903
1.87150e-06;0.0055030179891226065
1.87175e-06;0.005561280339367261
1.87200e-06;0.005619542689611916
1.87225e-06;0.005678679354622365
1.87250e-06;0.00574094866850416
1.87275e-06;0.005803217982386008
1.87300e-06;0.005865487296267802
1.87325e-06;0.005927756610149597
1.87350e-06;0.005990025924031444
1.87375e-06;0.006052295237913239
1.87400e-06;0.0061145645517950865
1.87425e-06;0.0061768338656768805
1.87450e-06;0.006234434937272925
1.87475e-06;0.006275309808533902
1.87500e-06;0.00631618467979488
1.87525e-06;0.006357059551055892
1.87550e-06;0.006397934422316869
1.87575e-06;0.006438809293577882
1.87600e-06;0.006479684164838859
1.87625e-06;0.006520559036099837
1.87650e-06;0.006561433907360849
1.87675e-06;0.0065715943634557655
1.87700e-06;0.006569703340359848
1.87725e-06;0.006567812317263931
1.87750e-06;0.006565921294168015
1.87775e-06;0.006564030271072097
1.87800e-06;0.006562139247976181
1.87825e-06;0.006560248224880263
1.87850e-06;0.006558357201784346
1.87875e-06;0.006547023505104851
1.87900e-06;0.00650185693506896
1.87925e-06;0.006456690365033108
1.87950e-06;0.006411523794997217
1.87975e-06;0.006366357224961364
1.88000e-06;0.006321190654925473
1.88025e-06;0.006276024084889621
1.88050e-06;0.006230857514853768
1.88075e-06;0.006185690944817877
1.88100e-06;0.006121730134465303
1.88125e-06;0.006050394988809446
1.88150e-06;0.0059790598431536494
1.88175e-06;0.0059077246974978525
1.88200e-06;0.005836389551841996
1.88225e-06;0.005765054406186199
1.88250e-06;0.005693719260530341
1.88275e-06;0.005622384114874545
1.88300e-06;0.005550966260530008
1.88325e-06;0.005479252062934029
1.88350e-06;0.0054075378653381115
1.88375e-06;0.005335823667742132
1.88400e-06;0.005264109470146214
1.88425e-06;0.005192395272550235
1.88450e-06;0.005120681074954316
1.88475e-06;0.005048966877358398
1.88500e-06;0.0049939241161222545
1.88525e-06;0.004945422761169604
1.88550e-06;0.004896921406216912
1.88575e-06;0.004848420051264262
1.88600e-06;0.004799918696311611
1.88625e-06;0.004751417341358919
1.88650e-06;0.0047029159864062685
1.88675e-06;0.004661987542921529
1.88700e-06;0.004648192659900242
1.88725e-06;0.0046343977768789546
1.88750e-06;0.004620602893857656
1.88775e-06;0.004606808010836369
1.88800e-06;0.00459301312781507
1.88825e-06;0.004579218244793783
1.88850e-06;0.004565423361772484
1.88875e-06;0.004551628478751197
1.88900e-06;0.00453783359572991
1.88925e-06;0.004524038712708611
1.88950e-06;0.004532624316148437
1.88975e-06;0.0045499913977764105
1.89000e-06;0.004567358479404369
1.89025e-06;0.004584725561032328
1.89050e-06;0.004602092642660301
1.89075e-06;0.00461945972428826
1.89100e-06;0.004636826805916233
1.89125e-06;0.004654193887544192
1.89150e-06;0.0046715609691721505
1.89175e-06;0.004688928050800124
1.89200e-06;0.004708947414947998
1.89225e-06;0.004738469843857962
1.89250e-06;0.0047679922727679016
1.89275e-06;0.004797514701677865
1.89300e-06;0.004827037130587805
1.89325e-06;0.004856559559497744
1.89350e-06;0.0048860819884077086
1.89375e-06;0.004915604417317647
1.89400e-06;0.004942328853836454
1.89425e-06;0.0049679554362404305
1.89450e-06;0.004993582018644407
1.89475e-06;0.0050192086010484045
1.89500e-06;0.005044835183452381
1.89525e-06;0.005070461765856379
1.89550e-06;0.005096088348260355
1.89575e-06;0.005121337864948267
1.89600e-06;0.0051452363642041175
1.89625e-06;0.005169134863459948
1.89650e-06;0.005193033362715799
1.89675e-06;0.00521693186197163
1.89700e-06;0.00524083036122748
1.89725e-06;0.005264728860483311
1.89750e-06;0.005288627359739142
1.89775e-06;0.0053125258589949926
1.89800e-06;0.005336424358250823
1.89825e-06;0.005360322857506674
1.89850e-06;0.005386732733773289
1.89875e-06;0.005422140813736128
1.89900e-06;0.005457548893698996
1.89925e-06;0.0054929569736618345
1.89950e-06;0.005528365053624704
1.89975e-06;0.005563773133587542
1.90000e-06;0.005599181213550381
1.90025e-06;0.00563458929351325
1.90050e-06;0.005669997373476089
