Time(s);Current(A)
2.50000e-07;0.0015178436746002672
2.50250e-07;0.001535408938048849
2.50500e-07;0.0015521859226063583
2.50750e-07;0.0015689629071638641
2.51000e-07;0.0015857398917213737
2.51250e-07;0.001602516876278883
2.51500e-07;0.0016185894738782389
2.51750e-07;0.0016333117369489779
2.52000e-07;0.0016475684229211916
2.52250e-07;0.0016618251088934023
2.52500e-07;0.001676081794865616
2.52750e-07;0.001688816857522041
2.53000e-07;0.0017008659888502785
2.53250e-07;0.0017129151201785186
2.53500e-07;0.0017249642515067586
2.53750e-07;0.0017353084449437952
2.54000e-07;0.001744884070825348
2.54250e-07;0.0017544596967068984
2.54500e-07;0.0017639933288796312
2.54750e-07;0.001773508030742761
2.55000e-07;0.001783022732605889
2.55250e-07;0.001793098304583827
2.55500e-07;0.0018034267107414198
2.55750e-07;0.0018137551168990107
2.56000e-07;0.0018249601484151194
2.56250e-07;0.0018365603531585643
2.56500e-07;0.0018481605579020067
2.56750e-07;0.0018597607626454516
2.57000e-07;0.0018713609673888965
2.57250e-07;0.001882961172132339
2.57500e-07;0.0018963728169644947
2.57750e-07;0.0019106010393905217
2.58000e-07;0.0019248292618165457
2.58250e-07;0.0019390574842425728
2.58500e-07;0.001953285706668597
2.58750e-07;0.001967513929094624
2.59000e-07;0.0019830712684533566
2.59250e-07;0.001999227759345525
2.59500e-07;0.0020153842502376967
2.59750e-07;0.0020315407411298685
2.60000e-07;0.0020476972320220372
2.60250e-07;0.002064182140464767
2.60500e-07;0.002080815095986112
2.60750e-07;0.0020974480515074533
2.61000e-07;0.0021140810070287984
2.61250e-07;0.0021307139625501435
2.61500e-07;0.002147096961887458
2.61750e-07;0.002163367283681312
2.62000e-07;0.002179104793577269
2.62250e-07;0.0021946021176341922
2.62500e-07;0.002209649199588844
2.62750e-07;0.002224163680034549
2.63000e-07;0.002238130757082773
2.63250e-07;0.0022514459081028008
2.63500e-07;0.0022640027294904804
2.63750e-07;0.002275694817641667
2.64000e-07;0.0022863743636902635
2.64250e-07;0.002295637856625697
2.64500e-07;0.0023028216680136835
2.64750e-07;0.002307459164796564
2.65000e-07;0.002309457068768461
2.65250e-07;0.0023088655430503805
2.65500e-07;0.0023057482385484196
2.65750e-07;0.0023001686298879174
2.66000e-07;0.0022912662121574922
2.66250e-07;0.0022812080447669678
2.66500e-07;0.002267187490099635
2.66750e-07;0.0022513807341172955
2.67000e-07;0.0022294668535677575
2.67250e-07;0.002204799947336778
2.67500e-07;0.002180133041105799
2.67750e-07;0.0021554661348748244
2.68000e-07;0.002128838663429634
2.68250e-07;0.0020938137427442102
2.68500e-07;0.002058788822058794
2.68750e-07;0.00202376390137337
2.69000e-07;0.0019887389806879465
2.69250e-07;0.0019479733878899894
2.69500e-07;0.0019046199622124622
2.69750e-07;0.0018612665365349353
2.70000e-07;0.0018179131108574174
2.70250e-07;0.0017745596851798902
2.70500e-07;0.0017305387844300363
2.70750e-07;0.0016836589693229943
2.71000e-07;0.0016367791542159522
2.71250e-07;0.0015898993391089199
2.71500e-07;0.0015430195240018778
2.71750e-07;0.0014961397088948357
2.72000e-07;0.0014502359703156178
2.72250e-07;0.001404772236474884
2.72500e-07;0.0013608610795929417
2.72750e-07;0.0013176498076065855
2.73000e-07;0.0012774600230911852
2.73250e-07;0.0012386322924379987
2.73500e-07;0.0011998045617848201
2.73750e-07;0.0011658635614589991
2.74000e-07;0.001134125446294865
2.74250e-07;0.0011023873311307242
2.74500e-07;0.0010714064133570164
2.74750e-07;0.0010407668319747483
2.75000e-07;0.0010101272505924736
2.75250e-07;0.0009786237935339851
2.75500e-07;0.0009467309106669999
2.75750e-07;0.000914838027800008
2.76000e-07;0.0008829451449330161
2.76250e-07;0.0008504704596648333
2.76500e-07;0.0008155038113155017
2.76750e-07;0.0007805371629661703
2.77000e-07;0.0007455705146168462
2.77250e-07;0.0007106038662675147
2.77500e-07;0.0006730447260509545
2.77750e-07;0.0006343169185490108
2.78000e-07;0.000595589111047059
2.78250e-07;0.0005553495968965681
2.78500e-07;0.000514428621744165
2.78750e-07;0.00047350764659176187
2.79000e-07;0.0004305490270223351
2.79250e-07;0.00038667185939511974
2.79500e-07;0.00034279469176790435
2.79750e-07;0.00029830298499612044
2.80000e-07;0.0002535342506266935
2.80250e-07;0.00020876551625726653
2.80500e-07;0.00016399678188784903
2.80750e-07;0.00011922804751842206
2.81000e-07;7.425540903078748e-05
2.81250e-07;2.9396289798388426e-05
2.81500e-07;-1.4971917917742473e-05
2.81750e-07;-5.8569424547101665e-05
2.82000e-07;-0.00010113567674549764
2.82250e-07;-0.0001425336720637794
2.82500e-07;-0.00018276803239693944
2.82750e-07;-0.00022178257449425334
2.83000e-07;-0.00025936696129531415
2.83250e-07;-0.0002952489912252744
2.83500e-07;-0.0003291506308702256
2.83750e-07;-0.00036079385133780666
2.84000e-07;-0.0003899030912003964
2.84250e-07;-0.0004162337315812343
2.84500e-07;-0.00043961919617333943
2.84750e-07;-0.00045997081518093006
2.85000e-07;-0.0004772333663818157
2.85250e-07;-0.0004913564902772721
2.85500e-07;-0.0005022898522069663
2.85750e-07;-0.0005099830093095048
2.86000e-07;-0.0005143871224330789
2.86250e-07;-0.0005154728086118567
2.86500e-07;-0.0005132594350726501
2.86750e-07;-0.0005078153589749404
2.87000e-07;-0.00049922968849921
2.87250e-07;-0.00048759474494447887
2.87500e-07;-0.0004730027433831104
2.87750e-07;-0.0004555459067850808
2.88000e-07;-0.00043531741708463035
2.88250e-07;-0.00041242264782491276
2.88500e-07;-0.00038699753728050414
2.88750e-07;-0.0003592086071204836
2.89000e-07;-0.00032923550683400726
2.89250e-07;-0.00029725976210595107
2.89500e-07;-0.0002634628955012929
2.89750e-07;-0.00022802638650199636
2.90000e-07;-0.00019113233491144095
2.90250e-07;-0.00015297043652587648
2.90500e-07;-0.00011374954183481405
2.90750e-07;-7.369764346875973e-05
2.91000e-07;-3.3050928031830694e-05
2.91250e-07;7.969234502211379e-06
2.91500e-07;4.908476148526015e-05
2.91750e-07;8.993693675924494e-05
2.92000e-07;0.0001306703959320153
2.92250e-07;0.00017079207430493776
2.92500e-07;0.00020999551491895948
2.92750e-07;0.00024808097837607094
2.93000e-07;0.00028477696955653595
2.93250e-07;0.00031981131338672757
2.93500e-07;0.0003529118689912014
2.93750e-07;0.00038380650651203136
2.94000e-07;0.00041228342762606243
2.94250e-07;0.00043806750287791974
2.94500e-07;0.0004629843544217358
2.94750e-07;0.0004864172867146302
2.95000e-07;0.0005091812842638213
2.95250e-07;0.0005302584988453118
2.95500e-07;0.0005505753299143788
2.95750e-07;0.0005687760190906563
2.96000e-07;0.0005860227743963302
2.96250e-07;0.0006011319696803416
2.96500e-07;0.0006152775760329788
2.96750e-07;0.0006294231823856131
2.97000e-07;0.0006419376541216375
2.97250e-07;0.0006537168280198376
2.97500e-07;0.0006654960019180354
2.97750e-07;0.0006752431216445313
2.98000e-07;0.0006840742133353379
2.98250e-07;0.0006929053050261464
2.98500e-07;0.0006992991197757113
2.98750e-07;0.0007045942364492078
2.99000e-07;0.0007098893531227053
2.99250e-07;0.0007151844697962029
2.99500e-07;0.0007204795864696994
2.99750e-07;0.000725774703143197
3.00000e-07;0.0007310698198166946
3.00250e-07;0.000736364936490191
3.00500e-07;0.0007410122874820776
3.00750e-07;0.0007428851429398288
3.01000e-07;0.0007447579983975796
3.01250e-07;0.0007466308538553308
3.01500e-07;0.0007485037093130815
3.01750e-07;0.0007503765647708327
3.02000e-07;0.000752249420228584
3.02250e-07;0.0007541222756863347
3.02500e-07;0.0007559951311440859
3.02750e-07;0.0007571994175317628
3.03000e-07;0.0007581023202159372
3.03250e-07;0.0007590052229001117
3.03500e-07;0.0007599081255842862
3.03750e-07;0.0007600310987740342
3.04000e-07;0.0007598024881857965
3.04250e-07;0.0007595738775975589
3.04500e-07;0.0007593452670093213
3.04750e-07;0.0007560042806555252
3.05000e-07;0.0007512602689795857
3.05250e-07;0.0007439589006186164
3.05500e-07;0.0007355047035322216
3.05750e-07;0.0007247691246583597
3.06000e-07;0.0007130051235571043
3.06250e-07;0.0006986572856614355
3.06500e-07;0.0006831446820935255
3.06750e-07;0.0006643991179589184
3.07000e-07;0.0006441961701784285
3.07250e-07;0.0006211007920257759
3.07500e-07;0.0005967015375547123
3.07750e-07;0.0005698888618416668
3.08000e-07;0.0005419882419436812
3.08250e-07;0.0005117908135884379
3.08500e-07;0.0004805580088299637
3.08750e-07;0.00044692799186616815
3.09000e-07;0.00041221733757577515
3.09250e-07;0.0003756288724074003
3.09500e-07;0.00033819391041135907
3.09750e-07;0.00029948727125323984
3.10000e-07;0.00026020737378880886
3.10250e-07;0.00022003483083403956
3.10500e-07;0.0001794598929498094
3.10750e-07;0.00013820207751246498
3.11000e-07;9.663642826225316e-05
3.11250e-07;5.507077901204134e-05
3.11500e-07;1.3601797747933729e-05
3.11750e-07;-2.7487869487555173e-05
3.12000e-07;-6.792654377551168e-05
3.12250e-07;-0.00010752592917837337
3.12500e-07;-0.00014615548583535458
3.12750e-07;-0.00018365095506099057
3.13000e-07;-0.00021977577345976286
3.13250e-07;-0.0002542649977638063
3.13500e-07;-0.0002868510929860386
3.13750e-07;-0.00031726656129917513
3.14000e-07;-0.0003451903674187365
3.14250e-07;-0.0003699793183208106
3.14500e-07;-0.0003906831936606483
3.14750e-07;-0.00040664647678524365
3.15000e-07;-0.00041772095789751587
3.15250e-07;-0.00042394982624496087
3.15500e-07;-0.0004253936488731608
3.15750e-07;-0.00042211297983575007
3.16000e-07;-0.0004141348738102601
3.16250e-07;-0.00040128462776054744
3.16500e-07;-0.0003831951848624672
3.16750e-07;-0.0003596841758841722
3.17000e-07;-0.00033088701867412917
3.17250e-07;-0.0002970590159920359
3.17500e-07;-0.00025846630230671634
3.17750e-07;-0.00021537503313491605
3.18000e-07;-0.00016803035395606433
3.18250e-07;-0.00011655101934223035
3.18500e-07;-6.0935312921868334e-05
3.18750e-07;-1.2971993452574486e-06
3.19000e-07;6.205030945201149e-05
3.19250e-07;0.0001287191211481944
3.19500e-07;0.0001983143681982097
3.19750e-07;0.00027044120852278574
3.20000e-07;0.0003453258538441412
3.20250e-07;0.0004211162737859092
3.20500e-07;0.0004985870171535249
3.20750e-07;0.0005776528260867343
3.21000e-07;0.0006576156246659598
3.21250e-07;0.0007380042682090534
3.21500e-07;0.0008183434770272196
3.21750e-07;0.0008981579635339882
3.22000e-07;0.0009769807492169165
3.22250e-07;0.0010543945564881298
3.22500e-07;0.0011300293769059464
3.22750e-07;0.001203469761456365
3.23000e-07;0.0012742223021059184
3.23250e-07;0.0013417641768617569
3.23500e-07;0.0014055698869611406
3.23750e-07;0.0014651140138841256
3.24000e-07;0.0015199214874911202
3.24250e-07;0.0015698629751759638
3.24500e-07;0.0016152686847440527
3.24750e-07;0.0016564367659988276
3.25000e-07;0.001693340300766663
3.25250e-07;0.0017258093279293072
3.25500e-07;0.001753659321304027
3.25750e-07;0.0017767058066759285
3.26000e-07;0.0017931262664388895
3.26250e-07;0.0018072406346801686
3.26500e-07;0.0018152290302226523
3.26750e-07;0.0018204559035496994
3.27000e-07;0.0018186867988467998
3.27250e-07;0.0018137639829378111
3.27500e-07;0.0018088411670288225
3.27750e-07;0.0017957643765085156
3.28000e-07;0.0017790118624516531
3.28250e-07;0.0017622593483947904
3.28500e-07;0.0017386908809304115
3.28750e-07;0.001712049855412034
3.29000e-07;0.001685408829893662
3.29250e-07;0.0016534056357204606
3.29500e-07;0.0016189852339312126
3.29750e-07;0.001584564832141972
3.30000e-07;0.0015459693997733881
3.30250e-07;0.0015054919087894847
3.30500e-07;0.0014650144178055898
3.30750e-07;0.0014222991168505836
3.31000e-07;0.0013785750353715706
3.31250e-07;0.001334850953892567
3.31500e-07;0.0012905418224817085
3.31750e-07;0.0012459689568912553
3.32000e-07;0.0012013960913008117
3.32250e-07;0.001157621801615135
3.32500e-07;0.0011142075013075034
3.32750e-07;0.0010725808892328547
3.33000e-07;0.0010317601476725446
3.33250e-07;0.0009935794930783812
3.33500e-07;0.0009565889611253294
3.33750e-07;0.0009230420470333564
3.34000e-07;0.0008910474786165143
3.34250e-07;0.0008625702109711691
3.34500e-07;0.0008356785044597909
3.34750e-07;0.0008116143119311925
3.35000e-07;0.0007888247321150299
3.35250e-07;0.0007690572549642258
3.35500e-07;0.0007506521089987131
3.35750e-07;0.0007356059047263144
3.36000e-07;0.0007220738750286429
3.36250e-07;0.0007117804429512228
3.36500e-07;0.0007029469356424863
3.36750e-07;0.0006967535353605742
3.37000e-07;0.0006917502667629262
3.37250e-07;0.000689342530341308
3.37500e-07;0.0006881048317434746
3.37750e-07;0.0006895073003545317
3.38000e-07;0.0006920999277792787
3.38250e-07;0.0006975657941837569
3.38500e-07;0.0007043268856346076
3.38750e-07;0.0007110879770854582
3.39000e-07;0.0007204839597840099
3.39250e-07;0.0007310677229500303
3.39500e-07;0.0007416514861160506
3.39750e-07;0.0007552015297370391
3.40000e-07;0.0007700887404948212
3.40250e-07;0.0007849759512526032
3.40500e-07;0.0007998631620103822
3.40750e-07;0.0008147503727681643
3.41000e-07;0.0008296375835259431
3.41250e-07;0.0008458613176227442
3.41500e-07;0.0008626875419808758
3.41750e-07;0.0008795137663390036
3.42000e-07;0.0008963399906971351
3.42250e-07;0.0009131662150552666
3.42500e-07;0.0009299924394133945
3.42750e-07;0.0009460427831928242
3.43000e-07;0.0009617433684016574
3.43250e-07;0.0009764110889197451
3.43500e-07;0.0009906132052098526
3.43750e-07;0.0010034387369651564
3.44000e-07;0.0010156437193054898
3.44250e-07;0.0010254367247734767
3.44500e-07;0.0010341424371626785
3.44750e-07;0.0010391052262120326
3.45000e-07;0.0010423807459146166
3.45250e-07;0.0010418989387027048
3.45500e-07;0.0010397233691684029
3.45750e-07;0.0010339536062419525
3.46000e-07;0.0010265636198200404
3.46250e-07;0.0010153092626475216
3.46500e-07;0.0010023128889494063
3.46750e-07;0.0009849971279544656
3.47000e-07;0.0009657342338977281
3.47250e-07;0.0009425215105555607
3.47500e-07;0.0009175282469048804
3.47750e-07;0.0008890659284395705
3.48000e-07;0.0008590397975956629
3.48250e-07;0.0008257539251653941
3.48500e-07;0.00079099859649525
3.48750e-07;0.0007530770692312093
3.49000e-07;0.0007137282538962485
3.49250e-07;0.000671823285517628
3.49500e-07;0.0006287660310020488
3.49750e-07;0.0005834783889702734
3.50000e-07;0.0005371853123768446
3.50250e-07;0.0004908922357834255
3.50500e-07;0.0004428636354351367
3.50750e-07;0.0003940526797548508
3.51000e-07;0.0003452417240745752
3.51250e-07;0.00029617904686964416
3.51500e-07;0.0002470028963247872
3.51750e-07;0.0001978267457799406
3.52000e-07;0.0001494156029203853
3.52250e-07;0.00010202097418982706
3.52500e-07;5.573446251376177e-05
3.52750e-07;1.0792366440242564e-05
3.53000e-07;-3.2509686416792936e-05
3.53250e-07;-7.385334081202911e-05
3.53500e-07;-0.00011291817884501824
3.53750e-07;-0.00014938383155893592
3.54000e-07;-0.00018298641164015778
3.54250e-07;-0.00021383587994223868
3.54500e-07;-0.00024249934743368818
3.54750e-07;-0.00026942253947429614
3.55000e-07;-0.0002946330740943038
3.55250e-07;-0.0003179848353021032
3.55500e-07;-0.0003393148617078357
3.55750e-07;-0.0003584601608433909
3.56000e-07;-0.00037529322957377645
3.56250e-07;-0.0003893470957167496
3.56500e-07;-0.0004024768522698454
3.56750e-07;-0.00041355459092235
3.57000e-07;-0.00042370730210611405
3.57250e-07;-0.00043177199648300474
3.57500e-07;-0.00043889543547367965
3.57750e-07;-0.00044376443418215293
3.58000e-07;-0.0004476171556022692
3.58250e-07;-0.00044944781976070393
3.58500e-07;-0.0004503669623822734
3.58750e-07;-0.0004498732808345009
3.59000e-07;-0.0004487427134365785
3.59250e-07;-0.00044594615263161857
3.59500e-07;-0.0004423985800232028
3.59750e-07;-0.00043885100741478626
3.60000e-07;-0.00043347456866594164
3.60250e-07;-0.0004272736968475544
3.60500e-07;-0.00042107282502916595
3.60750e-07;-0.0004136879700129825
3.61000e-07;-0.0004057693881807822
3.61250e-07;-0.000397850806348582
3.61500e-07;-0.00038993222451638336
3.61750e-07;-0.00038201364268418306
3.62000e-07;-0.00037371845752663587
3.62250e-07;-0.00036525350366450703
3.62500e-07;-0.0003567885498023764
3.62750e-07;-0.00034832359594024577
3.63000e-07;-0.0003398586420781169
3.63250e-07;-0.00033226814568268644
3.63500e-07;-0.0003250718452524631
3.63750e-07;-0.00031787554482224126
3.64000e-07;-0.00031118765246181525
3.64250e-07;-0.00030472894495877213
3.64500e-07;-0.00029827023745573043
3.64750e-07;-0.0002918115299526873
3.65000e-07;-0.000284079896509705
3.65250e-07;-0.0002757744418248179
3.65500e-07;-0.0002674689871399308
3.65750e-07;-0.00025916353245504547
3.66000e-07;-0.00025004056457504474
3.66250e-07;-0.00024054907059138485
3.66500e-07;-0.00023006388542729298
3.66750e-07;-0.00021913075502983162
3.67000e-07;-0.00020708280701220091
3.67250e-07;-0.000194532311272643
3.67500e-07;-0.00018113135767158052
3.67750e-07;-0.00016734702686767956
3.68000e-07;-0.00015291084403781964
3.68250e-07;-0.00013818081336705758
3.68500e-07;-0.00012284046131158603
3.68750e-07;-0.00010676333637505617
3.69000e-07;-9.008086939710989e-05
3.69250e-07;-7.289667125550311e-05
3.69500e-07;-5.531893543995144e-05
3.69750e-07;-3.745583036432022e-05
3.70000e-07;-1.9406207486472546e-05
3.70250e-07;-1.2094570884860912e-06
3.70500e-07;1.71619592287346e-05
3.70750e-07;3.572319005969884e-05
3.71000e-07;5.434350064378204e-05
3.71250e-07;7.288505227454509e-05
3.71500e-07;9.139109758227244e-05
3.71750e-07;0.0001095069750283239
3.72000e-07;0.00012744696902356573
3.72250e-07;0.00014478533292756925
3.72500e-07;0.0001618524884954984
3.72750e-07;0.00017817716286006816
3.73000e-07;0.0001941671347310903
3.73250e-07;0.0002091149588275805
3.73500e-07;0.00022359299398232987
3.73750e-07;0.0002367530017532686
3.74000e-07;0.0002493188570393527
3.74250e-07;0.00026147195362043814
3.74500e-07;0.00027437830474122876
3.74750e-07;0.00028912820815081395
3.75000e-07;0.000305861207291271
3.75250e-07;0.00032439888968197555
3.75500e-07;0.0003445329010006846
3.75750e-07;0.00036605490698584265
3.76000e-07;0.0003888172459423615
3.76250e-07;0.00041305828775311935
3.76500e-07;0.00043944736829903735
3.76750e-07;0.0004684384708254788
3.77000e-07;0.0005007512533709622
3.77250e-07;0.0005341837983949326
3.77500e-07;0.0005703188893399712
3.77750e-07;0.0006076722587473191
3.78000e-07;0.00064663345225071
3.78250e-07;0.000695933721236152
3.78500e-07;0.0007428373643602719
3.78750e-07;0.000758182268790995
3.79000e-07;0.0008146568394806204
3.79250e-07;0.0008640431512580338
3.79500e-07;0.000914254161584881
3.79750e-07;0.000968540066364938
3.80000e-07;0.00102189065802085
3.80250e-07;0.0010751824491395314
3.80500e-07;0.0011293239426467291
3.80750e-07;0.0011840306673864863
3.81000e-07;0.0012391386848689913
3.81250e-07;0.0012926925800352122
3.81500e-07;0.0013479704194865074
3.81750e-07;0.0014046498688712328
3.82000e-07;0.001459103827047083
3.82250e-07;0.001512506120603822
3.82500e-07;0.001564558466636411
3.82750e-07;0.0016151656054278743
3.83000e-07;0.0016641037354211147
3.83250e-07;0.0017100135167199906
3.83500e-07;0.0017548136238285821
3.83750e-07;0.0017981678709325616
3.84000e-07;0.001837669617221148
3.84250e-07;0.001873942865518613
3.84500e-07;0.0019067720207788933
3.84750e-07;0.001936175210562191
3.85000e-07;0.0019621407584048847
3.85250e-07;0.0019839514619508346
3.85500e-07;0.0020029442044681525
3.85750e-07;0.0020190427547979455
3.86000e-07;0.00203087492031543
3.86250e-07;0.002037186334440723
3.86500e-07;0.0020432242151072776
3.86750e-07;0.002042424731628814
3.87000e-07;0.0020412729184346584
3.87250e-07;0.0020322512189183475
3.87500e-07;0.002022823983767016
3.87750e-07;0.002013396748615687
3.88000e-07;0.001995278967784283
3.88250e-07;0.001976713362700184
3.88500e-07;0.0019581477576160813
3.88750e-07;0.0019301651620519883
3.89000e-07;0.0019016973084984012
3.89250e-07;0.001873229454944808
3.89500e-07;0.001844761601391215
3.89750e-07;0.0018162937478376278
3.90000e-07;0.0017803360251308774
3.90250e-07;0.0017439923490927911
3.90500e-07;0.0017076486730547124
3.90750e-07;0.001671304997016626
3.91000e-07;0.0016349613209785396
3.91250e-07;0.0015963338884830032
3.91500e-07;0.0015575887739032064
3.91750e-07;0.001519252955705218
3.92000e-07;0.0014809382285702235
3.92250e-07;0.0014437614383733916
3.92500e-07;0.001406643286123795
3.92750e-07;0.0013718279657351055
3.93000e-07;0.0013371313103871622
3.93250e-07;0.0013069867349231338
3.93500e-07;0.0012770767283627486
3.93750e-07;0.0012471667218023634
3.94000e-07;0.001224412851557764
3.94250e-07;0.0012020277373747355
3.94500e-07;0.0011796426231917068
3.94750e-07;0.001163303330633319
3.95000e-07;0.001147275579565045
3.95250e-07;0.0011312478284967707
