Time(s);Current(A)
2.00000e-06;-0.006715155138252154
2.00025e-06;-0.006723226270722066
2.00050e-06;-0.006731297403191992
2.00075e-06;-0.0067393685356619175
2.00100e-06;-0.006747439668131829
2.00125e-06;-0.006748380493298197
2.00150e-06;-0.00674633397014814
2.00175e-06;-0.006744287446998087
2.00200e-06;-0.006742240923848029
2.00225e-06;-0.006740194400697973
2.00250e-06;-0.006738147877547915
2.00275e-06;-0.006736101354397862
2.00300e-06;-0.006734054831247805
2.00325e-06;-0.006724289059234224
2.00350e-06;-0.0067112891930764754
2.00375e-06;-0.006698289326918705
2.00400e-06;-0.006685289460760935
2.00425e-06;-0.006672289594603165
2.00450e-06;-0.0066592897284454165
2.00475e-06;-0.006646289862287646
2.00500e-06;-0.006627938063907967
2.00525e-06;-0.006607343993907695
2.00550e-06;-0.006586749923907387
2.00575e-06;-0.0065661558539070785
2.00600e-06;-0.006545561783906806
2.00625e-06;-0.006524967713906498
2.00650e-06;-0.00650437364390619
2.00675e-06;-0.006481603785309418
2.00700e-06;-0.006457922347712779
2.00725e-06;-0.0064342409101161005
2.00750e-06;-0.006410559472519422
2.00775e-06;-0.006386878034922784
2.00800e-06;-0.006363196597326105
2.00825e-06;-0.006339515159729426
2.00850e-06;-0.0063158337221327476
2.00875e-06;-0.006295104130027115
2.00900e-06;-0.0062756112575021086
2.00925e-06;-0.006256118384977102
2.00950e-06;-0.0062366255124521285
2.00975e-06;-0.006217132639927122
2.01000e-06;-0.006197639767402115
2.01025e-06;-0.006178146894877142
2.01050e-06;-0.006158654022352135
2.01075e-06;-0.006145721795540808
2.01100e-06;-0.006135538248848674
2.01125e-06;-0.006125354702156556
2.01150e-06;-0.006115171155464422
2.01175e-06;-0.006104987608772287
2.01200e-06;-0.00609480406208017
2.01225e-06;-0.006084620515388035
2.01250e-06;-0.0060744369686959
2.01275e-06;-0.006064253422003783
2.01300e-06;-0.006054069875311648
2.01325e-06;-0.006049767950188691
2.01350e-06;-0.00604793021791833
2.01375e-06;-0.006046092485647973
2.01400e-06;-0.006044254753377612
2.01425e-06;-0.006042417021107252
2.01450e-06;-0.0060405792888368936
2.01475e-06;-0.0060387415565665336
2.01500e-06;-0.006036903824296173
2.01525e-06;-0.006035066092025812
2.01550e-06;-0.0060332283597554544
2.01575e-06;-0.006034700237209282
2.01600e-06;-0.006037558724891493
2.01625e-06;-0.006040417212573699
2.01650e-06;-0.0060432757002559095
2.01675e-06;-0.00604613418793812
2.01700e-06;-0.006048992675620326
2.01725e-06;-0.006051851163302537
2.01750e-06;-0.006054709650984747
2.01775e-06;-0.006057568138666957
2.01800e-06;-0.006060943092540978
2.01825e-06;-0.006064534427609124
2.01850e-06;-0.006068125762677271
2.01875e-06;-0.006071717097745411
2.01900e-06;-0.006075308432813557
2.01925e-06;-0.006078899767881704
2.01950e-06;-0.00608249110294985
2.01975e-06;-0.00608608243801799
2.02000e-06;-0.006089673773086137
2.02025e-06;-0.006093363850772712
2.02050e-06;-0.006097095298148189
2.02075e-06;-0.006100826745523672
2.02100e-06;-0.0061045581928991545
2.02125e-06;-0.006108289640274631
2.02150e-06;-0.006112021087650114
2.02175e-06;-0.006115752535025598
2.02200e-06;-0.006119483982401081
2.02225e-06;-0.006123215429776557
2.02250e-06;-0.00613007918407628
2.02275e-06;-0.00613825526495883
2.02300e-06;-0.006146431345841365
2.02325e-06;-0.006154607426723914
2.02350e-06;-0.006162783507606464
2.02375e-06;-0.006170959588489013
2.02400e-06;-0.006179135669371548
2.02425e-06;-0.006187311750254098
2.02450e-06;-0.006195487831136647
2.02475e-06;-0.00620663540235325
2.02500e-06;-0.006219027923649925
2.02525e-06;-0.006231420444946601
2.02550e-06;-0.006243812966243256
2.02575e-06;-0.006256205487539932
2.02600e-06;-0.006268598008836607
2.02625e-06;-0.006280990530133283
2.02650e-06;-0.006293383051429938
2.02675e-06;-0.006305775572726613
2.02700e-06;-0.006318238795465334
2.02725e-06;-0.006330976641369262
2.02750e-06;-0.006343714487273212
2.02775e-06;-0.0063564523331771615
2.02800e-06;-0.006369190179081111
2.02825e-06;-0.0063819280249850395
2.02850e-06;-0.006394665870888989
2.02875e-06;-0.006407403716792939
2.02900e-06;-0.006420141562696868
2.02925e-06;-0.006432879408600818
2.02950e-06;-0.006443989921381384
2.02975e-06;-0.006454418638741267
2.03000e-06;-0.006463761114371879
2.03025e-06;-0.006472648492870791
2.03050e-06;-0.006478657112007287
2.03075e-06;-0.006483459632083717
2.03100e-06;-0.006488262152160157
2.03125e-06;-0.006487595177124349
2.03150e-06;-0.006484636675745657
2.03175e-06;-0.0064816781743669595
2.03200e-06;-0.0064734552839427265
2.03225e-06;-0.0064630267994134636
2.03250e-06;-0.006452598314884219
2.03275e-06;-0.006434198522544436
2.03300e-06;-0.006412459032214217
2.03325e-06;-0.006390719541884035
2.03350e-06;-0.006368980051553815
2.03375e-06;-0.006347240561223596
2.03400e-06;-0.006316589688141021
2.03425e-06;-0.006282205258686217
2.03450e-06;-0.006247820829231414
2.03475e-06;-0.00621343639977661
2.03500e-06;-0.006179051970321865
2.03525e-06;-0.006138734232569343
2.03550e-06;-0.006095930647040016
2.03575e-06;-0.006053127061510761
2.03600e-06;-0.006007794764306215
2.03625e-06;-0.005961403025727538
2.03650e-06;-0.005913647906102245
2.03675e-06;-0.00586532157770553
2.03700e-06;-0.005816014185970461
2.03725e-06;-0.005766295763155257
2.03750e-06;-0.00571629462213779
2.03775e-06;-0.005666260028077614
2.03800e-06;-0.00561655180269697
2.03825e-06;-0.005567458305756309
2.03850e-06;-0.005519231270449825
2.03875e-06;-0.005472067025329209
2.03900e-06;-0.005426179307809278
2.03925e-06;-0.005381846173716312
2.03950e-06;-0.005339380032554586
2.03975e-06;-0.005299097946474288
2.04000e-06;-0.0052613168933205575
2.04025e-06;-0.005226347096866078
2.04050e-06;-0.005194379393314652
2.04075e-06;-0.00516538023856581
2.04100e-06;-0.005139251719275302
2.04125e-06;-0.0051160008481326725
2.04150e-06;-0.0050957081613565635
2.04175e-06;-0.005079585002886859
2.04200e-06;-0.0050648393725629725
2.04225e-06;-0.005054651527210944
2.04250e-06;-0.005046373233675837
2.04275e-06;-0.005043432237555961
2.04300e-06;-0.005042727381587405
2.04325e-06;-0.00504202252561885
2.04350e-06;-0.005049082252423355
2.04375e-06;-0.0050593950666888475
2.04400e-06;-0.005069707880954341
2.04425e-06;-0.005080020695219817
2.04450e-06;-0.00509033350948531
2.04475e-06;-0.005108706040480111
2.04500e-06;-0.005130455309697371
2.04525e-06;-0.005152204578914594
2.04550e-06;-0.005173953848131854
2.04575e-06;-0.005195703117349114
2.04600e-06;-0.00522206365226139
2.04625e-06;-0.005250356145535204
2.04650e-06;-0.005278648638809019
2.04675e-06;-0.005309037808339047
2.04700e-06;-0.005340305411577471
2.04725e-06;-0.005371573014815894
2.04750e-06;-0.005403619911717886
2.04775e-06;-0.0054359933052931814
2.04800e-06;-0.005468366698868532
2.04825e-06;-0.005500277920106913
2.04850e-06;-0.005531995507369251
2.04875e-06;-0.005563713094631643
2.04900e-06;-0.005593493277335447
2.04925e-06;-0.005622461755578003
2.04950e-06;-0.0056514302338205105
2.04975e-06;-0.005675454772922785
2.05000e-06;-0.005697407975174662
2.05025e-06;-0.005719361177426502
2.05050e-06;-0.005741314379678379
2.05075e-06;-0.0057632675819302565
2.05100e-06;-0.005785220784182097
2.05125e-06;-0.005807173986433973
2.05150e-06;-0.005826522552604997
2.05175e-06;-0.0058447798677425545
2.05200e-06;-0.00586303718288008
2.05225e-06;-0.005881294498017636
2.05250e-06;-0.005899551813155193
2.05275e-06;-0.005917809128292719
2.05300e-06;-0.005936066443430275
2.05325e-06;-0.005954700087174724
2.05350e-06;-0.005973491399387417
2.05375e-06;-0.005992282711600079
2.05400e-06;-0.006011074023812772
2.05425e-06;-0.006029865336025465
2.05450e-06;-0.006048656648238126
2.05475e-06;-0.006067447960450819
2.05500e-06;-0.006086239272663512
2.05525e-06;-0.0061050305848761735
2.05550e-06;-0.006123299346463236
2.05575e-06;-0.00614087927489477
2.05600e-06;-0.006158459203326304
2.05625e-06;-0.006176039131757809
2.05650e-06;-0.006193619060189342
2.05675e-06;-0.006211198988620876
2.05700e-06;-0.006228778917052381
2.05725e-06;-0.006246358845483914
2.05750e-06;-0.006263938773915448
2.05775e-06;-0.006279851398057684
2.05800e-06;-0.006304356375523634
2.05825e-06;-0.025614630478179398
2.05850e-06;-0.02495919819472944
2.05875e-06;-0.021592464067348993
2.05900e-06;-0.018391844757491206
2.05925e-06;-0.005093428084735114
2.05950e-06;-0.0024043884742244942
2.05975e-06;-0.0034019632639998563
2.06000e-06;-0.00438075434685873
2.06025e-06;-0.015570449218969622
2.06050e-06;-0.016820495839769023
2.06075e-06;-0.013677856177939842
2.06100e-06;-0.00938484300997839
2.06125e-06;-0.003916019636029806
2.06150e-06;-0.0019642887696521643
2.06175e-06;-0.0030940791915059426
2.06200e-06;-0.006137977570919781
2.06225e-06;-0.010655385693617608
2.06250e-06;-0.01189408804810633
2.06275e-06;-0.010236376001259689
2.06300e-06;-0.007557634584611244
2.06325e-06;-0.004163173077749343
2.06350e-06;-0.0029631912318831646
2.06375e-06;-0.0036861966691735934
2.06400e-06;-0.00560205514965403
2.06425e-06;-0.008435740367687128
2.06450e-06;-0.009211408166299907
2.06475e-06;-0.008169446001159075
2.06500e-06;-0.0064853313887240655
2.06525e-06;-0.004350892790015583
2.06550e-06;-0.003589487606521269
2.06575e-06;-0.004031328263438919
2.06600e-06;-0.005219310324275995
2.06625e-06;-0.006981396324473715
2.06650e-06;-0.007453819203553859
2.06675e-06;-0.006787504676551142
2.06700e-06;-0.005719054342812635
2.06725e-06;-0.004368855762865687
2.06750e-06;-0.0038792110971557934
2.06775e-06;-0.0041438596497351534
2.06800e-06;-0.004876574286705946
2.06825e-06;-0.005969702204325004
2.06850e-06;-0.006255944810382657
2.06875e-06;-0.005830049148024377
2.06900e-06;-0.005153598070114399
2.06925e-06;-0.004302150860494778
2.06950e-06;-0.00399135329874396
2.06975e-06;-0.004154721712379083
2.07000e-06;-0.0046130504303404036
2.07025e-06;-0.00529899923662143
2.07050e-06;-0.005481391009254319
2.07075e-06;-0.005219407023892782
2.07100e-06;-0.004801943996175665
2.07125e-06;-0.004276192031511611
2.07150e-06;-0.004090338997439943
2.07175e-06;-0.004202637361872546
2.07200e-06;-0.00450073904387409
2.07225e-06;-0.004942373511907364
2.07250e-06;-0.005069467277057227
2.07275e-06;-0.004919044878868584
2.07300e-06;-0.004672014504766028
2.07325e-06;-0.004357869376758499
2.07350e-06;-0.004257273391793567
2.07375e-06;-0.0043439832429867965
2.07400e-06;-0.004547536312100116
2.07425e-06;-0.00484137081504038
2.07450e-06;-0.004938480556196857
2.07475e-06;-0.004862000399270196
2.07500e-06;-0.004725187189183148
2.07525e-06;-0.004546445365683494
2.07550e-06;-0.004501503886805831
2.07575e-06;-0.004573838735339157
2.07600e-06;-0.004719227958405041
2.07625e-06;-0.004920953404134817
2.07650e-06;-0.0049991626852527345
2.07675e-06;-0.004968283880339694
2.07700e-06;-0.004899192955881176
2.07725e-06;-0.004803347068222139
2.07750e-06;-0.004790745001637703
2.07775e-06;-0.004850953793462435
2.07800e-06;-0.0049561931349330094
2.07825e-06;-0.005095912684933234
2.07850e-06;-0.0051573805207655934
2.07875e-06;-0.005149565874753799
2.07900e-06;-0.005116795215696715
2.07925e-06;-0.005066172170100913
2.07950e-06;-0.005066523261645946
2.07975e-06;-0.005111234891249832
2.08000e-06;-0.005182827555318387
2.08025e-06;-0.005274610631213394
2.08050e-06;-0.00531574852678232
2.08075e-06;-0.005311438732256476
2.08100e-06;-0.005289134995830778
2.08125e-06;-0.005253268172187223
2.08150e-06;-0.005247065102689266
2.08175e-06;-0.005266511766348997
2.08200e-06;-0.0053007894404105745
2.08225e-06;-0.005345837244564138
2.08250e-06;-0.005357417416979464
2.08275e-06;-0.005338920211905515
2.08300e-06;-0.005307676489372355
2.08325e-06;-0.00526659453431147
2.08350e-06;-0.005242882745443431
2.08375e-06;-0.005234157425206108
2.08400e-06;-0.005233772197987176
2.08425e-06;-0.005239315105437175
2.08450e-06;-0.005223207635566589
2.08475e-06;-0.005187707469768002
2.08500e-06;-0.005143803294409238
2.08525e-06;-0.005093450151254886
2.08550e-06;-0.005053822536357247
2.08575e-06;-0.005023558016744173
2.08600e-06;-0.004998625059687546
2.08625e-06;-0.004977643522313001
2.08650e-06;-0.0049434710911731555
2.08675e-06;-0.0048976546424564565
2.08700e-06;-0.004847210281682143
2.08725e-06;-0.004793494346363944
2.08750e-06;-0.0047473966307220285
2.08775e-06;-0.004708195186999833
2.08800e-06;-0.004673496123398019
2.08825e-06;-0.004642566015156625
2.08850e-06;-0.004604798857323836
2.08875e-06;-0.004561296271343951
2.08900e-06;-0.004516585210200427
2.08925e-06;-0.004471647284912159
2.08950e-06;-0.004433435070264607
2.08975e-06;-0.004401628191993263
2.09000e-06;-0.004374857792660641
2.09025e-06;-0.00435279371480801
2.09050e-06;-0.004328811271445019
2.09075e-06;-0.004303402154999917
2.09100e-06;-0.004279134131733366
2.09125e-06;-0.004256450449486822
2.09150e-06;-0.004239601661597634
2.09175e-06;-0.004228288938972603
2.09200e-06;-0.004221559252696571
2.09225e-06;-0.004219109303638291
2.09250e-06;-0.004216693321714556
2.09275e-06;-0.004214522414558663
2.09300e-06;-0.004214901373230453
2.09325e-06;-0.004215803126313325
2.09350e-06;-0.0042216663765922745
2.09375e-06;-0.004231919079894404
2.09400e-06;-0.004247436977954061
2.09425e-06;-0.0042639210770839065
2.09450e-06;-0.0042804051762137234
2.09475e-06;-0.004298258087879065
2.09500e-06;-0.004319914400158929
2.09525e-06;-0.004342315502046123
2.09550e-06;-0.004364716603933354
2.09575e-06;-0.0043893829480861415
2.09600e-06;-0.004418752205476583
2.09625e-06;-0.004448121462867076
2.09650e-06;-0.004477490720257568
2.09675e-06;-0.004507690447790883
2.09700e-06;-0.004538066232053847
2.09725e-06;-0.004569753517511635
2.09750e-06;-0.004601718836578875
2.09775e-06;-0.004633684155646061
2.09800e-06;-0.00466677290506148
2.09825e-06;-0.004700099817732808
2.09850e-06;-0.004731882397885494
2.09875e-06;-0.004763337585012435
2.09900e-06;-0.004792956632045742
2.09925e-06;-0.004822186423880693
2.09950e-06;-0.004848973654857708
2.09975e-06;-0.0048752430715816465
2.10000e-06;-0.004901512488305585
2.10025e-06;-0.004926077112782627
2.10050e-06;-0.004947102385134977
2.10075e-06;-0.004968127657487326
2.10100e-06;-0.004989152929839676
2.10125e-06;-0.005007689993995914
2.10150e-06;-0.0050256995668249834
2.10175e-06;-0.005043709139654053
2.10200e-06;-0.005061718712483091
2.10225e-06;-0.0050797282853121606
2.10250e-06;-0.00509773785814123
2.10275e-06;-0.005115747430970299
2.10300e-06;-0.005133757003799338
2.10325e-06;-0.005151766576628407
2.10350e-06;-0.00516911610313494
2.10375e-06;-0.005185095294717369
2.10400e-06;-0.005201074486299824
2.10425e-06;-0.005217053677882279
2.10450e-06;-0.005233032869464708
2.10475e-06;-0.005249012061047163
2.10500e-06;-0.005264991252629619
2.10525e-06;-0.005280970444212074
2.10550e-06;-0.005296949635794502
2.10575e-06;-0.0053129288273769575
2.10600e-06;-0.005327849580783818
2.10625e-06;-0.005342545949045182
2.10650e-06;-0.005357242317306571
2.10675e-06;-0.005371938685567959
2.10700e-06;-0.005386635053829348
2.10725e-06;-0.005401331422090712
2.10750e-06;-0.005416027790352101
2.10775e-06;-0.005430724158613489
2.10800e-06;-0.005445420526874853
2.10825e-06;-0.0054589190055535225
2.10850e-06;-0.005469930522522977
2.10875e-06;-0.005480942039492412
2.10900e-06;-0.005491953556461866
2.10925e-06;-0.0055029650734313195
2.10950e-06;-0.005513976590400774
2.10975e-06;-0.005524988107370209
2.11000e-06;-0.005535999624339663
2.11025e-06;-0.0055470111413091164
2.11050e-06;-0.0055580226582785525
2.11075e-06;-0.005565789102246338
2.11100e-06;-0.005572867602227988
2.11125e-06;-0.005579946102209639
2.11150e-06;-0.005587024602191277
2.11175e-06;-0.005594103102172927
2.11200e-06;-0.005601181602154577
2.11225e-06;-0.005608260102136216
2.11250e-06;-0.005615338602117865
2.11275e-06;-0.005622417102099516
2.11300e-06;-0.005629495602081154
2.11325e-06;-0.005636574102062804
2.11350e-06;-0.005643652602044454
2.11375e-06;-0.0056507311020261046
2.11400e-06;-0.005657479426581775
2.11425e-06;-0.005663542267555665
2.11450e-06;-0.005669605108529555
2.11475e-06;-0.005675667949503434
2.11500e-06;-0.005681730790477324
2.11525e-06;-0.005687793631451213
2.11550e-06;-0.005693856472425103
2.11575e-06;-0.005699919313398983
2.11600e-06;-0.005705982154372873
2.11625e-06;-0.005712044995346763
2.11650e-06;-0.005718107836320642
2.11675e-06;-0.005724170677294532
2.11700e-06;-0.005730233518268422
2.11725e-06;-0.005736296359242301
2.11750e-06;-0.005740899126249525
2.11775e-06;-0.005745192362745646
2.11800e-06;-0.005749485599241766
2.11825e-06;-0.005753778835737879
2.11850e-06;-0.0057580720722339995
2.11875e-06;-0.00576236530873012
2.11900e-06;-0.005766658545226233
2.11925e-06;-0.005770951781722353
2.11950e-06;-0.005775245018218474
2.11975e-06;-0.005779538254714595
2.12000e-06;-0.005783831491210707
2.12025e-06;-0.005788124727706828
2.12050e-06;-0.005792417964202949
2.12075e-06;-0.005796711200699062
2.12100e-06;-0.005799550651484575
2.12125e-06;-0.00579937186966482
2.12150e-06;-0.005799193087845066
2.12175e-06;-0.005799014306025312
2.12200e-06;-0.005798835524205557
2.12225e-06;-0.005798656742385802
2.12250e-06;-0.0057984779605660475
2.12275e-06;-0.005798299178746293
2.12300e-06;-0.005798120396926538
2.12325e-06;-0.005797941615106784
2.12350e-06;-0.005797762833287029
2.12375e-06;-0.005797584051467275
2.12400e-06;-0.00579740526964752
2.12425e-06;-0.005797226487827766
2.12450e-06;-0.005797047706008011
2.12475e-06;-0.005793929018017214
2.12500e-06;-0.005790187080327738
2.12525e-06;-0.005786445142638255
2.12550e-06;-0.005782703204948772
2.12575e-06;-0.0057789612672592945
2.12600e-06;-0.005775219329569811
2.12625e-06;-0.005771477391880328
2.12650e-06;-0.005767735454190845
2.12675e-06;-0.005763993516501368
2.12700e-06;-0.005760251578811885
2.12725e-06;-0.005756509641122402
2.12750e-06;-0.005752767703432925
2.12775e-06;-0.005748778270400566
2.12800e-06;-0.005744736369231842
2.12825e-06;-0.005740694468063118
2.12850e-06;-0.0057366525668944
2.12875e-06;-0.005732610665725677
2.12900e-06;-0.005728568764556953
2.12925e-06;-0.005724526863388236
2.12950e-06;-0.005720484962219512
2.12975e-06;-0.005716443061050788
2.13000e-06;-0.005712401159882071
2.13025e-06;-0.005708359258713347
2.13050e-06;-0.005704317357544624
2.13075e-06;-0.005699904057847973
2.13100e-06;-0.005695412022978446
2.13125e-06;-0.005690919988108911
2.13150e-06;-0.005686427953239375
2.13175e-06;-0.005681935918369848
2.13200e-06;-0.005677443883500314
2.13225e-06;-0.005672951848630778
2.13250e-06;-0.005668459813761243
2.13275e-06;-0.005663967778891716
2.13300e-06;-0.005659475744022181
2.13325e-06;-0.005654099321503139
2.13350e-06;-0.005646886804695777
2.13375e-06;-0.005639674287888404
2.13400e-06;-0.00563246177108103
2.13425e-06;-0.005625249254273668
2.13450e-06;-0.0056180367374662945
2.13475e-06;-0.00561082422065892
2.13500e-06;-0.005603611703851546
2.13525e-06;-0.005596399187044185
2.13550e-06;-0.005589186670236811
2.13575e-06;-0.005581974153429437
2.13600e-06;-0.0055735188175576825
2.13625e-06;-0.005564800008444776
2.13650e-06;-0.00555608119933187
2.13675e-06;-0.005547362390218963
2.13700e-06;-0.0055386435811060715
2.13725e-06;-0.005529924771993165
2.13750e-06;-0.0055212059628802585
2.13775e-06;-0.005512487153767367
2.13800e-06;-0.005504365551236981
2.13825e-06;-0.005496370554387534
2.13850e-06;-0.0054883755575381
2.13875e-06;-0.005480380560688653
2.13900e-06;-0.005472385563839205
2.13925e-06;-0.005464390566989758
2.13950e-06;-0.005456395570140323
2.13975e-06;-0.005448400573290876
2.14000e-06;-0.005441819645725449
2.14025e-06;-0.005435538495841395
2.14050e-06;-0.00542925734595733
2.14075e-06;-0.005422153089957552
2.14100e-06;-0.005414874338375644
2.14125e-06;-0.005407595586793749
2.14150e-06;-0.005397252286747638
2.14175e-06;-0.005386259313277869
2.14200e-06;-0.0053752663398081175
2.14225e-06;-0.005364273366338349
2.14250e-06;-0.005353280392868579
2.14275e-06;-0.005342287419398828
2.14300e-06;-0.005329400432682536
2.14325e-06;-0.005312581248466365
2.14350e-06;-0.005295762064250194
2.14375e-06;-0.005278942880034051
2.14400e-06;-0.0052621236958178795
2.14425e-06;-0.005245304511601708
2.14450e-06;-0.0052284853273855654
2.14475e-06;-0.005207534894456945
2.14500e-06;-0.0051857086514289
2.14525e-06;-0.0051638824084008555
2.14550e-06;-0.005142056165372847
2.14575e-06;-0.0051202299223448025
2.14600e-06;-0.005098403679316758
2.14625e-06;-0.005074553417453749
2.14650e-06;-0.0050502740707641675
