Time(s);Current(A)
4.25000e-06;0.0017025525427893677
4.25025e-06;0.0016917846215508399
4.25050e-06;0.0016810167003123485
4.25075e-06;0.0016702487790738571
4.25100e-06;0.0016631436065909883
4.25125e-06;0.0016582853421343645
4.25150e-06;0.0016534270776777406
4.25175e-06;0.0016485688132211003
4.25200e-06;0.0016437105487644764
4.25225e-06;0.001638852284307836
4.25250e-06;0.0016339940198512122
4.25275e-06;0.0016291357553945883
4.25300e-06;0.001624277490937948
4.25325e-06;0.0016194192264813241
4.25350e-06;0.0016145609620247005
4.25375e-06;0.001609826658568143
4.25400e-06;0.0016060032096094998
4.25425e-06;0.0016021797606508566
4.25450e-06;0.0015983563116922007
4.25475e-06;0.0015945328627335574
4.25500e-06;0.0015907094137749143
4.25525e-06;0.0015868859648162583
4.25550e-06;0.0015830625158576152
4.25575e-06;0.0015792390668989721
4.25600e-06;0.0015728766860591801
4.25625e-06;0.001564956801060173
4.25650e-06;0.001557036916061139
4.25675e-06;0.0015491170310621318
4.25700e-06;0.0015411971460631247
4.25725e-06;0.0015332772610640907
4.25750e-06;0.0015253573760650836
4.25775e-06;0.0015174374910660764
4.25800e-06;0.0015084474112447733
4.25825e-06;0.0014915936342392861
4.25850e-06;0.0014747398572337988
4.25875e-06;0.0014578860802282544
4.25900e-06;0.0014410323032227673
4.25925e-06;0.00142417852621728
4.25950e-06;0.0014073247492117358
4.25975e-06;0.0013904709722062484
4.26000e-06;0.001373617195200761
4.26025e-06;0.001356763418195217
4.26050e-06;0.0013348528555155417
4.26075e-06;0.0013098402148408138
4.26100e-06;0.0012848275741661709
4.26125e-06;0.0012598149334915277
4.26150e-06;0.0012348022928168
4.26175e-06;0.0012097896521421569
4.26200e-06;0.0011847770114675137
4.26225e-06;0.001159764370792786
4.26250e-06;0.0011347517301181428
4.26275e-06;0.0011094122322168666
4.26300e-06;0.0010816710162369417
4.26325e-06;0.0010539298002571107
4.26350e-06;0.0010261885842772797
4.26375e-06;0.0009984473682973548
4.26400e-06;0.0009707061523175239
4.26425e-06;0.000942964936337693
4.26450e-06;0.0009165764467351327
4.26475e-06;0.0008910177852089271
4.26500e-06;0.0008654591236826348
4.26525e-06;0.0008399004621564292
4.26550e-06;0.0008143418006302235
4.26575e-06;0.0007887831391039312
4.26600e-06;0.0007637376963116519
4.26625e-06;0.0007424633395192814
4.26650e-06;0.0007211889827268388
4.26675e-06;0.0007004301680148398
4.26700e-06;0.0006834595110474284
4.26725e-06;0.0006664888540799594
4.26750e-06;0.0006499827279274455
4.26775e-06;0.000636889933239027
4.26800e-06;0.0006241740559626601
4.26825e-06;0.00061422773459258
4.26850e-06;0.0006046714672411592
4.26875e-06;0.0005979812824225558
4.26900e-06;0.0005916788122747143
4.26925e-06;0.0005882252353373847
4.26950e-06;0.0005852163715794999
4.26975e-06;0.0005854752210475821
4.27000e-06;0.0005857340705156651
4.27025e-06;0.0005864734078709494
4.27050e-06;0.000590743327850025
4.27075e-06;0.0005950132478291151
4.27100e-06;0.0005996945839201244
4.27125e-06;0.0006073989693211845
4.27150e-06;0.0006151033547222709
4.27175e-06;0.0006232118929841234
4.27200e-06;0.00063429011082705
4.27225e-06;0.0006453683286700141
4.27250e-06;0.0006564465465129407
4.27275e-06;0.0006675247643558673
4.27300e-06;0.0006786029821988314
4.27325e-06;0.0006898209391833471
4.27350e-06;0.0007020656870574052
4.27375e-06;0.0007143104349314217
4.27400e-06;0.0007265551828054383
4.27425e-06;0.0007387999306794963
4.27450e-06;0.0007510446785535128
4.27475e-06;0.0007628752049574119
4.27500e-06;0.0007716620685272328
4.27525e-06;0.000780448932097024
4.27550e-06;0.0007892357956668151
4.27575e-06;0.000798022659236636
4.27600e-06;0.0008068095228064271
4.27625e-06;0.0008145752034790694
4.27650e-06;0.0008148373222774405
4.27675e-06;0.0008150994410758107
4.27700e-06;0.0008153615598741808
4.27725e-06;0.0008156236786725519
4.27750e-06;0.000815885797470922
4.27775e-06;0.0008151468322406531
4.27800e-06;0.0008070519898501855
4.27825e-06;0.0007989571474597177
4.27850e-06;0.0007902813542161221
4.27875e-06;0.0007773367853362198
4.27900e-06;0.0007638236421831851
4.27925e-06;0.0007461326654119095
4.27950e-06;0.000728441688640694
4.27975e-06;0.0007101313018109648
4.28000e-06;0.0006872695444951921
4.28025e-06;0.0006644077871794968
4.28050e-06;0.000640995849628923
4.28075e-06;0.0006135412362313112
4.28100e-06;0.0005860866228337923
4.28125e-06;0.000558183974917151
4.28150e-06;0.000526989208864978
4.28175e-06;0.0004957944428129107
4.28200e-06;0.0004642790617471495
4.28225e-06;0.00043040782983606645
4.28250e-06;0.00039653659792498336
4.28275e-06;0.0003624629283299376
4.28300e-06;0.0003269017644867273
4.28325e-06;0.00029134060064351703
4.28350e-06;0.00025577943680018633
4.28375e-06;0.00022021827295697606
4.28400e-06;0.0001846571091137658
4.28425e-06;0.00014909594527043508
4.28450e-06;0.00011363232412217703
4.28475e-06;7.896372415698559e-05
4.28500e-06;4.496905304332996e-05
4.28525e-06;1.1815130197465796e-05
4.28550e-06;-2.032590221535163e-05
4.28575e-06;-5.128187538917413e-05
4.28600e-06;-8.088063957922991e-05
4.28625e-06;-0.00010897363656117592
4.28650e-06;-0.0001356464887418544
4.28675e-06;-0.00016144855031587313
4.28700e-06;-0.00018698521853938635
4.28725e-06;-0.00021234948673933134
4.28750e-06;-0.000237146643929761
4.28775e-06;-0.0002619438011202747
4.28800e-06;-0.0002865340149655372
4.28825e-06;-0.00030960362736083606
4.28850e-06;-0.0003326732397562131
4.28875e-06;-0.00035574285215151204
4.28900e-06;-0.0003788124645468109
4.28925e-06;-0.00040188207694218797
4.28950e-06;-0.00042495168933748685
4.28975e-06;-0.00044766845085749963
4.29000e-06;-0.00047016875650905394
4.29025e-06;-0.000492669062160532
4.29050e-06;-0.0005151693678120862
4.29075e-06;-0.0005376696734635643
4.29100e-06;-0.0005601699791150422
4.29125e-06;-0.0005826207787622066
4.29150e-06;-0.0006047078126550283
4.29175e-06;-0.0006267948465478501
4.29200e-06;-0.0006488818804407467
4.29225e-06;-0.0006709689143335685
4.29250e-06;-0.0006930559482263902
4.29275e-06;-0.0007151429821192868
4.29300e-06;-0.0007372300160121086
4.29325e-06;-0.0007593170499049304
4.29350e-06;-0.0007802501477079121
4.29375e-06;-0.0008004753650546675
4.29400e-06;-0.0008207005824014229
4.29425e-06;-0.0008409257997482468
4.29450e-06;-0.0008611510170950022
4.29475e-06;-0.0008813762344418261
4.29500e-06;-0.0009016014517885814
4.29525e-06;-0.0009218266691353368
4.29550e-06;-0.0009417643808193681
4.29575e-06;-0.0009595895262489892
4.29600e-06;-0.0009774146716786103
4.29625e-06;-0.0009948148832139402
4.29650e-06;-0.0010090927179696191
4.29675e-06;-0.001023370552725298
4.29700e-06;-0.0010368612834792846
4.29725e-06;-0.001044568443445515
4.29750e-06;-0.0010516361979128796
4.29775e-06;-0.001054005657165692
4.29800e-06;-0.0010557764664745246
4.29825e-06;-0.0010531484487919425
4.29850e-06;-0.001049832244453534
4.29875e-06;-0.0010414593052617753
4.29900e-06;-0.001032313886188598
4.29925e-06;-0.00101749235307488
4.29950e-06;-0.0010019852062394161
4.29975e-06;-0.000981440230243329
4.30000e-06;-0.0009603055468181184
4.30025e-06;-0.0009348377452118358
4.30050e-06;-0.0009087945058500187
4.30075e-06;-0.0008785230006115303
4.30100e-06;-0.0008475797585283962
4.30125e-06;-0.0008117006533539815
4.30150e-06;-0.0007758215481796884
4.30175e-06;-0.0007393908403349424
4.30200e-06;-0.0006989070047158623
4.30225e-06;-0.0006584231690969193
4.30250e-06;-0.0006176004935004794
4.30275e-06;-0.0005742880516331282
4.30300e-06;-0.0005309756097659237
4.30325e-06;-0.0004876555229261896
4.30350e-06;-0.0004435041191150793
4.30375e-06;-0.00039935271530396906
4.30400e-06;-0.0003552013114927092
4.30425e-06;-0.00032423599368725854
4.30450e-06;-0.006568423788795148
4.30475e-06;-0.02627860537343358
4.30500e-06;-0.019678583610076107
4.30525e-06;-0.014704419339163475
4.30550e-06;-0.007115147202057715
4.30575e-06;0.008647232422025874
4.30600e-06;0.0070298112493094155
4.30625e-06;0.006727837492112431
4.30650e-06;0.001180400079464839
4.30675e-06;-0.006772469731943906
4.30700e-06;-0.00886527107109905
4.30725e-06;-0.006886813848018141
4.30750e-06;-0.0021197137979895265
4.30775e-06;0.0038725329368533984
4.30800e-06;0.006064295361414278
4.30825e-06;0.005496306027260482
4.30850e-06;0.0018649859076084194
4.30875e-06;-0.0032345846718361436
4.30900e-06;-0.004638119847477136
4.30925e-06;-0.003472713244001093
4.30950e-06;-0.0005466899098115828
4.30975e-06;0.0031569545736135174
4.31000e-06;0.0044876282375174974
4.31025e-06;0.004095483073811647
4.31050e-06;0.0017890708350170705
4.31075e-06;-0.0014334042449307368
4.31100e-06;-0.0023379076917412187
4.31125e-06;-0.001631224403968705
4.31150e-06;0.00017974589505280838
4.31175e-06;0.0024788579492189453
4.31200e-06;0.003292392455964825
4.31225e-06;0.0030275455984315686
4.31250e-06;0.001564372968456832
4.31275e-06;-0.0004718608240456526
4.31300e-06;-0.0010554639097578099
4.31325e-06;-0.0006293210978281561
4.31350e-06;0.000488941132463248
4.31375e-06;0.0019133080761897648
4.31400e-06;0.0024074650005467884
4.31425e-06;0.002226550997360429
4.31450e-06;0.001295500973612761
4.31475e-06;6.037495152638479e-06
4.31500e-06;-0.000372964833904443
4.31525e-06;-0.0001189873915614446
4.31550e-06;0.0005689730904667047
4.31575e-06;0.0014491031068883443
4.31600e-06;0.0017470093568960484
4.31625e-06;0.0016225724422815823
4.31650e-06;0.0010288869208188653
4.31675e-06;0.00021153664807242224
4.31700e-06;-3.452461562327336e-05
4.31725e-06;0.00011685948073068744
4.31750e-06;0.0005409600044185264
4.31775e-06;0.001086239297424579
4.31800e-06;0.0012675818980424402
4.31825e-06;0.0011851175213549077
4.31850e-06;0.0008094427985579668
4.31875e-06;0.0002943632355781646
4.31900e-06;0.00013777928436958952
4.31925e-06;0.0002307205050505879
4.31950e-06;0.0004949903447590403
4.31975e-06;0.0008356071743512407
4.32000e-06;0.0009486551190718721
4.32025e-06;0.0008968261392181419
4.32050e-06;0.0006616708402639278
4.32075e-06;0.0003394980270639366
4.32100e-06;0.0002421388049166939
4.32125e-06;0.00030126978050544647
4.32150e-06;0.000467849810736261
4.32175e-06;0.0006823286621313589
4.32200e-06;0.0007542913551377847
4.32225e-06;0.0007229725545858179
4.32250e-06;0.0005767787847842273
4.32275e-06;0.0003759989585150912
4.32300e-06;0.00031591298332663323
4.32325e-06;0.00035366578043304227
4.32350e-06;0.0004584839549481853
4.32375e-06;0.0005930143658931255
4.32400e-06;0.0006379375993279678
4.32425e-06;0.0006177908155292659
4.32450e-06;0.0005252716822311945
4.32475e-06;0.0003981037457128762
4.32500e-06;0.00035856126951386237
4.32525e-06;0.00037974677342770706
4.32550e-06;0.00044233291200145166
4.32575e-06;0.0005228727753510742
4.32600e-06;0.0005465804223359494
4.32625e-06;0.0005287840021850352
4.32650e-06;0.0004646076467264912
4.32675e-06;0.00037690677573539176
4.32700e-06;0.000341586008157599
4.32725e-06;0.00034167039359155103
4.32750e-06;0.00036519418507210884
4.32775e-06;0.00039761737516022056
4.32800e-06;0.00039224401529436363
4.32825e-06;0.0003588273942437584
4.32850e-06;0.00029446455802691356
4.32875e-06;0.000213623016579618
4.32900e-06;0.00016399734658147373
4.32925e-06;0.000135100868480674
4.32950e-06;0.00011958547899276157
4.32975e-06;0.00010849135228401327
4.33000e-06;7.271799589907344e-05
4.33025e-06;1.8525667953815668e-05
4.33050e-06;-5.575335413561445e-05
4.33075e-06;-0.0001409062971151796
4.33100e-06;-0.00020690873094510694
4.33125e-06;-0.00026018201623667576
4.33150e-06;-0.0003051808912920956
4.33175e-06;-0.000347369251627472
4.33200e-06;-0.000404826026260052
4.33225e-06;-0.00047347946179569474
4.33250e-06;-0.0005542240407173127
4.33275e-06;-0.0006411388749689905
4.33300e-06;-0.0007152679751134838
4.33325e-06;-0.0007804852924421669
4.33350e-06;-0.0008379942169664594
4.33375e-06;-0.0008953566444359968
4.33400e-06;-0.0009595153108993566
4.33425e-06;-0.0010291248421840412
4.33450e-06;-0.0011055826205636388
4.33475e-06;-0.0011821714458863264
4.33500e-06;-0.0012496897499481635
4.33525e-06;-0.0013095125479450273
4.33550e-06;-0.0013610331046715073
4.33575e-06;-0.0014123951954155855
4.33600e-06;-0.0014646151309735957
4.33625e-06;-0.0015168517336152378
4.33650e-06;-0.001569213038937474
4.33675e-06;-0.0016215767671107287
4.33700e-06;-0.0016739404952838058
4.33725e-06;-0.0017178659516383487
4.33750e-06;-0.0017616274606434773
4.33775e-06;-0.0018046474721311646
4.33800e-06;-0.0018476530770491148
4.33825e-06;-0.0018906586819669193
4.33850e-06;-0.0019353224547362454
4.33875e-06;-0.001980018444081597
4.33900e-06;-0.0020247144334267974
4.33925e-06;-0.002069410422771998
4.33950e-06;-0.00211410641211735
4.33975e-06;-0.0021588024014625503
4.34000e-06;-0.0022034983908077507
4.34025e-06;-0.0022481943801531024
4.34050e-06;-0.002293056083030703
4.34075e-06;-0.0023379210055597894
4.34100e-06;-0.0023827859280890276
4.34125e-06;-0.002427650850618114
4.34150e-06;-0.0024725157731472006
4.34175e-06;-0.0025173806956764392
4.34200e-06;-0.0025622456182055257
4.34225e-06;-0.002607110540734764
4.34250e-06;-0.0026512637716173577
4.34275e-06;-0.0026954031750289374
4.34300e-06;-0.0027395425784406662
4.34325e-06;-0.002783681981852246
4.34350e-06;-0.0028278213852638255
4.34375e-06;-0.0028719607886755543
4.34400e-06;-0.002916100192087134
4.34425e-06;-0.002960239595498713
4.34450e-06;-0.003000513694233467
4.34475e-06;-0.0030366161399200246
4.34500e-06;-0.0030727185856065818
4.34525e-06;-0.0031088210312932617
4.34550e-06;-0.0031449234769798193
4.34575e-06;-0.003181025922666377
4.34600e-06;-0.003217128368353057
4.34625e-06;-0.003253230814039614
4.34650e-06;-0.003289333259726294
4.34675e-06;-0.003303526851123076
4.34700e-06;-0.003317294774958905
4.34725e-06;-0.0033310626987947804
4.34750e-06;-0.0033448306226306094
4.34775e-06;-0.0033585985464664385
4.34800e-06;-0.003372366470302314
4.34825e-06;-0.003386134394138143
4.34850e-06;-0.003399902317973972
4.34875e-06;-0.0034136702418098475
4.34900e-06;-0.0034274381656456765
4.34925e-06;-0.0034412060894815056
4.34950e-06;-0.0034414830271201303
4.34975e-06;-0.003427199737716113
4.35000e-06;-0.0034129164483120964
4.35025e-06;-0.003398633158908031
4.35050e-06;-0.003384349869504014
4.35075e-06;-0.0033700665800999487
4.35100e-06;-0.0033557832906959315
4.35125e-06;-0.0033415000012919148
4.35150e-06;-0.0033272167118878495
4.35175e-06;-0.0033129334224838323
4.35200e-06;-0.0032986501330798156
4.35225e-06;-0.0032843668436757503
4.35250e-06;-0.0032580328755292113
4.35275e-06;-0.0032314647745086814
4.35300e-06;-0.0032048966734880614
4.35325e-06;-0.0031783285724675315
4.35350e-06;-0.0031517604714470016
4.35375e-06;-0.003125192370426382
4.35400e-06;-0.003098624269405852
4.35425e-06;-0.0030720561683853223
4.35450e-06;-0.0030496616673824917
4.35475e-06;-0.0030273482553364317
4.35500e-06;-0.0030050348432902963
4.35525e-06;-0.0029827214312442363
4.35550e-06;-0.0029604080191981763
4.35575e-06;-0.0029380946071520405
4.35600e-06;-0.0029157811951059805
4.35625e-06;-0.0028934677830599206
4.35650e-06;-0.002887277142904548
4.35675e-06;-0.002881399752400664
4.35700e-06;-0.00287552236189678
4.35725e-06;-0.002869644971392876
4.35750e-06;-0.0028637675808889916
4.35775e-06;-0.0028578901903851075
4.35800e-06;-0.0028520127998812035
4.35825e-06;-0.0028461354093773194
4.35850e-06;-0.0028402580188734354
4.35875e-06;-0.002834380628369531
4.35900e-06;-0.002828503237865647
4.35925e-06;-0.002822625847361743
4.35950e-06;-0.002823699738205611
4.35975e-06;-0.002832275840760408
4.36000e-06;-0.002840851943315234
4.36025e-06;-0.002849428045870031
4.36050e-06;-0.002858004148424828
4.36075e-06;-0.002866580250979654
4.36100e-06;-0.0028751563535344507
4.36125e-06;-0.002883732456089248
4.36150e-06;-0.002892308558644074
4.36175e-06;-0.0029008846611988707
4.36200e-06;-0.0029094607637536675
4.36225e-06;-0.002918036866308494
4.36250e-06;-0.0029266129688632907
4.36275e-06;-0.0029410010686441563
4.36300e-06;-0.0029555020898330508
4.36325e-06;-0.0029700031110218962
4.36350e-06;-0.0029845041322107903
4.36375e-06;-0.0029990051533996358
4.36400e-06;-0.003013506174588481
4.36425e-06;-0.0030280071957773753
4.36450e-06;-0.003042508216966221
4.36475e-06;-0.003056673554860217
4.36500e-06;-0.0030704766045631213
4.36525e-06;-0.0030842796542659787
4.36550e-06;-0.003098082703968836
4.36575e-06;-0.0031118857536717405
4.36600e-06;-0.003125688803374598
4.36625e-06;-0.0031394918530774554
4.36650e-06;-0.0031532949027803596
4.36675e-06;-0.003167097952483217
4.36700e-06;-0.003162544339218705
4.36725e-06;-0.0031576340739901095
4.36750e-06;-0.0031527238087615305
4.36775e-06;-0.003147813543532935
4.36800e-06;-0.0031429032783043564
4.36825e-06;-0.0031379930130757774
4.36850e-06;-0.003133082747847182
4.36875e-06;-0.0031281724826186033
4.36900e-06;-0.0031232622173900243
4.36925e-06;-0.0031183519521614292
4.36950e-06;-0.003099795083029045
4.36975e-06;-0.0030665100355248866
4.37000e-06;-0.003033224988020615
4.37025e-06;-0.0029999399405164565
4.37050e-06;-0.0029666548930122978
4.37075e-06;-0.0029333698455080268
4.37100e-06;-0.002900084798003868
4.37125e-06;-0.0028667997504997094
4.37150e-06;-0.0028335147029954384
4.37175e-06;-0.0028002296554912797
4.37200e-06;-0.0027669446079870083
4.37225e-06;-0.002720225868045725
4.37250e-06;-0.0026732461246315366
4.37275e-06;-0.0026262663812171897
4.37300e-06;-0.0025792866378030015
4.37325e-06;-0.0025323068943888137
4.37350e-06;-0.0024853271509744663
4.37375e-06;-0.0024392073975720375
4.37400e-06;-0.002394015793501087
4.37425e-06;-0.0023488241894299836
4.37450e-06;-0.0023036325853590333
4.37475e-06;-0.002258440981288083
4.37500e-06;-0.0022132493772169795
4.37525e-06;-0.002168057773146029
4.37550e-06;-0.0021314569797276266
4.37575e-06;-0.0020950230973370435
4.37600e-06;-0.0020585892149465844
4.37625e-06;-0.00203148192064792
4.37650e-06;-0.002004555832811495
4.37675e-06;-0.0019776297449750706
4.37700e-06;-0.0019597749016463805
4.37725e-06;-0.0019420963037043858
4.37750e-06;-0.0019244177057623911
4.37775e-06;-0.0019161293795462253
4.37800e-06;-0.0019080234971027377
4.37825e-06;-0.00189991761465925
4.37850e-06;-0.001901638082668513
4.37875e-06;-0.0019035494670324824
4.37900e-06;-0.0019054608513964515
4.37925e-06;-0.0019158693378593726
4.37950e-06;-0.0019264429146847331
4.37975e-06;-0.0019370164915100936
4.38000e-06;-0.001955732932599954
4.38025e-06;-0.0019746075815583984
4.38050e-06;-0.0019934822305169068
4.38075e-06;-0.002023430172990283
4.38100e-06;-0.002053593258699305
4.38125e-06;-0.0020837563444084297
4.38150e-06;-0.0021139194301174518
4.38175e-06;-0.0021440825158264743
4.38200e-06;-0.0021742456015355987
4.38225e-06;-0.002204408687244621
4.38250e-06;-0.0022386861532931383
4.38275e-06;-0.0022774040887759213
4.38300e-06;-0.0023161220242585738
4.38325e-06;-0.002354839959741226
4.38350e-06;-0.0023935578952240092
4.38375e-06;-0.0024322758307066612
4.38400e-06;-0.0024709937661893137
4.38425e-06;-0.002509711701672097
4.38450e-06;-0.0025463654288920058
4.38475e-06;-0.002582979050569483
4.38500e-06;-0.002619592672246836
4.38525e-06;-0.002656206293924189
4.38550e-06;-0.0026928199156016665
4.38575e-06;-0.0027294335372790197
4.38600e-06;-0.002763876183769925
4.38625e-06;-0.0027959757923885047
4.38650e-06;-0.002828075401006976
4.38675e-06;-0.002860175009625447
4.38700e-06;-0.002892274618244027
4.38725e-06;-0.002924374226862498
4.38750e-06;-0.0029564738354809694
4.38775e-06;-0.0029994802764607502
4.38800e-06;-0.0030426986264986823
4.38825e-06;-0.0030859169765366148
4.38850e-06;-0.003129135326574694
4.38875e-06;-0.003172353676612626
4.38900e-06;-0.003215572026650705
4.38925e-06;-0.0032587903766886374
4.38950e-06;-0.00330200872672657
4.38975e-06;-0.0033452270767646486
4.39000e-06;-0.003388445426802581
4.39025e-06;-0.0034481526230453886
4.39050e-06;-0.0035081801814021156
4.39075e-06;-0.0035682077397586392
4.39100e-06;-0.003628235298115163
4.39125e-06;-0.0036882628564718894
4.39150e-06;-0.003748290414828413
4.39175e-06;-0.0038083179731849366
4.39200e-06;-0.0038683455315416636
4.39225e-06;-0.003928373089898187
4.39250e-06;-0.003988400648254711
4.39275e-06;-0.004053229208763033
4.39300e-06;-0.004118151048035295
4.39325e-06;-0.004183072887307777
4.39350e-06;-0.004247994726580039
4.39375e-06;-0.004312916565852301
4.39400e-06;-0.004377838405124782
4.39425e-06;-0.004442760244397044
4.39450e-06;-0.004507682083669306
4.39475e-06;-0.004566390284323578
