Time(s);Current(A)
8.75000e-06;0.010783975890084958
8.75025e-06;0.010854363877798546
8.75050e-06;0.010924751865512611
8.75075e-06;0.010995139853226676
8.75100e-06;0.011065527840940264
8.75125e-06;0.011135915828654327
8.75150e-06;0.011206232003371149
8.75175e-06;0.011272997055238428
8.75200e-06;0.011339762107105257
8.75225e-06;0.011406527158972538
8.75250e-06;0.011473292210839819
8.75275e-06;0.011540057262706648
8.75300e-06;0.011606822314573927
8.75325e-06;0.011673103807854728
8.75350e-06;0.011715473530110081
8.75375e-06;0.011757843252365719
8.75400e-06;0.011800212974621358
8.75425e-06;0.01184258269687671
8.75450e-06;0.011884952419132348
8.75475e-06;0.011927322141387987
8.75500e-06;0.011968940263746194
8.75525e-06;0.011973392083686817
8.75550e-06;0.011977843903627442
8.75575e-06;0.011982295723568034
8.75600e-06;0.011986747543508659
8.75625e-06;0.011991199363449282
8.75650e-06;0.011995651183389876
8.75675e-06;0.012000103003330499
8.75700e-06;0.012004554823271122
8.75725e-06;0.012009006643211716
8.75750e-06;0.011994353846885944
8.75775e-06;0.011962053423251242
8.75800e-06;0.011929752999616757
8.75825e-06;0.011897452575982055
8.75850e-06;0.011865152152347352
8.75875e-06;0.011832851728712868
8.75900e-06;0.011800551305078165
8.75925e-06;0.011768250881443463
8.75950e-06;0.011735950457808978
8.75975e-06;0.011703302475238021
8.76000e-06;0.011653467847757287
8.76025e-06;0.011603633220276553
8.76050e-06;0.011553798592796156
8.76075e-06;0.011503963965315422
8.76100e-06;0.011454129337834688
8.76125e-06;0.011404294710354292
8.76150e-06;0.011354460082873559
8.76175e-06;0.011304625455392825
8.76200e-06;0.011254790827912428
8.76225e-06;0.011204956200431694
8.76250e-06;0.011162400135953229
8.76275e-06;0.011126567544243834
8.76300e-06;0.011090734952534199
8.76325e-06;0.011054902360824561
8.76350e-06;0.011019069769115169
8.76375e-06;0.010983237177405531
8.76400e-06;0.010947404585695895
8.76425e-06;0.0109115719939865
8.76450e-06;0.010875739402276865
8.76475e-06;0.010839906810567228
8.76500e-06;0.010804785712853853
8.76525e-06;0.010804847697545208
8.76550e-06;0.010804909682236564
8.76575e-06;0.01080497166692792
8.76600e-06;0.010805033651619273
8.76625e-06;0.010805095636310628
8.76650e-06;0.010805157621001983
8.76675e-06;0.010805219605693339
8.76700e-06;0.010805281590384694
8.76725e-06;0.010805969136505951
8.76750e-06;0.010837590435362204
8.76775e-06;0.010869211734218457
8.76800e-06;0.010900833033074495
8.76825e-06;0.010932454331930748
8.76850e-06;0.010964075630787001
8.76875e-06;0.010995696929643254
8.76900e-06;0.011027318228499294
8.76925e-06;0.011058939527355547
8.76950e-06;0.01109089091976222
8.76975e-06;0.011139165301055083
8.77000e-06;0.011187439682348274
8.77025e-06;0.011235714063641464
8.77050e-06;0.011283988444934329
8.77075e-06;0.01133226282622752
8.77100e-06;0.01138053720752071
8.77125e-06;0.011428811588813575
8.77150e-06;0.011477085970106765
8.77175e-06;0.011525236990396481
8.77200e-06;0.011567287860324663
8.77225e-06;0.011609338730253129
8.77250e-06;0.011651389600181595
8.77275e-06;0.011693440470109775
8.77300e-06;0.011735491340038241
8.77325e-06;0.011777542209966707
8.77350e-06;0.011819593079894889
8.77375e-06;0.011861643949823355
8.77400e-06;0.011903149178500586
8.77425e-06;0.01191767267400782
8.77450e-06;0.011932196169515154
8.77475e-06;0.011946719665022486
8.77500e-06;0.011961243160529721
8.77525e-06;0.011975766656037055
8.77550e-06;0.011990290151544387
8.77575e-06;0.012004813647051622
8.77600e-06;0.012019337142558956
8.77625e-06;0.012033860638066288
8.77650e-06;0.012048384133573523
8.77675e-06;0.012062907629080856
8.77700e-06;0.012077431124588188
8.77725e-06;0.012091954620095522
8.77750e-06;0.012106478115602757
8.77775e-06;0.012121001611110089
8.77800e-06;0.012135525106617423
8.77825e-06;0.012148416895616904
8.77850e-06;0.012142988482120457
8.77875e-06;0.012137560068624008
8.77900e-06;0.012132131655127595
8.77925e-06;0.012126703241631148
8.77950e-06;0.0121212748281347
8.77975e-06;0.012115846414638287
8.78000e-06;0.01211041800114184
8.78025e-06;0.01210498958764539
8.78050e-06;0.01209956117414898
8.78075e-06;0.012094132760652531
8.78100e-06;0.012088704347156082
8.78125e-06;0.012083275933659671
8.78150e-06;0.012077847520163222
8.78175e-06;0.012072419106666774
8.78200e-06;0.012066990693170363
8.78225e-06;0.012061562279673914
8.78250e-06;0.01205385457257883
8.78275e-06;0.011908565571979866
8.78300e-06;0.0008396490504816992
8.78325e-06;-0.00755055905443539
8.78350e-06;-0.003798771246588428
8.78375e-06;-0.00046098617690994506
8.78400e-06;0.00864363674867934
8.78425e-06;0.01675327829974707
8.78450e-06;0.015449184024887376
8.78475e-06;0.014679421566426824
8.78500e-06;0.008709855003236195
8.78525e-06;0.003787097084357899
8.78550e-06;0.004201897352621961
8.78575e-06;0.007175288698102703
8.78600e-06;0.011492586623771183
8.78625e-06;0.014911743394050195
8.78650e-06;0.01544458401160009
8.78675e-06;0.0137032349090372
8.78700e-06;0.010390769832981352
8.78725e-06;0.007757241306100258
8.78750e-06;0.007793839129089573
8.78775e-06;0.009602903418728586
8.78800e-06;0.012264366981085342
8.78825e-06;0.014371712285870746
8.78850e-06;0.014677968147512451
8.78875e-06;0.013565348906266596
8.78900e-06;0.011473263010559013
8.78925e-06;0.009810267536304523
8.78950e-06;0.009822814257920094
8.78975e-06;0.010947888922505615
8.79000e-06;0.01260860200093095
8.79025e-06;0.013923506733702884
8.79050e-06;0.014111243249983958
8.79075e-06;0.013411052712940097
8.79100e-06;0.01209802361248817
8.79125e-06;0.011054303592033831
8.79150e-06;0.01106045174526098
8.79175e-06;0.011763583205254401
8.79200e-06;0.012802174156851092
8.79225e-06;0.013623983852095714
8.79250e-06;0.013739525366147675
8.79275e-06;0.01329864137017195
8.79300e-06;0.012473623073392368
8.79325e-06;0.01181699453075422
8.79350e-06;0.011817603465895906
8.79375e-06;0.012254286653092592
8.79400e-06;0.012900284667836031
8.79425e-06;0.013408996591904159
8.79450e-06;0.013473128376303177
8.79475e-06;0.013186319373024008
8.79500e-06;0.012656592746652836
8.79525e-06;0.01223018997643597
8.79550e-06;0.012213435771145111
8.79575e-06;0.012467899285731204
8.79600e-06;0.012851656795306367
8.79625e-06;0.013147733642178973
8.79650e-06;0.013163795506170453
8.79675e-06;0.012958658369168992
8.79700e-06;0.012600143601591153
8.79725e-06;0.01230527863971601
8.79750e-06;0.012266068996211733
8.79775e-06;0.012395920451200295
8.79800e-06;0.012606059944009256
8.79825e-06;0.012760712386685615
8.79850e-06;0.012739549823844693
8.79875e-06;0.012579568132183408
8.79900e-06;0.012323399091152213
8.79925e-06;0.012107131298868175
8.79950e-06;0.012051166346494007
8.79975e-06;0.012101388973016585
8.80000e-06;0.012202324349695233
8.80025e-06;0.012269060519588232
8.80050e-06;0.012226370690581531
8.80075e-06;0.012097577450390706
8.80100e-06;0.011909531786832822
8.80125e-06;0.011747619479448593
8.80150e-06;0.01168739368997232
8.80175e-06;0.01169508877946801
8.80200e-06;0.011736089006207314
8.80225e-06;0.011757345489295428
8.80250e-06;0.011711879452260989
8.80275e-06;0.011614444550944214
8.80300e-06;0.011482004379095336
8.80325e-06;0.011368184480290833
8.80350e-06;0.011320446417126873
8.80375e-06;0.011317743788480175
8.80400e-06;0.011338069058177976
8.80425e-06;0.011346985402281701
8.80450e-06;0.011313645417959133
8.80475e-06;0.011246636032744724
8.80500e-06;0.011156538505321962
8.80525e-06;0.011077014486596865
8.80550e-06;0.011037860992242625
8.80575e-06;0.011025959929496046
8.80600e-06;0.011027592341210493
8.80625e-06;0.01102125618722051
8.80650e-06;0.01098770037746906
8.80675e-06;0.010932375059281137
8.80700e-06;0.010868291858644616
8.80725e-06;0.010804502315879976
8.80750e-06;0.01075817016314875
8.80775e-06;0.010734554528749185
8.80800e-06;0.010715067535197888
8.80825e-06;0.01069558054164672
8.80850e-06;0.010663513317101261
8.80875e-06;0.010612672233683408
8.80900e-06;0.010556253022554316
8.80925e-06;0.01049983381142484
8.80950e-06;0.010454475306913286
8.80975e-06;0.010423704304213605
8.81000e-06;0.010395759970362267
8.81025e-06;0.01036781563651093
8.81050e-06;0.010332324505477827
8.81075e-06;0.010285924227736255
8.81100e-06;0.010236560095550478
8.81125e-06;0.010187195963365035
8.81150e-06;0.010145360444744246
8.81175e-06;0.01011406680729903
8.81200e-06;0.010085360651581656
8.81225e-06;0.010056654495864478
8.81250e-06;0.010024085513932324
8.81275e-06;0.009986640896499628
8.81300e-06;0.009948446115951472
8.81325e-06;0.00991025133540306
8.81350e-06;0.00987790392908994
8.81375e-06;0.009854350902961133
8.81400e-06;0.00983346444202109
8.81425e-06;0.009812577981081046
8.81450e-06;0.009789436006420196
8.81475e-06;0.009763186451497114
8.81500e-06;0.009736216591499683
8.81525e-06;0.009709246731502435
8.81550e-06;0.009685733100122879
8.81575e-06;0.009667330742970229
8.81600e-06;0.00965041047443473
8.81625e-06;0.009633490205899115
8.81650e-06;0.009615007189635788
8.81675e-06;0.009594299705293772
8.81700e-06;0.009573015880055227
8.81725e-06;0.009551732054816681
8.81750e-06;0.00953286717228178
8.81775e-06;0.009516621646951474
8.81800e-06;0.009500155637814442
8.81825e-06;0.009483450877322707
8.81850e-06;0.009466746116830859
8.81875e-06;0.00945004135633901
8.81900e-06;0.009433336595847275
8.81925e-06;0.009417303079100409
8.81950e-06;0.009401996420057573
8.81975e-06;0.009386689761014842
8.82000e-06;0.009371383101972006
8.82025e-06;0.009356076442929172
8.82050e-06;0.009341117045108024
8.82075e-06;0.009326533679832813
8.82100e-06;0.009311950314557504
8.82125e-06;0.009297366949282194
8.82150e-06;0.009282783584006984
8.82175e-06;0.009268200218731674
8.82200e-06;0.009253616853456364
8.82225e-06;0.009241471224319953
8.82250e-06;0.00922937506344045
8.82275e-06;0.009217278902560948
8.82300e-06;0.00920518274168153
8.82325e-06;0.009193086580802028
8.82350e-06;0.009180990419922526
8.82375e-06;0.009174262943257669
8.82400e-06;0.00917334895761098
8.82425e-06;0.00917243497196429
8.82450e-06;0.009171520986317608
8.82475e-06;0.009170607000670919
8.82500e-06;0.00916969301502423
8.82525e-06;0.009168779029377547
8.82550e-06;0.009195108314394258
8.82575e-06;0.009221990439029203
8.82600e-06;0.009248872563663968
8.82625e-06;0.009275754688298913
8.82650e-06;0.009302636812933859
8.82675e-06;0.009329518937568622
8.82700e-06;0.009373698746986712
8.82725e-06;0.009436609390834077
8.82750e-06;0.009499520034681016
8.82775e-06;0.009562430678528381
8.82800e-06;0.009625341322375747
8.82825e-06;0.009688251966222685
8.82850e-06;0.00975116261007005
8.82875e-06;0.009814073253917414
8.82900e-06;0.00987698389776478
8.82925e-06;0.009939894541611718
8.82950e-06;0.010025944073914965
8.82975e-06;0.010112463156825102
8.83000e-06;0.010198982239734651
8.83025e-06;0.010285501322644788
8.83050e-06;0.010372020405554924
8.83075e-06;0.010458539488464473
8.83100e-06;0.01054505857137461
8.83125e-06;0.010631577654284746
8.83150e-06;0.010718096737194295
8.83175e-06;0.010800890577954
8.83200e-06;0.010879650532397998
8.83225e-06;0.010958410486841465
8.83250e-06;0.011037170441285464
8.83275e-06;0.011115930395729464
8.83300e-06;0.01119469035017293
8.83325e-06;0.01127345030461693
8.83350e-06;0.011337258918501401
8.83375e-06;0.011384877441741168
8.83400e-06;0.011432495964981257
8.83425e-06;0.011480114488221347
8.83450e-06;0.011527733011461113
8.83475e-06;0.011575351534701203
8.83500e-06;0.011622970057941292
8.83525e-06;0.011648784884429846
8.83550e-06;0.011650989531924536
8.83575e-06;0.011653194179419226
8.83600e-06;0.011655398826913901
8.83625e-06;0.011657603474408591
8.83650e-06;0.011659808121903282
8.83675e-06;0.011662012769397958
8.83700e-06;0.011664217416892648
8.83725e-06;0.011666422064387338
8.83750e-06;0.011647950846513894
8.83775e-06;0.011607090724237433
8.83800e-06;0.011566230601960693
8.83825e-06;0.011525370479683956
8.83850e-06;0.011484510357407494
8.83875e-06;0.011443650235130755
8.83900e-06;0.011402790112854016
8.83925e-06;0.011361929990577554
8.83950e-06;0.011321069868300816
8.83975e-06;0.011269653674524566
8.84000e-06;0.011206806816470592
8.84025e-06;0.011143959958416192
8.84050e-06;0.011081113100361792
8.84075e-06;0.011018266242307818
8.84100e-06;0.01095541938425342
8.84125e-06;0.01089257252619902
8.84150e-06;0.010829725668145046
8.84175e-06;0.010766878810090646
8.84200e-06;0.010704031952036248
8.84225e-06;0.01064743237364435
8.84250e-06;0.010597597675205706
8.84275e-06;0.010547762976767062
8.84300e-06;0.010497928278328754
8.84325e-06;0.01044809357989011
8.84350e-06;0.010398258881451466
8.84375e-06;0.010348424183013159
8.84400e-06;0.010298589484574515
8.84425e-06;0.01024875478613587
8.84450e-06;0.010198920087697563
8.84475e-06;0.010167946937055293
8.84500e-06;0.01015739805321318
8.84525e-06;0.010146849169371138
8.84550e-06;0.010136300285529025
8.84575e-06;0.010125751401686912
8.84600e-06;0.010115202517844799
8.84625e-06;0.010104653634002756
8.84650e-06;0.010094104750160643
8.84675e-06;0.01008355586631853
8.84700e-06;0.010090937817245463
8.84725e-06;0.01011773621040892
8.84750e-06;0.010144534603572376
8.84775e-06;0.010171332996735652
8.84800e-06;0.010198131389899109
8.84825e-06;0.010224929783062565
8.84850e-06;0.01025172817622584
8.84875e-06;0.010278526569389296
8.84900e-06;0.010305324962552752
8.84925e-06;0.01034310843920586
8.84950e-06;0.010392787136678386
8.84975e-06;0.010442465834150913
8.85000e-06;0.010492144531623103
8.85025e-06;0.01054182322909563
8.85050e-06;0.010591501926568157
8.85075e-06;0.010641180624040347
8.85100e-06;0.010690859321512874
8.85125e-06;0.010740538018985401
8.85150e-06;0.010790216716457591
8.85175e-06;0.010839895413930118
8.85200e-06;0.010882182348741243
8.85225e-06;0.010924319284701637
8.85250e-06;0.010966456220662316
8.85275e-06;0.011008593156622995
8.85300e-06;0.011050730092583387
8.85325e-06;0.011092867028544066
8.85350e-06;0.011135003964504744
8.85375e-06;0.011177140900465139
8.85400e-06;0.011219277836425817
8.85425e-06;0.011261414772386496
8.85450e-06;0.011286667266958228
8.85475e-06;0.01129363640856772
8.85500e-06;0.01130060555017726
8.85525e-06;0.011307574691786799
8.85550e-06;0.011314543833396291
8.85575e-06;0.011321512975005832
8.85600e-06;0.011328482116615371
8.85625e-06;0.011335451258224863
8.85650e-06;0.011342420399834402
8.85675e-06;0.011314304861288132
8.85700e-06;0.011285477359717803
8.85725e-06;0.01125664985814728
8.85750e-06;0.011227822356576758
8.85775e-06;0.011198994855006429
8.85800e-06;0.011170167353435905
8.85825e-06;0.011141339851865382
8.85850e-06;0.011112512350295055
8.85875e-06;0.011071139711192723
8.85900e-06;0.01101618254345944
8.85925e-06;0.010961225375726528
8.85950e-06;0.010906268207993246
8.85975e-06;0.010851311040259963
8.86000e-06;0.01079635387252705
8.86025e-06;0.010741396704793769
8.86050e-06;0.010686439537060485
8.86075e-06;0.010631482369327573
8.86100e-06;0.01057652520159429
8.86125e-06;0.010521568033861008
8.86150e-06;0.010467891741028674
8.86175e-06;0.010414241440611047
8.86200e-06;0.010360591140193418
8.86225e-06;0.010306940839776155
8.86250e-06;0.010253290539358527
8.86275e-06;0.0101996402389409
8.86300e-06;0.010145989938523272
8.86325e-06;0.010092339638106008
8.86350e-06;0.01003868933768838
8.86375e-06;0.009985039037270754
8.86400e-06;0.009946590628531522
8.86425e-06;0.009924603620255691
8.86450e-06;0.009902616611979859
8.86475e-06;0.009880629603704177
8.86500e-06;0.009858642595428346
8.86525e-06;0.009836655587152516
8.86550e-06;0.009814668578876832
8.86575e-06;0.009792681570601001
8.86600e-06;0.00977069456232517
8.86625e-06;0.009748707554049487
8.86650e-06;0.009726720545773657
8.86675e-06;0.009704733537497826
8.86700e-06;0.009682746529222144
8.86725e-06;0.009660759520946312
8.86750e-06;0.009666943327954394
8.86775e-06;0.009673698796976328
8.86800e-06;0.009680454265998308
8.86825e-06;0.00968720973502029
8.86850e-06;0.009693965204042225
8.86875e-06;0.009700720673064205
8.86900e-06;0.009707476142086186
8.86925e-06;0.009714231611108121
8.86950e-06;0.0097209870801301
8.86975e-06;0.00972774254915208
8.87000e-06;0.009734498018174016
8.87025e-06;0.009741253487195997
8.87050e-06;0.009748008956217977
8.87075e-06;0.009758757534250985
8.87100e-06;0.00977383005879858
8.87125e-06;0.009788902583346174
8.87150e-06;0.00980397510789377
8.87175e-06;0.009819047632441262
8.87200e-06;0.009834120156988856
8.87225e-06;0.009849192681536452
8.87250e-06;0.009864265206083944
8.87275e-06;0.009879337730631538
8.87300e-06;0.009894410255179132
8.87325e-06;0.009909482779726626
8.87350e-06;0.00992455530427422
8.87375e-06;0.009925840271595278
8.87400e-06;0.009926845452099282
8.87425e-06;0.009927850632603295
8.87450e-06;0.009928855813107307
8.87475e-06;0.009929860993611312
8.87500e-06;0.009930866174115325
8.87525e-06;0.009931871354619337
8.87550e-06;0.009932876535123342
8.87575e-06;0.009933881715627355
8.87600e-06;0.009934886896131367
8.87625e-06;0.009935892076635372
8.87650e-06;0.009924492987966955
8.87675e-06;0.009899661910262128
8.87700e-06;0.009874830832557469
8.87725e-06;0.009849999754852642
8.87750e-06;0.009825168677147816
8.87775e-06;0.009800337599443156
8.87800e-06;0.00977550652173833
8.87825e-06;0.009750675444033503
8.87850e-06;0.009725844366328843
8.87875e-06;0.009701013288624017
8.87900e-06;0.00967618221091919
8.87925e-06;0.00965135113321453
8.87950e-06;0.009620190293772072
8.87975e-06;0.009582175258480558
8.88000e-06;0.009544160223189045
8.88025e-06;0.00950614518789779
8.88050e-06;0.009468130152606278
8.88075e-06;0.009430115117314765
8.88100e-06;0.00939210008202351
8.88125e-06;0.009354085046731997
8.88150e-06;0.009316070011440483
8.88175e-06;0.009278054976149228
8.88200e-06;0.009240039940857717
8.88225e-06;0.009202024905566203
8.88250e-06;0.009168290604046508
8.88275e-06;0.009139191704121004
8.88300e-06;0.009110092804195502
8.88325e-06;0.009080993904270196
8.88350e-06;0.009051895004344694
8.88375e-06;0.009022796104419192
8.88400e-06;0.008993697204493886
8.88425e-06;0.008964598304568383
8.88450e-06;0.008935499404642881
8.88475e-06;0.008929120511496094
8.88500e-06;0.00892320266872226
8.88525e-06;0.008917284825948425
8.88550e-06;0.008911366983174629
8.88575e-06;0.008905449140400794
8.88600e-06;0.00889953129762696
8.88625e-06;0.008893613454853165
8.88650e-06;0.008887695612079331
8.88675e-06;0.00889592435580375
8.88700e-06;0.00891947176055974
8.88725e-06;0.008943019165315888
8.88750e-06;0.008966566570072037
8.88775e-06;0.008990113974828027
8.88800e-06;0.009013661379584174
8.88825e-06;0.009037208784340323
8.88850e-06;0.009060756189096473
8.88875e-06;0.00908430359385246
8.88900e-06;0.00910785099860861
8.88925e-06;0.009131398403364759
8.88950e-06;0.009154945808120747
8.88975e-06;0.009185897894651919
8.89000e-06;0.00922486815646415
8.89025e-06;0.009263838418276119
8.89050e-06;0.009302808680088351
8.89075e-06;0.009341778941900582
8.89100e-06;0.009380749203712551
8.89125e-06;0.009419719465524782
8.89150e-06;0.009458689727337015
8.89175e-06;0.009497659989148984
8.89200e-06;0.009536630250961214
8.89225e-06;0.009575600512773447
8.89250e-06;0.009614570774585414
8.89275e-06;0.009645852601649322
8.89300e-06;0.009668808990925743
8.89325e-06;0.009691765380202009
8.89350e-06;0.009714721769478428
8.89375e-06;0.00973767815875485
8.89400e-06;0.009760634548031112
8.89425e-06;0.009783590937307534
8.89450e-06;0.009806547326583955
8.89475e-06;0.009829503715860218
8.89500e-06;0.00985246010513664
8.89525e-06;0.009875416494413059
8.89550e-06;0.009898372883689324
8.89575e-06;0.009921329272965745
8.89600e-06;0.009944285662242165
8.89625e-06;0.00996724205151843
8.89650e-06;0.00999019844079485
8.89675e-06;0.01001315483007127
8.89700e-06;0.01002958350255244
8.89725e-06;0.010038943623129347
8.89750e-06;0.010048303743706318
8.89775e-06;0.010057663864283289
8.89800e-06;0.010067023984860196
8.89825e-06;0.010076384105437167
8.89850e-06;0.010085744226014137
8.89875e-06;0.010095104346591045
8.89900e-06;0.010104464467168015
8.89925e-06;0.010113824587744987
8.89950e-06;0.010123184708321893
8.89975e-06;0.010132544828898865
8.90000e-06;0.010141904949475835
8.90025e-06;0.010151265070052743
8.90050e-06;0.010160625190629713
8.90075e-06;0.010169985311206683
8.90100e-06;0.010179345431783591
8.90125e-06;0.010185370552467557
8.90150e-06;0.010187784361480465
8.90175e-06;0.010190198170493358
