Time(s);Current(A)
5.55000e-06;-0.00029338779782273067
5.55025e-06;-0.0002826398938785707
5.55050e-06;-0.00027021380443508863
5.55075e-06;-0.0002560765480084496
5.55100e-06;-0.00023990525298889565
5.55125e-06;-0.00022132690455316971
5.55150e-06;-0.00020025796818446336
5.55175e-06;-0.00017684371811287097
5.55200e-06;-0.00015127508973048496
5.55225e-06;-0.0001237430118726511
5.55250e-06;-9.443318113917371e-05
5.55275e-06;-6.34424322976796e-05
5.55300e-06;-3.068599929640872e-05
5.55325e-06;3.952254574461177e-06
5.55350e-06;4.040716229053297e-05
5.55375e-06;7.847020928777746e-05
5.55400e-06;0.00011790430274272564
5.55425e-06;0.00015847236641824305
5.55450e-06;0.00020010212492626846
5.55475e-06;0.00024229901200603776
5.55500e-06;0.0002851996793701121
5.55525e-06;0.0003288325244984811
5.55550e-06;0.0003724653696267023
5.55575e-06;0.0004160982147549234
5.55600e-06;0.00045973105988329245
5.55625e-06;0.0005033639050115136
5.55650e-06;0.0005469967501397347
5.55675e-06;0.0005892268247321727
5.55700e-06;0.000629997527106651
5.55725e-06;0.0006707682294811292
5.55750e-06;0.0007098239309118971
5.55775e-06;0.0007470954312441781
5.55800e-06;0.0007823688398184997
5.55825e-06;0.0008155635337881748
5.55850e-06;0.0008462387104781784
5.55875e-06;0.0008742927075626768
5.55900e-06;0.0008996700964288546
5.55925e-06;0.0009222628761434687
5.55950e-06;0.0009421625155051465
5.55975e-06;0.000959260346510377
5.56000e-06;0.0009735250631879429
5.56025e-06;0.0009848423495955564
5.56050e-06;0.0009932016962141013
5.56075e-06;0.000998483750403694
5.56100e-06;0.0010009111514189964
5.56125e-06;0.0010003687142269438
5.56150e-06;0.0009971629629919399
5.56175e-06;0.0009911864331999685
5.56200e-06;0.0009826606739313667
5.56225e-06;0.0009714828239755099
5.56250e-06;0.0009573245682150258
5.56275e-06;0.0009400656475082172
5.56300e-06;0.0009228067268014086
5.56325e-06;0.000902552888908069
5.56350e-06;0.0008791832891534574
5.56375e-06;0.0008558136893987666
5.56400e-06;0.0008300972872878382
5.56425e-06;0.0008019393895286092
5.56450e-06;0.0007737814917692849
5.56475e-06;0.0007437374852354492
5.56500e-06;0.0007117312655851288
5.56525e-06;0.0006797250459347
5.56550e-06;0.0006477188262843797
5.56575e-06;0.0006157126066340594
5.56600e-06;0.000582632796937664
5.56625e-06;0.0005495422655773185
5.56650e-06;0.0005164517342169728
5.56675e-06;0.0004833612028565152
5.56700e-06;0.00045106405705049366
5.56725e-06;0.00041959230984396964
5.56750e-06;0.00038924061832116907
5.56775e-06;0.0003600541766416839
5.56800e-06;0.0003319794889183056
5.56825e-06;0.0003059471031202688
5.56850e-06;0.00028183165195236695
5.56875e-06;0.0002598752499382995
5.56900e-06;0.00024033928305921897
5.56925e-06;0.00022342926342038948
5.56950e-06;0.00020924156788225008
5.56975e-06;0.0001978102496111063
5.57000e-06;0.00018915911611577595
5.57025e-06;0.0001833119452257272
5.57050e-06;0.00018029345620351316
5.57075e-06;0.0001801405807391526
5.57100e-06;0.00018290230764899531
5.57125e-06;0.00018859264365413397
5.57150e-06;0.0001971572053922573
5.57175e-06;0.00020850257034052213
5.57200e-06;0.0002225289049405377
5.57225e-06;0.00023913636878979515
5.57250e-06;0.000258225705739631
5.57275e-06;0.0002797053222602029
5.57300e-06;0.00030349116930462866
5.57325e-06;0.00032947728990067785
5.57350e-06;0.00035795304160873414
5.57375e-06;0.0003878866077199755
5.57400e-06;0.0004193989855515365
5.57425e-06;0.0004525538800329496
5.57450e-06;0.000487182780489579
5.57475e-06;0.0005233451629469844
5.57500e-06;0.0005595075454043897
5.57525e-06;0.0005967782354442596
5.57550e-06;0.0006352019531905783
5.57575e-06;0.0006736256709368968
5.57600e-06;0.0007120493886833457
5.57625e-06;0.0007504731064296642
5.57650e-06;0.0007876459513742321
5.57675e-06;0.0008248063041779849
5.57700e-06;0.0008619666569817376
5.57725e-06;0.0008991270097856162
5.57750e-06;0.0009340682052384966
5.57775e-06;0.0009667007005151265
5.57800e-06;0.000999333195791867
5.57825e-06;0.00102894916846901
5.57850e-06;0.0010554269020959716
5.57875e-06;0.0010819046357230231
5.57900e-06;0.0011055827567244844
5.57925e-06;0.0011263483009502566
5.57950e-06;0.0011471138451760992
5.57975e-06;0.0011653587642738296
5.58000e-06;0.0011809813512170387
5.58025e-06;0.0011966039381603008
5.58050e-06;0.0012093773303383615
5.58075e-06;0.0012191865629657469
5.58100e-06;0.0012289957955930989
5.58125e-06;0.0012365428692516747
5.58150e-06;0.0012417365060043573
5.58175e-06;0.0012469301427570224
5.58200e-06;0.0012484038495307547
5.58225e-06;0.0012460075274424306
5.58250e-06;0.0012436112053541145
5.58275e-06;0.0012412148832657984
5.58300e-06;0.001238818561177474
5.58325e-06;0.001236422239089158
5.58350e-06;0.001234025917000842
5.58375e-06;0.0012316295949125178
5.58400e-06;0.0012256958810041684
5.58425e-06;0.001216082041793226
5.58450e-06;0.0012064682025822511
5.58475e-06;0.0011968543633713088
5.58500e-06;0.0011872405241603338
5.58525e-06;0.0011776266849493915
5.58550e-06;0.001168012845738449
5.58575e-06;0.0011583990065274742
5.58600e-06;0.001147959540737356
5.58625e-06;0.001136661134400367
5.58650e-06;0.0011253627280633403
5.58675e-06;0.0011140643217263514
5.58700e-06;0.0011027659153893627
5.58725e-06;0.0010914675090523357
5.58750e-06;0.001080169102715347
5.58775e-06;0.0010697426915909044
5.58800e-06;0.0010602234606173645
5.58825e-06;0.0010507042296438568
5.58850e-06;0.0010411849986703492
5.58875e-06;0.0010316657676968093
5.58900e-06;0.0010221465367233015
5.58925e-06;0.0010126273057497615
5.58950e-06;0.0010010215209165338
5.58975e-06;0.0009872449899391953
5.59000e-06;0.0009734684589618101
5.59025e-06;0.0009579210924538208
5.59050e-06;0.0009405314373406006
5.59075e-06;0.0009231417822273214
5.59100e-06;0.0009032659451215082
5.59125e-06;0.0008808036087750011
5.59150e-06;0.0008583412724284179
5.59175e-06;0.0008331867324063785
5.59200e-06;0.0008052313585020211
5.59225e-06;0.0007772759845975691
5.59250e-06;0.0007473130285288724
5.59275e-06;0.0007152614845132661
5.59300e-06;0.0006832099404975513
5.59325e-06;0.0006489803578824924
5.59350e-06;0.0006124848529815557
5.59375e-06;0.0005759893480807426
5.59400e-06;0.0005380342701336645
5.59425e-06;0.0004985607254825092
5.59450e-06;0.0004590871808314877
5.59475e-06;0.0004188623821314016
5.59500e-06;0.0003778560163402995
5.59525e-06;0.0003368496505493363
5.59550e-06;0.00029555311180022294
5.59575e-06;0.0002539546916367759
5.59600e-06;0.0002123562714734698
5.59625e-06;0.00017109487482573014
5.59650e-06;0.0001305590833267901
5.59675e-06;9.086971841711474e-05
5.59700e-06;5.214604347409951e-05
5.59725e-06;1.4488783202763543e-05
5.59750e-06;-2.191804054848162e-05
5.59775e-06;-5.68232680333715e-05
5.59800e-06;-8.996224062509257e-05
5.59825e-06;-0.00012107034477622938
5.59850e-06;-0.00014988230218752278
5.59875e-06;-0.00017612853082601574
5.59900e-06;-0.00019955534065012266
5.59925e-06;-0.00021998259808070713
5.59950e-06;-0.00023732197842716936
5.59975e-06;-0.00025152903057125084
5.60000e-06;-0.00026256547469275074
5.60025e-06;-0.00027039303298581065
5.60050e-06;-0.00027497301910234094
5.60075e-06;-0.0002762640934399746
5.60100e-06;-0.0002742348662595777
5.60125e-06;-0.0002689000190202782
5.60150e-06;-0.00026033174697488986
5.60175e-06;-0.0002486297443830069
5.60200e-06;-0.00023389754012599666
5.60225e-06;-0.00021623868592050304
5.60250e-06;-0.00019575646188886795
5.60275e-06;-0.0001725524688893636
5.60300e-06;-0.0001467345484167907
5.60325e-06;-0.00011843942055420262
5.60350e-06;-8.783979739172896e-05
5.60375e-06;-5.5125596145235015e-05
5.60400e-06;-2.0489147982955398e-05
5.60425e-06;1.5877231520660567e-05
5.60450e-06;5.3781389810952254e-05
5.60475e-06;9.303225143337332e-05
5.60500e-06;0.00013343483934624172
5.60525e-06;0.0001749178019875273
5.60550e-06;0.00021696788207037224
5.60575e-06;0.0002592967195567869
5.60600e-06;0.00030191556228573445
5.60625e-06;0.0003445344050148264
5.60650e-06;0.00038715324774377395
5.60675e-06;0.0004279022662536252
5.60700e-06;0.0004686326113166944
5.60725e-06;0.0005093629563796256
5.60750e-06;0.0005483081875106353
5.60775e-06;0.0005853962755035037
5.60800e-06;0.0006204978399522757
5.60825e-06;0.0006535327247888004
5.60850e-06;0.0006841140354492092
5.60875e-06;0.0007121427704088712
5.60900e-06;0.0007380279764704546
5.60925e-06;0.0007616831624121415
5.60950e-06;0.0007834391926478381
5.60975e-06;0.0008032194363947745
5.61000e-06;0.0008208852215545307
5.61025e-06;0.0008363512298898827
5.61050e-06;0.0008495212114403053
5.61075e-06;0.0008603025217061891
5.61100e-06;0.0008686617292363552
5.61125e-06;0.0008745011023766604
5.61150e-06;0.0008803404755169458
5.61175e-06;0.0008835727162932377
5.61200e-06;0.0008840926271205186
5.61225e-06;0.0008846125379477976
5.61250e-06;0.0008825594267169405
5.61275e-06;0.0008778294721910961
5.61300e-06;0.0008730995176652678
5.61325e-06;0.0008664112112656143
5.61350e-06;0.0008576855336486905
5.61375e-06;0.0008489598560317963
5.61400e-06;0.0008380064388075802
5.61425e-06;0.0008247353928588461
5.61450e-06;0.0008114643469101569
5.61475e-06;0.0007981933009614228
5.61500e-06;0.0007849222550127335
5.61525e-06;0.0007716512090640444
5.61550e-06;0.0007570475551506703
5.61575e-06;0.0007410575226466681
5.61600e-06;0.0007250674901426658
5.61625e-06;0.0007090774576386094
5.61650e-06;0.0006930874251346071
5.61675e-06;0.0006770973926306049
5.61700e-06;0.0006631321567271733
5.61725e-06;0.0006512734178071428
5.61750e-06;0.0006394146788871124
5.61775e-06;0.0006275559399670416
5.61800e-06;0.0006156972010470112
5.61825e-06;0.0006038384621269807
5.61850e-06;0.00059197972320691
5.61875e-06;0.0005801209842868795
5.61900e-06;0.0005682622453668088
5.61925e-06;0.0005564035064467783
5.61950e-06;0.0005445447675267478
5.61975e-06;0.0005326860286066771
5.62000e-06;0.000525435901542529
5.62025e-06;0.0005229803434579567
5.62050e-06;0.000520524785373376
5.62075e-06;0.0005180692272888037
5.62100e-06;0.0005156136692042313
5.62125e-06;0.0005131581111196506
5.62150e-06;0.0005107025530350783
5.62175e-06;0.000508246994950506
5.62200e-06;0.0005057914368659252
5.62225e-06;0.0005033358787813529
5.62250e-06;0.0005008803206967805
5.62275e-06;0.0004984247626121999
5.62300e-06;0.00049866447974811
5.62325e-06;0.0005017082262462233
5.62350e-06;0.0005047519727443262
5.62375e-06;0.0005077957192424291
5.62400e-06;0.0005108394657405424
5.62425e-06;0.0005138832122386453
5.62450e-06;0.000517914422137269
5.62475e-06;0.0005229729395064173
5.62500e-06;0.0005280314568755486
5.62525e-06;0.0005330899742446799
5.62550e-06;0.0005381484916138282
5.62575e-06;0.0005432070089829595
5.62600e-06;0.0005485251431518749
5.62625e-06;0.0005540688018909778
5.62650e-06;0.0005595660945780927
5.62675e-06;0.0005650633872652076
5.62700e-06;0.0005705606799523411
5.62725e-06;0.000576057972639456
5.62750e-06;0.0005815552653265896
5.62775e-06;0.0005870525580137045
5.62800e-06;0.0005906387789945654
5.62825e-06;0.0005942059146008242
5.62850e-06;0.0005977730502070709
5.62875e-06;0.0006013401858133177
5.62900e-06;0.0006049073214195764
5.62925e-06;0.0006084744570258231
5.62950e-06;0.0006102276150360199
5.62975e-06;0.000610093601598043
5.63000e-06;0.0006099595881600665
5.63025e-06;0.0006085086240247969
5.63050e-06;0.0006056875703360625
5.63075e-06;0.0006028665166473377
5.63100e-06;0.0005985722248687367
5.63125e-06;0.0005927452499602061
5.63150e-06;0.0005869182750516953
5.63175e-06;0.0005796424917649522
5.63200e-06;0.000570859440796951
5.63225e-06;0.0005620763898289496
5.63250e-06;0.000552069609052511
5.63275e-06;0.0005407897210670729
5.63300e-06;0.0005295098330816348
5.63325e-06;0.0005170921899951534
5.63350e-06;0.000503490883479718
5.63375e-06;0.0004898895769642826
5.63400e-06;0.00047527030366703636
5.63425e-06;0.0004595919887092686
5.63450e-06;0.00044391367375150087
5.63475e-06;0.00042823535879368005
5.63500e-06;0.00041255704383591236
5.63525e-06;0.0003963514122676569
5.63550e-06;0.00037959718690550785
5.63575e-06;0.0003628429615434156
5.63600e-06;0.0003460887361812666
5.63625e-06;0.0003293345108191743
5.63650e-06;0.00031288708516871407
5.63675e-06;0.0002967588385738181
5.63700e-06;0.0002806305919789768
5.63725e-06;0.0002650421407370083
5.63750e-06;0.0002500152655474519
5.63775e-06;0.00023564844189376326
5.63800e-06;0.0002219683028028974
5.63825e-06;0.00020891668437333352
5.63850e-06;0.0001970131497807269
5.63875e-06;0.00018623626066887824
5.63900e-06;0.00017688682831384187
5.63925e-06;0.00016925775649803457
5.63950e-06;0.0001634750901131949
5.63975e-06;0.00015954475214134664
5.64000e-06;0.0001574497462333079
5.64025e-06;0.00015717308259636785
5.64050e-06;0.0001587002685251127
5.64075e-06;0.00016205754256700018
5.64100e-06;0.00016734807597915921
5.64125e-06;0.00017467008798773538
5.64150e-06;0.00018401726178259029
5.64175e-06;0.00019530801399024377
5.64200e-06;0.0002084464394938603
5.64225e-06;0.00022333662748353999
5.64250e-06;0.00023988422021365143
5.64275e-06;0.00025802041441327645
5.64300e-06;0.0002777245708980678
5.64325e-06;0.0002993135389879824
5.64350e-06;0.0003220306502663077
5.64375e-06;0.00034596770897955
5.64400e-06;0.0003711739399096881
5.64425e-06;0.00039749594728335645
5.64450e-06;0.00042497875259140414
5.64475e-06;0.0004524615578993587
5.64500e-06;0.0004809108123646594
5.64525e-06;0.0005103655121339503
5.64550e-06;0.0005398202119031414
5.64575e-06;0.0005692749116723325
5.64600e-06;0.0005987296114416235
5.64625e-06;0.0006277255788726769
5.64650e-06;0.0006567169650635725
5.64675e-06;0.0006857083512545663
5.64700e-06;0.0007146997374454617
5.64725e-06;0.0007422917008694633
5.64750e-06;0.0007684277749295051
5.64775e-06;0.0007945638489894585
5.64800e-06;0.0008186358263738456
5.64825e-06;0.0008405604209463548
5.64850e-06;0.0008624850155187896
5.64875e-06;0.0008819049370212444
5.64900e-06;0.0008987191220948436
5.64925e-06;0.000912874828665596
5.64950e-06;0.0009242647873378601
5.64975e-06;0.000932905861407952
5.65000e-06;0.0009386871336013689
5.65025e-06;0.0009417190076837267
5.65050e-06;0.0009418905456604387
5.65075e-06;0.0009392228357281394
5.65100e-06;0.0009336013144600805
5.65125e-06;0.0009250292136950009
5.65150e-06;0.0009133874777854942
5.65175e-06;0.0008989793266495853
5.65200e-06;0.0008816931356536387
5.65225e-06;0.000861880965721847
5.65250e-06;0.0008394408938055633
5.65275e-06;0.0008146592925069283
5.65300e-06;0.0007874416813020033
5.65325e-06;0.0007580535391871264
5.65350e-06;0.0007264072854131838
5.65375e-06;0.0006925745439146667
5.65400e-06;0.00065646709008661
5.65425e-06;0.0006203596362585535
5.65450e-06;0.0005823872321237591
5.65475e-06;0.0005424746270864673
5.65500e-06;0.0005025620220491754
5.65525e-06;0.00046158280667033056
5.65550e-06;0.00041949394330808285
5.65575e-06;0.0003774050799458351
5.65600e-06;0.00033531621658344475
5.65625e-06;0.00029322735322119705
5.65650e-06;0.0002511384898589493
5.65675e-06;0.00020958375869943333
5.65700e-06;0.00016903865498809657
5.65725e-06;0.00012953775049795595
5.65750e-06;9.133672569005803e-05
5.65775e-06;5.4709955932708114e-05
5.65800e-06;1.9935230299322125e-05
5.65825e-06;-1.2709702393013625e-05
5.65850e-06;-4.2953525641519074e-05
5.65875e-06;-7.064182921973921e-05
5.65900e-06;-9.588510156920222e-05
5.65925e-06;-0.000118914045096013
5.65950e-06;-0.0001398080230709573
5.65975e-06;-0.00015849658649816437
5.66000e-06;-0.0001748766347705371
5.66025e-06;-0.00018884510351684615
5.66050e-06;-0.00020030297311185284
5.66075e-06;-0.00020922446141049698
5.66100e-06;-0.00021574971860314495
5.66125e-06;-0.00022009419052630794
5.66150e-06;-0.00022237850338975722
5.66175e-06;-0.00022262942924234023
5.66200e-06;-0.00022085330501148237
5.66225e-06;-0.0002170564970161906
5.66250e-06;-0.0002112478966155127
5.66275e-06;-0.00020348225610520941
5.66300e-06;-0.00019391828938597767
5.66325e-06;-0.0001827618579915909
5.66350e-06;-0.00017015939637257975
5.66375e-06;-0.0001561985593921321
5.66400e-06;-0.00014095418726258399
5.66425e-06;-0.00012450113503582506
5.66450e-06;-0.00010691584108291759
5.66475e-06;-8.830347857695259e-05
5.66500e-06;-6.883430794007718e-05
5.66525e-06;-4.870811315358951e-05
5.66550e-06;-2.8087458107052012e-05
5.66575e-06;-7.098063470850673e-06
5.66600e-06;1.4160359045605191e-05
5.66625e-06;3.553489243506735e-05
5.66650e-06;5.685551406467284e-05
5.66675e-06;7.812004952692377e-05
5.66700e-06;9.913832358174068e-05
5.66725e-06;0.00011961013154852006
5.66750e-06;0.00013941405553176224
5.66775e-06;0.00015840061514499752
5.66800e-06;0.00017642536094565996
5.66825e-06;0.00019334385033529185
5.66850e-06;0.0002090195650191916
5.66875e-06;0.00022328186152444283
5.66900e-06;0.00023676765251147623
5.66925e-06;0.00024978654263942834
5.66950e-06;0.00026231969249607915
5.66975e-06;0.0002741996245268893
5.67000e-06;0.0002853999814450039
5.67025e-06;0.00029660033836308056
5.67050e-06;0.0003068078162629062
5.67075e-06;0.00031598235255568893
5.67100e-06;0.00032515688884844054
5.67125e-06;0.0003338638134526154
5.67150e-06;0.0003420842582740854
5.67175e-06;0.0003503047030955276
5.67200e-06;0.0003574711946194712
5.67225e-06;0.00036354120591486995
5.67250e-06;0.00036961121721024816
5.67275e-06;0.00037568122850562636
5.67300e-06;0.0003817512398010251
5.67325e-06;0.0003878212510964033
5.67350e-06;0.00039389126239178153
5.67375e-06;0.00039996127368718034
5.67400e-06;0.00040603128498255855
5.67425e-06;0.0004121012962779573
5.67450e-06;0.0004181713075733355
5.67475e-06;0.0004231497934025035
5.67500e-06;0.0004269927108004735
5.67525e-06;0.00043083562819843047
5.67550e-06;0.00043467854559638743
5.67575e-06;0.0004385214629943574
5.67600e-06;0.0004423643803923144
5.67625e-06;0.0004462072977902713
5.67650e-06;0.00045005021518824127
5.67675e-06;0.00045389313258619823
5.67700e-06;0.0004577360499841552
5.67725e-06;0.0004615789673821252
5.67750e-06;0.0004646671826377643
5.67775e-06;0.00046697024358022677
5.67800e-06;0.00046927330452269713
5.67825e-06;0.0004715763654651596
5.67850e-06;0.00047387942640762993
5.67875e-06;0.0004761824873500925
5.67900e-06;0.000478485548292555
5.67925e-06;0.0004793142272965207
5.67950e-06;0.0004786090331691739
5.67975e-06;0.00047790383904182713
5.68000e-06;0.00047719864491447796
5.68025e-06;0.0004764934507871312
5.68050e-06;0.00047578825665978435
5.68075e-06;0.0004750830625324352
5.68100e-06;0.00047295030340140825
5.68125e-06;0.0004693323771335012
5.68150e-06;0.00046571445086558195
5.68175e-06;0.0004607334518321095
5.68200e-06;0.0004543343801565173
5.68225e-06;0.00044793530848090336
5.68250e-06;0.0004415362368053111
5.68275e-06;0.00043513716512969723
5.68300e-06;0.000428738093454105
5.68325e-06;0.00042233902177851273
5.68350e-06;0.00041456234421959797
5.68375e-06;0.00040535247449077517
5.68400e-06;0.0003961426047619524
5.68425e-06;0.0003869327350330984
5.68450e-06;0.0003777228653042756
5.68475e-06;0.0003685129955754528
5.68500e-06;0.0003593031258465988
5.68525e-06;0.0003496299775157613
5.68550e-06;0.0003394748573285794
5.68575e-06;0.0003293197371413631
5.68600e-06;0.0003191646169541812
5.68625e-06;0.0003090094967669993
5.68650e-06;0.000298854376579783
5.68675e-06;0.0002895552293604036
5.68700e-06;0.00028026463051949324
5.68725e-06;0.0002709740316786143
5.68750e-06;0.00026168343283773535
5.68775e-06;0.000252392833996825
5.68800e-06;0.00024397747610885092
5.68825e-06;0.0002364726750757862
5.68850e-06;0.00022896787404269603
5.68875e-06;0.0002218671165724538
5.68900e-06;0.0002151867057902681
5.68925e-06;0.00020850629500805977
5.68950e-06;0.0002013702365819893
5.68975e-06;0.00019376014516628973
5.69000e-06;0.00018615005375056438
5.69025e-06;0.0001785399623348648
5.69050e-06;0.0001704973912052038
5.69075e-06;0.0001620048898399213
5.69100e-06;0.0001535123884746676
5.69125e-06;0.0001450198871094139
5.69150e-06;0.0001358408688850743
5.69175e-06;0.00012594763290174727
5.69200e-06;0.00011568269490848386
5.69225e-06;0.00010503105675920002
5.69250e-06;9.41332303061222e-05
5.69275e-06;8.29792818709902e-05
5.69300e-06;7.15799546218661e-05
5.69325e-06;5.970888926675781e-05
5.69350e-06;4.742164724980956e-05
5.69375e-06;3.478465216192598e-05
5.69400e-06;2.187934631319141e-05
5.69425e-06;8.787157263923691e-06
5.69450e-06;-4.412243350443992e-06
5.69475e-06;-1.769288063860933e-05
5.69500e-06;-3.1022216709110105e-05
5.69525e-06;-4.4432005483053204e-05
