Time(s);Current(A)
2.50000e-07;0.002092875342531634
2.50250e-07;0.0021052509524808623
2.50500e-07;0.0021176265624300934
2.50750e-07;0.002130002172379322
2.51000e-07;0.002142377782328553
2.51250e-07;0.002154753392277784
2.51500e-07;0.002165805824863081
2.51750e-07;0.0021727051618626847
2.52000e-07;0.002178001212348924
2.52250e-07;0.0021832972628351628
2.52500e-07;0.0021885933133214026
2.52750e-07;0.002193889363807642
2.53000e-07;0.0021991854142938807
2.53250e-07;0.0022044814647801205
2.53500e-07;0.00220977751526636
2.53750e-07;0.0022150735657525985
2.54000e-07;0.0022203696162388384
2.54250e-07;0.002225665666725077
2.54500e-07;0.0022309617172113164
2.54750e-07;0.0022362577676975563
2.55000e-07;0.0022415538181837944
2.55250e-07;0.0022468498686700343
2.55500e-07;0.002252145919156274
2.55750e-07;0.0022559869990105815
2.56000e-07;0.002253596181073959
2.56250e-07;0.002251205363137336
2.56500e-07;0.0022488145452007136
2.56750e-07;0.002246423727264091
2.57000e-07;0.002244032909327468
2.57250e-07;0.0022416420913908457
2.57500e-07;0.002239251273454223
2.57750e-07;0.0022368604555176
2.58000e-07;0.002234469637580978
2.58250e-07;0.002232078819644355
2.58500e-07;0.002229688001707733
2.58750e-07;0.00222729718377111
2.59000e-07;0.0022249063658344873
2.59250e-07;0.002222515547897865
2.59500e-07;0.002220124729961242
2.59750e-07;0.0022177339120246194
2.60000e-07;0.002214969675305819
2.60250e-07;0.002212037105440061
2.60500e-07;0.0022091045355743023
2.60750e-07;0.0022061719657085446
2.61000e-07;0.0022032393958427866
2.61250e-07;0.002200306825977028
2.61500e-07;0.0021973742561112704
2.61750e-07;0.0021944416862455123
2.62000e-07;0.0021915091163797547
2.62250e-07;0.002188576546513996
2.62500e-07;0.002185643976648238
2.62750e-07;0.0021827114067824805
2.63000e-07;0.002179778836916722
2.63250e-07;0.002176846267050964
2.63500e-07;0.0021739136971852062
2.63750e-07;0.0021709811273194477
2.64000e-07;0.0021680485574536897
2.64250e-07;0.002165115987587932
2.64500e-07;0.0021621834177221735
2.64750e-07;0.0021592508478564154
2.65000e-07;0.002156318277990658
2.65250e-07;0.0021533857081248997
2.65500e-07;0.002150453138259141
2.65750e-07;0.0021475205683933836
2.66000e-07;0.002146803514386488
2.66250e-07;0.002147085190958925
2.66500e-07;0.0021473668675313622
2.66750e-07;0.002147648544103799
2.67000e-07;0.002147930220676236
2.67250e-07;0.002148211897248673
2.67500e-07;0.0021484935738211104
2.67750e-07;0.0021487752503935474
2.68000e-07;0.0021490569269659843
2.68250e-07;0.0021493386035384217
2.68500e-07;0.0021496202801108586
2.68750e-07;0.0021499019566832956
2.69000e-07;0.002150183633255733
2.69250e-07;0.00215046530982817
2.69500e-07;0.002150746986400607
2.69750e-07;0.002151028662973044
2.70000e-07;0.002151310339545481
2.70250e-07;0.002151592016117918
2.70500e-07;0.002151873692690355
2.70750e-07;0.0021521553692627924
2.71000e-07;0.0021524370458352294
2.71250e-07;0.0021527187224076663
2.71500e-07;0.0021530003989801033
2.71750e-07;0.0021532820755525406
2.72000e-07;0.0021543285830851844
2.72250e-07;0.002155719868139925
2.72500e-07;0.0021571111531946655
2.72750e-07;0.0021585024382494056
2.73000e-07;0.0021598937233041457
2.73250e-07;0.0021612850083588863
2.73500e-07;0.0021626762934136264
2.73750e-07;0.002164067578468367
2.74000e-07;0.002165458863523107
2.74250e-07;0.0021668501485778476
2.74500e-07;0.002168241433632588
2.74750e-07;0.0021696327186873283
2.75000e-07;0.002171024003742069
2.75250e-07;0.002172415288796809
2.75500e-07;0.002173806573851549
2.75750e-07;0.0021751978589062896
2.76000e-07;0.00217658914396103
2.76250e-07;0.0021779804290157703
2.76500e-07;0.002179371714070511
2.76750e-07;0.002180762999125251
2.77000e-07;0.0021821542841799916
2.77250e-07;0.0021847021883154875
2.77500e-07;0.002187771483819041
2.77750e-07;0.0021908407793225946
2.78000e-07;0.002193910074826148
2.78250e-07;0.0021969793703297017
2.78500e-07;0.0022000486658332553
2.78750e-07;0.0022031179613368093
2.79000e-07;0.002206187256840363
2.79250e-07;0.0022092565523439164
2.79500e-07;0.0022123258478474704
2.79750e-07;0.0022153951433510235
2.80000e-07;0.0022184644388545775
2.80250e-07;0.0022215337343581315
2.80500e-07;0.0022246030298616846
2.80750e-07;0.0022276723253652386
2.81000e-07;0.0022307416208687926
2.81250e-07;0.0022338109163723458
2.81500e-07;0.0022368802118758998
2.81750e-07;0.002239949507379453
2.82000e-07;0.002243018802883007
2.82250e-07;0.0022460880983865604
2.82500e-07;0.0022517808605590547
2.82750e-07;0.0022586562531224388
2.83000e-07;0.002265531645685823
2.83250e-07;0.0022724070382492056
2.83500e-07;0.0022792824308125897
2.83750e-07;0.0022861578233759738
2.84000e-07;0.0022930332159393566
2.84250e-07;0.0022999086085027406
2.84500e-07;0.002306784001066125
2.84750e-07;0.0023136593936295075
2.85000e-07;0.002320534786192892
2.85250e-07;0.002327410178756276
2.85500e-07;0.002334285571319659
2.85750e-07;0.002341160963883043
2.86000e-07;0.0023502309485507974
2.86250e-07;0.0023687007612204283
2.86500e-07;0.002387170573890059
2.86750e-07;0.002405640386559686
2.87000e-07;0.0024241101992293164
2.87250e-07;0.0024425800118989473
2.87500e-07;0.002461049824568574
2.87750e-07;0.002479519637238205
2.88000e-07;0.0024979894499078353
2.88250e-07;0.0025164592625774623
2.88500e-07;0.002534929075247093
2.88750e-07;0.0025533988879167238
2.89000e-07;0.0025718687005863504
2.89250e-07;0.0025903385132559813
2.89500e-07;0.002608808325925608
2.89750e-07;0.00262647678597248
2.90000e-07;0.0026437840049268985
2.90250e-07;0.0026610912238813136
2.90500e-07;0.0026783984428357323
2.90750e-07;0.002695705661790151
2.91000e-07;0.0027130128807445657
2.91250e-07;0.0027303200996989844
2.91500e-07;0.002747627318653403
2.91750e-07;0.002764934537607818
2.92000e-07;0.002782241756562237
2.92250e-07;0.002799548975516655
2.92500e-07;0.0028168561944710703
2.92750e-07;0.002834163413425489
2.93000e-07;0.0028514706323799076
2.93250e-07;0.002868777851334323
2.93500e-07;0.002886085070288741
2.93750e-07;0.0029014111018512124
2.94000e-07;0.0029082513557209047
2.94250e-07;0.0029150916095905975
2.94500e-07;0.0029219318634602885
2.94750e-07;0.002928772117329981
2.95000e-07;0.002935612371199673
2.95250e-07;0.0029424526250693642
2.95500e-07;0.002949292878939057
2.95750e-07;0.0029561331328087494
2.96000e-07;0.0029629733866784404
2.96250e-07;0.0029698136405481327
2.96500e-07;0.0029766538944178255
2.96750e-07;0.0029834941482875165
2.97000e-07;0.002990334402157209
2.97250e-07;0.0029971746560269012
2.97500e-07;0.0030040149098965923
2.97750e-07;0.003010855163766285
2.98000e-07;0.0030148223503757045
2.98250e-07;0.0030174943893480823
2.98500e-07;0.00302016642832046
2.98750e-07;0.0030228384672928376
2.99000e-07;0.0030255105062652154
2.99250e-07;0.0030281825452375933
2.99500e-07;0.0030308545842099707
2.99750e-07;0.0030335266231823485
3.00000e-07;0.0030361986621547264
3.00250e-07;0.003038870701127104
3.00500e-07;0.0030415427400994816
3.00750e-07;0.0030442147790718595
3.01000e-07;0.0030462872096215917
3.01250e-07;0.0030457914107357696
3.01500e-07;0.0030452956118499474
3.01750e-07;0.0030447998129641248
3.02000e-07;0.0030443040140783026
3.02250e-07;0.0030438082151924804
3.02500e-07;0.0030433124163066583
3.02750e-07;0.003042816617420836
3.03000e-07;0.0030423208185350135
3.03250e-07;0.0030418250196491913
3.03500e-07;0.003041329220763369
3.03750e-07;0.003040833421877547
3.04000e-07;0.0030403376229917243
3.04250e-07;0.0030312800973501847
3.04500e-07;0.0030183630379169864
3.04750e-07;0.003005445978483785
3.05000e-07;0.002992528919050584
3.05250e-07;0.0029796118596173856
3.05500e-07;0.0029666948001841847
3.05750e-07;0.0029537777407509865
3.06000e-07;0.002940860681317785
3.06250e-07;0.002927943621884584
3.06500e-07;0.0029150265624513856
3.06750e-07;0.0029021095030181848
3.07000e-07;0.00288701332982984
3.07250e-07;0.0028625836251598203
3.07500e-07;0.0028381539204897954
3.07750e-07;0.00281372421581977
3.08000e-07;0.0027892945111497505
3.08250e-07;0.0027648648064797256
3.08500e-07;0.0027404351018097007
3.08750e-07;0.002716005397139681
3.09000e-07;0.0026915756924696557
3.09250e-07;0.002667145987799636
3.09500e-07;0.002642716283129611
3.09750e-07;0.0026182865784595863
3.10000e-07;0.0025940134305275195
3.10250e-07;0.0025698108566791214
3.10500e-07;0.0025456082828307237
3.10750e-07;0.0025214057089823303
3.11000e-07;0.002497203135133932
3.11250e-07;0.002473000561285534
3.11500e-07;0.002448797987437141
3.11750e-07;0.002424595413588743
3.12000e-07;0.0024003928397403453
3.12250e-07;0.002377417629949802
3.12500e-07;0.002359699438544142
3.12750e-07;0.0023419812471384815
3.13000e-07;0.002324263055732825
3.13250e-07;0.0023065448643271647
3.13500e-07;0.0022888266729215083
3.13750e-07;0.002271108481515848
3.14000e-07;0.002253390290110188
3.14250e-07;0.0022356720987045313
3.14500e-07;0.0022179539072988714
3.14750e-07;0.002199372165176708
3.15000e-07;0.0021804011437343484
3.15250e-07;0.0021614301222919845
3.15500e-07;0.002142459100849621
3.15750e-07;0.0021234880794072613
3.16000e-07;0.002104517057964898
3.16250e-07;0.002085546036522534
3.16500e-07;0.0020665750150801743
3.16750e-07;0.0020476039936378108
3.17000e-07;0.002028632972195447
3.17250e-07;0.002009661950753087
3.17500e-07;0.0019906909293107237
3.17750e-07;0.0019700509120448646
3.18000e-07;0.0019486585295187151
3.18250e-07;0.0019272661469925659
3.18500e-07;0.001905873764466421
3.18750e-07;0.0018844813819402716
3.19000e-07;0.0018630889994141224
3.19250e-07;0.0018416966168879774
3.19500e-07;0.0018203042343618281
3.19750e-07;0.0017989118518356789
3.20000e-07;0.001777519469309534
3.20250e-07;0.0017561270867833846
3.20500e-07;0.0017347347042572354
3.20750e-07;0.0017164348191136111
3.21000e-07;0.0016995289983321481
3.21250e-07;0.0016826231775506886
3.21500e-07;0.0016657173567692256
3.21750e-07;0.0016488115359877624
3.22000e-07;0.001631905715206303
3.22250e-07;0.00161499989442484
3.22500e-07;0.0015980940736433768
3.22750e-07;0.0015811882528619175
3.23000e-07;0.0015651828231653796
3.23250e-07;0.0015530339285016754
3.23500e-07;0.001540885033837974
3.23750e-07;0.00152873613917427
3.24000e-07;0.0015165872445105659
3.24250e-07;0.0015044383498468645
3.24500e-07;0.0014922894551831602
3.24750e-07;0.0014801405605194562
3.25000e-07;0.0014679916658557547
3.25250e-07;0.0014558427711920507
3.25500e-07;0.0014435167909728236
3.25750e-07;0.0014311109825010594
3.26000e-07;0.0014187051740292955
3.26250e-07;0.0014062993655575339
3.26500e-07;0.0013938935570857697
3.26750e-07;0.0013814877486140057
3.27000e-07;0.001369081940142244
3.27250e-07;0.0013566761316704799
3.27500e-07;0.001344270323198716
3.27750e-07;0.0013318645147269543
3.28000e-07;0.00131945870625519
3.28250e-07;0.0013070528977834261
3.28500e-07;0.0012949027895396146
3.28750e-07;0.0012828679481921288
3.29000e-07;0.0012708331068446456
3.29250e-07;0.0012587982654971598
3.29500e-07;0.001246763424149674
3.29750e-07;0.0012347285828021909
3.30000e-07;0.001222693741454705
3.30250e-07;0.0012106589001072193
3.30500e-07;0.001198624058759736
3.30750e-07;0.0011865892174122501
3.31000e-07;0.0011745543760647644
3.31250e-07;0.0011625195347172812
3.31500e-07;0.0011520707516183676
3.31750e-07;0.001142336946418282
3.32000e-07;0.0011326031412181986
3.32250e-07;0.001122869336018113
3.32500e-07;0.0011159276376848436
3.32750e-07;0.001110244590919219
3.33000e-07;0.001104561544153593
3.33250e-07;0.0010988784973879684
3.33500e-07;0.0010986305733158737
3.33750e-07;0.0011008327437512131
3.34000e-07;0.0011070188065217842
3.34250e-07;0.001115000764855188
3.34500e-07;0.00112670999919108
3.34750e-07;0.001140099449223341
3.35000e-07;0.0011578173138624551
3.35250e-07;0.0011774863809770467
3.35500e-07;0.0012019894321808008
3.35750e-07;0.0012286715911128906
3.36000e-07;0.0012605645541149367
3.36250e-07;0.0012948064912158168
3.36500e-07;0.0013290484283167041
3.36750e-07;0.0013687196972589064
3.37000e-07;0.001410838450255033
3.37250e-07;0.00145295720325116
3.37500e-07;0.001499470504258616
3.37750e-07;0.0015479648199648094
3.38000e-07;0.0015899536949805118
3.38250e-07;0.0016115206298574181
3.38500e-07;0.0013536615391959315
3.38750e-07;-0.0024914534988291874
3.39000e-07;-0.006950474947029886
3.39250e-07;-0.007954924042185441
3.39500e-07;-0.006420035144681827
3.39750e-07;-0.0032447013132742503
3.40000e-07;0.00022853335029435142
3.40250e-07;0.0018017922997710318
3.40500e-07;0.0013862370298252107
3.40750e-07;-0.000747807616612806
3.41000e-07;-0.0031663039749123996
3.41250e-07;-0.003944458402068889
3.41500e-07;-0.003032614787863491
3.41750e-07;-0.0009759947181704816
3.42000e-07;0.0011768320951292329
3.42250e-07;0.002256774519134277
3.42500e-07;0.002048409338823488
3.42750e-07;0.0007178008943602657
3.43000e-07;-0.0010247722255199007
3.43250e-07;-0.00170904553843408
3.43500e-07;-0.0009771909462484565
3.43750e-07;0.000615347983235358
3.44000e-07;0.002189018590978962
3.44250e-07;0.003319351131719407
3.44500e-07;0.0034533227276854314
3.44750e-07;0.0025882122058846274
3.45000e-07;0.0015491770034253168
3.45250e-07;0.0007797256344509085
3.45500e-07;0.0008994358747725976
3.45750e-07;0.001854191395638462
3.46000e-07;0.002831847059865013
3.46250e-07;0.003532188771373168
3.46500e-07;0.0036079641563747083
3.46750e-07;0.003057582499042178
3.47000e-07;0.00239800973902955
3.47250e-07;0.0019071094182473794
3.47500e-07;0.001973002888922333
3.47750e-07;0.0025617927760470597
3.48000e-07;0.0031647766479304036
3.48250e-07;0.0035939562676506813
3.48500e-07;0.0036318858733574407
3.48750e-07;0.0032776509245906952
3.49000e-07;0.0028551441192609943
3.49250e-07;0.002538461963048237
3.49500e-07;0.0025707460601557966
3.49750e-07;0.002930775433346327
3.50000e-07;0.0032999267271625866
3.50250e-07;0.0035604847719729613
3.50500e-07;0.003576299949571325
3.50750e-07;0.003346862823282721
3.51000e-07;0.0030751138858977852
3.51250e-07;0.002870145966332241
3.51500e-07;0.0028842903860463384
3.51750e-07;0.0031042747247562925
3.52000e-07;0.0033305440954135407
3.52250e-07;0.0034894043361088562
3.52500e-07;0.0034956210067550973
3.52750e-07;0.003348594044021994
3.53000e-07;0.003173790042028216
3.53250e-07;0.003037099246857423
3.53500e-07;0.0030328277160906617
3.53750e-07;0.0031527732451706327
3.54000e-07;0.0032721974830629097
3.54250e-07;0.0033452132756974845
3.54500e-07;0.003318708776942282
3.54750e-07;0.0031925903478400683
3.55000e-07;0.0030457274505381977
3.55250e-07;0.0029196660146852795
3.55500e-07;0.0028737470850095145
3.55750e-07;0.0029030982104639364
3.56000e-07;0.0029298525073438355
3.56250e-07;0.0029255394454705853
3.56500e-07;0.00285716707186561
3.56750e-07;0.0027249543409837364
3.57000e-07;0.002578581143022656
3.57250e-07;0.00244434368330907
3.57500e-07;0.002359682779681872
3.57750e-07;0.0023218138094803914
3.58000e-07;0.002282231161105028
3.58250e-07;0.0022233744862331178
3.58500e-07;0.002124851814106414
3.58750e-07;0.0019870765065674784
3.59000e-07;0.001841442114206427
3.59250e-07;0.0017046926714753545
3.59500e-07;0.0016005513969738208
3.59750e-07;0.0015275431665099965
3.60000e-07;0.0014555547254591916
3.60250e-07;0.001373858895507272
3.60500e-07;0.0012699560098393926
3.60750e-07;0.0011443789022037199
3.61000e-07;0.0010170658335870077
3.61250e-07;0.0008987771088957947
3.61500e-07;0.0008046435132213815
3.61750e-07;0.000734011185265186
3.62000e-07;0.0006682881049132152
3.62250e-07;0.0006010267894478707
3.62500e-07;0.000524670286258359
3.62750e-07;0.00043982671031510197
3.63000e-07;0.0003592036673657013
3.63250e-07;0.0002895696900531698
3.63500e-07;0.0002402169715818938
3.63750e-07;0.0002104619070488939
3.64000e-07;0.0001883779031492652
3.64250e-07;0.0001696462995918915
3.64500e-07;0.0001492537514467379
3.64750e-07;0.00012730184785007966
3.65000e-07;0.00011147082140406249
3.65250e-07;0.00010572019196406443
3.65500e-07;0.00011558983796680338
3.65750e-07;0.00014037053834624626
3.66000e-07;0.00017231091327440828
3.66250e-07;0.0002084255998368267
3.66500e-07;0.0002452944068521531
3.66750e-07;0.0002827013060686426
3.67000e-07;0.0003251772289187624
3.67250e-07;0.0003749222121890647
3.67500e-07;0.00043512591684551094
3.67750e-07;0.0005050635005703949
3.68000e-07;0.0005795991812304634
3.68250e-07;0.0006565828520190238
3.68500e-07;0.0007335923231744451
3.68750e-07;0.0008102124635794206
3.69000e-07;0.0008905684770937416
3.69250e-07;0.0009711537531032395
3.69500e-07;0.0010600788202351984
3.69750e-07;0.0011495125047146437
3.70000e-07;0.0012399633089259358
3.70250e-07;0.001330476144036163
3.70500e-07;0.0014209889791463903
3.70750e-07;0.0015048154758952016
3.71000e-07;0.0015882341941239391
3.71250e-07;0.0016716529123526767
3.71500e-07;0.0017522974515540145
3.71750e-07;0.0018327728023958944
3.72000e-07;0.0019062689625168239
3.72250e-07;0.0019793394839832425
3.72500e-07;0.002040412824110696
3.72750e-07;0.00210075449428856
3.73000e-07;0.0021534907444336004
3.73250e-07;0.002205763164189258
3.73500e-07;0.0022580355839449044
3.73750e-07;0.002305824303970156
3.74000e-07;0.002353339577402996
3.74250e-07;0.002400854850835826
3.74500e-07;0.002448370124268666
3.74750e-07;0.002495885397701506
3.75000e-07;0.0025407051310095525
3.75250e-07;0.0025821290468102756
3.75500e-07;0.002623552962610999
3.75750e-07;0.0026649768784117135
3.76000e-07;0.0027064007942124366
3.76250e-07;0.002747824710013151
3.76500e-07;0.0027854868384455836
3.76750e-07;0.002822919547425532
3.77000e-07;0.002860352256405473
3.77250e-07;0.002897784965385422
3.77500e-07;0.0029352176743653704
3.77750e-07;0.002972650383345311
3.78000e-07;0.0030100830923252596
3.78250e-07;0.0030475158013052086
3.78500e-07;0.0030849485102851493
3.78750e-07;0.003122381219265098
3.79000e-07;0.003159813928245047
3.79250e-07;0.0031941709100874877
3.79500e-07;0.003224653118200795
3.79750e-07;0.0032551353263141026
3.80000e-07;0.0032856175344274036
3.80250e-07;0.003316099742540711
3.80500e-07;0.0033465819506540125
3.80750e-07;0.00337706415876732
3.81000e-07;0.0034075463668806275
3.81250e-07;0.0034380285749939284
3.81500e-07;0.003468510783107236
3.81750e-07;0.0034989929912205434
3.82000e-07;0.003529475199333845
3.82250e-07;0.003543215584986244
3.82500e-07;0.0035559349401106926
3.82750e-07;0.003568654295235138
3.83000e-07;0.0035813736503595866
3.83250e-07;0.003594093005484035
3.83500e-07;0.0036068123606084806
3.83750e-07;0.003619531715732929
3.84000e-07;0.0036322510708573777
3.84250e-07;0.003644970425981823
3.84500e-07;0.0036576897811062717
3.84750e-07;0.0036704091362307176
3.85000e-07;0.0036831284913551657
3.85250e-07;0.003695847846479614
3.85500e-07;0.00370856720160406
3.85750e-07;0.0037055440691171827
3.86000e-07;0.003701560852357833
3.86250e-07;0.003697577635598484
3.86500e-07;0.0036935944188391345
3.86750e-07;0.003689611202079785
3.87000e-07;0.003685627985320436
3.87250e-07;0.0036816447685610863
3.87500e-07;0.0036776615518017367
3.87750e-07;0.0036736783350423876
3.88000e-07;0.003669695118283038
3.88250e-07;0.0036657119015236894
3.88500e-07;0.0036617286847643394
3.88750e-07;0.00365774546800499
3.89000e-07;0.003653762251245641
3.89250e-07;0.0036445239781354843
3.89500e-07;0.003634965215844836
3.89750e-07;0.00362540645355419
3.90000e-07;0.003615847691263542
3.90250e-07;0.003606288928972894
3.90500e-07;0.003596730166682248
3.90750e-07;0.0035871714043915997
3.91000e-07;0.003577612642100952
3.91250e-07;0.0035680538798103056
3.91500e-07;0.0035584951175196577
3.91750e-07;0.0035489363552290098
3.92000e-07;0.0035393775929383636
3.92250e-07;0.0035298188306477156
3.92500e-07;0.0035202600683570695
3.92750e-07;0.003509874773661602
3.93000e-07;0.0034994390713823918
3.93250e-07;0.003489003369103184
3.93500e-07;0.0034785676668239738
3.93750e-07;0.0034681319645447637
3.94000e-07;0.003457696262265556
3.94250e-07;0.003447260559986346
3.94500e-07;0.003436824857707136
3.94750e-07;0.003426389155427928
3.95000e-07;0.003415953453148718
3.95250e-07;0.003405517750869508
3.95500e-07;0.0033950820485903
3.95750e-07;0.00338464634631109
3.96000e-07;0.003374210644031882
3.96250e-07;0.0033581260219941143
3.96500e-07;0.003341696890298735
3.96750e-07;0.0033252677586033583
3.97000e-07;0.0033088386269079784
3.97250e-07;0.003292409495212599
3.97500e-07;0.0032759803635172224
3.97750e-07;0.0032595512318218424
3.98000e-07;0.003243122100126463
3.98250e-07;0.0032266929684310864
