Time(s);Current(A)
1.50000e-06;0.010070221508065863
1.50025e-06;0.01007031339855989
1.50050e-06;0.01007040528905392
1.50075e-06;0.010070497179547949
1.50100e-06;0.010070589070041977
1.50125e-06;0.010070680960536007
1.50150e-06;0.010070772851030035
1.50175e-06;0.010064071949813874
1.50200e-06;0.010053801208045684
1.50225e-06;0.010043530466277503
1.50250e-06;0.010033259724509322
1.50275e-06;0.010022988982741132
1.50300e-06;0.01001271824097295
1.50325e-06;0.01000244749920476
1.50350e-06;0.009992176757436579
1.50375e-06;0.00997669838590216
1.50400e-06;0.00995848322974185
1.50425e-06;0.009940268073581554
1.50450e-06;0.009922052917421244
1.50475e-06;0.009903837761260949
1.50500e-06;0.009885622605100654
1.50525e-06;0.009867407448940343
1.50550e-06;0.009849192292780048
1.50575e-06;0.009829365030123759
1.50600e-06;0.00980869055127289
1.50625e-06;0.009788016072422006
1.50650e-06;0.009767341593571137
1.50675e-06;0.00974666711472027
1.50700e-06;0.009725992635869386
1.50725e-06;0.009705318157018517
1.50750e-06;0.009684643678167633
1.50775e-06;0.009663969199316766
1.50800e-06;0.009644487481540308
1.50825e-06;0.009631483081312099
1.50850e-06;0.0096184786810839
1.50875e-06;0.00960547428085569
1.50900e-06;0.009592469880627492
1.50925e-06;0.009579465480399294
1.50950e-06;0.009566461080171083
1.50975e-06;0.009553456679942885
1.51000e-06;0.009540452279714675
1.51025e-06;0.009527447879486476
1.51050e-06;0.009524078986804768
1.51075e-06;0.009525773877475247
1.51100e-06;0.009527468768145725
1.51125e-06;0.009529163658816203
1.51150e-06;0.009530858549486682
1.51175e-06;0.009532553440157162
1.51200e-06;0.00953424833082764
1.51225e-06;0.009535943221498118
1.51250e-06;0.009546313552366516
1.51275e-06;0.00956124311889889
1.51300e-06;0.009576172685431275
1.51325e-06;0.009591102251963649
1.51350e-06;0.009606031818496022
1.51375e-06;0.00962096138502841
1.51400e-06;0.009635890951560783
1.51425e-06;0.009650820518093168
1.51450e-06;0.009671639526961316
1.51475e-06;0.009695553635896489
1.51500e-06;0.009719467744831643
1.51525e-06;0.0097433818537668
1.51550e-06;0.009767295962701972
1.51575e-06;0.009791210071637127
1.51600e-06;0.009815124180572302
1.51625e-06;0.009839038289507456
1.51650e-06;0.00986295239844261
1.51675e-06;0.009886807813757763
1.51700e-06;0.009910344491965314
1.51725e-06;0.009933881170172883
1.51750e-06;0.009957417848380432
1.51775e-06;0.00998095452658798
1.51800e-06;0.01000449120479555
1.51825e-06;0.010028027883003098
1.51850e-06;0.010051564561210667
1.51875e-06;0.010075101239418217
1.51900e-06;0.010098637917625785
1.51925e-06;0.010117505506342982
1.51950e-06;0.010133919331465915
1.51975e-06;0.010150333156588864
1.52000e-06;0.010166746981711798
1.52025e-06;0.010183160806834747
1.52050e-06;0.010199574631957682
1.52075e-06;0.010215988457080615
1.52100e-06;0.010232402282203564
1.52125e-06;0.010248816107326498
1.52150e-06;0.010264880042248624
1.52175e-06;0.01027904389006524
1.52200e-06;0.010293207737881857
1.52225e-06;0.010307371585698487
1.52250e-06;0.010321535433515104
1.52275e-06;0.010335699281331732
1.52300e-06;0.01034986312914835
1.52325e-06;0.01036402697696498
1.52350e-06;0.010378190824781596
1.52375e-06;0.010392354672598214
1.52400e-06;0.010406042782695074
1.52425e-06;0.010419480876616486
1.52450e-06;0.01043291897053791
1.52475e-06;0.010446357064459323
1.52500e-06;0.010459795158380735
1.52525e-06;0.010473233252302159
1.52550e-06;0.01048667134622357
1.52575e-06;0.010500109440144994
1.52600e-06;0.010513547534066406
1.52625e-06;0.010526985627987817
1.52650e-06;0.010540423721909241
1.52675e-06;0.01055345265667312
1.52700e-06;0.010564259642844395
1.52725e-06;0.010575066629015662
1.52750e-06;0.010585873615186939
1.52775e-06;0.010596680601358205
1.52800e-06;0.010607487587529472
1.52825e-06;0.010618294573700747
1.52850e-06;0.010629101559872014
1.52875e-06;0.01063990854604329
1.52900e-06;0.010650715532214557
1.52925e-06;0.010661522518385824
1.52950e-06;0.010672329504557099
1.52975e-06;0.010681887888880616
1.53000e-06;0.010690790090930515
1.53025e-06;0.010699692292980406
1.53050e-06;0.010709263439119472
1.53075e-06;0.010719186137880506
1.53100e-06;0.010729108836641531
1.53125e-06;0.010739031535402566
1.53150e-06;0.010748954234163593
1.53175e-06;0.010758876932924627
1.53200e-06;0.010768799631685652
1.53225e-06;0.01077872233044668
1.53250e-06;0.010788645029207714
1.53275e-06;0.01079856772796874
1.53300e-06;0.010808490426729774
1.53325e-06;0.0108184131254908
1.53350e-06;0.01082961546153794
1.53375e-06;0.010841490290025586
1.53400e-06;0.01085336511851322
1.53425e-06;0.010865239947000864
1.53450e-06;0.010877114775488498
1.53475e-06;0.010888989603976133
1.53500e-06;0.010900864432463778
1.53525e-06;0.010912739260951413
1.53550e-06;0.010924614089439058
1.53575e-06;0.010936488917926692
1.53600e-06;0.010948363746414337
1.53625e-06;0.010960238574901972
1.53650e-06;0.010972081019685954
1.53675e-06;0.010983906445744299
1.53700e-06;0.010995731871802633
1.53725e-06;0.011007557297860978
1.53750e-06;0.011019382723919315
1.53775e-06;0.011030970078399007
1.53800e-06;0.011041264579476061
1.53825e-06;0.011051559080553108
1.53850e-06;0.011061853581630162
1.53875e-06;0.011072148082707208
1.53900e-06;0.011082442583784255
1.53925e-06;0.011090889761527657
1.53950e-06;0.011098366108715813
1.53975e-06;0.011105842455903974
1.54000e-06;0.011106963996650752
1.54025e-06;0.01110474587283881
1.54050e-06;0.011102527749026867
1.54075e-06;0.011100309625214926
1.54100e-06;0.01109809150140298
1.54125e-06;0.01109587337759104
1.54150e-06;0.01109137483014945
1.54175e-06;0.011074492387638406
1.54200e-06;0.011057609945127361
1.54225e-06;0.011040727502616303
1.54250e-06;0.01102384506010526
1.54275e-06;0.011006962617594202
1.54300e-06;0.010990080175083157
1.54325e-06;0.010964033418091662
1.54350e-06;0.010933170505555966
1.54375e-06;0.010902307593020296
1.54400e-06;0.010871444680484602
1.54425e-06;0.010840581767948932
1.54450e-06;0.010809718855413264
1.54475e-06;0.010778855942877568
1.54500e-06;0.01074674246596067
1.54525e-06;0.010707837769257681
1.54550e-06;0.010668933072554726
1.54575e-06;0.010630028375851738
1.54600e-06;0.010591123679148783
1.54625e-06;0.010552218982445828
1.54650e-06;0.01051331428574284
1.54675e-06;0.010474409589039887
1.54700e-06;0.010435709976176913
1.54725e-06;0.010397118141770856
1.54750e-06;0.010358526307364797
1.54775e-06;0.010321956821839524
1.54800e-06;0.010286450148682309
1.54825e-06;0.010250943475525062
1.54850e-06;0.01021814462943392
1.54875e-06;0.010186768837556412
1.54900e-06;0.01015842870571406
1.54925e-06;0.010131683915338828
1.54950e-06;0.010109962539463231
1.54975e-06;0.010090881136893222
1.55000e-06;0.01007960484514269
1.55025e-06;0.010072430401689139
1.55050e-06;0.010079009375450839
1.55075e-06;0.010092816232619524
1.55100e-06;0.010106623089788198
1.55125e-06;0.010120429946956885
1.55150e-06;0.01013423680412556
1.55175e-06;0.010168889930995585
1.55200e-06;0.010214498473855178
1.55225e-06;0.010260107016714731
1.55250e-06;0.010305715559574324
1.55275e-06;0.01035132410243388
1.55300e-06;0.010418333812563902
1.55325e-06;0.010496590556022575
1.55350e-06;0.010574847299481181
1.55375e-06;0.010653104042939853
1.55400e-06;0.010731360786398459
1.55425e-06;0.010809617529857133
1.55450e-06;0.010891712716451065
1.55475e-06;0.010994652660305682
1.55500e-06;0.011097592604160388
1.55525e-06;0.011200532548015008
1.55550e-06;0.011303472491869714
1.55575e-06;0.011406412435724331
1.55600e-06;0.01150935237957895
1.55625e-06;0.011616895666231978
1.55650e-06;0.01172685816438026
1.55675e-06;0.011836820662528636
1.55700e-06;0.011945033293699007
1.55725e-06;0.012052326310907583
1.55750e-06;0.012159619328116251
1.55775e-06;0.012261923423493158
1.55800e-06;0.01236160567262206
1.55825e-06;0.012461287921750878
1.55850e-06;0.012554134822949235
1.55875e-06;0.012643389518871371
1.55900e-06;0.012722753365912451
1.55925e-06;0.012796919239142017
1.55950e-06;0.012871085112371521
1.55975e-06;0.012930205873927784
1.56000e-06;0.012981419923187605
1.56025e-06;0.013032633972447428
1.56050e-06;0.01306320139570401
1.56075e-06;0.013082918322450909
1.56100e-06;0.013102635249197825
1.56125e-06;0.013122352175944726
1.56150e-06;0.01313605096718196
1.56175e-06;0.013117068129584415
1.56200e-06;0.013098085291986888
1.56225e-06;0.013079102454389344
1.56250e-06;0.013060119616791818
1.56275e-06;0.013023940912306338
1.56300e-06;0.012978725201308756
1.56325e-06;0.012923955936989502
1.56350e-06;0.012864165959021713
1.56375e-06;0.012795624000708926
1.56400e-06;0.012722482582311437
1.56425e-06;0.012643500608950201
1.56450e-06;0.012557997518715317
1.56475e-06;0.012467563278999304
1.56500e-06;0.0123727058126144
1.56525e-06;0.01227393298002044
1.56550e-06;0.012171749620405126
1.56575e-06;0.012066679404608484
1.56600e-06;0.011959303919495186
1.56625e-06;0.011850257538587702
1.56650e-06;0.011740193667148263
1.56675e-06;0.011629768566759284
1.56700e-06;0.011519637598856282
1.56725e-06;0.011410454262229999
1.56750e-06;0.011302871414005143
1.56775e-06;0.011197554121100446
1.56800e-06;0.0110952019496186
1.56825e-06;0.010996549370134275
1.56850e-06;0.010902342661686736
1.56875e-06;0.010813328134491037
1.56900e-06;0.010732510284576061
1.56925e-06;0.010655013536158445
1.56950e-06;0.010588636755885554
1.56975e-06;0.01052810389294413
1.57000e-06;0.010467571030002705
1.57025e-06;0.010423390472847837
1.57050e-06;0.010387803602468921
1.57075e-06;0.010352216732089976
1.57100e-06;0.010316629861711063
1.57125e-06;0.01028589236154851
1.57150e-06;0.010281489482336871
1.57175e-06;0.010277086603125233
1.57200e-06;0.010272683723913592
1.57225e-06;0.010268280844701954
1.57250e-06;0.010286547444271316
1.57275e-06;0.010316727617532141
1.57300e-06;0.010346907790792965
1.57325e-06;0.010377087964053816
1.57350e-06;0.010407268137314641
1.57375e-06;0.010437448310575493
1.57400e-06;0.010467628483836316
1.57425e-06;0.010517728587170634
1.57450e-06;0.010578297283856885
1.57475e-06;0.010638865980543083
1.57500e-06;0.010699434677229334
1.57525e-06;0.010760003373915535
1.57550e-06;0.010820572070601735
1.57575e-06;0.010881140767287986
1.57600e-06;0.010949103628012902
1.57625e-06;0.011020952370676823
1.57650e-06;0.011092801113340683
1.57675e-06;0.011165447562546494
1.57700e-06;0.01123851323337452
1.57725e-06;0.011311578904202544
1.57750e-06;0.011382823687750825
1.57775e-06;0.01145311153377963
1.57800e-06;0.011523399379808496
1.57825e-06;0.011588799441799115
1.57850e-06;0.011651630808854691
1.57875e-06;0.01171446217591032
1.57900e-06;0.011764611956702663
1.57925e-06;0.011808097137310562
1.57950e-06;0.011851582317918427
1.57975e-06;0.01189506749852629
1.58000e-06;0.011938552679134191
1.58025e-06;0.011982037859742055
1.58050e-06;0.012025523040349956
1.58075e-06;0.012050966767692269
1.58100e-06;0.012066929104436862
1.58125e-06;0.012082891441181444
1.58150e-06;0.012098853777926025
1.58175e-06;0.012114816114670619
1.58200e-06;0.0121307784514152
1.58225e-06;0.012146740788159796
1.58250e-06;0.01214534315770023
1.58275e-06;0.012134822280493203
1.58300e-06;0.012124301403286167
1.58325e-06;0.012113780526079141
1.58350e-06;0.012103259648872105
1.58375e-06;0.012092738771665078
1.58400e-06;0.01208221789445805
1.58425e-06;0.012071697017251014
1.58450e-06;0.012058344488987793
1.58475e-06;0.012029614611936586
1.58500e-06;0.0120008847348854
1.58525e-06;0.011972154857834193
1.58550e-06;0.01194342498078301
1.58575e-06;0.011914695103731826
1.58600e-06;0.011885965226680617
1.58625e-06;0.011857235349629434
1.58650e-06;0.011828505472578226
1.58675e-06;0.011797036615530448
1.58700e-06;0.011764128332356408
1.58725e-06;0.011731220049182343
1.58750e-06;0.01169909929772187
1.58775e-06;0.01166739242066906
1.58800e-06;0.011635685543616277
1.58825e-06;0.011606486965246032
1.58850e-06;0.011578606582211461
1.58875e-06;0.011550726199176914
1.58900e-06;0.011526402529137112
1.58925e-06;0.011503948031422274
1.58950e-06;0.01148149353370742
1.58975e-06;0.01145880725340298
1.59000e-06;0.011435999163550647
1.59025e-06;0.011413191073698295
1.59050e-06;0.01138778535017058
1.59075e-06;0.011361014482763233
1.59100e-06;0.011334243615355911
1.59125e-06;0.01130747274794859
1.59150e-06;0.011280701880541245
1.59175e-06;0.011249407284453632
1.59200e-06;0.01121573531676838
1.59225e-06;0.011182063349083157
1.59250e-06;0.011148391381397935
1.59275e-06;0.011114719413712684
1.59300e-06;0.011075843937065712
1.59325e-06;0.01103423384141572
1.59350e-06;0.010992623745765762
1.59375e-06;0.010951013650115768
1.59400e-06;0.01090940355446581
1.59425e-06;0.010867793458815852
1.59450e-06;0.01082218842031441
1.59475e-06;0.010774483904956599
1.59500e-06;0.010726779389598746
1.59525e-06;0.010679074874240933
1.59550e-06;0.010631370358883122
1.59575e-06;0.01058366584352527
1.59600e-06;0.010535007743255354
1.59625e-06;0.01048584850203595
1.59650e-06;0.01043668926081659
1.59675e-06;0.010388539159072072
1.59700e-06;0.01034091939406851
1.59725e-06;0.010293299629064988
1.59750e-06;0.010248092315861044
1.59775e-06;0.010204152827231545
1.59800e-06;0.010160213338602007
1.59825e-06;0.010118996125295111
1.59850e-06;0.01007920955924625
1.59875e-06;0.01004254961619823
1.59900e-06;0.010007532818715262
1.59925e-06;0.009976749462060066
1.59950e-06;0.00994819092097077
1.59975e-06;0.009928410306039458
1.60000e-06;0.009913242786589258
1.60025e-06;0.00989807526713907
1.60050e-06;0.009899622178700464
1.60075e-06;0.009909953086023607
1.60100e-06;0.00992028399334675
1.60125e-06;0.009930614900669902
1.60150e-06;0.009940945807993044
1.60175e-06;0.009956605716276691
1.60200e-06;0.01000120489172988
1.60225e-06;0.010045804067183108
1.60250e-06;0.010090403242636298
1.60275e-06;0.010135002418089487
1.60300e-06;0.010179601593542713
1.60325e-06;0.010246587019318609
1.60350e-06;0.0103253371727013
1.60375e-06;0.010404087326083923
1.60400e-06;0.010482837479466546
1.60425e-06;0.010561587632849237
1.60450e-06;0.01064033778623186
1.60475e-06;0.010719087939614552
1.60500e-06;0.010801220608862528
1.60525e-06;0.010901722111416145
1.60550e-06;0.011002223613969846
1.60575e-06;0.011102725116523462
1.60600e-06;0.011203226619077163
1.60625e-06;0.01130372812163078
1.60650e-06;0.011404229624184482
1.60675e-06;0.011504731126738098
1.60700e-06;0.011605483337062041
1.60725e-06;0.011706367302753058
1.60750e-06;0.011807251268443989
1.60775e-06;0.011903512606123079
1.60800e-06;0.011997344597279021
1.60825e-06;0.012091176588434964
1.60850e-06;0.012176757811289183
1.60875e-06;0.012258002977849198
1.60900e-06;0.01233924814440928
1.60925e-06;0.012410671549171613
1.60950e-06;0.012476933287710355
1.60975e-06;0.012543195026249154
1.61000e-06;0.012605755323958127
1.61025e-06;0.01266637038999659
1.61050e-06;0.012725111981901741
1.61075e-06;0.012781893529482613
1.61100e-06;0.01282744872637539
1.61125e-06;0.010257733927182665
1.61150e-06;0.003020780032350713
1.61175e-06;0.0008077392421443115
1.61200e-06;0.0023129898187690128
1.61225e-06;0.005171768323048774
1.61250e-06;0.010387177074976321
1.61275e-06;0.013615956715457582
1.61300e-06;0.01343838506926631
1.61325e-06;0.011848673163133892
1.61350e-06;0.008359472416644875
1.61375e-06;0.0058593646117855265
1.61400e-06;0.006648264031501441
1.61425e-06;0.00874501820136465
1.61450e-06;0.011462530965622598
1.61475e-06;0.013907839817994365
1.61500e-06;0.01446620385542548
1.61525e-06;0.013257756488792611
1.61550e-06;0.012278353590155971
1.61575e-06;0.010642764252441785
1.61600e-06;0.01035360938659322
1.61625e-06;0.011396973857425736
1.61650e-06;0.012642324244396246
1.61675e-06;0.014066108919225582
1.61700e-06;0.0145722658821721
1.61725e-06;0.014153868554573608
1.61750e-06;0.013413155268865008
1.61775e-06;0.012386635707885462
1.61800e-06;0.012203578079647037
1.61825e-06;0.012855079837994825
1.61850e-06;0.013632833596972408
1.61875e-06;0.01452198161832475
1.61900e-06;0.014835883966377689
1.61925e-06;0.014570104685645494
1.61950e-06;0.01410115830436343
1.61975e-06;0.013450190138008947
1.62000e-06;0.013323016106144005
1.62025e-06;0.01371368921982669
1.62050e-06;0.014178763126435233
1.62075e-06;0.014709191648962616
1.62100e-06;0.01487514735526175
1.62125e-06;0.01467415559844511
1.62150e-06;0.014342360659880265
1.62175e-06;0.013893293378323011
1.62200e-06;0.013769339632905454
1.62225e-06;0.013967024949866534
1.62250e-06;0.014208832835345072
1.62275e-06;0.014489373101462564
1.62300e-06;0.01453968981454411
1.62325e-06;0.014358534846455905
1.62350e-06;0.014094122507394271
1.62375e-06;0.013755217448180541
1.62400e-06;0.01361920705288797
1.62425e-06;0.013684175891709897
1.62450e-06;0.013776561947143409
1.62475e-06;0.013893269643094222
1.62500e-06;0.013866112496486378
1.62525e-06;0.013694605778166063
1.62550e-06;0.013471884424319003
1.62575e-06;0.013203725339363068
1.62600e-06;0.013064164654838048
1.62625e-06;0.013052275446305982
1.62650e-06;0.013059616245602262
1.62675e-06;0.013084530125060882
1.62700e-06;0.01302195447253758
1.62725e-06;0.012871878502989797
1.62750e-06;0.012692930437995978
1.62775e-06;0.012489018615074855
1.62800e-06;0.012369439297084703
1.62825e-06;0.012333890727803552
1.62850e-06;0.012314725399081121
1.62875e-06;0.012311188683909043
1.62900e-06;0.012257757493811024
1.62925e-06;0.012154623773639767
1.62950e-06;0.012037872301431683
1.62975e-06;0.011907855224180659
1.63000e-06;0.011830923882023281
1.63025e-06;0.011806183549072721
1.63050e-06;0.011791281690593697
1.63075e-06;0.011785771314362084
1.63100e-06;0.011748635641277162
1.63125e-06;0.01168002486461967
1.63150e-06;0.011602568878142695
1.63175e-06;0.011516516266609137
1.63200e-06;0.011463454917423675
1.63225e-06;0.011442846849180104
1.63250e-06;0.011428187764880962
1.63275e-06;0.011419223135637249
1.63300e-06;0.011390286823326184
1.63325e-06;0.011341500395033028
1.63350e-06;0.01128706763788576
1.63375e-06;0.011227171548746114
1.63400e-06;0.011187887950848355
1.63425e-06;0.011168903143786883
1.63450e-06;0.011153641535551827
1.63475e-06;0.011141968621875735
1.63500e-06;0.011117833803992389
1.63525e-06;0.011081343140353566
1.63550e-06;0.0110414179573065
1.63575e-06;0.010998200303603793
1.63600e-06;0.01096805077227753
1.63625e-06;0.010950797157070317
1.63650e-06;0.010936082407182786
1.63675e-06;0.010923849110005239
1.63700e-06;0.010904069400001796
1.63725e-06;0.010876836360799544
1.63750e-06;0.010847764972503796
1.63775e-06;0.010816972207205424
1.63800e-06;0.010794730319250321
1.63825e-06;0.010780959500260806
1.63850e-06;0.010769195578673136
1.63875e-06;0.010759429617613111
1.63900e-06;0.010745407326742598
1.63925e-06;0.010727274852676886
1.63950e-06;0.010709208696156589
1.63975e-06;0.01069284931755467
1.64000e-06;0.010686032674837993
1.64025e-06;0.010688993001549794
1.64050e-06;0.010697434631979832
1.64075e-06;0.010711100421726091
1.64100e-06;0.010725825090330413
1.64125e-06;0.01074145119742651
1.64150e-06;0.010760346140435847
1.64175e-06;0.010783287962883217
1.64200e-06;0.010814934527549686
1.64225e-06;0.010855185193628967
1.64250e-06;0.01090125053024035
1.64275e-06;0.010953347783741765
1.64300e-06;0.011005826071725391
1.64325e-06;0.01106194317890765
1.64350e-06;0.011124604734813788
1.64375e-06;0.011187266290719977
1.64400e-06;0.011251319676151743
1.64425e-06;0.011326132373152734
1.64450e-06;0.011406752311824322
1.64475e-06;0.011487372250495911
1.64500e-06;0.011568411864410311
1.64525e-06;0.011652450688253314
1.64550e-06;0.011737143569845994
1.64575e-06;0.011826510676402885
1.64600e-06;0.011915877782959853
1.64625e-06;0.012005244889516747
1.64650e-06;0.012094611996073638
1.64675e-06;0.012183617617172262
1.64700e-06;0.01227003988174822
1.64725e-06;0.012356462146324252
1.64750e-06;0.01244288441090021
1.64775e-06;0.012529306675476169
1.64800e-06;0.012614790735526253
1.64825e-06;0.012693569915129115
1.64850e-06;0.012770384440700602
1.64875e-06;0.012833158562461923
1.64900e-06;0.012895932684223245
1.64925e-06;0.01295870680598462
1.64950e-06;0.013021480927745943
1.64975e-06;0.013081550333453497
1.65000e-06;0.013122290480686506
1.65025e-06;0.013163030627919514
1.65050e-06;0.013203770775152559
1.65075e-06;0.013244510922385568
1.65100e-06;0.013281419060819885
1.65125e-06;0.013290941741013071
1.65150e-06;0.013300464421206266
1.65175e-06;0.01330998710139945
1.65200e-06;0.013319509781592636
