Time(s);Current(A)
1.30000e-05;-0.016303110208952417
1.30003e-05;-0.01631483064955689
1.30005e-05;-0.01632655109016128
1.30008e-05;-0.01633827153076575
1.30010e-05;-0.016346436816457987
1.30013e-05;-0.016354482822620912
1.30015e-05;-0.016362528828783893
1.30018e-05;-0.016360721115745602
1.30020e-05;-0.01635858279911429
1.30023e-05;-0.01635644448248296
1.30025e-05;-0.01634021972669099
1.30028e-05;-0.016323522354691644
1.30030e-05;-0.016306824982692186
1.30033e-05;-0.0162700103128819
1.30035e-05;-0.016232520684632205
1.30038e-05;-0.01619503105638226
1.30040e-05;-0.01615754142813231
1.30043e-05;-0.016120051799882615
1.30045e-05;-0.016069546020730754
1.30048e-05;-0.01600421662075489
1.30050e-05;-0.01593888722077947
1.30053e-05;-0.015873557820803606
1.30055e-05;-0.01580822842082774
1.30058e-05;-0.01574289902085188
1.30060e-05;-0.015656814733646975
1.30063e-05;-0.015570034096144306
1.30065e-05;-0.015483253458641636
1.30068e-05;-0.015396472821139554
1.30070e-05;-0.015309692183636883
1.30073e-05;-0.015211798583734497
1.30075e-05;-0.015113532131184274
1.30078e-05;-0.015015265678633385
1.30080e-05;-0.014916999226082498
1.30083e-05;-0.014818732773532276
1.30085e-05;-0.014717816936247411
1.30088e-05;-0.014616812209062639
1.30090e-05;-0.014516741912178908
1.30093e-05;-0.014418078930890366
1.30095e-05;-0.014321297635058683
1.30098e-05;-0.014226732429162012
1.30100e-05;-0.01413478328640824
1.30103e-05;-0.014046023745244827
1.30105e-05;-0.013968432839158922
1.30108e-05;-0.013891213159207254
1.30110e-05;-0.013813993479255587
1.30113e-05;-0.013736773799304443
1.30115e-05;-0.013674484954906335
1.30118e-05;-0.013612697057185402
1.30120e-05;-0.013550909159464889
1.30123e-05;-0.013489121261743956
1.30125e-05;-0.013436046574801961
1.30128e-05;-0.013383264226086978
1.30130e-05;-0.013330481877371635
1.30133e-05;-0.013277699528656293
1.30135e-05;-0.01322491717994131
1.30138e-05;-0.013172134831225967
1.30140e-05;-0.013122574989717889
1.30143e-05;-0.013076685144456682
1.30145e-05;-0.013030795299195786
1.30148e-05;-0.012984905453934579
1.30150e-05;-0.012939015608673372
1.30153e-05;-0.012893125763412476
1.30155e-05;-0.012847235918151269
1.30158e-05;-0.012804448837577235
1.30160e-05;-0.012761765858321608
1.30163e-05;-0.012719082879065693
1.30165e-05;-0.012676399899809778
1.30168e-05;-0.012633716920554153
1.30170e-05;-0.012591033941298239
1.30173e-05;-0.012551316298956386
1.30175e-05;-0.01251169814707337
1.30178e-05;-0.012472079995190085
1.30180e-05;-0.012432461843306802
1.30183e-05;-0.012392843691423785
1.30185e-05;-0.012353225539540501
1.30188e-05;-0.01231604859057124
1.30190e-05;-0.01227895354676327
1.30193e-05;-0.01224418646889599
1.30195e-05;-0.012209497496959288
1.30198e-05;-0.012176941404984954
1.30200e-05;-0.012144456873582366
1.30203e-05;-0.012114080892712684
1.30205e-05;-0.012083775656134903
1.30208e-05;-0.012055527607961442
1.30210e-05;-0.012028991267839021
1.30213e-05;-0.012004356375103808
1.30215e-05;-0.011981915407844712
1.30218e-05;-0.011962039286875652
1.30220e-05;-0.011944973517773239
1.30223e-05;-0.01193217713618027
1.30225e-05;-0.011919520928052534
1.30228e-05;-0.011912460488646604
1.30230e-05;-0.011905587793707251
1.30233e-05;-0.01190436718561291
1.30235e-05;-0.011903336211522807
1.30238e-05;-0.011909694175197461
1.30240e-05;-0.011916300046219224
1.30243e-05;-0.011922905917240987
1.30245e-05;-0.011941048934669001
1.30248e-05;-0.011959579036607706
1.30250e-05;-0.01197810913854641
1.30253e-05;-0.011996639240484988
1.30255e-05;-0.012015169342423693
1.30258e-05;-0.012039517800775714
1.30260e-05;-0.012070492573618951
1.30263e-05;-0.0121014673464624
1.30265e-05;-0.012132442119305847
1.30268e-05;-0.012163416892149084
1.30270e-05;-0.012194391664992532
1.30273e-05;-0.012231524268253765
1.30275e-05;-0.012268863473796713
1.30278e-05;-0.012306202679339913
1.30280e-05;-0.012345763372025666
1.30283e-05;-0.012385398598155883
1.30285e-05;-0.012425033824286369
1.30288e-05;-0.012464836653151514
1.30290e-05;-0.012504645105280607
1.30293e-05;-0.012544453557409971
1.30295e-05;-0.012582317157017995
1.30298e-05;-0.012620115504590225
1.30300e-05;-0.01265791385216271
1.30303e-05;-0.012692501015440909
1.30305e-05;-0.012726980439798091
1.30308e-05;-0.012757643748127198
1.30310e-05;-0.012788179021381116
1.30313e-05;-0.012813793442301956
1.30315e-05;-0.012839242762975727
1.30318e-05;-0.012856909369567909
1.30320e-05;-0.012874314857164898
1.30323e-05;-0.012891720344761768
1.30325e-05;-0.01289899217454207
1.30328e-05;-0.012905924008464948
1.30330e-05;-0.01291285584238778
1.30333e-05;-0.01290933983845729
1.30335e-05;-0.012905473297568335
1.30338e-05;-0.012901606756679408
1.30340e-05;-0.012883891784530917
1.30343e-05;-0.012865712181609883
1.30345e-05;-0.012847532578688972
1.30348e-05;-0.01282935297576794
1.30350e-05;-0.012811173372846905
1.30353e-05;-0.012778036937929296
1.30355e-05;-0.012744398684121274
1.30358e-05;-0.012710760430313254
1.30360e-05;-0.01267712217650546
1.30363e-05;-0.012643483922697438
1.30365e-05;-0.012600501486032992
1.30368e-05;-0.012557205541302845
1.30370e-05;-0.012513909596572403
1.30373e-05;-0.012466524655734168
1.30375e-05;-0.012419002524380872
1.30378e-05;-0.012369190272865383
1.30380e-05;-0.012319301185188382
1.30383e-05;-0.012268301954667174
1.30385e-05;-0.012216890624150217
1.30388e-05;-0.012165366695883443
1.30390e-05;-0.012114016025432401
1.30393e-05;-0.012063124528826795
1.30395e-05;-0.012012969111197673
1.30398e-05;-0.011963826375349693
1.30400e-05;-0.011915991846977236
1.30403e-05;-0.01186978241172771
1.30405e-05;-0.011825521958229187
1.30408e-05;-0.01178353368564795
1.30410e-05;-0.011744139861826833
1.30413e-05;-0.01170766362546692
1.30415e-05;-0.011674394805172897
1.30418e-05;-0.011644522089955617
1.30420e-05;-0.011618135297470727
1.30423e-05;-0.011595294008018687
1.30425e-05;-0.011576059598191277
1.30428e-05;-0.01156049173309866
1.30430e-05;-0.011550486438746926
1.30433e-05;-0.011540663779552424
1.30435e-05;-0.011538218794497056
1.30438e-05;-0.01153602133888226
1.30440e-05;-0.011542720795098004
1.30443e-05;-0.01154971875292368
1.30445e-05;-0.01155671671074931
1.30448e-05;-0.011576612690204604
1.30450e-05;-0.011596941413098824
1.30453e-05;-0.011617270135992905
1.30455e-05;-0.011637598858887124
1.30458e-05;-0.011657927581781344
1.30460e-05;-0.011691263538409422
1.30463e-05;-0.011725035902668188
1.30465e-05;-0.011758808266926954
1.30468e-05;-0.011792580631185491
1.30470e-05;-0.011826352995444258
1.30473e-05;-0.011867192187838308
1.30475e-05;-0.011908268480432303
1.30478e-05;-0.011949344773026577
1.30480e-05;-0.011993219550707982
1.30482e-05;-0.012037188220777855
1.30485e-05;-0.012081156890848026
1.30488e-05;-0.012125578208447046
1.30490e-05;-0.012170014712890533
1.30493e-05;-0.012214451217333718
1.30495e-05;-0.012257498841768327
1.30498e-05;-0.012300499867683473
1.30500e-05;-0.012341057137596565
1.30503e-05;-0.012381532416689354
1.30505e-05;-0.012417197677516137
1.30508e-05;-0.012452701556705388
1.30510e-05;-0.01248820543589488
1.30513e-05;-0.012510404721660434
1.30515e-05;-0.0125321576230356
1.30518e-05;-0.01255391052441091
1.30520e-05;-0.012575663425786223
1.30523e-05;-0.012597416327161387
1.30525e-05;-0.0126191692285367
1.30528e-05;-0.012640922129912012
1.30530e-05;-0.012662675031287176
1.30533e-05;-0.012666744379887742
1.30535e-05;-0.012670220424982176
1.30538e-05;-0.012673696470076585
1.30540e-05;-0.012677172515171017
1.30543e-05;-0.012680648560265451
1.30545e-05;-0.012684124605359861
1.30548e-05;-0.012687600650454295
1.30550e-05;-0.012691076695548729
1.30553e-05;-0.01268102910190211
1.30555e-05;-0.01267052777464291
1.30558e-05;-0.01266002644738371
1.30560e-05;-0.01264952512012458
1.30563e-05;-0.01263902379286538
1.30565e-05;-0.01262852246560618
1.30567e-05;-0.012618021138347053
1.30570e-05;-0.012600016563625565
1.30573e-05;-0.012581760246333607
1.30575e-05;-0.012563503929041648
1.30578e-05;-0.012545247611749813
1.30580e-05;-0.012526991294457853
1.30583e-05;-0.012508734977165896
1.30585e-05;-0.012490478659874061
1.30588e-05;-0.012470171676353125
1.30590e-05;-0.012449795890624829
1.30593e-05;-0.012429420104896671
1.30595e-05;-0.012409364806834761
1.30598e-05;-0.012389320261502171
1.30600e-05;-0.012369275716169716
1.30603e-05;-0.012350984091194216
1.30605e-05;-0.01233275127871011
1.30608e-05;-0.012314518466226129
1.30610e-05;-0.012298572019361981
1.30613e-05;-0.012282702282690534
1.30615e-05;-0.012270445015713236
1.30618e-05;-0.012258308951243422
1.30620e-05;-0.012246172886773607
1.30623e-05;-0.012239827827184599
1.30625e-05;-0.012233677062460967
1.30628e-05;-0.012227526297737334
1.30630e-05;-0.012227755389202385
1.30633e-05;-0.012228198532170604
1.30635e-05;-0.012228641675138823
1.30638e-05;-0.012232419390207316
1.30640e-05;-0.012240247896140193
1.30643e-05;-0.012248076402073071
1.30645e-05;-0.012255904908005896
1.30648e-05;-0.012260491363146928
1.30650e-05;-0.01790453132020307
1.30652e-05;-0.02441508694762156
1.30655e-05;-0.02430137786429428
1.30658e-05;-0.022407884548661328
1.30660e-05;-0.01809018005426698
1.30663e-05;-0.012304768641374553
1.30665e-05;-0.011546098993495455
1.30668e-05;-0.012345647056206038
1.30670e-05;-0.014948137901217198
1.30673e-05;-0.019338918687745614
1.30675e-05;-0.019982826629474194
1.30678e-05;-0.018348157226661055
1.30680e-05;-0.016025878048279957
1.30683e-05;-0.012138600990332224
1.30685e-05;-0.011494299488994412
1.30688e-05;-0.01148720074971885
1.30690e-05;-0.013204275843862183
1.30693e-05;-0.015553496018629062
1.30695e-05;-0.016652181161537525
1.30698e-05;-0.016199883269228908
1.30700e-05;-0.01463962537265547
1.30703e-05;-0.012797299278225469
1.30705e-05;-0.011755484633425949
1.30708e-05;-0.011779499876793754
1.30710e-05;-0.012873447380075741
1.30713e-05;-0.014356323658137826
1.30715e-05;-0.015052703023931798
1.30718e-05;-0.014773870953489025
1.30720e-05;-0.013797052029126452
1.30723e-05;-0.01263971995802788
1.30725e-05;-0.011980240571455915
1.30728e-05;-0.011985010806603653
1.30730e-05;-0.012656783543033758
1.30733e-05;-0.013569175741014933
1.30735e-05;-0.013986143754778796
1.30737e-05;-0.013789753063262168
1.30740e-05;-0.013153922663104892
1.30743e-05;-0.012403039704437731
1.30745e-05;-0.011962233147476822
1.30748e-05;-0.011935908791909146
1.30750e-05;-0.012325956145275001
1.30753e-05;-0.012865466903580395
1.30755e-05;-0.013093590828856642
1.30758e-05;-0.012936681939822704
1.30760e-05;-0.012503911381792854
1.30763e-05;-0.011998683454682623
1.30765e-05;-0.011687486510864266
1.30768e-05;-0.011635890144495424
1.30770e-05;-0.011845246391393456
1.30773e-05;-0.012148535841401095
1.30775e-05;-0.012257276639447347
1.30778e-05;-0.012125548050526016
1.30780e-05;-0.01182193755511906
1.30783e-05;-0.011474056130962055
1.30785e-05;-0.011249015817524367
1.30788e-05;-0.011188060693238936
1.30790e-05;-0.011292208487211339
1.30793e-05;-0.011457016342304142
1.30795e-05;-0.011501966411301016
1.30798e-05;-0.01139849102822129
1.30800e-05;-0.011189750812012907
1.30803e-05;-0.010955871412691082
1.30805e-05;-0.010801713002823331
1.30808e-05;-0.010753288465460063
1.30810e-05;-0.01081141069641611
1.30813e-05;-0.010910811036939489
1.30815e-05;-0.010938058781516831
1.30818e-05;-0.010874130009410506
1.30820e-05;-0.010745086184639537
1.30822e-05;-0.010600814118183808
1.30825e-05;-0.010506950611942284
1.30828e-05;-0.010479755477706545
1.30830e-05;-0.010519705940304866
1.30833e-05;-0.010585884014864214
1.30835e-05;-0.010607209621581072
1.30838e-05;-0.010571744593402032
1.30840e-05;-0.010495789109732106
1.30843e-05;-0.01041056675247866
1.30845e-05;-0.010357163114358182
1.30848e-05;-0.010345732943751925
1.30850e-05;-0.010376540894937135
1.30853e-05;-0.010423927609436343
1.30855e-05;-0.010443340811244083
1.30858e-05;-0.010427276079810926
1.30860e-05;-0.010385920004571322
1.30863e-05;-0.0103388025364755
1.30865e-05;-0.010311632342154913
1.30868e-05;-0.010310739050058396
1.30870e-05;-0.010336259707282778
1.30873e-05;-0.010372089943425715
1.30875e-05;-0.01039029514338091
1.30878e-05;-0.0103861473179974
1.30880e-05;-0.010364752504499322
1.30883e-05;-0.010341950468243646
1.30885e-05;-0.010330411801372156
1.30888e-05;-0.010334978545937425
1.30890e-05;-0.010358216740420588
1.30893e-05;-0.010383039746663018
1.30895e-05;-0.010391815490787607
1.30898e-05;-0.010399120319401628
1.30900e-05;-0.01038963140241257
1.30903e-05;-0.010378603146145225
1.30905e-05;-0.010378545637735825
1.30907e-05;-0.010379493724116777
1.30910e-05;-0.010395081418043992
1.30913e-05;-0.01041201099980541
1.30915e-05;-0.010417987749312517
1.30918e-05;-0.010422960546199659
1.30920e-05;-0.010416755286101044
1.30923e-05;-0.01040952542895428
1.30925e-05;-0.010408621059578687
1.30928e-05;-0.010408296493661434
1.30930e-05;-0.01041517215197247
1.30933e-05;-0.010422707793364508
1.30935e-05;-0.010430243434756596
1.30938e-05;-0.010427168062236782
1.30940e-05;-0.01042312006866623
1.30943e-05;-0.01041908245477078
1.30945e-05;-0.010415045792291529
1.30948e-05;-0.010411009129812306
1.30950e-05;-0.010412032630050257
1.30953e-05;-0.010413519952201921
1.30955e-05;-0.010415007274353575
1.30958e-05;-0.010409291670717656
1.30960e-05;-0.01040291583637181
1.30963e-05;-0.010396540002026007
1.30965e-05;-0.010392720695882271
1.30968e-05;-0.010389135724851718
1.30970e-05;-0.010385550753821188
1.30973e-05;-0.010381965782790636
1.30975e-05;-0.01037735041929829
1.30978e-05;-0.010371288751101007
1.30980e-05;-0.010365227082903685
1.30983e-05;-0.010359165414706361
1.30985e-05;-0.01035310374650908
1.30988e-05;-0.010349082182129505
1.30990e-05;-0.010345247616648954
1.30992e-05;-0.01034141305116843
1.30995e-05;-0.010336219174808493
1.30998e-05;-0.010330900702025721
1.31000e-05;-0.01032558222924295
1.31003e-05;-0.010319358307539727
1.31005e-05;-0.010313985561825677
1.31008e-05;-0.010309822007855029
1.31010e-05;-0.010306908893186688
1.31013e-05;-0.010304719470511786
1.31015e-05;-0.010303341756540758
1.31018e-05;-0.010305183835192157
1.31020e-05;-0.010312413823288518
1.31023e-05;-0.010325800688209498
1.31025e-05;-0.010345668130559031
1.31028e-05;-0.010371836964460611
1.31030e-05;-0.010403983935188552
1.31033e-05;-0.010441426779750577
1.31035e-05;-0.01048674252605835
1.31038e-05;-0.010532739616696034
1.31040e-05;-0.01059159115294515
1.31043e-05;-0.010651620946475853
1.31045e-05;-0.010731257187984868
1.31048e-05;-0.010812690585184689
1.31050e-05;-0.01089412398238506
1.31053e-05;-0.010975557379585433
1.31055e-05;-0.011067003157249284
1.31058e-05;-0.01117250275762001
1.31060e-05;-0.011278002357990735
1.31063e-05;-0.011383501958360744
1.31065e-05;-0.01148900155873147
1.31068e-05;-0.011609051757378872
1.31070e-05;-0.011730435685140558
1.31073e-05;-0.011851819612903065
1.31075e-05;-0.011979024974349778
1.31077e-05;-0.012106763936919738
1.31080e-05;-0.012234502899490565
1.31083e-05;-0.01236485099957554
1.31085e-05;-0.012495438257020399
1.31088e-05;-0.012626025514464373
1.31090e-05;-0.012754540960316947
1.31093e-05;-0.012882866500889352
1.31095e-05;-0.013006237097368693
1.31098e-05;-0.013129153516427731
1.31100e-05;-0.013245265418599831
1.31103e-05;-0.013360753608802954
1.31105e-05;-0.013463888990297768
1.31108e-05;-0.013565892095282528
1.31110e-05;-0.013667895200266598
1.31113e-05;-0.013750169528774371
1.31115e-05;-0.01383063548878029
1.31118e-05;-0.013911101448785664
1.31120e-05;-0.013962550143389707
1.31123e-05;-0.014011339073013971
1.31125e-05;-0.014060128002637904
1.31128e-05;-0.014108916932262168
1.31130e-05;-0.014157705861886432
1.31133e-05;-0.014206494791510366
1.31135e-05;-0.01425528372113463
1.31138e-05;-0.014265310353226496
1.31140e-05;-0.014271783976442617
1.31143e-05;-0.014278257599658782
1.31145e-05;-0.014284731222874948
1.31148e-05;-0.014291204846091069
1.31150e-05;-0.014297678469307233
1.31153e-05;-0.014304152092523397
1.31155e-05;-0.014281133941528792
1.31158e-05;-0.014255412531382666
1.31160e-05;-0.014229691121236539
1.31162e-05;-0.014203969711090588
1.31165e-05;-0.014178248300944461
1.31168e-05;-0.014152526890798335
1.31170e-05;-0.01411912030711167
1.31173e-05;-0.014074926471899335
1.31175e-05;-0.0140307326366867
1.31178e-05;-0.013986538801474066
1.31180e-05;-0.013942344966261731
1.31183e-05;-0.013898151131049098
1.31185e-05;-0.013853957295836463
1.31188e-05;-0.013805045488124706
1.31190e-05;-0.013755701224153854
1.31193e-05;-0.013706356960183002
1.31195e-05;-0.013657313422416405
1.31198e-05;-0.013608297449653105
1.31200e-05;-0.013562429362198833
1.31203e-05;-0.013516849814515744
1.31205e-05;-0.013471270266832345
1.31208e-05;-0.013435689298770892
1.31210e-05;-0.01340102481513977
1.31213e-05;-0.013366360331508412
1.31215e-05;-0.013331695847877053
1.31218e-05;-0.01329703136424593
1.31220e-05;-0.01326236688061457
1.31223e-05;-0.013227702396983213
1.31225e-05;-0.01319303791335209
1.31228e-05;-0.013160019508002413
1.31230e-05;-0.013129311611370107
1.31233e-05;-0.013098603714738009
1.31235e-05;-0.0130678958181057
1.31238e-05;-0.013037187921473395
1.31240e-05;-0.013006480024841297
1.31243e-05;-0.012975772128208989
1.31245e-05;-0.012945064231576682
1.31247e-05;-0.012914356334944584
1.31250e-05;-0.012882238923595968
1.31253e-05;-0.012849992314067108
1.31255e-05;-0.012817745704538247
1.31258e-05;-0.012785499095009607
1.31260e-05;-0.012753252485480747
1.31263e-05;-0.012721005875951888
1.31265e-05;-0.012688759266423247
1.31268e-05;-0.012656243292828554
1.31270e-05;-0.012623349227845823
1.31273e-05;-0.012590455162863314
1.31275e-05;-0.01255756109788058
1.31278e-05;-0.012524667032897849
1.31280e-05;-0.01249177296791534
1.31283e-05;-0.012458878902932607
1.31285e-05;-0.012425984837949875
1.31288e-05;-0.012395111122224831
1.31290e-05;-0.012364422594667246
1.31293e-05;-0.01233373406710966
1.31295e-05;-0.012303045539552283
1.31298e-05;-0.012274078379595965
1.31300e-05;-0.012247527407796537
1.31303e-05;-0.012220976435997292
1.31305e-05;-0.012194425464197864
1.31308e-05;-0.012167874492398438
1.31310e-05;-0.01214600650772311
1.31313e-05;-0.01212456777249632
1.31315e-05;-0.012103129037269528
1.31318e-05;-0.01208210378279981
1.31320e-05;-0.01206111642858085
1.31323e-05;-0.01204012907436189
1.31325e-05;-0.012017172994365787
1.31328e-05;-0.011994036458085474
1.31330e-05;-0.011970899921805158
1.31332e-05;-0.011945045190328983
1.31335e-05;-0.011918941305105514
1.31338e-05;-0.011892837419882046
1.31340e-05;-0.011866733534658579
1.31343e-05;-0.011840629649435287
1.31345e-05;-0.011814525764211818
1.31348e-05;-0.011782883540280429
1.31350e-05;-0.011750733664123204
1.31353e-05;-0.011718583787965762
1.31355e-05;-0.011686433911808318
1.31358e-05;-0.011654284035651094
1.31360e-05;-0.01162213415949365
1.31363e-05;-0.011585725746937387
1.31365e-05;-0.011548926990706676
1.31368e-05;-0.011512128234475713
1.31370e-05;-0.011475329478244752
1.31373e-05;-0.011438530722014041
1.31375e-05;-0.011401215583681889
1.31378e-05;-0.011363175628456032
1.31380e-05;-0.011325135673230432
1.31383e-05;-0.011287095718004573
1.31385e-05;-0.011249055762778716
1.31388e-05;-0.011211015807553116
1.31390e-05;-0.011174037642680323
1.31393e-05;-0.011137156803064263
1.31395e-05;-0.011101891780271475
1.31398e-05;-0.011066774865611737
1.31400e-05;-0.011033509229994215
1.31403e-05;-0.011000413285321618
1.31405e-05;-0.010969134921293686
1.31408e-05;-0.010939513566963653
1.31410e-05;-0.010911729954795358
1.31413e-05;-0.010886027771448063
1.31415e-05;-0.01086297187625256
1.31418e-05;-0.010843532680687898
1.31420e-05;-0.010828398572814263
1.31423e-05;-0.01081771108275715
1.31425e-05;-0.010811415830523786
1.31428e-05;-0.010811396777238271
1.31430e-05;-0.010811919249202632
1.31433e-05;-0.010820233729061877
1.31435e-05;-0.010829262435761457
1.31438e-05;-0.010849187384153905
1.31440e-05;-0.010870111097996979
1.31443e-05;-0.010891034811839912
1.31445e-05;-0.010928159122612335
1.31448e-05;-0.010966768403794624
1.31450e-05;-0.011005377684976652
1.31453e-05;-0.01104398696615894
1.31455e-05;-0.01108259624734123
1.31458e-05;-0.011137899117364465
1.31460e-05;-0.0111947321461578
1.31463e-05;-0.011251565174951135
1.31465e-05;-0.011308398203744085
1.31468e-05;-0.01136523123253742
1.31470e-05;-0.011431399428322556
1.31473e-05;-0.011498423299167738
