Time(s);Current(A)
9.25000e-06;0.007367885237415052
9.25025e-06;0.007343521555417261
9.25050e-06;0.007319157873419305
9.25075e-06;0.007294794191421349
9.25100e-06;0.007270430509423558
9.25125e-06;0.007246066827425602
9.25150e-06;0.007221703145427645
9.25175e-06;0.007197339463429854
9.25200e-06;0.007172975781431898
9.25225e-06;0.0071486120994339415
9.25250e-06;0.0071242484174361504
9.25275e-06;0.007109129949759555
9.25300e-06;0.007103655028281671
9.25325e-06;0.007098180106803824
9.25350e-06;0.00709270518532594
9.25375e-06;0.007087230263848056
9.25400e-06;0.007081755342370209
9.25425e-06;0.007076280420892325
9.25450e-06;0.007070805499414441
9.25475e-06;0.007065330577936594
9.25500e-06;0.00705985565645871
9.25525e-06;0.007054380734980826
9.25550e-06;0.007048905813502979
9.25575e-06;0.007060351099284646
9.25600e-06;0.007071976695503285
9.25625e-06;0.007083602291721924
9.25650e-06;0.007095227887940484
9.25675e-06;0.007106853484159123
9.25700e-06;0.007118479080377761
9.25725e-06;0.007130104676596322
9.25750e-06;0.0071417302728149605
9.25775e-06;0.0071533558690335996
9.25800e-06;0.00716498146525216
9.25825e-06;0.007176607061470799
9.25850e-06;0.007188232657689438
9.25875e-06;0.007199858253907998
9.25900e-06;0.0072126822568560536
9.25925e-06;0.007226756300123364
9.25950e-06;0.007240830343390578
9.25975e-06;0.007254904386657888
9.26000e-06;0.0072689784299251985
9.26025e-06;0.007283052473192413
9.26050e-06;0.007297126516459723
9.26075e-06;0.007311200559727033
9.26100e-06;0.007325274602994248
9.26125e-06;0.007339348646261558
9.26150e-06;0.007353422689528868
9.26175e-06;0.007367496732796083
9.26200e-06;0.007381570776063393
9.26225e-06;0.007395644819330703
9.26250e-06;0.007399376222434632
9.26275e-06;0.007402997409041401
9.26300e-06;0.00740661859564817
9.26325e-06;0.007410239782254914
9.26350e-06;0.007413860968861683
9.26375e-06;0.007417482155468452
9.26400e-06;0.007421103342075196
9.26425e-06;0.007424724528681965
9.26450e-06;0.007428345715288734
9.26475e-06;0.007431966901895503
9.26500e-06;0.007435588088502247
9.26525e-06;0.007439209275109016
9.26550e-06;0.0074428304617157855
9.26575e-06;0.007446451648322529
9.26600e-06;0.007450072834929299
9.26625e-06;0.0074536940215360675
9.26650e-06;0.007457315208142812
9.26675e-06;0.007460936394749581
9.26700e-06;0.0074645575813563495
9.26725e-06;0.007468178767963094
9.26750e-06;0.007469044505203535
9.26775e-06;0.007467036073998599
9.26800e-06;0.007465027642793676
9.26825e-06;0.00746301921158874
9.26850e-06;0.007461010780383804
9.26875e-06;0.007459002349178881
9.26900e-06;0.007456993917973945
9.26925e-06;0.0074549854867690096
9.26950e-06;0.007452977055564087
9.26975e-06;0.007450968624359151
9.27000e-06;0.007448960193154215
9.27025e-06;0.007446951761949292
9.27050e-06;0.007444943330744356
9.27075e-06;0.00744293489953942
9.27100e-06;0.0074409264683344975
9.27125e-06;0.007438918037129562
9.27150e-06;0.007436909605924626
9.27175e-06;0.007434901174719703
9.27200e-06;0.007432892743514767
9.27225e-06;0.007430884312309831
9.27250e-06;0.007428875881104908
9.27275e-06;0.007418664840194181
9.27300e-06;0.007408366388051668
9.27325e-06;0.007398067935909154
9.27350e-06;0.007387769483766711
9.27375e-06;0.007377471031624198
9.27400e-06;0.007367172579481685
9.27425e-06;0.007356874127339241
9.27450e-06;0.0073465756751967285
9.27475e-06;0.007336277223054215
9.27500e-06;0.007325978770911771
9.27525e-06;0.007315680318769258
9.27550e-06;0.007305381866626745
9.27575e-06;0.007295083414484302
9.27600e-06;0.007284784962341789
9.27625e-06;0.007274486510199275
9.27650e-06;0.007264188058056832
9.27675e-06;0.007250009609246484
9.27700e-06;0.007231783993345909
9.27725e-06;0.007213558377445459
9.27750e-06;0.007195332761544884
9.27775e-06;0.00717710714564431
9.27800e-06;0.00715888152974386
9.27825e-06;0.007140655913843285
9.27850e-06;0.00712243029794271
9.27875e-06;0.00710420468204226
9.27900e-06;0.007085979066141686
9.27925e-06;0.007067753450241111
9.27950e-06;0.007049527834340661
9.27975e-06;0.007031302218440086
9.28000e-06;0.007013076602539511
9.28025e-06;0.006994850986639061
9.28050e-06;0.006976625370738487
9.28075e-06;0.006958399754837912
9.28100e-06;0.006948778012951875
9.28125e-06;0.0069392479583772
9.28150e-06;0.006929717903802525
9.28175e-06;0.006920187849227851
9.28200e-06;0.0069106577946532405
9.28225e-06;0.006901127740078565
9.28250e-06;0.006891597685503891
9.28275e-06;0.006882067630929281
9.28300e-06;0.006872537576354606
9.28325e-06;0.006863007521779931
9.28350e-06;0.0068534774672053215
9.28375e-06;0.006865332680857643
9.28400e-06;0.006877415786939252
9.28425e-06;0.006889498893020779
9.28450e-06;0.006901581999102388
9.28475e-06;0.006913665105183997
9.28500e-06;0.006925748211265524
9.28525e-06;0.006937831317347133
9.28550e-06;0.006949914423428742
9.28575e-06;0.006961997529510269
9.28600e-06;0.006974080635591878
9.28625e-06;0.0069861637416734875
9.28650e-06;0.007015665845087455
9.28675e-06;0.007045353574306187
9.28700e-06;0.0070750413035249185
9.28725e-06;0.007104729032743449
9.28750e-06;0.00713441676196218
9.28775e-06;0.007164104491180912
9.28800e-06;0.007193792220399443
9.28825e-06;0.0072234799496181746
9.28850e-06;0.007253167678836906
9.28875e-06;0.007282855408055437
9.28900e-06;0.007312543137274169
9.28925e-06;0.007341557093440573
9.28950e-06;0.0073698682469092594
9.28975e-06;0.007398179400378138
9.29000e-06;0.007426490553847017
9.29025e-06;0.007454801707315895
9.29050e-06;0.007483112860784582
9.29075e-06;0.00751142401425346
9.29100e-06;0.007539735167722338
9.29125e-06;0.0075680463211910244
9.29150e-06;0.007596357474659903
9.29175e-06;0.007624668628128781
9.29200e-06;0.007652979781597468
9.29225e-06;0.007663536779930349
9.29250e-06;0.007673904580843559
9.29275e-06;0.007684272381756697
9.29300e-06;0.007694640182669907
9.29325e-06;0.007705007983583117
9.29350e-06;0.007715375784496255
9.29375e-06;0.007725743585409465
9.29400e-06;0.007736111386322674
9.29425e-06;0.007746479187235813
9.29450e-06;0.007756846988149023
9.29475e-06;0.007767214789062232
9.29500e-06;0.007777582589975371
9.29525e-06;0.00778795039088858
9.29550e-06;0.00779831819180179
9.29575e-06;0.0078086859927149295
9.29600e-06;0.007819053793628138
9.29625e-06;0.007829421594541348
9.29650e-06;0.007839789395454487
9.29675e-06;0.007850157196367696
9.29700e-06;0.007860524997280906
9.29725e-06;0.007866019854896222
9.29750e-06;0.007866431817486788
9.29775e-06;0.007866843780077355
9.29800e-06;0.007867255742667919
9.29825e-06;0.007867667705258485
9.29850e-06;0.007868079667849052
9.29875e-06;0.007868491630439619
9.29900e-06;0.007868903593030182
9.29925e-06;0.007869315555620749
9.29950e-06;0.007869727518211316
9.29975e-06;0.007870139480801881
9.30000e-06;0.007870551443392448
9.30025e-06;0.007870963405983014
9.30050e-06;0.007871375368573578
9.30075e-06;0.007871787331164145
9.30100e-06;0.007872199293754711
9.30125e-06;0.007872611256345276
9.30150e-06;0.007873023218935843
9.30175e-06;0.00787343518152641
9.30200e-06;0.007873847144116973
9.30225e-06;0.00787425910670754
9.30250e-06;0.007874401585985957
9.30275e-06;0.00787454119351141
9.30300e-06;0.007874680801036864
9.30325e-06;0.007874820408562317
9.30350e-06;0.007874960016087769
9.30375e-06;0.007875099623613224
9.30400e-06;0.007875239231138677
9.30425e-06;0.007875378838664128
9.30450e-06;0.007875518446189582
9.30475e-06;0.007875658053715037
9.30500e-06;0.007875797661240488
9.30525e-06;0.007875937268765941
9.30550e-06;0.007876076876291395
9.30575e-06;0.007876216483816848
9.30600e-06;0.007876356091342301
9.30625e-06;0.007876495698867754
9.30650e-06;0.007876635306393208
9.30675e-06;0.00787677491391866
9.30700e-06;0.007876914521444114
9.30725e-06;0.007877054128969567
9.30750e-06;0.007877346120899941
9.30775e-06;0.007877797062747533
9.30800e-06;0.007878248004595126
9.30825e-06;0.007878698946442714
9.30850e-06;0.007879149888290306
9.30875e-06;0.0078796008301379
9.30900e-06;0.007880051771985488
9.30925e-06;0.00788050271383308
9.30950e-06;0.007880953655680673
9.30975e-06;0.007881404597528263
9.31000e-06;0.007881855539375855
9.31025e-06;0.007882306481223447
9.31050e-06;0.007882757423071035
9.31075e-06;0.00788320836491863
9.31100e-06;0.007883659306766221
9.31125e-06;0.00788411024861381
9.31150e-06;0.007884561190461402
9.31175e-06;0.007885012132308996
9.31200e-06;0.007885463074156584
9.31225e-06;0.007885914016004176
9.31250e-06;0.007886364957851768
9.31275e-06;0.007875307350765505
9.31300e-06;0.00786412710265402
9.31325e-06;0.007852946854542532
9.31350e-06;0.007841766606431122
9.31375e-06;0.007830586358319635
9.31400e-06;0.007819406110208149
9.31425e-06;0.007808225862096738
9.31450e-06;0.007797045613985252
9.31475e-06;0.007785865365873766
9.31500e-06;0.0077746851177623545
9.31525e-06;0.007763504869650869
9.31550e-06;0.007752324621539382
9.31575e-06;0.0077411443734278955
9.31600e-06;0.007729964125316485
9.31625e-06;0.007718783877204999
9.31650e-06;0.007695566471074754
9.31675e-06;0.007672220790788426
9.31700e-06;0.007648875110501939
9.31725e-06;0.007625529430215452
9.31750e-06;0.0076021837499291225
9.31775e-06;0.0075788380696426355
9.31800e-06;0.0075554923893561485
9.31825e-06;0.00753214670906982
9.31850e-06;0.007508801028783333
9.31875e-06;0.007485455348496846
9.31900e-06;0.007462109668210517
9.31925e-06;0.00743876398792403
9.31950e-06;0.007415418307637544
9.31975e-06;0.007392072627351215
9.32000e-06;0.007368726947064728
9.32025e-06;0.007350663620895655
9.32050e-06;0.007332656586213326
9.32075e-06;0.007314649551530875
9.32100e-06;0.007296642516848425
9.32125e-06;0.007278635482166096
9.32150e-06;0.0072606284474836455
9.32175e-06;0.007242621412801195
9.32200e-06;0.007224614378118866
9.32225e-06;0.007206607343436416
9.32250e-06;0.007188600308753965
9.32275e-06;0.007170593274071636
9.32300e-06;0.007152586239389185
9.32325e-06;0.007134579204706735
9.32350e-06;0.007120107316396007
9.32375e-06;0.0071096000723884795
9.32400e-06;0.007099092828380953
9.32425e-06;0.007088585584373426
9.32450e-06;0.0070780783403659705
9.32475e-06;0.007067571096358444
9.32500e-06;0.007057063852350917
9.32525e-06;0.007046556608343461
9.32550e-06;0.007036049364335935
9.32575e-06;0.007025542120328408
9.32600e-06;0.007015034876320952
9.32625e-06;0.0070045276323134256
9.32650e-06;0.006994020388305899
9.32675e-06;0.006983513144298443
9.32700e-06;0.006600249111705409
9.32725e-06;0.0032523113993413733
9.32750e-06;-0.0015269498094193819
9.32775e-06;-0.0029853417973836963
9.32800e-06;-0.0016222073448976671
9.32825e-06;0.001173956678712936
9.32850e-06;0.004681189711675004
9.32875e-06;0.006570727012120004
9.32900e-06;0.006304743645731243
9.32925e-06;0.004457736800032946
9.32950e-06;0.002035786677530825
9.32975e-06;0.0008092326788842256
9.33000e-06;0.0014030602983274875
9.33025e-06;0.003192170937696864
9.33050e-06;0.005263656556026832
9.33075e-06;0.006545115109861918
9.33100e-06;0.006504893399048244
9.33125e-06;0.005374332906124733
9.33150e-06;0.003720737433856663
9.33175e-06;0.003141094174646514
9.33200e-06;0.0038513214915680593
9.33225e-06;0.00519375800790162
9.33250e-06;0.00650995508450248
9.33275e-06;0.007208228913436846
9.33300e-06;0.006982314735041428
9.33325e-06;0.006127375229772945
9.33350e-06;0.005185794006786424
9.33375e-06;0.004770148158694178
9.33400e-06;0.005163641058027914
9.33425e-06;0.006003085179695017
9.33450e-06;0.006823713039888401
9.33475e-06;0.007256890296902285
9.33500e-06;0.007110851104400242
9.33525e-06;0.006570562602915665
9.33550e-06;0.0059758249369395245
9.33575e-06;0.0057103728222493615
9.33600e-06;0.005951595878654076
9.33625e-06;0.006471986005183818
9.33650e-06;0.006980429151741473
9.33675e-06;0.007246051556273681
9.33700e-06;0.00714878492531397
9.33725e-06;0.006804546144510406
9.33750e-06;0.006426223296212124
9.33775e-06;0.006254204471463338
9.33800e-06;0.006399605846796035
9.33825e-06;0.006719918273506536
9.33850e-06;0.007032803773171668
9.33875e-06;0.007193673763830281
9.33900e-06;0.007127358223219884
9.33925e-06;0.006906507104787696
9.33950e-06;0.006664503469765938
9.33975e-06;0.006551942852133819
9.34000e-06;0.0066384362014573406
9.34025e-06;0.006834723661507009
9.34050e-06;0.007026605220157598
9.34075e-06;0.007123536944619175
9.34100e-06;0.007078464796650057
9.34125e-06;0.006936929157254622
9.34150e-06;0.006782506689065565
9.34175e-06;0.006709563066236393
9.34200e-06;0.006761961114297665
9.34225e-06;0.006884394280761593
9.34250e-06;0.007005850447396813
9.34275e-06;0.007069746720099953
9.34300e-06;0.007046538634910858
9.34325e-06;0.0069646511915234825
9.34350e-06;0.006876331762899755
9.34375e-06;0.00684058037889768
9.34400e-06;0.006884758996756771
9.34425e-06;0.006974109453723159
9.34450e-06;0.007064039574335779
9.34475e-06;0.007118998756002401
9.34500e-06;0.007120377112948941
9.34525e-06;0.007085875093089437
9.34550e-06;0.007048114100674094
9.34575e-06;0.007043942249810284
9.34600e-06;0.007090386338266216
9.34625e-06;0.007165562211896206
9.34650e-06;0.007241427484792728
9.34675e-06;0.007295606185086306
9.34700e-06;0.007316334530065388
9.34725e-06;0.0073145942886850175
9.34750e-06;0.007320526853552979
9.34775e-06;0.007331793062738141
9.34800e-06;0.007375996036479772
9.34825e-06;0.0074418971776413064
9.34850e-06;0.007501290022616199
9.34875e-06;0.007556555169855356
9.34900e-06;0.007589100323562162
9.34925e-06;0.00760401564681577
9.34950e-06;0.007622376480084419
9.34975e-06;0.007643616921213031
9.35000e-06;0.007684238782778122
9.35025e-06;0.007736989042534743
9.35050e-06;0.007778397377295662
9.35075e-06;0.007814327957444512
9.35100e-06;0.007850258537593607
9.35125e-06;0.007869269857413392
9.35150e-06;0.007886887102384285
9.35175e-06;0.00790691550479225
9.35200e-06;0.007926943907200215
9.35225e-06;0.007955885876475876
9.35250e-06;0.007978982935958825
9.35275e-06;0.007998040190664937
9.35300e-06;0.008017097445370916
9.35325e-06;0.008034529072312245
9.35350e-06;0.00804560808565987
9.35375e-06;0.008056687099007422
9.35400e-06;0.008067766112355048
9.35425e-06;0.008083110415684226
9.35450e-06;0.008100250165906476
9.35475e-06;0.00811738991612884
9.35500e-06;0.008126285616522422
9.35525e-06;0.008131711036180808
9.35550e-06;0.008139156476899962
9.35575e-06;0.00814745223273335
9.35600e-06;0.008155747988566681
9.35625e-06;0.008164043744400069
9.35650e-06;0.008171241990413155
9.35675e-06;0.008177978246595304
9.35700e-06;0.008184714502777498
9.35725e-06;0.008191450758959691
9.35750e-06;0.008196619353265516
9.35775e-06;0.008201128050200273
9.35800e-06;0.008205636747135028
9.35825e-06;0.008210145444069785
9.35850e-06;0.00821465414100451
9.35875e-06;0.008219162837939267
9.35900e-06;0.008223671534874022
9.35925e-06;0.008228180231808747
9.35950e-06;0.00823213468360431
9.35975e-06;0.008233923261217019
9.36000e-06;0.008235711838829717
9.36025e-06;0.008237500416442427
9.36050e-06;0.008239288994055138
9.36075e-06;0.008241077571667836
9.36100e-06;0.008242866149280546
9.36125e-06;0.008244654726893256
9.36150e-06;0.008246443304505954
9.36175e-06;0.008243159855581206
9.36200e-06;0.008237741369101947
9.36225e-06;0.008232322882622723
9.36250e-06;0.008226904396143464
9.36275e-06;0.008221485909664204
9.36300e-06;0.00821606742318498
9.36325e-06;0.008210648936705721
9.36350e-06;0.00820523045022646
9.36375e-06;0.008199811963747238
9.36400e-06;0.008194393477267976
9.36425e-06;0.008188974990788717
9.36450e-06;0.008183556504309493
9.36475e-06;0.008178138017830234
9.36500e-06;0.008172719531350974
9.36525e-06;0.00816730104487175
9.36550e-06;0.00816188255839249
9.36575e-06;0.008156464071913231
9.36600e-06;0.008151045585434008
9.36625e-06;0.008139220497803025
9.36650e-06;0.008124698591857613
9.36675e-06;0.0081101766859122
9.36700e-06;0.008095654779966887
9.36725e-06;0.008081132874021475
9.36750e-06;0.00806661096807606
9.36775e-06;0.008052089062130747
9.36800e-06;0.008037567156185334
9.36825e-06;0.008023045250239922
9.36850e-06;0.008008523344294608
9.36875e-06;0.007994001438349196
9.36900e-06;0.007979479532403784
9.36925e-06;0.007964957626458468
9.36950e-06;0.007950435720513056
9.36975e-06;0.007935913814567644
9.37000e-06;0.00792139190862233
9.37025e-06;0.007906870002676918
9.37050e-06;0.007892348096731505
9.37075e-06;0.00788005147012022
9.37100e-06;0.007868691560798015
9.37125e-06;0.007857331651475811
9.37150e-06;0.007845971742153684
9.37175e-06;0.007834611832831481
9.37200e-06;0.007823251923509278
9.37225e-06;0.0078118920141871506
9.37250e-06;0.007800532104864947
9.37275e-06;0.007789172195542743
9.37300e-06;0.007777812286220617
9.37325e-06;0.007766452376898413
9.37350e-06;0.007755092467576209
9.37375e-06;0.007743732558254082
9.37400e-06;0.007732372648931879
9.37425e-06;0.007721012739609676
9.37450e-06;0.007709652830287549
9.37475e-06;0.0076982929209653455
9.37500e-06;0.007686933011643141
9.37525e-06;0.007675573102320938
9.37550e-06;0.007664213192998811
9.37575e-06;0.007653019396694718
9.37600e-06;0.007642474735353075
9.37625e-06;0.007631930074011502
9.37650e-06;0.007621385412669859
9.37675e-06;0.007610840751328215
9.37700e-06;0.007600296089986642
9.37725e-06;0.0075897514286449985
9.37750e-06;0.007579206767303354
9.37775e-06;0.007568662105961781
9.37800e-06;0.007558117444620138
9.37825e-06;0.007547572783278494
9.37850e-06;0.007537028121936922
9.37875e-06;0.007526483460595278
9.37900e-06;0.0075159387992536335
9.37925e-06;0.007505394137912061
9.37950e-06;0.007494849476570417
9.37975e-06;0.007484304815228773
9.38000e-06;0.007473760153887201
9.38025e-06;0.007463215492545557
9.38050e-06;0.007452670831203913
9.38075e-06;0.007442126169862341
9.38100e-06;0.007436303889166386
9.38125e-06;0.0074324694647953165
9.38150e-06;0.007428635040424272
9.38175e-06;0.007424800616053202
9.38200e-06;0.007420966191682131
9.38225e-06;0.007417131767311087
9.38250e-06;0.007413297342940017
9.38275e-06;0.007409462918568946
9.38300e-06;0.007405628494197902
9.38325e-06;0.0074017940698268316
9.38350e-06;0.007397959645455762
9.38375e-06;0.007394125221084691
9.38400e-06;0.007390290796713646
9.38425e-06;0.0073864563723425765
9.38450e-06;0.007382621947971506
9.38475e-06;0.007378787523600462
9.38500e-06;0.007374953099229391
9.38525e-06;0.007371118674858321
9.38550e-06;0.007367284250487277
9.38575e-06;0.007363449826116207
9.38600e-06;0.007359615401745136
9.38625e-06;0.0073557809773740915
9.38650e-06;0.007356813578112264
9.38675e-06;0.007359894922349648
9.38700e-06;0.00736297626658701
9.38725e-06;0.007366057610824393
9.38750e-06;0.007369138955061777
9.38775e-06;0.00737222029929914
9.38800e-06;0.0073753016435365235
9.38825e-06;0.007378382987773907
9.38850e-06;0.00738146433201127
9.38875e-06;0.007384545676248654
9.38900e-06;0.007387627020486037
9.38925e-06;0.0073907083647234
9.38950e-06;0.007393789708960784
9.38975e-06;0.007396871053198167
9.39000e-06;0.00739995239743553
9.39025e-06;0.007403033741672914
9.39050e-06;0.0074061150859102975
9.39075e-06;0.00740919643014766
9.39100e-06;0.007412277774385044
9.39125e-06;0.007415359118622428
9.39150e-06;0.0074184404628597905
9.39175e-06;0.007421521807097174
9.39200e-06;0.00742283852420242
9.39225e-06;0.007423412432654548
9.39250e-06;0.007423986341106673
9.39275e-06;0.007424560249558801
9.39300e-06;0.007425134158010929
9.39325e-06;0.0074257080664630526
9.39350e-06;0.0074262819749151806
9.39375e-06;0.0074268558833673086
9.39400e-06;0.007427429791819433
9.39425e-06;0.007428003700271561
9.39450e-06;0.007428577608723689
9.39475e-06;0.007429151517175814
9.39500e-06;0.007429725425627942
9.39525e-06;0.00743029933408007
9.39550e-06;0.007430873242532193
9.39575e-06;0.007431447150984322
9.39600e-06;0.00743202105943645
9.39625e-06;0.007432594967888574
9.39650e-06;0.007433168876340702
9.39675e-06;0.00743374278479283
9.39700e-06;0.007434316693244954
9.39725e-06;0.007434890601697082
9.39750e-06;0.00743546451014921
9.39775e-06;0.007436038418601335
9.39800e-06;0.007436612327053463
9.39825e-06;0.007437186235505591
9.39850e-06;0.0074377601439577145
9.39875e-06;0.0074383340524098425
9.39900e-06;0.0074389079608619705
9.39925e-06;0.007439481869314095
9.39950e-06;0.007440210099536192
9.39975e-06;0.007441541386987648
9.40000e-06;0.007442872674439094
9.40025e-06;0.00744420396189055
9.40050e-06;0.007445535249342005
9.40075e-06;0.00744686653679346
9.40100e-06;0.007448197824244907
