Time(s);Current(A)
2.25000e-06;0.008891758067153963
2.25025e-06;0.008895315317642002
2.25050e-06;0.00889887256813004
2.25075e-06;0.008902429818618073
2.25100e-06;0.008905987069106112
2.25125e-06;0.00890954431959415
2.25150e-06;0.008913101570082183
2.25175e-06;0.00891665882057022
2.25200e-06;0.00892021607105826
2.25225e-06;0.008923773321546298
2.25250e-06;0.00892733057203433
2.25275e-06;0.008930887822522368
2.25300e-06;0.008934445073010408
2.25325e-06;0.00893800232349844
2.25350e-06;0.008941559573986478
2.25375e-06;0.008945116824474518
2.25400e-06;0.008948674074962549
2.25425e-06;0.008952231325450588
2.25450e-06;0.008955788575938626
2.25475e-06;0.008959345826426665
2.25500e-06;0.008959082268597122
2.25525e-06;0.008955488824357262
2.25550e-06;0.008951895380117402
2.25575e-06;0.00894830193587755
2.25600e-06;0.00894470849163769
2.25625e-06;0.00894111504739783
2.25650e-06;0.00893752160315797
2.25675e-06;0.008933928158918115
2.25700e-06;0.008930334714678256
2.25725e-06;0.008926741270438396
2.25750e-06;0.008923147826198543
2.25775e-06;0.008919554381958683
2.25800e-06;0.008915960937718823
2.25825e-06;0.008912367493478969
2.25850e-06;0.008908774049239109
2.25875e-06;0.008905180604999249
2.25900e-06;0.00890158716075939
2.25925e-06;0.008897993716519536
2.25950e-06;0.008894400272279676
2.25975e-06;0.008890806828039817
2.26000e-06;0.008887213383799962
2.26025e-06;0.008883619939560102
2.26050e-06;0.008880026495320242
2.26075e-06;0.008876433051080383
2.26100e-06;0.00887283960684053
2.26125e-06;0.008868955312514377
2.26150e-06;0.008856888910973144
2.26175e-06;0.008844822509431931
2.26200e-06;0.008832756107890699
2.26225e-06;0.008820689706349466
2.26250e-06;0.008808623304808253
2.26275e-06;0.00879655690326702
2.26300e-06;0.008784490501725787
2.26325e-06;0.008772424100184554
2.26350e-06;0.008760357698643341
2.26375e-06;0.008747635291674381
2.26400e-06;0.008716458337166553
2.26425e-06;0.00868528138265878
2.26450e-06;0.008654104428150951
2.26475e-06;0.008622927473643124
2.26500e-06;0.008591750519135296
2.26525e-06;0.00856057356462752
2.26550e-06;0.008529396610119692
2.26575e-06;0.008498219655611865
2.26600e-06;0.008467042701104089
2.26625e-06;0.008435420805801926
2.26650e-06;0.00839128196979276
2.26675e-06;0.00834714313378367
2.26700e-06;0.008303004297774504
2.26725e-06;0.008258865461765338
2.26750e-06;0.008214726625756173
2.26775e-06;0.008170587789747082
2.26800e-06;0.008126448953737918
2.26825e-06;0.008082310117728753
2.26850e-06;0.008038171281719662
2.26875e-06;0.007994032445710496
2.26900e-06;0.007953145626157995
2.26925e-06;0.007915092983173947
2.26950e-06;0.007877040340189967
2.26975e-06;0.007838987697205918
2.27000e-06;0.007800935054221873
2.27025e-06;0.0077628824112378906
2.27050e-06;0.007724829768253844
2.27075e-06;0.007686777125269798
2.27100e-06;0.007648724482285815
2.27125e-06;0.007610671839301768
2.27150e-06;0.007573229527711459
2.27175e-06;0.007552956875470435
2.27200e-06;0.007532684223229447
2.27225e-06;0.007512411570988424
2.27250e-06;0.007492138918747402
2.27275e-06;0.007471866266506413
2.27300e-06;0.00745159361426539
2.27325e-06;0.007431320962024367
2.27350e-06;0.007411048309783344
2.27375e-06;0.007390775657542355
2.27400e-06;0.007370503005301333
2.27425e-06;0.007350230353060309
2.27450e-06;0.007329957700819322
2.27475e-06;0.007309685048578298
2.27500e-06;0.007289412396337276
2.27525e-06;0.007269139744096287
2.27550e-06;0.007248867091855264
2.27575e-06;0.007228594439614241
2.27600e-06;0.007208321787373218
2.27625e-06;0.007192874673230404
2.27650e-06;0.007181633081166306
2.27675e-06;0.007170391489102208
2.27700e-06;0.00715914989703813
2.27725e-06;0.007147908304974033
2.27750e-06;0.007136666712909935
2.27775e-06;0.007125425120845837
2.27800e-06;0.0071141835287817584
2.27825e-06;0.007102941936717661
2.27850e-06;0.007091700344653563
2.27875e-06;0.007080458752589484
2.27900e-06;0.007069217160525387
2.27925e-06;0.0070579755684612895
2.27950e-06;0.007046733976397211
2.27975e-06;0.007035492384333113
2.28000e-06;0.007024250792269015
2.28025e-06;0.0070130092002049175
2.28050e-06;0.007001767608140839
2.28075e-06;0.006990803482544575
2.28100e-06;0.006987644960240427
2.28125e-06;0.006984486437936284
2.28150e-06;0.006981327915632136
2.28175e-06;0.006978169393327988
2.28200e-06;0.00697501087102384
2.28225e-06;0.006971852348719697
2.28250e-06;0.006968693826415549
2.28275e-06;0.0069655353041114
2.28300e-06;0.006962376781807258
2.28325e-06;0.00695921825950311
2.28350e-06;0.006956059737198961
2.28375e-06;0.006952901214894819
2.28400e-06;0.006949742692590671
2.28425e-06;0.006946584170286522
2.28450e-06;0.006943425647982374
2.28475e-06;0.006940267125678232
2.28500e-06;0.006937108603374083
2.28525e-06;0.006933950081069935
2.28550e-06;0.006930791558765793
2.28575e-06;0.006927633036461644
2.28600e-06;0.006924474514157496
2.28625e-06;0.006921315991853348
2.28650e-06;0.006918157469549205
2.28675e-06;0.006915137902851594
2.28700e-06;0.006916027393520567
2.28725e-06;0.006916916884189538
2.28750e-06;0.00691780637485851
2.28775e-06;0.006918695865527483
2.28800e-06;0.006919585356196453
2.28825e-06;0.006920474846865426
2.28850e-06;0.006921364337534399
2.28875e-06;0.006922253828203371
2.28900e-06;0.006923143318872342
2.28925e-06;0.006924032809541314
2.28950e-06;0.006924922300210287
2.28975e-06;0.006925811790879258
2.29000e-06;0.00692670128154823
2.29025e-06;0.006927590772217203
2.29050e-06;0.006928480262886175
2.29075e-06;0.0069293697535551466
2.29100e-06;0.0069302592442241195
2.29125e-06;0.0069311487348930915
2.29150e-06;0.006932038225562063
2.29175e-06;0.006932927716231036
2.29200e-06;0.006933817206900008
2.29225e-06;0.006934706697568979
2.29250e-06;0.006935596188237952
2.29275e-06;0.00693640899900021
2.29300e-06;0.00693506467366886
2.29325e-06;0.006933720348337512
2.29350e-06;0.006932376023006162
2.29375e-06;0.006931031697674812
2.29400e-06;0.006929687372343464
2.29425e-06;0.006928343047012114
2.29450e-06;0.006926998721680763
2.29475e-06;0.006925654396349413
2.29500e-06;0.006924310071018065
2.29525e-06;0.006922965745686715
2.29550e-06;0.006921621420355365
2.29575e-06;0.006920230936930444
2.29600e-06;0.006917541947887208
2.29625e-06;0.006914852958843972
2.29650e-06;0.00691216396980074
2.29675e-06;0.006909474980757504
2.29700e-06;0.006906785991714268
2.29725e-06;0.006904097002671032
2.29750e-06;0.0069014080136278015
2.29775e-06;0.0068987190245845655
2.29800e-06;0.0068960300355413295
2.29825e-06;0.006893341046498098
2.29850e-06;0.006890652057454862
2.29875e-06;0.006887963068411626
2.29900e-06;0.00688555112031737
2.29925e-06;0.006883380617177877
2.29950e-06;0.006881210114038381
2.29975e-06;0.006879039610898884
2.30000e-06;0.006876869107759392
2.30025e-06;0.006874698604619896
2.30050e-06;0.0068725281014804
2.30075e-06;0.006870357598340907
2.30100e-06;0.0068681870952014105
2.30125e-06;0.006866016592061914
2.30150e-06;0.006863846088922418
2.30175e-06;0.006861675585782926
2.30200e-06;0.006859971862203036
2.30225e-06;0.0068713994409342624
2.30250e-06;0.006882827019665469
2.30275e-06;0.006894254598396696
2.30300e-06;0.006905682177127922
2.30325e-06;0.006917109755859149
2.30350e-06;0.0069285373345903565
2.30375e-06;0.006939964913321583
2.30400e-06;0.006951392492052809
2.30425e-06;0.0069628200707840164
2.30450e-06;0.006974247649515243
2.30475e-06;0.00698567522824647
2.30500e-06;0.006997102806977677
2.30525e-06;0.007009086747720483
2.30550e-06;0.007036722097397646
2.30575e-06;0.007064357447074809
2.30600e-06;0.007091992796751925
2.30625e-06;0.007119628146429088
2.30650e-06;0.007147263496106251
2.30675e-06;0.007174898845783367
2.30700e-06;0.00720253419546053
2.30725e-06;0.007230169545137693
2.30750e-06;0.0072578048948148555
2.30775e-06;0.007285440244491972
2.30800e-06;0.0073130755941691345
2.30825e-06;0.0073407109438462965
2.30850e-06;0.007368299113230458
2.30875e-06;0.0073945600207897585
2.30900e-06;0.00742082092834906
2.30925e-06;0.007447081835908316
2.30950e-06;0.0074733427434676165
2.30975e-06;0.007499603651026918
2.31000e-06;0.007525864558586218
2.31025e-06;0.0075521254661454745
2.31050e-06;0.007578386373704776
2.31075e-06;0.007604647281264076
2.31100e-06;0.0076309081888233325
2.31125e-06;0.007657169096382634
2.31150e-06;0.007671939105862083
2.31175e-06;0.0076766946413895
2.31200e-06;0.007681450176916909
2.31225e-06;0.007686205712444326
2.31250e-06;0.0076909612479717435
2.31275e-06;0.007695716783499152
2.31300e-06;0.007700472319026569
2.31325e-06;0.007705227854553986
2.31350e-06;0.007709983390081394
2.31375e-06;0.0077147389256088114
2.31400e-06;0.0077194944611362285
2.31425e-06;0.0077233762450556
2.31450e-06;0.007702677911275664
2.31475e-06;0.007681979577495693
2.31500e-06;0.007661281243715722
2.31525e-06;0.007640582909935786
2.31550e-06;0.007619884576155815
2.31575e-06;0.007599186242375845
2.31600e-06;0.007578487908595909
2.31625e-06;0.007557789574815938
2.31650e-06;0.007537091241035967
2.31675e-06;0.007516392907255996
2.31700e-06;0.007495694573476061
2.31725e-06;0.007474649494397103
2.31750e-06;0.007443849880752424
2.31775e-06;0.007413050267107796
2.31800e-06;0.007382250653463117
2.31825e-06;0.007351451039818438
2.31850e-06;0.007320651426173758
2.31875e-06;0.007289851812529131
2.31900e-06;0.007259052198884452
2.31925e-06;0.0072282525852397726
2.31950e-06;0.007197452971595145
2.31975e-06;0.0071666533579504655
2.32000e-06;0.0071358537443057864
2.32025e-06;0.0071055003732173865
2.32050e-06;0.007087700563642299
2.32075e-06;0.007069900754067213
2.32100e-06;0.0070521009444921255
2.32125e-06;0.007034301134917069
2.32150e-06;0.007016501325341982
2.32175e-06;0.006998701515766895
2.32200e-06;0.006980901706191839
2.32225e-06;0.0069631018966167515
2.32250e-06;0.006945302087041664
2.32275e-06;0.006928446942479564
2.32300e-06;0.0069381668302279115
2.32325e-06;0.006947886717976275
2.32350e-06;0.00695760660572464
2.32375e-06;0.006967326493472987
2.32400e-06;0.00697704638122135
2.32425e-06;0.006986766268969715
2.32450e-06;0.006996486156718062
2.32475e-06;0.007006206044466426
2.32500e-06;0.00701592593221479
2.32525e-06;0.007026470563695359
2.32550e-06;0.007060216638048251
2.32575e-06;0.007093962712401199
2.32600e-06;0.007127708786754147
2.32625e-06;0.007161454861107038
2.32650e-06;0.007195200935459987
2.32675e-06;0.007228947009812935
2.32700e-06;0.007262693084165883
2.32725e-06;0.0072964391585187745
2.32750e-06;0.007330185232871723
2.32775e-06;0.007363931307224671
2.32800e-06;0.007400609160846464
2.32825e-06;0.007439842099973407
2.32850e-06;0.007479075039100349
2.32875e-06;0.007518307978227225
2.32900e-06;0.007557540917354167
2.32925e-06;0.00759677385648111
2.32950e-06;0.007636006795608052
2.32975e-06;0.007675239734734929
2.33000e-06;0.007714472673861871
2.33025e-06;0.007753705612988814
2.33050e-06;0.007792245640011794
2.33075e-06;0.007811292871913058
2.33100e-06;0.007830340103814323
2.33125e-06;0.007849387335715587
2.33150e-06;0.007868434567616819
2.33175e-06;0.007887481799518084
2.33200e-06;0.007906529031419347
2.33225e-06;0.007925576263320579
2.33250e-06;0.007944623495221844
2.33275e-06;0.007963670727123107
2.33300e-06;0.00798271795902434
2.33325e-06;0.007984617169645524
2.33350e-06;0.007971571646507249
2.33375e-06;0.007958526123368972
2.33400e-06;0.007945480600230717
2.33425e-06;0.007932435077092442
2.33450e-06;0.007919389553954164
2.33475e-06;0.00790634403081591
2.33500e-06;0.007893298507677634
2.33525e-06;0.007880252984539357
2.33550e-06;0.00786720746140108
2.33575e-06;0.00785335874852004
2.33600e-06;0.007816914943109295
2.33625e-06;0.0077804711376985485
2.33650e-06;0.007744027332287865
2.33675e-06;0.00770758352687712
2.33700e-06;0.007671139721466374
2.33725e-06;0.00763469591605569
2.33750e-06;0.007598252110644944
2.33775e-06;0.0075618083052342
2.33800e-06;0.007525364499823454
2.33825e-06;0.00748892069441277
2.33850e-06;0.007451510821986471
2.33875e-06;0.0074132590090175325
2.33900e-06;0.007375007196048659
2.33925e-06;0.00733675538307972
2.33950e-06;0.007298503570110782
2.33975e-06;0.007260251757141844
2.34000e-06;0.0072219999441729705
2.34025e-06;0.007183748131204032
2.34050e-06;0.007145496318235094
2.34075e-06;0.00710724450526622
2.34100e-06;0.007069825306625481
2.34125e-06;0.007055828964117976
2.34150e-06;0.007041832621610494
2.34175e-06;0.007027836279102988
2.34200e-06;0.0070138399365954835
2.34225e-06;0.006999843594087978
2.34250e-06;0.006985847251580496
2.34275e-06;0.00697185090907299
2.34300e-06;0.006957854566565485
2.34325e-06;0.006943858224058004
2.34350e-06;0.006929861881550498
2.34375e-06;0.006915865539042993
2.34400e-06;0.006902910319581806
2.34425e-06;0.006919243660869853
2.34450e-06;0.0069355770021579275
2.34475e-06;0.006951910343446002
2.34500e-06;0.006968243684734049
2.34525e-06;0.006984577026022123
2.34550e-06;0.007000910367310198
2.34575e-06;0.007017243708598245
2.34600e-06;0.007033577049886319
2.34625e-06;0.007049910391174394
2.34650e-06;0.007066243732462468
2.34675e-06;0.007082577073750515
2.34700e-06;0.007099401658730968
2.34725e-06;0.0071300457636800365
2.34750e-06;0.007160689868629053
2.34775e-06;0.00719133397357812
2.34800e-06;0.007221978078527189
2.34825e-06;0.007252622183476257
2.34850e-06;0.007283266288425273
2.34875e-06;0.007313910393374341
2.34900e-06;0.007344554498323409
2.34925e-06;0.007375198603272425
2.34950e-06;0.007405842708221494
2.34975e-06;0.007431422259922271
2.35000e-06;0.007452587984588583
2.35025e-06;0.0074737537092549305
2.35050e-06;0.0074949194339212774
2.35075e-06;0.007516085158587625
2.35100e-06;0.007537250883253937
2.35125e-06;0.0075584166079202845
2.35150e-06;0.0075795823325866315
2.35175e-06;0.007600748057252943
2.35200e-06;0.007621913781919291
2.35225e-06;0.007641906930368411
2.35250e-06;0.0076289135169456184
2.35275e-06;0.007615920103522849
2.35300e-06;0.007602926690100056
2.35325e-06;0.0075899332766772645
2.35350e-06;0.007576939863254494
2.35375e-06;0.0075639464498317025
2.35400e-06;0.007550953036408911
2.35425e-06;0.00753795962298614
2.35450e-06;0.0075249662095633486
2.35475e-06;0.007511972796140557
2.35500e-06;0.007481059986500201
2.35525e-06;0.007434530179349905
2.35550e-06;0.0073880003721995295
2.35575e-06;0.007341470565049154
2.35600e-06;0.007294940757898858
2.35625e-06;0.007248410950748483
2.35650e-06;0.007201881143598108
2.35675e-06;0.007155351336447732
2.35700e-06;0.007108821529297436
2.35725e-06;0.007062291722147061
2.35750e-06;0.007015346305444908
2.35775e-06;0.006956709085689913
2.35800e-06;0.006898071865934818
2.35825e-06;0.006839434646179724
2.35850e-06;0.006780797426424729
2.35875e-06;0.006722160206669634
2.35900e-06;0.00666352298691454
2.35925e-06;0.006604885767159446
2.35950e-06;0.006546248547404451
2.35975e-06;0.0064946332477309465
2.36000e-06;0.006449137646907857
2.36025e-06;0.006403642046084845
2.36050e-06;0.006358146445261756
2.36075e-06;0.006312650844438666
2.36100e-06;0.006267155243615577
2.36125e-06;0.006221659642792565
2.36150e-06;0.006176164041969475
2.36175e-06;0.006131956754030051
2.36200e-06;0.006123991897107436
2.36225e-06;0.0061160270401848064
2.36250e-06;0.006108062183262177
2.36275e-06;0.006100097326339562
2.36300e-06;0.0060921324694169325
2.36325e-06;0.006084167612494303
2.36350e-06;0.006076202755571674
2.36375e-06;0.006068237898649059
2.36400e-06;0.006060273041726429
2.36425e-06;0.006053730761778147
2.36450e-06;0.006087207989912973
2.36475e-06;0.006120685218047854
2.36500e-06;0.006154162446182736
2.36525e-06;0.006187639674317618
2.36550e-06;0.006221116902452443
2.36575e-06;0.006254594130587325
2.36600e-06;0.0062880713587222066
2.36625e-06;0.006321548586857032
2.36650e-06;0.006355025814991914
2.36675e-06;0.006389227869583631
2.36700e-06;0.006443820524313421
2.36725e-06;0.006498413179043304
2.36750e-06;0.0065530058337731865
2.36775e-06;0.00660759848850307
2.36800e-06;0.00666219114323286
2.36825e-06;0.0067167974435627074
2.36850e-06;0.006771787617811522
2.36875e-06;0.006826777792060244
2.36900e-06;0.006881767966309058
2.36925e-06;0.006936758140557873
2.36950e-06;0.0069917483148066875
2.36975e-06;0.007045401674450399
2.37000e-06;0.007072824806367063
2.37025e-06;0.0061275238348434714
2.37050e-06;-0.0017506267238311022
2.37075e-06;-0.00686419229546242
2.37100e-06;-0.005005141488460114
2.37125e-06;-0.0025811212298862407
2.37150e-06;0.003988754901867104
2.37175e-06;0.008654632902379483
2.37200e-06;0.008583267454094216
2.37225e-06;0.007796078583437683
2.37250e-06;0.002744699293386964
2.37275e-06;-0.000614565659202702
2.37300e-06;0.00044388948331881394
2.37325e-06;0.0015033543361675547
2.37350e-06;0.004990712392350863
2.37375e-06;0.008416005717383157
2.37400e-06;0.009566442738641262
2.37425e-06;0.008780683428998196
2.37450e-06;0.00643212066635577
2.37475e-06;0.004322461978187527
2.37500e-06;0.003908984153804116
2.37525e-06;0.004934215205670834
2.37550e-06;0.006874947355584121
2.37575e-06;0.008664855690711603
2.37600e-06;0.009356689290316944
2.37625e-06;0.008838060878311535
2.37650e-06;0.007342663809441903
2.37675e-06;0.005998871414323752
2.37700e-06;0.0057192516788485475
2.37725e-06;0.006342257559053188
2.37750e-06;0.007539936741528294
2.37775e-06;0.008644201420394673
2.37800e-06;0.009061630383196496
2.37825e-06;0.008721809786991299
2.37850e-06;0.007771121929717331
2.37875e-06;0.006916351546936477
2.37900e-06;0.006729056064163003
2.37925e-06;0.00710795844465239
2.37950e-06;0.007847567893722618
2.37975e-06;0.008529369871064686
2.38000e-06;0.008781663829345936
2.38025e-06;0.008560383016352272
2.38050e-06;0.007957267562536315
2.38075e-06;0.007415069669683119
2.38100e-06;0.007291802424063263
2.38125e-06;0.00752394354296868
2.38150e-06;0.007982208436152717
2.38175e-06;0.00840339305922183
2.38200e-06;0.00855402456476923
2.38225e-06;0.008406469943488471
2.38250e-06;0.008018302598524199
2.38275e-06;0.007666955282997238
2.38300e-06;0.007576759779235624
2.38325e-06;0.007707990895045065
2.38350e-06;0.007979735715437383
2.38375e-06;0.00822720543521137
2.38400e-06;0.00830425160247784
2.38425e-06;0.008193671395469206
2.38450e-06;0.007931632714397516
2.38475e-06;0.007692015327209128
2.38500e-06;0.0076154234705374585
2.38525e-06;0.0076770493042422755
2.38550e-06;0.007826290480107204
2.38575e-06;0.007960011137574897
2.38600e-06;0.007986762267327968
2.38625e-06;0.007895868354422238
2.38650e-06;0.0077100879569332245
2.38675e-06;0.007538433646661836
2.38700e-06;0.007469066709983601
2.38725e-06;0.007486531075979988
2.38750e-06;0.007559215386800646
2.38775e-06;0.007622605356668091
2.38800e-06;0.007619512791076328
2.38825e-06;0.007543350346019945
2.38850e-06;0.007408470934960055
2.38875e-06;0.007283256287979137
2.38900e-06;0.007223018344603119
2.38925e-06;0.007218163422014928
2.38950e-06;0.007248977310459153
2.38975e-06;0.00727514082342689
2.39000e-06;0.007260925083503008
2.39025e-06;0.007202301077234256
2.39050e-06;0.007108355147653573
2.39075e-06;0.007022015960804143
2.39100e-06;0.006978017793618798
2.39125e-06;0.006970364478557937
2.39150e-06;0.006986111788898221
2.39175e-06;0.006997892837290278
2.39200e-06;0.006971451658074348
2.39225e-06;0.006942715210796177
2.39250e-06;0.006878116348714465
2.39275e-06;0.0068158172083714885
2.39300e-06;0.00678945006930024
2.39325e-06;0.006764599715228416
2.39350e-06;0.0067634483676955485
2.39375e-06;0.006760656050413438
2.39400e-06;0.006732224402024908
2.39425e-06;0.006702292242763459
2.39450e-06;0.006648915352044477
2.39475e-06;0.006596931257648956
2.39500e-06;0.006566708908780161
2.39525e-06;0.006537403737186152
2.39550e-06;0.00652242900150891
2.39575e-06;0.006506408464135682
2.39600e-06;0.006474047798635573
2.39625e-06;0.0064407445923123936
2.39650e-06;0.006392714657324968
2.39675e-06;0.006345569575443857
2.39700e-06;0.006312249880522483
2.39725e-06;0.006279532006158689
2.39750e-06;0.006256217276825765
2.39775e-06;0.006232289802822894
2.39800e-06;0.00619878849999947
2.39825e-06;0.006164754324574194
2.39850e-06;0.006122394281421099
2.39875e-06;0.006080811264782401
2.39900e-06;0.006051368898569795
2.39925e-06;0.0060219265323572385
2.39950e-06;0.005992532505342098
2.39975e-06;0.005963893754096063
2.40000e-06;0.005935255002850028
2.40025e-06;0.005906616251604041
2.40050e-06;0.005878237599273178
2.40075e-06;0.00585392286232576
2.40100e-06;0.005829608125378385
