Time(s);Current(A)
4.30000e-06;0.0014178686308691437
4.30025e-06;0.001407084579022431
4.30050e-06;0.0013963005271756814
4.30075e-06;0.0013855164753289687
4.30100e-06;0.0013747324234822558
4.30125e-06;0.0013639483716355065
4.30150e-06;0.0013531643197887936
4.30175e-06;0.0013423802679420809
4.30200e-06;0.0013300288832379448
4.30225e-06;0.0013145749704545307
4.30250e-06;0.0012991210576711167
4.30275e-06;0.0012836671448876501
4.30300e-06;0.001268213232104236
4.30325e-06;0.0012527593193207695
4.30350e-06;0.0012373054065373554
4.30375e-06;0.0012218514937539413
4.30400e-06;0.0012063975809704747
4.30425e-06;0.0011909436681870607
4.30450e-06;0.0011759613863438986
4.30475e-06;0.0011619126957466348
4.30500e-06;0.0011478640051494184
4.30525e-06;0.0011338153145522023
4.30550e-06;0.0011197666239549384
4.30575e-06;0.001105717933357722
4.30600e-06;0.0010916692427605057
4.30625e-06;0.0010776205521632418
4.30650e-06;0.0010635718615660255
4.30675e-06;0.0010495231709688093
4.30700e-06;0.0010354744803715455
4.30725e-06;0.0010214257897743291
4.30750e-06;0.0010094117477802578
4.30775e-06;0.0010014252832037725
4.30800e-06;0.0009934388186272874
4.30825e-06;0.000985452354050775
4.30850e-06;0.0009774658894742899
4.30875e-06;0.0009694794248978045
4.30900e-06;0.0009614929603212922
4.30925e-06;0.000953506495744807
4.30950e-06;0.0009455200311683217
4.30975e-06;0.0009375335665918093
4.31000e-06;0.0009295471020153241
4.31025e-06;0.0009215606374388389
4.31050e-06;0.0009146881173274437
4.31075e-06;0.0009100206450876272
4.31100e-06;0.0009053531728478106
4.31125e-06;0.0009006857006079782
4.31150e-06;0.0008960182283681617
4.31175e-06;0.0008913507561283293
4.31200e-06;0.0008866832838885127
4.31225e-06;0.0008820158116486962
4.31250e-06;0.0008773483394088638
4.31275e-06;0.0008726808671690472
4.31300e-06;0.0008680133949292306
4.31325e-06;0.0008633459226893983
4.31350e-06;0.0008586784504495817
4.31375e-06;0.0008540109782097651
4.31400e-06;0.0008493435059699327
4.31425e-06;0.0008446760337301162
4.31450e-06;0.000840790468695072
4.31475e-06;0.0008384526853237329
4.31500e-06;0.0008361149019524018
4.31525e-06;0.0008337771185810706
4.31550e-06;0.0008314393352097315
4.31575e-06;0.0008291015518384003
4.31600e-06;0.0008267637684670613
4.31625e-06;0.0008244259850957301
4.31650e-06;0.0008220882017243989
4.31675e-06;0.0008197504183530598
4.31700e-06;0.0008174126349817287
4.31725e-06;0.0008150748516103975
4.31750e-06;0.0008127370682390584
4.31775e-06;0.0008103992848677272
4.31800e-06;0.0008080615014963961
4.31825e-06;0.000805723718125057
4.31850e-06;0.0008049689830186477
4.31875e-06;0.0008073478845663592
4.31900e-06;0.0008097267861140788
4.31925e-06;0.0008121056876617902
4.31950e-06;0.0008144845892095017
4.31975e-06;0.0008168634907572212
4.32000e-06;0.0008192423923049327
4.32025e-06;0.0008216212938526522
4.32050e-06;0.0008240001954003637
4.32075e-06;0.0008263790969480752
4.32100e-06;0.0008287579984957947
4.32125e-06;0.0008311369000435062
4.32150e-06;0.0008370733331430735
4.32175e-06;0.0008437095531330913
4.32200e-06;0.0008503457731230866
4.32225e-06;0.0008569819931130818
4.32250e-06;0.0008636182131030996
4.32275e-06;0.0008702544330930949
4.32300e-06;0.0008768906530830902
4.32325e-06;0.0008835268730731079
4.32350e-06;0.0008901630930631031
4.32375e-06;0.0008967993130530984
4.32400e-06;0.0009034355330431162
4.32425e-06;0.0009103175632936981
4.32450e-06;0.0009176861738081341
4.32475e-06;0.0009250547843225951
4.32500e-06;0.0009324233948370311
4.32525e-06;0.000939792005351492
4.32550e-06;0.000947160615865928
4.32575e-06;0.000954529226380364
4.32600e-06;0.0009618978368948249
4.32625e-06;0.0009692664474092609
4.32650e-06;0.0009753069308471289
4.32675e-06;0.0009810861640604446
4.32700e-06;0.0009868653972737408
4.32725e-06;0.000992644630487037
4.32750e-06;0.0009984238637003526
4.32775e-06;0.0010042030969136487
4.32800e-06;0.0010099823301269446
4.32825e-06;0.0010157615633402603
4.32850e-06;0.001022631216489517
4.32875e-06;0.0010316593508137946
4.32900e-06;0.0010406874851381026
4.32925e-06;0.0010497156194623802
4.32950e-06;0.001058743753786688
4.32975e-06;0.0010677718881109655
4.33000e-06;0.001076800022435243
4.33025e-06;0.001085828156759551
4.33050e-06;0.0010948562910838284
4.33075e-06;0.001103884425408106
4.33100e-06;0.0011129125597324138
4.33125e-06;0.0011219406940566913
4.33150e-06;0.0011325879950191916
4.33175e-06;0.0011464404287864082
4.33200e-06;0.0011602928625535779
4.33225e-06;0.0011741452963207476
4.33250e-06;0.0011879977300879644
4.33275e-06;0.001201850163855134
4.33300e-06;0.0012157025976223038
4.33325e-06;0.0012295550313895203
4.33350e-06;0.00124340746515669
4.33375e-06;0.0012572598989239068
4.33400e-06;0.0012711123326910765
4.33425e-06;0.0012849647664582462
4.33450e-06;0.0012985050864741396
4.33475e-06;0.0013114275787757391
4.33500e-06;0.0013243500710773389
4.33525e-06;0.0013372725633789822
4.33550e-06;0.0013501950556805817
4.33575e-06;0.0013631175479821812
4.33600e-06;0.0013760400402838245
4.33625e-06;0.001388962532585424
4.33650e-06;0.0014018850248870235
4.33675e-06;0.001414807517188667
4.33700e-06;0.0014277300094902665
4.33725e-06;0.0014381639532236926
4.33750e-06;0.0014436718266796205
4.33775e-06;0.0014491797001355297
4.33800e-06;0.0014546875735914574
4.33825e-06;0.0014601954470473666
4.33850e-06;0.0014657033205032757
4.33875e-06;0.0014712111939592036
4.33900e-06;0.0014767190674151128
4.33925e-06;0.0014822269408710218
4.33950e-06;0.0014877348143269497
4.33975e-06;0.001493242687782859
4.34000e-06;0.0014961189126562636
4.34025e-06;0.0014937858014418888
4.34050e-06;0.001491452690227522
4.34075e-06;0.001489119579013155
4.34100e-06;0.0014867864677987803
4.34125e-06;0.0014844533565844136
4.34150e-06;0.0014821202453700467
4.34175e-06;0.001479787134155672
4.34200e-06;0.0014774540229413051
4.34225e-06;0.0014751209117269304
4.34250e-06;0.0014727878005125637
4.34275e-06;0.001469027312210776
4.34300e-06;0.0014624413376258273
4.34325e-06;0.0014558553630409012
4.34350e-06;0.0014492693884559748
4.34375e-06;0.0014426834138710264
4.34400e-06;0.0014360974392861
4.34425e-06;0.0014295114647011737
4.34450e-06;0.0014229254901162252
4.34475e-06;0.0014163395155312988
4.34500e-06;0.0014097535409463727
4.34525e-06;0.001403167566361424
4.34550e-06;0.001396439138228922
4.34575e-06;0.0013901161961186565
4.34600e-06;0.001385154101930422
4.34625e-06;0.0013801920077422042
4.34650e-06;0.0013752299135539696
4.34675e-06;0.0013702678193657518
4.34700e-06;0.0013653057251775342
4.34725e-06;0.0013603436309892996
4.34750e-06;0.0013553815368010818
4.34775e-06;0.0013504194426128642
4.34800e-06;0.0013454573484246296
4.34825e-06;0.0013404952542364118
4.34850e-06;0.0013355331600481942
4.34875e-06;0.0013305710658599596
4.34900e-06;0.0013256089716717418
4.34925e-06;0.0013206468774835242
4.34950e-06;0.0013156847832952894
4.34975e-06;0.0013125785056869988
4.35000e-06;0.0013098372778592732
4.35025e-06;0.0013070960500315384
4.35050e-06;0.0013043548222038128
4.35075e-06;0.001301613594376078
4.35100e-06;0.0012988723665483524
4.35125e-06;0.0012961311387206268
4.35150e-06;0.001293389910892892
4.35175e-06;0.0012906486830651664
4.35200e-06;0.0012879074552374409
4.35225e-06;0.001285166227409706
4.35250e-06;0.0012824249995819804
4.35275e-06;0.001279683771754255
4.35300e-06;0.00127694254392652
4.35325e-06;0.0012742013160987945
4.35350e-06;0.0012716888935864566
4.35375e-06;0.0012696293901280093
4.35400e-06;0.001267569886669569
4.35425e-06;0.0012655103832111287
4.35450e-06;0.0012634508797526815
4.35475e-06;0.0012613913762942412
4.35500e-06;0.0012593318728357937
4.35525e-06;0.0012572723693773534
4.35550e-06;0.0012553719726432005
4.35575e-06;0.0012537865269271493
4.35600e-06;0.0012522010812111035
4.35625e-06;0.0012506156354950577
4.35650e-06;0.0012490301897790067
4.35675e-06;0.0012474447440629609
4.35700e-06;0.001245859298346915
4.35725e-06;0.0012442738526308639
4.35750e-06;0.001241985285466544
4.35775e-06;0.0012383048926772
4.35800e-06;0.0012346244998878435
4.35825e-06;0.0012292123377471847
4.35850e-06;0.00122037214625872
4.35875e-06;0.0012115319547702254
4.35900e-06;0.0012011653962816873
4.35925e-06;0.0011877774014409008
4.35950e-06;0.0011743894066001596
4.35975e-06;0.001159010906556813
4.36000e-06;0.0011396922107557478
4.36025e-06;0.001120373514954748
4.36050e-06;0.0010991256442201035
4.36075e-06;0.001074058980708921
4.36100e-06;0.0010489923171978237
4.36125e-06;0.0010223690057617008
4.36150e-06;0.0009926643170238103
4.36175e-06;0.0009629596282860205
4.36200e-06;0.0009316928345446795
4.36225e-06;0.0008973338612401324
4.36250e-06;0.0008629748879357018
4.36275e-06;0.0008274218520205232
4.36300e-06;0.0007895051747408041
4.36325e-06;0.0007515884974612136
4.36350e-06;0.0007136718201814947
4.36375e-06;0.0006757551429019041
4.36400e-06;0.0006363802302803836
4.36425e-06;0.000596718474391408
4.36450e-06;0.0005570567185025667
4.36475e-06;0.0005173949626137255
4.36500e-06;0.00047820210738962085
4.36525e-06;0.0004399374388430038
4.36550e-06;0.00040167277029638673
4.36575e-06;0.0003642107025483492
4.36600e-06;0.00032833737933504016
4.36625e-06;0.00029313392878893986
4.36650e-06;0.0002598165630708796
4.36675e-06;0.0002282534281203917
4.36700e-06;0.00019869922112543813
4.36725e-06;0.00017137562858241887
4.36750e-06;0.0001462965728565105
4.36775e-06;0.00012309928768333012
4.36800e-06;0.00010134759624917786
4.36825e-06;8.093730505914463e-05
4.36850e-06;6.198266418457307e-05
4.36875e-06;4.461283398314726e-05
4.36900e-06;2.8956950442329998e-05
4.36925e-06;1.5123451778057954e-05
4.36950e-06;3.090630114535376e-06
4.36975e-06;-7.399160494097138e-06
4.37000e-06;-1.6649533468736375e-05
4.37025e-06;-2.475613077382427e-05
4.37050e-06;-3.167776124760329e-05
4.37075e-06;-3.7363892206045055e-05
4.37100e-06;-4.176402254846248e-05
4.37125e-06;-4.484061914324936e-05
4.37150e-06;-4.6637665295505075e-05
4.37175e-06;-4.73469336754037e-05
4.37200e-06;-4.718897440337016e-05
4.37225e-06;-4.625404736957308e-05
4.37250e-06;-4.454669805815541e-05
4.37275e-06;-4.206562893167791e-05
4.37300e-06;-3.880955341673817e-05
4.37325e-06;-3.4785310553174004e-05
4.37350e-06;-3.0050807707070822e-05
4.37375e-06;-2.4756513518711825e-05
4.37400e-06;-1.907090784747413e-05
4.37425e-06;-1.308085063198011e-05
4.37450e-06;-6.819505300014832e-06
4.37475e-06;-3.1637042462238533e-07
4.37500e-06;6.399044497831313e-06
4.37525e-06;1.3298525245890236e-05
4.37550e-06;2.0308980438248003e-05
4.37575e-06;2.7287103112004088e-05
4.37600e-06;3.4128580021391596e-05
4.37625e-06;4.073609273839e-05
4.37650e-06;4.7058591362874e-05
4.37675e-06;5.304731970289366e-05
4.37700e-06;5.865352400850445e-05
4.37725e-06;6.378144056471114e-05
4.37750e-06;6.850824823887137e-05
4.37775e-06;7.310731802910997e-05
4.37800e-06;7.74535312744087e-05
4.37825e-06;8.171592374493432e-05
4.37850e-06;8.581239338311887e-05
4.37875e-06;8.974254707621003e-05
4.37900e-06;9.334347913244953e-05
4.37925e-06;9.694441118870122e-05
4.37950e-06;0.00010038697482164438
4.37975e-06;0.00010351604890000806
4.38000e-06;0.00010664512297838234
4.38025e-06;0.00010957659586314437
4.38050e-06;0.00011211691810767851
4.38075e-06;0.00011465724035220404
4.38100e-06;0.00011719756259672958
4.38125e-06;0.0001197378848412637
4.38150e-06;0.00012227820708578924
4.38175e-06;0.00012481852933031475
4.38200e-06;0.0001273588515748489
4.38225e-06;0.00012989917381937442
4.38250e-06;0.00013243949606389996
4.38275e-06;0.00013497981830843409
4.38300e-06;0.00013752014055295962
4.38325e-06;0.00014006046279748516
4.38350e-06;0.00014233178523448748
4.38375e-06;0.00014407062380833357
4.38400e-06;0.0001458094623821797
4.38425e-06;0.00014754830095603167
4.38450e-06;0.0001492871395298778
4.38475e-06;0.0001510259781037298
4.38500e-06;0.00015276481667757588
4.38525e-06;0.000154503655251422
4.38550e-06;0.00015624249382527398
4.38575e-06;0.0001579813323991201
4.38600e-06;0.0001597201709729662
4.38625e-06;0.0001614590095468182
4.38650e-06;0.00016319784812066432
4.38675e-06;0.00016474530436131452
4.38700e-06;0.00016591392016692454
4.38725e-06;0.00016708253597253058
4.38750e-06;0.0001679868522138272
4.38775e-06;0.00016836798870153226
4.38800e-06;0.00016827564874000883
4.38825e-06;0.0001672460643578138
4.38850e-06;0.0001657573307994876
4.38875e-06;0.00016335971359071616
4.38900e-06;0.00016054222937985542
4.38925e-06;0.0001568936203986894
4.38950e-06;0.00015290771854408594
4.38975e-06;0.00014797379938075197
4.39000e-06;0.0001421940069437694
4.39025e-06;0.00013556540307064477
4.39050e-06;0.00012814355042482133
4.39075e-06;0.00011998782082048218
4.39100e-06;0.00011115758851374484
4.39125e-06;0.00010170719716989251
4.39150e-06;9.166073219277309e-05
4.39175e-06;8.099208682266353e-05
4.39200e-06;6.96772451297388e-05
4.39225e-06;5.775353151288483e-05
4.39250e-06;4.529492762403014e-05
4.39275e-06;3.237778672679445e-05
4.39300e-06;1.9078453015019712e-05
4.39325e-06;5.470120501892102e-06
4.39350e-06;-8.392965266281297e-06
4.39375e-06;-2.248801482958549e-05
4.39400e-06;-3.6809689744923035e-05
4.39425e-06;-5.128395449844961e-05
4.39450e-06;-6.575821925197618e-05
4.39475e-06;-8.014599373170273e-05
4.39500e-06;-9.451675507776495e-05
4.39525e-06;-0.00010871097765473917
4.39550e-06;-0.00012255574256263044
4.39575e-06;-0.00013615736141140002
4.39600e-06;-0.00014927767377151537
4.39625e-06;-0.00016204920848482434
4.39650e-06;-0.00017413033947465156
4.39675e-06;-0.00018587155731419758
4.39700e-06;-0.00019667144895636328
4.39725e-06;-0.00020662591730251812
4.39750e-06;-0.00021554495005442342
4.39775e-06;-0.000223110946431901
4.39800e-06;-0.00022903719053308038
4.39825e-06;-0.0002332296837019258
4.39850e-06;-0.00023570380682741353
4.39875e-06;-0.00023648184387593975
4.39900e-06;-0.00023558610283339754
4.39925e-06;-0.0002330300372576007
4.39950e-06;-0.0002287755501273468
4.39975e-06;-0.00022270460317806427
4.40000e-06;-0.00021471852518712377
4.40025e-06;-0.0002048393827273584
4.40050e-06;-0.00019315775217284845
4.40075e-06;-0.0001797685264627343
4.40100e-06;-0.00016476659395245276
4.40125e-06;-0.00014824132355392475
4.40150e-06;-0.0001302497489149237
4.40175e-06;-0.00011079887413652
4.40200e-06;-8.990780792439102e-05
4.40225e-06;-6.767130408414259e-05
4.40250e-06;-4.4226999795091856e-05
4.40275e-06;-1.9715250659196324e-05
4.40300e-06;5.72360193719385e-06
4.40325e-06;3.1952697630511256e-05
4.40350e-06;5.88554187269917e-05
4.40375e-06;8.641550428466473e-05
4.40400e-06;0.00011446970145809258
4.40425e-06;0.00014267051116014024
4.40450e-06;0.00017116153967817088
4.40475e-06;0.00019965256819629804
4.40500e-06;0.0002281435967143287
4.40525e-06;0.00025567049186399213
4.40550e-06;0.0002830077364428417
4.40575e-06;0.00031034498102159875
4.40600e-06;0.00033696047905713595
4.40625e-06;0.0003621472831803588
4.40650e-06;0.0003865146610549964
4.40675e-06;0.0004092599884970266
4.40700e-06;0.0004309401111444117
4.40725e-06;0.000450511665875058
4.40750e-06;0.0004689036174072331
4.40775e-06;0.00048496054991617856
4.40800e-06;0.0004998770637202448
4.40825e-06;0.0005125361240234096
4.40850e-06;0.0005239979058590612
4.40875e-06;0.0005330896805592707
4.40900e-06;0.0005409140617987627
4.40925e-06;0.0005462296436010415
4.40950e-06;0.0005502900712970666
4.40975e-06;0.0005518659273009823
4.41000e-06;0.0005522950153737846
4.41025e-06;0.000550454081682068
4.41050e-06;0.0005475146439463562
4.41075e-06;0.0005424007225853122
4.41100e-06;0.0005362282191609412
4.41125e-06;0.00052796025748564
4.41150e-06;0.0005187252598207137
4.41175e-06;0.000507576018930158
4.41200e-06;0.000495431675214212
4.41225e-06;0.0004813175301022984
4.41250e-06;0.00046720338499033716
4.41275e-06;0.00045211888926710407
4.41300e-06;0.00043511358904017226
4.41325e-06;0.0004181082888131829
4.41350e-06;0.0004003721234609556
4.41375e-06;0.0003811892140062709
4.41400e-06;0.0003620063045515212
4.41425e-06;0.0003428233950968365
4.41450e-06;0.00032340395498823876
4.41475e-06;0.00030351630355500187
4.41500e-06;0.00028362865212176497
4.41525e-06;0.0002637410006884607
4.41550e-06;0.00024407760148241735
4.41575e-06;0.00022485810851284854
4.41600e-06;0.00020604107833965246
4.41625e-06;0.00018802072139256198
4.41650e-06;0.00017041557209249072
4.41675e-06;0.00015396857940989846
4.41700e-06;0.00013856804809097534
4.41725e-06;0.00012436869555388082
4.41750e-06;0.00011165313818237492
4.41775e-06;0.00010090359589060562
4.41800e-06;9.255813619732676e-05
4.41825e-06;8.67593822482047e-05
4.41850e-06;8.348155729380522e-05
4.41875e-06;8.268820873638899e-05
4.41900e-06;8.434286947639624e-05
4.41925e-06;8.842276476475016e-05
4.41950e-06;9.498523250895908e-05
4.41975e-06;0.00010421262176453532
4.42000e-06;0.0001162595999134672
4.42025e-06;0.00013109576952355698
4.42050e-06;0.00014858524599670737
4.42075e-06;0.00016858545933545307
4.42100e-06;0.00019095383964250778
4.42125e-06;0.0002155564078115036
4.42150e-06;0.00024230935346114427
4.42175e-06;0.0002712071893328915
4.42200e-06;0.00030222710014280607
4.42225e-06;0.00033550544799329886
4.42250e-06;0.00037055661710015436
4.42275e-06;0.00040656810666896565
4.42300e-06;0.00044448054610760854
4.42325e-06;0.00048323252744589967
4.42350e-06;0.0005236463780538711
4.42375e-06;0.0005640602286619793
4.42400e-06;0.0006050386806820574
4.42425e-06;0.0006471347585605152
4.42450e-06;0.0006892308364391159
4.42475e-06;0.0007313269143175737
4.42500e-06;0.0007734229921960317
4.42525e-06;0.0008136901013300868
4.42550e-06;0.00085359744180781
4.42575e-06;0.000893504782285533
4.42600e-06;0.0009334121227633914
4.42625e-06;0.0009715321549816487
4.42650e-06;0.001006114218847807
4.42675e-06;0.0010406962827140824
4.42700e-06;0.0010733722828281185
4.42725e-06;0.0011022752386471379
4.42750e-06;0.0011292215583132634
4.42775e-06;0.0011522947258533964
4.42800e-06;0.0011731970245808972
4.42825e-06;0.0011898020986326648
4.42850e-06;0.001204172928826245
4.42875e-06;0.0012141210837376775
4.42900e-06;0.0012217825013422852
4.42925e-06;0.001224917333128441
4.42950e-06;0.0012257145165817398
4.42975e-06;0.0012218843360783118
4.43000e-06;0.0012157629249695307
4.43025e-06;0.0012051060335788134
4.43050e-06;0.0011922989620847153
4.43075e-06;0.001175235619118576
4.43100e-06;0.0011561698669626292
4.43125e-06;0.0011331403551681813
4.43150e-06;0.001107835189536501
4.43175e-06;0.0010780253777631016
4.43200e-06;0.001048215565989702
4.43225e-06;0.0010161412229209152
4.43250e-06;0.0009795842507301774
4.43275e-06;0.0009430272785394398
4.43300e-06;0.00090481715669579
4.43325e-06;0.000863334632836001
4.43350e-06;0.000821852108976212
4.43375e-06;0.0007792882597987935
4.43400e-06;0.0007345839322061673
4.43425e-06;0.0006898796046135411
4.43450e-06;0.0006451752770207634
4.43475e-06;0.0006004877309213768
4.43500e-06;0.0005558334037094753
4.43525e-06;0.0005111790764974225
4.43550e-06;0.00046652474928552095
4.43575e-06;0.00042276948227096847
4.43600e-06;0.00038079390071813515
4.43625e-06;0.00033960109084299857
4.43650e-06;0.0003006131019033859
4.43675e-06;0.00026367780667862367
4.43700e-06;0.00022909356288621443
4.43725e-06;0.00019716605487479164
4.43750e-06;0.0001682358535342896
4.43775e-06;0.0001426687161852631
4.43800e-06;0.00012073751196189355
4.43825e-06;0.00010255214662375679
4.43850e-06;8.814592210941398e-05
4.43875e-06;7.754788154955094e-05
4.43900e-06;7.078703652910793e-05
4.43925e-06;6.789699230423287e-05
4.43950e-06;6.893319113630553e-05
4.43975e-06;7.396683454526325e-05
4.44000e-06;8.301091800083005e-05
4.44025e-06;9.597637549325536e-05
4.44050e-06;0.0001127261503636664
4.44075e-06;0.00013312051741390973
4.44100e-06;0.0001570197371941326
4.44125e-06;0.00018428697818796423
4.44150e-06;0.00021479904503655432
4.44175e-06;0.00024844265946116924
4.44200e-06;0.00028506807247897164
4.44225e-06;0.0003244616048841959
4.44250e-06;0.0003663795548278389
4.44275e-06;0.00041089046342668664
4.44300e-06;0.00045742859427271883
4.44325e-06;0.0005052733112136675
4.44350e-06;0.000555704409226542
4.44375e-06;0.0006061355072395874
4.44400e-06;0.0006574697777950368
4.44425e-06;0.0007105918741798018
4.44450e-06;0.0007637139705643867
4.44475e-06;0.0008168360669489718
4.44500e-06;0.0008699581633337368
4.44525e-06;0.0009211735643956804
4.44550e-06;0.0009720139075373827
4.44575e-06;0.001022854250679257
