Time(s);Current(A)
3.00000e-06;-0.002098463548125491
3.00025e-06;-0.00210453935332189
3.00050e-06;-0.002110615158518289
3.00075e-06;-0.002116690963714678
3.00100e-06;-0.0021238000924380758
3.00125e-06;-0.0021356514050307014
3.00150e-06;-0.002147502717623307
3.00175e-06;-0.002159761288302659
3.00200e-06;-0.002173888869682967
3.00225e-06;-0.002188271390918107
3.00250e-06;-0.0022038238958375497
3.00275e-06;-0.002219535467396834
3.00300e-06;-0.0022359770361290955
3.00325e-06;-0.0022525009812604997
3.00350e-06;-0.002269402972590587
3.00375e-06;-0.0022863176484281566
3.00400e-06;-0.0023032905366892364
3.00425e-06;-0.002320196294954201
3.00450e-06;-0.0023367939766330325
3.00475e-06;-0.0023532241769905695
3.00500e-06;-0.002368885763066564
3.00525e-06;-0.002384291534494143
3.00550e-06;-0.002398523307587486
3.00575e-06;-0.0024125108049767746
3.00600e-06;-0.0024251909281347815
3.00625e-06;-0.0024369284098458874
3.00650e-06;-0.002448426280497262
3.00675e-06;-0.002461004904390001
3.00700e-06;-0.002475479549364007
3.00725e-06;-0.0024918684659396883
3.00750e-06;-0.0025100866552513305
3.00775e-06;-0.002530119753077275
3.00800e-06;-0.0025504780450170453
3.00825e-06;-0.0025727611749085623
3.00850e-06;-0.0025970288800659202
3.00875e-06;-0.002622171649612229
3.00900e-06;-0.002651330311685543
3.00925e-06;-0.0026812903680279
3.00950e-06;-0.0027149282260238274
3.00975e-06;-0.0027490512403954164
3.01000e-06;-0.002785664198332565
3.01025e-06;-0.0028237501604559886
3.01050e-06;-0.0028633716640765637
3.01075e-06;-0.002904833877100872
3.01100e-06;-0.002948243138795129
3.01125e-06;-0.002993393598494164
3.01150e-06;-0.0030399916567562554
3.01175e-06;-0.0030877438391101915
3.01200e-06;-0.003136358244370555
3.01225e-06;-0.0031855759278303698
3.01250e-06;-0.0032353051670735832
3.01275e-06;-0.003285605905844048
3.01300e-06;-0.0033364140053928227
3.01325e-06;-0.0033874692465376026
3.01350e-06;-0.0034384571412820115
3.01375e-06;-0.0034890625619052327
3.01400e-06;-0.003538971620717028
3.01425e-06;-0.003587891317935138
3.01450e-06;-0.003635633512397911
3.01475e-06;-0.0036821044930540362
3.01500e-06;-0.0037271334967067847
3.01525e-06;-0.0037704264939164025
3.01550e-06;-0.0038116554679629654
3.01575e-06;-0.0038504925516432953
3.01600e-06;-0.0038866112695403105
3.01625e-06;-0.0039194887505557205
3.01650e-06;-0.003948722267680969
3.01675e-06;-0.003976793100772383
3.01700e-06;-0.00399952808180257
3.01725e-06;-0.004022263062832796
3.01750e-06;-0.004043229794360397
3.01775e-06;-0.0040560815802287865
3.01800e-06;-0.004068933366097199
3.01825e-06;-0.00408178515196561
3.01850e-06;-0.004092688064277411
3.01875e-06;-0.004094647101313116
3.01900e-06;-0.00409660613834882
3.01925e-06;-0.004098565175384525
3.01950e-06;-0.00409901209693512
3.01975e-06;-0.004092519536826609
3.02000e-06;-0.0040860269767181
3.02025e-06;-0.004078350918041882
3.02050e-06;-0.0040652434841267435
3.02075e-06;-0.004052136050211605
3.02100e-06;-0.004038118830932319
3.02125e-06;-0.004019926375759811
3.02150e-06;-0.004001733920587273
3.02175e-06;-0.003982795863538774
3.02200e-06;-0.003960436050285727
3.02225e-06;-0.003938076237032643
3.02250e-06;-0.0039152266087807835
3.02275e-06;-0.0038901290952094445
3.02300e-06;-0.003865031581638063
3.02325e-06;-0.003839743883768151
3.02350e-06;-0.003813583381893168
3.02375e-06;-0.0037873896170322746
3.02400e-06;-0.0037610431998883337
3.02425e-06;-0.003734783783052678
3.02450e-06;-0.003708923632708052
3.02475e-06;-0.003683308028836824
3.02500e-06;-0.0036588147107857244
3.02525e-06;-0.003634818289396018
3.02550e-06;-0.003613102252872673
3.02575e-06;-0.003591386216349291
3.02600e-06;-0.0035701876271945453
3.02625e-06;-0.0035515738524124407
3.02650e-06;-0.00353394097937967
3.02675e-06;-0.0035161994491581428
3.02700e-06;-0.003497609202830953
3.02725e-06;-0.003478814095112264
3.02750e-06;-0.00345907882648466
3.02775e-06;-0.0034393435578570566
3.02800e-06;-0.0034194807498740373
3.02825e-06;-0.00339903263142578
3.02850e-06;-0.0033785845129775225
3.02875e-06;-0.0033576342213349885
3.02900e-06;-0.0033343793294774837
3.02925e-06;-0.003311124437619979
3.02950e-06;-0.0032874086544956247
3.02975e-06;-0.0032615777243967773
3.03000e-06;-0.003235746794297886
3.03025e-06;-0.0032099158641989947
3.03050e-06;-0.0031836004025771673
3.03075e-06;-0.003155061302846616
3.03100e-06;-0.003126522203116065
3.03125e-06;-0.003097983103385562
3.03150e-06;-0.003069113338609735
3.03175e-06;-0.0030387260680349664
3.03200e-06;-0.0030083387974601983
3.03225e-06;-0.0029778815989383927
3.03250e-06;-0.002947103483323144
3.03275e-06;-0.0029163253677078954
3.03300e-06;-0.0028855283260021745
3.03325e-06;-0.0028546444276644923
3.03350e-06;-0.0028237605293268105
3.03375e-06;-0.0027931318207849148
3.03400e-06;-0.002763674242970306
3.03425e-06;-0.002734216665155648
3.03450e-06;-0.00270518409818381
3.03475e-06;-0.0026781020138161834
3.03500e-06;-0.002651019929448511
3.03525e-06;-0.0026244971742353635
3.03550e-06;-0.002600541322442123
3.03575e-06;-0.002576585470648842
3.03600e-06;-0.0025552569678552613
3.03625e-06;-0.0025351710407562652
3.03650e-06;-0.0025154785375076528
3.03675e-06;-0.002497591556139588
3.03700e-06;-0.002479704574771523
3.03725e-06;-0.0024620329037187173
3.03750e-06;-0.0024453493463374846
3.03775e-06;-0.002428665788956252
3.03800e-06;-0.0024123134589876002
3.03825e-06;-0.002397481215664299
3.03850e-06;-0.0023826489723409727
3.03875e-06;-0.002367885858541983
3.03900e-06;-0.002353439997671825
3.03925e-06;-0.0023389941368016426
3.03950e-06;-0.00232454827593146
3.03975e-06;-0.0023102474954173596
3.04000e-06;-0.0022966125254713626
3.04025e-06;-0.0022829775555253656
3.04050e-06;-0.0022693425855793686
3.04075e-06;-0.0022558086137967046
3.04100e-06;-0.0022427381482137644
3.04125e-06;-0.002229667682630824
3.04150e-06;-0.002216597217047906
3.04175e-06;-0.0022035267514649653
3.04200e-06;-0.002190456285882025
3.04225e-06;-0.0021773858202990847
3.04250e-06;-0.0021643153547161666
3.04275e-06;-0.0021512448891332263
3.04300e-06;-0.002138519147778686
3.04325e-06;-0.002127375433382215
3.04350e-06;-0.0021162317189857252
3.04375e-06;-0.002105088004589235
3.04400e-06;-0.002093944290192764
3.04425e-06;-0.002082800575796274
3.04450e-06;-0.002071656861399784
3.04475e-06;-0.002060513147003294
3.04500e-06;-0.002049369432606823
3.04525e-06;-0.002038978906722184
3.04550e-06;-0.0020320449540404627
3.04575e-06;-0.0020251110013587534
3.04600e-06;-0.002018177048677032
3.04625e-06;-0.0020112430959953105
3.04650e-06;-0.002004309143313589
3.04675e-06;-0.0019973751906318792
3.04700e-06;-0.0019904412379501578
3.04725e-06;-0.0019835072852684363
3.04750e-06;-0.0019765733325867265
3.04775e-06;-0.0019705332023681795
3.04800e-06;-0.001968595050241211
3.04825e-06;-0.001966656898114246
3.04850e-06;-0.001964718745987278
3.04875e-06;-0.00196278059386031
3.04900e-06;-0.0019608424417333413
3.04925e-06;-0.0019589042896063767
3.04950e-06;-0.001956966137479408
3.04975e-06;-0.00195502798535244
3.05000e-06;-0.001953089833225475
3.05025e-06;-0.0019518173738501724
3.05050e-06;-0.001953599947432334
3.05075e-06;-0.0019553825210144953
3.05100e-06;-0.0019571650945966537
3.05125e-06;-0.001958947668178815
3.05150e-06;-0.0019607302417609766
3.05175e-06;-0.001962512815343135
3.05200e-06;-0.001964295388925297
3.05225e-06;-0.0019660779625074584
3.05250e-06;-0.001967860536089617
3.05275e-06;-0.0019696431096717783
3.05300e-06;-0.001972286468969368
3.05325e-06;-0.0019753369273651333
3.05350e-06;-0.001978387385760893
3.05375e-06;-0.0019814378441566586
3.05400e-06;-0.0019844883025524236
3.05425e-06;-0.0019875387609481834
3.05450e-06;-0.001990589219343949
3.05475e-06;-0.001993639677739714
3.05500e-06;-0.0019966901361354794
3.05525e-06;-0.001999740594531239
3.05550e-06;-0.002002689863505918
3.05575e-06;-0.002005174748550314
3.05600e-06;-0.0020076045840819634
3.05625e-06;-0.0020098053195448076
3.05650e-06;-0.0020124113105819837
3.05675e-06;-0.0020163814223022407
3.05700e-06;-0.0020208816797840684
3.05725e-06;-0.0020278149106907934
3.05750e-06;-0.0020353180904687487
3.05775e-06;-0.002045436910241929
3.05800e-06;-0.002055555730015126
3.05825e-06;-0.002066244561144807
3.05850e-06;-0.0020795493190304193
3.05875e-06;-0.0020936565473197743
3.05900e-06;-0.00211144651591965
3.05925e-06;-0.0021292364845195257
3.05950e-06;-0.0021477280237162167
3.05975e-06;-0.0021694392484062964
3.06000e-06;-0.00219159572222004
3.06025e-06;-0.0022157955572447733
3.06050e-06;-0.002240474175148603
3.06075e-06;-0.002267350049176213
3.06100e-06;-0.0022945869630273934
3.06125e-06;-0.0023236801915318466
3.06150e-06;-0.002353854404915236
3.06175e-06;-0.0023849219000219384
3.06200e-06;-0.002416695490688733
3.06225e-06;-0.0024490065704239946
3.06250e-06;-0.0024817767966650887
3.06275e-06;-0.0025150086270908974
3.06300e-06;-0.002548633674825226
3.06325e-06;-0.002582474609911979
3.06350e-06;-0.0026163235979000526
3.06375e-06;-0.002649973228342733
3.06400e-06;-0.0026832165735651563
3.06425e-06;-0.0027158577918092435
3.06450e-06;-0.0027477581897252324
3.06475e-06;-0.002778829378663069
3.06500e-06;-0.0028089384687795646
3.06525e-06;-0.002837884552496886
3.06550e-06;-0.002865447688170555
3.06575e-06;-0.0028914081915330393
3.06600e-06;-0.0029155441801787213
3.06625e-06;-0.0029375822429879082
3.06650e-06;-0.002956997718513026
3.06675e-06;-0.002973087197376046
3.06700e-06;-0.0029854329409140104
3.06725e-06;-0.0029936443519851894
3.06750e-06;-0.0029972277320063473
3.06775e-06;-0.0029991529268371393
3.06800e-06;-0.002993468289062122
3.06825e-06;-0.002987783651287095
3.06850e-06;-0.002979951492376793
3.06875e-06;-0.002962263814039716
3.06900e-06;-0.002944576135702609
3.06925e-06;-0.002924804212968669
3.06950e-06;-0.0028954671638172585
3.06975e-06;-0.0028661301146657983
3.07000e-06;-0.0028349918376816756
3.07025e-06;-0.0027955872691088363
3.07050e-06;-0.0027561827005360643
3.07075e-06;-0.0027151504187506183
3.07100e-06;-0.002666648147997433
3.07125e-06;-0.0026181458772443302
3.07150e-06;-0.0025685840925624764
3.07175e-06;-0.0025141599296083844
3.07200e-06;-0.0024591314300625397
3.07225e-06;-0.002401329476545737
3.07250e-06;-0.002343171836109062
3.07275e-06;-0.002283196318580431
3.07300e-06;-0.0022222435509290303
3.07325e-06;-0.0021606525189784577
3.07350e-06;-0.002098784784171963
3.07375e-06;-0.0020370026971944623
3.07400e-06;-0.001975667635751146
3.07425e-06;-0.001915133231613739
3.07450e-06;-0.0018557143736790045
3.07475e-06;-0.001797698322187661
3.07500e-06;-0.0017414165499347446
3.07525e-06;-0.0016872557157386347
3.07550e-06;-0.0016356171032137527
3.07575e-06;-0.0015869019543174243
3.07600e-06;-0.0015415117780586604
3.07625e-06;-0.0014998576221040608
3.07650e-06;-0.0014623816593517466
3.07675e-06;-0.0014294798058516966
3.07700e-06;-0.0014013698689262436
3.07725e-06;-0.0013781303504038609
3.07750e-06;-0.001359811055213793
3.07775e-06;-0.0013464616926984981
3.07800e-06;-0.0013381322846267218
3.07825e-06;-0.0013348788688229635
3.07850e-06;-0.0013372381746201807
3.07875e-06;-0.0013459900456844933
3.07900e-06;-0.0013565328796419094
3.07925e-06;-0.0013752948967765024
3.07950e-06;-0.0013953253959011278
3.07975e-06;-0.0014219822575146414
3.08000e-06;-0.001453108033135797
3.08025e-06;-0.0014885361919647646
3.08050e-06;-0.0015281122363579086
3.08075e-06;-0.001571663942604957
3.08100e-06;-0.00161894875838807
3.08125e-06;-0.0016696696204310418
3.08150e-06;-0.001723518335720062
3.08175e-06;-0.0017801865617246364
3.08200e-06;-0.0018393662512298965
3.08225e-06;-0.001900751584542706
3.08250e-06;-0.0019640441880742964
3.08275e-06;-0.0020289348887187167
3.08300e-06;-0.0020950702361292586
3.08325e-06;-0.002162062996486357
3.08350e-06;-0.0022295183723322815
3.08375e-06;-0.002297042031870247
3.08400e-06;-0.0023642399423374
3.08425e-06;-0.002430718938328789
3.08450e-06;-0.0024960910897711915
3.08475e-06;-0.002559961256998737
3.08500e-06;-0.0026219071595846356
3.08525e-06;-0.002681484654846483
3.08550e-06;-0.00273824569331221
3.08575e-06;-0.002791741968132572
3.08600e-06;-0.002841527287283042
3.08625e-06;-0.0028872095627408196
3.08650e-06;-0.0029286861909999327
3.08675e-06;-0.002966189522892004
3.08700e-06;-0.002999532528375223
3.08725e-06;-0.003028079078686371
3.08750e-06;-0.0030547545495889167
3.08775e-06;-0.003072843162294386
3.08800e-06;-0.003090931774999855
3.08825e-06;-0.0031070841153437376
3.08850e-06;-0.0031143504104862154
3.08875e-06;-0.0031202282206998526
3.08900e-06;-0.003119733921243376
3.08925e-06;-0.0031179194749024228
3.08950e-06;-0.003110046539517904
3.08975e-06;-0.0031008861370390864
3.09000e-06;-0.003085817221366499
3.09025e-06;-0.0030695467766584305
3.09050e-06;-0.0030477622103156
3.09075e-06;-0.0030249740682362462
3.09100e-06;-0.0029975802624418284
3.09125e-06;-0.0029693229103751203
3.09150e-06;-0.0029371025253377577
3.09175e-06;-0.002904136274598317
3.09200e-06;-0.002867747056886332
3.09225e-06;-0.0028307629795135563
3.09250e-06;-0.002791048940210261
3.09275e-06;-0.002750961259889573
3.09300e-06;-0.0027091588461279573
3.09325e-06;-0.00266716760191527
3.09350e-06;-0.0026243097668459713
3.09375e-06;-0.0025814339568506484
3.09400e-06;-0.002538475655358613
3.09425e-06;-0.0024956183092159417
3.09450e-06;-0.0024533698217842318
3.09475e-06;-0.0024119957885768905
3.09500e-06;-0.0023718295092219873
3.09525e-06;-0.002333168012376913
3.09550e-06;-0.00229629624109273
3.09575e-06;-0.002261499030560305
3.09600e-06;-0.0022290620565433936
3.09625e-06;-0.002199283886838743
3.09650e-06;-0.002172517560422511
3.09675e-06;-0.0021494347544809256
3.09700e-06;-0.0021307447402228986
3.09725e-06;-0.0021133558356738386
3.09750e-06;-0.002101938053739706
3.09775e-06;-0.0020918404603467813
3.09800e-06;-0.002087801547171314
3.09825e-06;-0.002085463191133895
3.09850e-06;-0.002090929123324307
3.09875e-06;-0.0020963950555147283
3.09900e-06;-0.0021035439656571448
3.09925e-06;-0.00211841648868181
3.09950e-06;-0.002134233080648506
3.09975e-06;-0.0021549792703667013
3.10000e-06;-0.0021790383945304867
3.10025e-06;-0.0022062805500298044
3.10050e-06;-0.0022365970168667696
3.10075e-06;-0.002269877097027462
3.10100e-06;-0.0023059503286618705
3.10125e-06;-0.002344592158129023
3.10150e-06;-0.002385565755007424
3.10175e-06;-0.0024286341393585965
3.10200e-06;-0.0024735606057317725
3.10225e-06;-0.002520111538718104
3.10250e-06;-0.002568066915597612
3.10275e-06;-0.0026172054847362026
3.10300e-06;-0.00266726870737627
3.10325e-06;-0.002717963878939604
3.10350e-06;-0.0027689906895526444
3.10375e-06;-0.002820048937202216
3.10400e-06;-0.0028708382041546313
3.10425e-06;-0.0029210605453019066
3.10450e-06;-0.0029704264785145517
3.10475e-06;-0.003018645306900175
3.10500e-06;-0.003065403266222021
3.10525e-06;-0.0031103655437761694
3.10550e-06;-0.0031531920573060705
3.10575e-06;-0.003193267880167375
3.10600e-06;-0.003229819031591959
3.10625e-06;-0.0032655723712363494
3.10650e-06;-0.0032972886471429237
3.10675e-06;-0.0033270141643925266
3.10700e-06;-0.003355249631725987
3.10725e-06;-0.003381960292467568
3.10750e-06;-0.0034067717836426493
3.10775e-06;-0.00342920105803772
3.10800e-06;-0.0034510452204724444
3.10825e-06;-0.0034698248701278316
3.10850e-06;-0.003486580740757128
3.10875e-06;-0.0035017230271564416
3.10900e-06;-0.0035154234807209662
3.10925e-06;-0.003528549500361506
3.10950e-06;-0.0035390392969602406
3.10975e-06;-0.003549529093558993
3.11000e-06;-0.003559363176798101
3.11025e-06;-0.0035661880250401935
3.11050e-06;-0.003572619965977002
3.11075e-06;-0.0035772487555881627
3.11100e-06;-0.0035815234134683157
3.11125e-06;-0.0035841728709726647
3.11150e-06;-0.003586822328477018
3.11175e-06;-0.003589008797987292
3.11200e-06;-0.00358907049810786
3.11225e-06;-0.003589132198228428
3.11250e-06;-0.0035888714327584224
3.11275e-06;-0.003587130790866465
3.11300e-06;-0.003585390148974511
3.11325e-06;-0.0035834647590016603
3.11350e-06;-0.003580691513205099
3.11375e-06;-0.0035779182674085426
3.11400e-06;-0.0035749867117382313
3.11425e-06;-0.0035713286318855707
3.11450e-06;-0.0035676705520329166
3.11475e-06;-0.003564017956997389
3.11500e-06;-0.003560390533179476
3.11525e-06;-0.0035567631093615633
3.11550e-06;-0.003553185493237467
3.11575e-06;-0.003549867908172582
3.11600e-06;-0.003546731900544273
3.11625e-06;-0.003543854448286561
3.11650e-06;-0.0035417080856292252
3.11675e-06;-0.003541070944572866
3.11700e-06;-0.0035409746550854435
3.11725e-06;-0.0035433604706909625
3.11750e-06;-0.003546362724199757
3.11775e-06;-0.0035521939676700716
3.11800e-06;-0.0035580252111403763
3.11825e-06;-0.003564637450913557
3.11850e-06;-0.003574833880901306
3.11875e-06;-0.003585030310889037
3.11900e-06;-0.003596007563609483
3.11925e-06;-0.0036105682099869868
3.11950e-06;-0.0036256722906574386
3.11975e-06;-0.0036432703291966995
3.12000e-06;-0.003661220284711712
3.12025e-06;-0.0036810082655876625
3.12050e-06;-0.0037020605846534945
3.12075e-06;-0.003724464536215705
3.12100e-06;-0.003748220352955788
3.12125e-06;-0.0037732010112088545
3.12150e-06;-0.00379924469367752
3.12175e-06;-0.0038261896247213734
3.12200e-06;-0.003853874594785226
3.12225e-06;-0.0038821511955972952
3.12250e-06;-0.003910935742845368
3.12275e-06;-0.003940199840069405
3.12300e-06;-0.003969860626991622
3.12325e-06;-0.00399975647597155
3.12350e-06;-0.004029702470385178
3.12375e-06;-0.004059515272091886
3.12400e-06;-0.004089010596756307
3.12425e-06;-0.00411801341825705
3.12450e-06;-0.004146387830497254
3.12475e-06;-0.004174033589812551
3.12500e-06;-0.004200816200370612
3.12525e-06;-0.00422655152063822
3.12550e-06;-0.00425104164456827
3.12575e-06;-0.004274088582799941
3.12600e-06;-0.00429549379699756
3.12625e-06;-0.004315053318564155
3.12650e-06;-0.0043325416008092865
3.12675e-06;-0.004347749328337683
3.12700e-06;-0.004360341399410009
3.12725e-06;-0.0043699293653156595
3.12750e-06;-0.004378176522545118
3.12775e-06;-0.004380270368523499
3.12800e-06;-0.00438236421450188
3.12825e-06;-0.004384458060480258
3.12850e-06;-0.004384729586380657
3.12875e-06;-0.004376638023021747
3.12900e-06;-0.004368546459662851
3.12925e-06;-0.004360454896303941
3.12950e-06;-0.004350880391134202
3.12975e-06;-0.004334500289691865
3.13000e-06;-0.004318120188249556
3.13025e-06;-0.004300621739536759
3.13050e-06;-0.004277990911414461
3.13075e-06;-0.004255360083292202
3.13100e-06;-0.004231927430447629
3.13125e-06;-0.004204815000486067
3.13150e-06;-0.00417718802524949
3.13175e-06;-0.004147199671177515
3.13200e-06;-0.004116807537365323
3.13225e-06;-0.004084562355864412
3.13250e-06;-0.004052022535541464
3.13275e-06;-0.004018130542897989
3.13300e-06;-0.003984073255917449
3.13325e-06;-0.003949257391280014
3.13350e-06;-0.003914417990528497
3.13375e-06;-0.0038794705765773387
3.13400e-06;-0.0038446413430783593
3.13425e-06;-0.003810354469663305
3.13450e-06;-0.003776326576816113
3.13475e-06;-0.0037434872115125967
3.13500e-06;-0.0037110601031160695
3.13525e-06;-0.0036805249462774736
3.13550e-06;-0.003650563216655812
3.13575e-06;-0.0036232330900424796
3.13600e-06;-0.00359643000575583
3.13625e-06;-0.0035723465814507254
3.13650e-06;-0.0035497490469743147
3.13675e-06;-0.003527576314432761
3.13700e-06;-0.003505144828146538
3.13725e-06;-0.00348272587362604
3.13750e-06;-0.0034603644305584874
3.13775e-06;-0.003438002987490897
3.13800e-06;-0.0034158216755378434
3.13825e-06;-0.0033944670309785196
3.13850e-06;-0.0033730030747080786
3.13875e-06;-0.00335103745925675
3.13900e-06;-0.0033290718438054217
3.13925e-06;-0.003306167090032366
3.13950e-06;-0.003282818181160946
3.13975e-06;-0.0032593983640182246
3.14000e-06;-0.0032356531308252246
3.14025e-06;-0.0032119078976321847
3.14050e-06;-0.0031879422025616806
3.14075e-06;-0.0031629647519922145
3.14100e-06;-0.003137987301422791
3.14125e-06;-0.0031130098508533248
3.14150e-06;-0.0030880324002838587
3.14175e-06;-0.0030626184949148856
3.14200e-06;-0.00303699817306821
3.14225e-06;-0.0030113778512215346
3.14250e-06;-0.0029857575293748594
3.14275e-06;-0.002960161525865113
3.14300e-06;-0.0029346771253741934
3.14325e-06;-0.0029091927248832737
3.14350e-06;-0.0028838848938471896
3.14375e-06;-0.002859387384844504
3.14400e-06;-0.0028348898758418185
3.14425e-06;-0.002810742089887961
3.14450e-06;-0.002788199271748964
3.14475e-06;-0.0027656564536099673
