Time(s);Current(A)
1.17500e-05;-0.001914267978106125
1.17503e-05;-0.0019253014264967953
1.17505e-05;-0.0019363348748873907
1.17508e-05;-0.0019473683232780609
1.17510e-05;-0.001958401771668731
1.17513e-05;-0.0019694352200593265
1.17515e-05;-0.0019804686684499963
1.17518e-05;-0.0019915021168406665
1.17520e-05;-0.0020237296123779202
1.17523e-05;-0.0020562585445842753
1.17525e-05;-0.00208878747679063
1.17528e-05;-0.0021213164089967642
1.17530e-05;-0.002153845341203119
1.17533e-05;-0.0021863742734094735
1.17535e-05;-0.002218903205615608
1.17538e-05;-0.0022514321378219624
1.17540e-05;-0.0022839610700283175
1.17543e-05;-0.0023164900022344514
1.17545e-05;-0.002358689423600309
1.17548e-05;-0.0024010263854756684
1.17550e-05;-0.0024433633473507407
1.17553e-05;-0.0024857003092261
1.17555e-05;-0.0025280372711014593
1.17558e-05;-0.0025703742329765316
1.17560e-05;-0.002612711194851891
1.17563e-05;-0.002653584474902684
1.17565e-05;-0.002692909601659642
1.17568e-05;-0.0027322347284168664
1.17570e-05;-0.0027715598551740907
1.17572e-05;-0.0028108849819310487
1.17575e-05;-0.002850210108688273
1.17578e-05;-0.0028895352354454977
1.17580e-05;-0.0029288603622024557
1.17583e-05;-0.002947317694879512
1.17585e-05;-0.0029654782310874705
1.17588e-05;-0.002983638767295429
1.17590e-05;-0.0030017993035032645
1.17593e-05;-0.003019959839711223
1.17595e-05;-0.0030381203759191813
1.17598e-05;-0.0030562809121270165
1.17600e-05;-0.003074441448334975
1.17603e-05;-0.0030926019845429332
1.17605e-05;-0.0031107625207507685
1.17608e-05;-0.003128923056958727
1.17610e-05;-0.0031140633364000166
1.17613e-05;-0.003098733978486152
1.17615e-05;-0.003083404620572184
1.17618e-05;-0.003068075262658216
1.17620e-05;-0.0030527459047443514
1.17623e-05;-0.0030374165468303833
1.17625e-05;-0.003022087188916415
1.17628e-05;-0.003006757831002551
1.17630e-05;-0.002991428473088583
1.17633e-05;-0.0029760991151746145
1.17635e-05;-0.0029607697572607504
1.17638e-05;-0.0029282100297634583
1.17640e-05;-0.0028954052398105245
1.17643e-05;-0.0028626004498578128
1.17645e-05;-0.002829795659904879
1.17648e-05;-0.002792520309458473
1.17650e-05;-0.002755181375551277
1.17653e-05;-0.0027178424416438277
1.17655e-05;-0.0026805035077363784
1.17657e-05;-0.002642036603253832
1.17660e-05;-0.002607349253096773
1.17663e-05;-0.0025727158865961426
1.17665e-05;-0.0025380825200957474
1.17668e-05;-0.002503449153595117
1.17670e-05;-0.0024688157870944873
1.17673e-05;-0.002434182420593857
1.17675e-05;-0.0023995490540934614
1.17678e-05;-0.0023649156875928316
1.17680e-05;-0.0023363991851919285
1.17683e-05;-0.0023143525611118545
1.17685e-05;-0.0022923059370316317
1.17688e-05;-0.0022702593129514084
1.17690e-05;-0.0022482126888713344
1.17693e-05;-0.002226166064791111
1.17695e-05;-0.002204119440710888
1.17698e-05;-0.0021820728166308144
1.17700e-05;-0.002160026192550591
1.17703e-05;-0.002143406341383521
1.17705e-05;-0.0021268636736045967
1.17708e-05;-0.00211032100582556
1.17710e-05;-0.002093778338046524
1.17713e-05;-0.0020772356702676
1.17715e-05;-0.0020606930024885633
1.17718e-05;-0.0020441503347095272
1.17720e-05;-0.002029082929842857
1.17723e-05;-0.002014324929187317
1.17725e-05;-0.0019995669285317766
1.17728e-05;-0.0019848089278763368
1.17730e-05;-0.0019700509272207963
1.17733e-05;-0.0019552929265652563
1.17735e-05;-0.0019405349259098163
1.17738e-05;-0.0019247923048109894
1.17740e-05;-0.0019137698725174752
1.17742e-05;-0.05044861685484592
1.17745e-05;-0.027893108787455947
1.17748e-05;-0.009513294740001961
1.17750e-05;0.014505460333260878
1.17753e-05;0.025962090396933955
1.17755e-05;0.019509391917235996
1.17758e-05;0.0039046091423801475
1.17760e-05;-0.016554050075936015
1.17763e-05;-0.02575484549431194
1.17765e-05;-0.018558984176778284
1.17768e-05;-0.0052061188987683575
1.17770e-05;0.009787639585947822
1.17773e-05;0.01670090441741799
1.17775e-05;0.01250599333161588
1.17778e-05;0.0026357916189859573
1.17780e-05;-0.010243553699380492
1.17783e-05;-0.016053937814573954
1.17785e-05;-0.011584896132348772
1.17788e-05;-0.0032558320131116742
1.17790e-05;0.006101246607474182
1.17793e-05;0.010395596683886711
1.17795e-05;0.007730681929697605
1.17798e-05;0.0015099486162948777
1.17800e-05;-0.006596327735817237
1.17803e-05;-0.01027531652479809
1.17805e-05;-0.007516410775249886
1.17808e-05;-0.0023410238984373126
1.17810e-05;0.003476847869890642
1.17813e-05;0.006122204134720525
1.17815e-05;0.0044075223758336494
1.17818e-05;0.00046514187759083385
1.17820e-05;-0.004658395856712416
1.17823e-05;-0.007008687131680476
1.17825e-05;-0.005326470787632118
1.17827e-05;-0.0021308762389637154
1.17830e-05;0.0014669127161453053
1.17833e-05;0.0030773912098863063
1.17835e-05;0.0019570477252540616
1.17838e-05;-0.0005580984278595114
1.17840e-05;-0.0038122602866641157
1.17843e-05;-0.0053283117464688985
1.17845e-05;-0.004317509003173896
1.17848e-05;-0.0023578501778794506
1.17850e-05;-0.00014529331858275556
1.17853e-05;0.0008235662118903334
1.17855e-05;8.327128924143353e-05
1.17858e-05;-0.0015290360927782377
1.17860e-05;-0.0036023669435644333
1.17863e-05;-0.004584936544568163
1.17865e-05;-0.0039826538343656695
1.17868e-05;-0.0027839284454137447
1.17870e-05;-0.00142459531689261
1.17873e-05;-0.000841944450005948
1.17875e-05;-0.0013273056164421237
1.17878e-05;-0.00235607218785046
1.17880e-05;-0.0036706144746382094
1.17883e-05;-0.004298766823395414
1.17885e-05;-0.003931040277276391
1.17888e-05;-0.0031867790353477398
1.17890e-05;-0.0023393038711266457
1.17893e-05;-0.0019759607091121094
1.17895e-05;-0.0022793415201573233
1.17898e-05;-0.0029209170518103332
1.17900e-05;-0.003739413731349215
1.17903e-05;-0.00412600863297644
1.17905e-05;-0.003887014998530855
1.17908e-05;-0.0034105566296625304
1.17910e-05;-0.0028679830040016425
1.17912e-05;-0.002627323487901178
1.17915e-05;-0.0028030480368723193
1.17918e-05;-0.003189464578518624
1.17920e-05;-0.003685663774560784
1.17923e-05;-0.0039104138175380275
1.17925e-05;-0.0037425458698219605
1.17928e-05;-0.0034253311588354225
1.17930e-05;-0.0030662376771369106
1.17933e-05;-0.002895917472463062
1.17935e-05;-0.0029861793680077743
1.17938e-05;-0.0032082855520046455
1.17940e-05;-0.0034991426324199053
1.17943e-05;-0.0036200771387488277
1.17945e-05;-0.003495333282435883
1.17948e-05;-0.003277435910074482
1.17950e-05;-0.0030338327257881425
1.17953e-05;-0.002909124302713903
1.17955e-05;-0.00294840296442121
1.17958e-05;-0.003071140520925348
1.17960e-05;-0.003237933858606
1.17963e-05;-0.003299404899350461
1.17965e-05;-0.0032082360836486142
1.17968e-05;-0.003060102170179648
1.17970e-05;-0.00289737941070771
1.17973e-05;-0.0028107662982899545
1.17975e-05;-0.0028286239534821675
1.17978e-05;-0.0029006258308626673
1.17980e-05;-0.00300220946009511
1.17983e-05;-0.003039928352663724
1.17985e-05;-0.002984199935090661
1.17988e-05;-0.0028948249079287346
1.17990e-05;-0.0027980938454857146
1.17993e-05;-0.002750620273023257
1.17995e-05;-0.0027700541380676256
1.17997e-05;-0.0028247812505675326
1.18000e-05;-0.0028993279836172455
1.18003e-05;-0.0029350751082918188
1.18005e-05;-0.002913411213819747
1.18008e-05;-0.0028717133827292217
1.18010e-05;-0.0028263657803662637
1.18013e-05;-0.0028127441315331557
1.18015e-05;-0.002841815489954442
1.18018e-05;-0.0028936881563339915
1.18020e-05;-0.0029585819980748117
1.18023e-05;-0.0029996931203585
1.18025e-05;-0.0030052801430499173
1.18028e-05;-0.0029986724254584297
1.18030e-05;-0.0029900480025831636
1.18033e-05;-0.00300147944319295
1.18035e-05;-0.0030397483300194047
1.18038e-05;-0.0030941215670410483
1.18040e-05;-0.0031543202792039256
1.18043e-05;-0.0031985133713506304
1.18045e-05;-0.0032215827514365763
1.18048e-05;-0.003236278843499275
1.18050e-05;-0.0032497876774441187
1.18053e-05;-0.003275560251158016
1.18055e-05;-0.003317245594991642
1.18058e-05;-0.0033681083983625867
1.18060e-05;-0.003422136050730353
1.18063e-05;-0.003465402563873067
1.18065e-05;-0.003494324191299541
1.18068e-05;-0.003516650314862004
1.18070e-05;-0.0035375268416945847
1.18073e-05;-0.003565057893585117
1.18075e-05;-0.00360102545196087
1.18078e-05;-0.0036409464228682985
1.18080e-05;-0.0036819192610465755
1.18082e-05;-0.0037148348735357144
1.18085e-05;-0.0037371658185607125
1.18088e-05;-0.003757396993277898
1.18090e-05;-0.0037786091066780545
1.18093e-05;-0.003799821220078355
1.18095e-05;-0.003827797770493498
1.18098e-05;-0.003861769432492328
1.18100e-05;-0.003896391814864711
1.18103e-05;-0.003931014197237329
1.18105e-05;-0.003960963380771453
1.18108e-05;-0.003989402372930905
1.18110e-05;-0.004019390804613094
1.18113e-05;-0.004049379236295283
1.18115e-05;-0.004085383054121944
1.18118e-05;-0.004125956354915711
1.18120e-05;-0.0041663007018694145
1.18123e-05;-0.004206471128039174
1.18125e-05;-0.004246641554209204
1.18128e-05;-0.004286933007028653
1.18130e-05;-0.00432731639562714
1.18133e-05;-0.0043676997842258996
1.18135e-05;-0.0044123442459296424
1.18138e-05;-0.0044602255573558776
1.18140e-05;-0.004508106868782438
1.18143e-05;-0.0045544703190162315
1.18145e-05;-0.004599680752518918
1.18148e-05;-0.00464489118602191
1.18150e-05;-0.004690945895079954
1.18153e-05;-0.00473764194330957
1.18155e-05;-0.004784337991539503
1.18158e-05;-0.004831318522965028
1.18160e-05;-0.004878515157078497
1.18163e-05;-0.0049257117911922855
1.18165e-05;-0.004969976440048716
1.18167e-05;-0.005012013857539709
1.18170e-05;-0.005054051275030986
1.18173e-05;-0.005094829556666826
1.18175e-05;-0.005134651357752823
1.18178e-05;-0.005174473158839089
1.18180e-05;-0.005210627993587266
1.18183e-05;-0.005243997281435739
1.18185e-05;-0.005277366569283985
1.18188e-05;-0.005306658705721716
1.18190e-05;-0.005332853705337068
1.18193e-05;-0.0053590487049522415
1.18195e-05;-0.005382371615152172
1.18198e-05;-0.0054035127928163725
1.18200e-05;-0.005424653970480429
1.18203e-05;-0.005441419135007909
1.18205e-05;-0.005454860137625189
1.18208e-05;-0.005468301140242378
1.18210e-05;-0.005478466748895424
1.18213e-05;-0.0054861442617596965
1.18215e-05;-0.0054938217746239165
1.18218e-05;-0.005498552570853203
1.18220e-05;-0.0055010449452833135
1.18223e-05;-0.005503537319713409
1.18225e-05;-0.005502787379620622
1.18228e-05;-0.005499574471958621
1.18230e-05;-0.005496361564296641
1.18233e-05;-0.005491155862876167
1.18235e-05;-0.005484436370500317
1.18238e-05;-0.005477716878124511
1.18240e-05;-0.00546910647666955
1.18243e-05;-0.005459059679175457
1.18245e-05;-0.0054490128816814315
1.18248e-05;-0.005437642641898032
1.18250e-05;-0.005425267072306113
1.18252e-05;-0.005412891502714277
1.18255e-05;-0.005400156381647909
1.18258e-05;-0.0053871481335869675
1.18260e-05;-0.005374139885526113
1.18263e-05;-0.005361070330233882
1.18265e-05;-0.005347954203974714
1.18268e-05;-0.0053348380777155455
1.18270e-05;-0.005322598336122452
1.18273e-05;-0.0053110243248264185
1.18275e-05;-0.005299450313530385
1.18278e-05;-0.005289498870885254
1.18280e-05;-0.005280779984162133
1.18283e-05;-0.005272061097439012
1.18285e-05;-0.005263941786616762
1.18288e-05;-0.005256277933150251
1.18290e-05;-0.00524861407968374
1.18293e-05;-0.005238934056320447
1.18295e-05;-0.005227722484726367
1.18298e-05;-0.005216510913132288
1.18300e-05;-0.005203718761725061
1.18303e-05;-0.005189725950482321
1.18305e-05;-0.005175733139239582
1.18308e-05;-0.005159313443756459
1.18310e-05;-0.00514105020806825
1.18313e-05;-0.00512278697238004
1.18315e-05;-0.005101695312139548
1.18318e-05;-0.005078455088612594
1.18320e-05;-0.005055214865085639
1.18323e-05;-0.005029950003325121
1.18325e-05;-0.005003147160509403
1.18328e-05;-0.004976344317693686
1.18330e-05;-0.004947239675031946
1.18333e-05;-0.004916386510339226
1.18335e-05;-0.004885533345646506
1.18337e-05;-0.004853140972495501
1.18340e-05;-0.004819579366535371
1.18343e-05;-0.00478601776057524
1.18345e-05;-0.004751738286632353
1.18348e-05;-0.004716913496820186
1.18350e-05;-0.004682088707008018
1.18352e-05;-0.004646975817314987
1.18355e-05;-0.00461164407758137
1.18358e-05;-0.004576312337847753
1.18360e-05;-0.004541872155217102
1.18363e-05;-0.004508109228360654
1.18365e-05;-0.004474346301503977
1.18368e-05;-0.0044423390549698585
1.18370e-05;-0.004411665480313818
1.18373e-05;-0.00438099190565757
1.18375e-05;-0.004353047517229477
1.18378e-05;-0.0043271763074294095
1.18380e-05;-0.004301305097629166
1.18383e-05;-0.004279137109233713
1.18385e-05;-0.0042597822082677565
1.18388e-05;-0.004240427307301668
1.18390e-05;-0.0042236195233185505
1.18393e-05;-0.004208746612242901
1.18395e-05;-0.004193873701167149
1.18398e-05;-0.004181594306504053
1.18400e-05;-0.004171285031264417
1.18403e-05;-0.004160975756024711
1.18405e-05;-0.0041533593237334816
1.18408e-05;-0.004147788462533028
1.18410e-05;-0.004142217601332536
1.18413e-05;-0.004138482957867644
1.18415e-05;-0.0041361431651193575
1.18418e-05;-0.004133803372371054
1.18420e-05;-0.004133476044621827
1.18422e-05;-0.0041346774507430755
1.18425e-05;-0.004135878856864332
1.18428e-05;-0.004138701684882142
1.18430e-05;-0.0041427561977107116
1.18433e-05;-0.00414681071053931
1.18435e-05;-0.004152047173859815
1.18437e-05;-0.004158181485217908
1.18440e-05;-0.004164315796576042
1.18443e-05;-0.004171627294986523
1.18445e-05;-0.0041798330229710304
1.18448e-05;-0.0041880387509554825
1.18450e-05;-0.004196904127106146
1.18453e-05;-0.004206270593459484
1.18455e-05;-0.004215637059812757
1.18458e-05;-0.004225441233333843
1.18460e-05;-0.004235577903456386
1.18463e-05;-0.004245714573578862
1.18465e-05;-0.00425608032985913
1.18468e-05;-0.004266620107436054
1.18470e-05;-0.004277159885012906
1.18473e-05;-0.004287485043174451
1.18475e-05;-0.0042976471694473675
1.18478e-05;-0.004307809295720216
1.18480e-05;-0.00431766638543811
1.18483e-05;-0.00432729175946719
1.18485e-05;-0.004336917133496205
1.18488e-05;-0.004348533713469888
1.18490e-05;-0.0043616628782451
1.18493e-05;-0.004374792043020224
1.18495e-05;-0.004394707593988899
1.18498e-05;-0.00441977830464442
1.18500e-05;-0.004444849015299771
1.18503e-05;-0.0044699197259552926
1.18505e-05;-0.004494990436610813
1.18507e-05;-0.004520061147266164
1.18510e-05;-0.004545131857921685
1.18513e-05;-0.004570202568577206
1.18515e-05;-0.004596520348851956
1.18518e-05;-0.004639849638582814
1.18520e-05;-0.004683178928313671
1.18522e-05;-0.0047265082180442345
1.18525e-05;-0.004769837507775092
1.18528e-05;-0.00481316679750595
1.18530e-05;-0.004856496087236807
1.18533e-05;-0.0048998253769673705
1.18535e-05;-0.004943154666698228
1.18538e-05;-0.004993041877224568
1.18540e-05;-0.00504791069769069
1.18543e-05;-0.005102779518157183
1.18545e-05;-0.005157648338623677
1.18548e-05;-0.0052125171590897985
1.18550e-05;-0.005267385979556291
1.18553e-05;-0.005322254800022784
1.18555e-05;-0.005377123620488906
1.18558e-05;-0.0054319924409554
1.18560e-05;-0.005486464540653142
1.18563e-05;-0.005535524898289336
1.18565e-05;-0.005584585255925863
1.18568e-05;-0.005633645613562391
1.18570e-05;-0.005682705971198585
1.18573e-05;-0.005731766328835112
1.18575e-05;-0.005780826686471639
1.18578e-05;-0.0058298870441078334
1.18580e-05;-0.005878947401744361
1.18583e-05;-0.005928007759380888
1.18585e-05;-0.005962080267853056
1.18588e-05;-0.005984767518601359
1.18590e-05;-0.006007454769349662
1.18592e-05;-0.00603014202009781
1.18595e-05;-0.006052829270846112
1.18598e-05;-0.006075516521594415
1.18600e-05;-0.006098203772342563
1.18603e-05;-0.006120891023090866
1.18605e-05;-0.006143578273839168
1.18607e-05;-0.006166265524587317
1.18610e-05;-0.006188952775335619
1.18613e-05;-0.0062116400260839215
1.18615e-05;-0.006218844708954073
1.18618e-05;-0.0062142883296731136
1.18620e-05;-0.006209731950392124
1.18623e-05;-0.006205175571111134
1.18625e-05;-0.006200619191830176
1.18628e-05;-0.006196062812549186
1.18630e-05;-0.006191506433268197
1.18633e-05;-0.006186950053987238
1.18635e-05;-0.006182393674706249
1.18638e-05;-0.006177837295425259
1.18640e-05;-0.006173280916144301
1.18643e-05;-0.006168724536863311
1.18645e-05;-0.006157485225165329
1.18648e-05;-0.0061411693406320566
1.18650e-05;-0.006124853456098674
1.18653e-05;-0.0061085375715652914
1.18655e-05;-0.006092221687032019
1.18658e-05;-0.0060759058024986365
1.18660e-05;-0.006059589917965254
1.18663e-05;-0.006043274033431982
1.18665e-05;-0.0060269581488986
1.18668e-05;-0.006010642264365217
1.18670e-05;-0.005994677387651467
1.18673e-05;-0.0059835006741308944
1.18675e-05;-0.005972323960610322
1.18678e-05;-0.005961147247089825
1.18680e-05;-0.005949970533569253
1.18683e-05;-0.005938793820048681
1.18685e-05;-0.005927617106528184
1.18688e-05;-0.005916440393007612
1.18690e-05;-0.0059052636794870396
1.18692e-05;-0.0058940869659665435
1.18695e-05;-0.005882910252445971
1.18698e-05;-0.005874992592693725
1.18700e-05;-0.005869550616189527
1.18703e-05;-0.005864108639685366
1.18705e-05;-0.005858666663181169
1.18708e-05;-0.005853224686676971
1.18710e-05;-0.0058477827101728105
1.18713e-05;-0.005842340733668613
1.18715e-05;-0.0058368987571644155
1.18718e-05;-0.005831456780660255
1.18720e-05;-0.005826014804156058
1.18723e-05;-0.00582057282765186
1.18725e-05;-0.005815130851147699
1.18728e-05;-0.005809688874643502
1.18730e-05;-0.005804246898139304
1.18733e-05;-0.0057988049216351435
1.18735e-05;-0.005793362945130946
1.18738e-05;-0.0057879209686267485
1.18740e-05;-0.005782478992122588
1.18743e-05;-0.005778757602328384
1.18745e-05;-0.005776343226163907
1.18748e-05;-0.005773928849999446
1.18750e-05;-0.005771514473834969
1.18753e-05;-0.0057691000976704924
1.18755e-05;-0.005766685721506032
1.18758e-05;-0.0057642713453415545
1.18760e-05;-0.005761856969177077
1.18763e-05;-0.005759442593012617
1.18765e-05;-0.00575702821684814
1.18768e-05;-0.005754613840683663
1.18770e-05;-0.005752199464519202
1.18773e-05;-0.005749785088354726
1.18775e-05;-0.0057473707121902485
1.18777e-05;-0.005744956336025788
1.18780e-05;-0.0057425419598613105
1.18783e-05;-0.005740127583696834
1.18785e-05;-0.005737713207532357
1.18788e-05;-0.005732079196879394
1.18790e-05;-0.005723999447144884
1.18793e-05;-0.005715919697410374
1.18795e-05;-0.005707839947675919
1.18798e-05;-0.005699760197941409
1.18800e-05;-0.005691680448206898
1.18803e-05;-0.005683600698472443
1.18805e-05;-0.005675520948737933
1.18808e-05;-0.005667441199003423
1.18810e-05;-0.005659361449268967
1.18813e-05;-0.0056512816995344575
1.18815e-05;-0.005642087019809616
1.18818e-05;-0.005617683371925689
1.18820e-05;-0.005593279724041595
1.18823e-05;-0.0055688760761575026
1.18825e-05;-0.0055444724282735745
1.18828e-05;-0.005520068780389482
1.18830e-05;-0.005495665132505389
1.18833e-05;-0.005471261484621461
1.18835e-05;-0.005446857836737368
1.18838e-05;-0.005422454188853275
1.18840e-05;-0.005398050540969347
1.18843e-05;-0.005373646893085254
1.18845e-05;-0.005345608988201246
1.18848e-05;-0.005314810383489564
1.18850e-05;-0.005284011778777674
1.18853e-05;-0.005253213174065784
1.18855e-05;-0.005222414569354103
1.18858e-05;-0.005191615964642213
1.18860e-05;-0.005160817359930322
1.18862e-05;-0.00513001875521864
1.18865e-05;-0.00509922015050675
1.18868e-05;-0.00506842154579486
1.18870e-05;-0.005043972976492575
1.18873e-05;-0.005024348100634282
1.18875e-05;-0.005004723224775856
1.18878e-05;-0.004985098348917429
1.18880e-05;-0.004965473473059137
1.18883e-05;-0.00494584859720071
1.18885e-05;-0.004926223721342284
1.18888e-05;-0.004906598845483991
1.18890e-05;-0.004886973969625565
1.18893e-05;-0.004867349093767139
1.18895e-05;-0.004862599108390339
1.18898e-05;-0.004869148573657902
1.18900e-05;-0.004875698038925464
1.18903e-05;-0.004882247504192982
1.18905e-05;-0.004888796969460544
1.18908e-05;-0.004895346434728106
1.18910e-05;-0.004901895899995624
1.18913e-05;-0.004908445365263186
1.18915e-05;-0.004914994830530749
1.18918e-05;-0.004921544295798267
1.18920e-05;-0.004928093761065829
1.18923e-05;-0.004936247545030941
1.18925e-05;-0.00496628613990642
1.18928e-05;-0.004996324734782101
1.18930e-05;-0.0050263633296577835
1.18933e-05;-0.005056401924533263
1.18935e-05;-0.005086440519408944
1.18938e-05;-0.005116479114284626
1.18940e-05;-0.005146517709160105
1.18943e-05;-0.005176556304035787
1.18945e-05;-0.005206594898911469
1.18947e-05;-0.005236633493786948
1.18950e-05;-0.005266672088662629
1.18953e-05;-0.00529994592576957
1.18955e-05;-0.005335677358108126
1.18958e-05;-0.0053714087904464395
