Time(s);Current(A)
6.75000e-06;0.0033567010210373512
6.75025e-06;0.0033693370998976236
6.75050e-06;0.0033819731787579385
6.75075e-06;0.0033946092576182104
6.75100e-06;0.0034072453364784824
6.75125e-06;0.0034198814153387973
6.75150e-06;0.0034325174941990696
6.75175e-06;0.0034451535730593416
6.75200e-06;0.0034577896519196565
6.75225e-06;0.00347479023703858
6.75250e-06;0.0034922177314430703
6.75275e-06;0.0035096452258476197
6.75300e-06;0.00352707272025211
6.75325e-06;0.0035445002146566006
6.75350e-06;0.00356192770906115
6.75375e-06;0.0035793552034656404
6.75400e-06;0.003596782697870131
6.75425e-06;0.00361421019227468
6.75450e-06;0.0036316376866791706
6.75475e-06;0.0036490651810836606
6.75500e-06;0.00366649267548821
6.75525e-06;0.0036839201698927004
6.75550e-06;0.0037034184039386486
6.75575e-06;0.0037258854055213886
6.75600e-06;0.0037483524071041286
6.75625e-06;0.003770819408686945
6.75650e-06;0.0037932864102696853
6.75675e-06;0.0038157534118524253
6.75700e-06;0.0038382204134352416
6.75725e-06;0.0038606874150179816
6.75750e-06;0.003883154416600722
6.75775e-06;0.003905621418183538
6.75800e-06;0.003928088419766278
6.75825e-06;0.003950555421349019
6.75850e-06;0.003973022422931835
6.75875e-06;0.003995489424514575
6.75900e-06;0.0040083881711167535
6.75925e-06;0.004020351009587728
6.75950e-06;0.004032313848058662
6.75975e-06;0.004044276686529637
6.76000e-06;0.004056239525000572
6.76025e-06;0.004068202363471506
6.76050e-06;0.004080165201942481
6.76075e-06;0.004092128040413416
6.76100e-06;0.00410409087888435
6.76125e-06;0.004116053717355325
6.76150e-06;0.00412801655582626
6.76175e-06;0.004139979394297194
6.76200e-06;0.004151942232768169
6.76225e-06;0.004163905071239104
6.76250e-06;0.004166736084710464
6.76275e-06;0.004156475029499887
6.76300e-06;0.004146213974289345
6.76325e-06;0.004135952919078803
6.76350e-06;0.004125691863868225
6.76375e-06;0.004115430808657683
6.76400e-06;0.0041051697534471064
6.76425e-06;0.004094908698236564
6.76450e-06;0.004084647643026022
6.76475e-06;0.004074386587815445
6.76500e-06;0.004064125532604902
6.76525e-06;0.00405386447739436
6.76550e-06;0.004043603422183783
6.76575e-06;0.0040333423669732405
6.76600e-06;0.0040230813117626985
6.76625e-06;0.004002677213984449
6.76650e-06;0.003981280985872168
6.76675e-06;0.003959884757759887
6.76700e-06;0.003938488529647535
6.76725e-06;0.003917092301535255
6.76750e-06;0.003895696073422974
6.76775e-06;0.0038742998453106213
6.76800e-06;0.0038529036171983406
6.76825e-06;0.003831507389085988
6.76850e-06;0.0038101111609737076
6.76875e-06;0.0037924516286935027
6.76900e-06;0.0037751575971255724
6.76925e-06;0.003757863565557701
6.76950e-06;0.0037405695339898294
6.76975e-06;0.003723275502421899
6.77000e-06;0.0037059814708540278
6.77025e-06;0.003688687439286156
6.77050e-06;0.0036713934077182257
6.77075e-06;0.0036540993761503544
6.77100e-06;0.0036368053445824827
6.77125e-06;0.003633042060493823
6.77150e-06;0.0036306022712957603
6.77175e-06;0.0036281624820976976
6.77200e-06;0.0036257226928996266
6.77225e-06;0.003623282903701564
6.77250e-06;0.0036208431145034925
6.77275e-06;0.00361840332530543
6.77300e-06;0.003615963536107367
6.77325e-06;0.003613523746909296
6.77350e-06;0.0036110839577112334
6.77375e-06;0.0036086441685131707
6.77400e-06;0.0036062043793150997
6.77425e-06;0.003603764590117037
6.77450e-06;0.003606809102783804
6.77475e-06;0.00361771632160988
6.77500e-06;0.003628623540435919
6.77525e-06;0.0036395307592619586
6.77550e-06;0.0036504379780880345
6.77575e-06;0.003661345196914074
6.77600e-06;0.0036722524157401133
6.77625e-06;0.003683159634566189
6.77650e-06;0.0036940668533922286
6.77675e-06;0.003704974072218305
6.77700e-06;0.003715881291044344
6.77725e-06;0.0037267885098703833
6.77750e-06;0.0037376957286964596
6.77775e-06;0.0037486029475224986
6.77800e-06;0.003761422379285853
6.77825e-06;0.003774428852013181
6.77850e-06;0.003787435324740465
6.77875e-06;0.003800441797467749
6.77900e-06;0.0038134482701950765
6.77925e-06;0.0038264547429223603
6.77950e-06;0.003839461215649644
6.77975e-06;0.0038524676883769722
6.78000e-06;0.003857621183725352
6.78025e-06;0.0038620065488985727
6.78050e-06;0.003866391914071808
6.78075e-06;0.0038707772792450287
6.78100e-06;0.003875162644418264
6.78125e-06;0.0038795480095914847
6.78150e-06;0.0038839333747647054
6.78175e-06;0.003888318739937941
6.78200e-06;0.003871921253061663
6.78225e-06;0.003853490914820503
6.78250e-06;0.003835060576579281
6.78275e-06;0.0038166302383381206
6.78300e-06;0.003798199900096961
6.78325e-06;0.0037797695618557387
6.78350e-06;0.0037613392236145785
6.78375e-06;0.0037429088853734188
6.78400e-06;0.003724478547132196
6.78425e-06;0.0037060482088910364
6.78450e-06;0.00366678681151665
6.78475e-06;0.003625487847455667
6.78500e-06;0.0035841888833948237
6.78525e-06;0.003542889919333841
6.78550e-06;0.003501590955272998
6.78575e-06;0.003460291991212155
6.78600e-06;0.0034189930271511723
6.78625e-06;0.003377694063090329
6.78650e-06;0.0033363950990294862
6.78675e-06;0.0032950961349685033
6.78700e-06;0.0032470051833836644
6.78725e-06;0.003198249881156695
6.78750e-06;0.0031494945789295606
6.78775e-06;0.0031007392767025913
6.78800e-06;0.0030519839744756225
6.78825e-06;0.003003228672248488
6.78850e-06;0.0029544733700215186
6.78875e-06;0.0029124486989206386
6.78900e-06;0.0028710823769544465
6.78925e-06;0.0028297160549883944
6.78950e-06;0.0027883497330222023
6.78975e-06;0.00274698341105615
6.79000e-06;0.002705617089090098
6.79025e-06;0.002664250767123906
6.79050e-06;0.0026382430161360757
6.79075e-06;0.002613737546542816
6.79100e-06;0.0025892320769494727
6.79125e-06;0.002564726607356213
6.79150e-06;0.002540221137762953
6.79175e-06;0.0025157156681696103
6.79200e-06;0.0024912101985763505
6.79225e-06;0.0024667047289830906
6.79250e-06;0.002442199259389748
6.79275e-06;0.002417693789796488
6.79300e-06;0.0023984202334426338
6.79325e-06;0.002386647539997307
6.79350e-06;0.00237487484655202
6.79375e-06;0.002363102153106693
6.79400e-06;0.002351329459661406
6.79425e-06;0.0023395567662161188
6.79450e-06;0.002327784072770792
6.79475e-06;0.002316011379325505
6.79500e-06;0.0023042386858802178
6.79525e-06;0.002292465992434891
6.79550e-06;0.0022806932989896038
6.79575e-06;0.002275616098612027
6.79600e-06;0.0022711938103792185
6.79625e-06;0.002266771522146425
6.79650e-06;0.0022623492339136314
6.79675e-06;0.002257926945680823
6.79700e-06;0.0022535046574480295
6.79725e-06;0.0022490823692152364
6.79750e-06;0.002244660080982428
6.79775e-06;0.0022402377927496346
6.79800e-06;0.0022358155045168263
6.79825e-06;0.0022313932162840327
6.79850e-06;0.002226970928051239
6.79875e-06;0.0022247434795572155
6.79900e-06;0.0022227307168504887
6.79925e-06;0.002220717954143762
6.79950e-06;0.002218705191437028
6.79975e-06;0.0022166924287303014
6.80000e-06;0.0022146796660235746
6.80025e-06;0.002212666903316841
6.80050e-06;0.002210654140610114
6.80075e-06;0.0022086413779033873
6.80100e-06;0.002206628615196654
6.80125e-06;0.0022046158524899272
6.80150e-06;0.0022026030897832004
6.80175e-06;0.0021967277611198892
6.80200e-06;0.002190474619899921
6.80225e-06;0.0021842214786799313
6.80250e-06;0.002177968337459963
6.80275e-06;0.0021717151962399946
6.80300e-06;0.002165462055020005
6.80325e-06;0.0021592089138000366
6.80350e-06;0.0021529557725800683
6.80375e-06;0.0021467026313600787
6.80400e-06;0.0021404494901401104
6.80425e-06;0.002134196348920142
6.80450e-06;0.0021279432077001524
6.80475e-06;0.002121690066480184
6.80500e-06;0.002113628591795187
6.80525e-06;0.0021029745547356924
6.80550e-06;0.002092320517676234
6.80575e-06;0.002081666480616775
6.80600e-06;0.0020710124435572804
6.80625e-06;0.002060358406497822
6.80650e-06;0.0020497043694383274
6.80675e-06;0.0020390503323788685
6.80700e-06;0.00202839629531941
6.80725e-06;0.0020177422582599155
6.80750e-06;0.002007088221200457
6.80775e-06;0.0019964341841409985
6.80800e-06;0.0019857801470815036
6.80825e-06;0.001975126110022045
6.80850e-06;0.001965937039136852
6.80875e-06;0.0019568912622747567
6.80900e-06;0.0019478454854126924
6.80925e-06;0.0019387997085506278
6.80950e-06;0.0019297539316885325
6.80975e-06;0.0019207081548264682
6.81000e-06;0.0019116623779644037
6.81025e-06;0.0019026166011023083
6.81050e-06;0.001893570824240244
6.81075e-06;0.0018880519767831565
6.81100e-06;0.0018875895996333487
6.81125e-06;0.001887127222483541
6.81150e-06;0.0018866648453337318
6.81175e-06;0.0018862024681839242
6.81200e-06;0.0018857400910341163
6.81225e-06;0.0018852777138843072
6.81250e-06;0.0018848153367344994
6.81275e-06;0.0018843529595846918
6.81300e-06;0.0018838905824348825
6.81325e-06;0.0018943036522189158
6.81350e-06;0.0019057804916458206
6.81375e-06;0.0019172573310727644
6.81400e-06;0.0019287341704996694
6.81425e-06;0.0019402110099265742
6.81450e-06;0.001951687849353518
6.81475e-06;0.001963164688780423
6.81500e-06;0.001974641528207367
6.81525e-06;0.001986118367634272
6.81550e-06;0.001997595207061177
6.81575e-06;0.0020157232136416704
6.81600e-06;0.0020345017966765435
6.81625e-06;0.0020532803797114166
6.81650e-06;0.002072058962746353
6.81675e-06;0.002090837545781226
6.81700e-06;0.002109616128816099
6.81725e-06;0.0021283947118510356
6.81750e-06;0.0021471732948859087
6.81775e-06;0.002165951877920782
6.81800e-06;0.0021847304609557182
6.81825e-06;0.0022024921672069327
6.81850e-06;0.0022201544087962106
6.81875e-06;0.0022378166503855485
6.81900e-06;0.0022554788919748265
6.81925e-06;0.0022731411335641643
6.81950e-06;0.0022908033751534423
6.81975e-06;0.0023084656167427203
6.82000e-06;0.002326127858332058
6.82025e-06;0.0023342744500505583
6.82050e-06;0.002341490279151018
6.82075e-06;0.0023487061082515027
6.82100e-06;0.0023559219373519625
6.82125e-06;0.0023631377664524223
6.82150e-06;0.0023703535955529064
6.82175e-06;0.0023775694246533662
6.82200e-06;0.002384785253753826
6.82225e-06;0.0023751724170017014
6.82250e-06;0.002363913503176746
6.82275e-06;0.0023526545893517905
6.82300e-06;0.0023413956755267964
6.82325e-06;0.002330136761701841
6.82350e-06;0.0023188778478768473
6.82375e-06;0.0023076189340518914
6.82400e-06;0.002296360020226936
6.82425e-06;0.0022851011064019423
6.82450e-06;0.002258565564110962
6.82475e-06;0.002230535755543332
6.82500e-06;0.002202505946975607
6.82525e-06;0.002174476138407977
6.82550e-06;0.002146446329840347
6.82575e-06;0.0021184165212726224
6.82600e-06;0.0020903867127049923
6.82625e-06;0.0020623569041373626
6.82650e-06;0.0020343270955696375
6.82675e-06;0.002000153399427137
6.82700e-06;0.0019653787458135605
6.82725e-06;0.0019306040921998663
6.82750e-06;0.00189582943858629
6.82775e-06;0.0018610547849725956
6.82800e-06;0.0018262801313590192
6.82825e-06;0.0017926404230043799
6.82850e-06;0.001760627857226428
6.82875e-06;0.0017286152914485842
6.82900e-06;0.0016966027256707405
6.82925e-06;0.0016645901598927883
6.82950e-06;0.0016325775941149448
6.82975e-06;0.001600565028337101
6.83000e-06;0.001575098259818907
6.83025e-06;0.0015502717611167386
6.83050e-06;0.0015254452624145702
6.83075e-06;0.0015070257671845198
6.83100e-06;0.001489232965811813
6.83125e-06;0.001471440164439106
6.83150e-06;0.001460669061642103
6.83175e-06;0.0014505847784143811
6.83200e-06;0.0014405004951866252
6.83225e-06;0.0014377558270247017
6.83250e-06;0.001435729075076802
6.83275e-06;0.0014337023231288954
6.83300e-06;0.0014389691636461997
6.83325e-06;0.0014449494187284493
6.83350e-06;0.0014509296738107194
6.83375e-06;0.001463635520460048
6.83400e-06;0.0014769992233036346
6.83425e-06;0.0014903629261472664
6.83450e-06;0.0015097793079250515
6.83475e-06;0.0015297877257027686
6.83500e-06;0.0015497961434805534
6.83525e-06;0.0015773216668211359
6.83550e-06;0.0016055824674094798
6.83575e-06;0.0016338432679979193
6.83600e-06;0.0016621040685862632
6.83625e-06;0.0016903648691747027
6.83650e-06;0.0017186256697630466
6.83675e-06;0.0017468864703513904
6.83700e-06;0.0017796846782195995
6.83725e-06;0.001812926707490555
6.83750e-06;0.0018461687367615103
6.83775e-06;0.0018794107660325785
6.83800e-06;0.0019126527953035341
6.83825e-06;0.0019458948245744895
6.83850e-06;0.001979136853845558
6.83875e-06;0.0020034242111881605
6.83900e-06;0.002026835677341841
6.83925e-06;0.0020502471434956007
6.83950e-06;0.002073658609649281
6.83975e-06;0.002097070075802962
6.84000e-06;0.0021204815419567217
6.84025e-06;0.002143893008110402
6.84050e-06;0.002167304474264162
6.84075e-06;0.0021907159404178428
6.84100e-06;0.002214127406571523
6.84125e-06;0.002237538872725283
6.84150e-06;0.0022609503388789634
6.84175e-06;0.0022843618050326442
6.84200e-06;0.002300120185235278
6.84225e-06;0.0023049065278936574
6.84250e-06;0.002309692870552036
6.84275e-06;0.0023144792132104314
6.84300e-06;0.0023192655558688107
6.84325e-06;0.00232405189852719
6.84350e-06;0.002328838241185585
6.84375e-06;0.002333624583843964
6.84400e-06;0.002338410926502343
6.84425e-06;0.0023431972691607384
6.84450e-06;0.0023479836118191176
6.84475e-06;0.002352769954477513
6.84500e-06;0.0023575562971358916
6.84525e-06;0.002362342639794271
6.84550e-06;0.002358770214815721
6.84575e-06;0.002354380186358326
6.84600e-06;0.0023499901579009316
6.84625e-06;0.0023456001294435216
6.84650e-06;0.002341210100986127
6.84675e-06;0.002336820072528732
6.84700e-06;0.0023324300440713225
6.84725e-06;0.002325928542847239
6.84750e-06;0.002319003253794534
6.84775e-06;0.002312077964741805
6.84800e-06;0.0023051526756891
6.84825e-06;0.002298227386636395
6.84850e-06;0.0022913020975836667
6.84875e-06;0.0022843768085309612
6.84900e-06;0.0022802861873624865
6.84925e-06;-0.005135917086017212
6.84950e-06;-0.018525268822871182
6.84975e-06;-0.01381395507887473
6.85000e-06;-0.010961448790235646
6.85025e-06;-0.003825287139593729
6.85050e-06;0.006379630434034889
6.85075e-06;0.005147733969578042
6.85100e-06;0.004588481941477386
6.85125e-06;0.0018273675968842162
6.85150e-06;-0.011742735271987352
6.85175e-06;-0.006105193405778712
6.85200e-06;-0.0033346734421043594
6.85225e-06;0.0010790343082366658
6.85250e-06;0.005622140366507808
6.85275e-06;0.006526309938139908
6.85300e-06;0.0047825981357401065
6.85325e-06;0.001448792761411087
6.85350e-06;-0.0022584728240947517
6.85375e-06;-0.002539877535667077
6.85400e-06;-0.0004764766831416808
6.85425e-06;0.0023080504079245273
6.85450e-06;0.00512326561308054
6.85475e-06;0.0056656831532620145
6.85500e-06;0.004555080108076102
6.85525e-06;0.002453174740241895
6.85550e-06;0.00012128490010207939
6.85575e-06;-6.148778692391075e-05
6.85600e-06;0.0012269297112576431
6.85625e-06;0.0029688800139663777
6.85650e-06;0.004731428813969502
6.85675e-06;0.005071377775217235
6.85700e-06;0.004376755645180362
6.85725e-06;0.0030618690299370724
6.85750e-06;0.001603406190815674
6.85775e-06;0.0014913719209285101
6.85800e-06;0.0023008270913247434
6.85825e-06;0.003394093603689207
6.85850e-06;0.004499820276693774
6.85875e-06;0.004713895333382319
6.85900e-06;0.004279324888610719
6.85925e-06;0.003455561695338566
6.85950e-06;0.0025411166756480644
6.85975e-06;0.0024691904193554944
6.86000e-06;0.0029734388093835802
6.86025e-06;0.003654294096896211
6.86050e-06;0.004341900423631685
6.86075e-06;0.004470631467180021
6.86100e-06;0.004193592124936065
6.86125e-06;0.0036736718497332095
6.86150e-06;0.0030978529316099276
6.86175e-06;0.003050619167861588
6.86200e-06;0.0033650440509008926
6.86225e-06;0.003790768384689118
6.86250e-06;0.004221342718907855
6.86275e-06;0.004302428465545629
6.86300e-06;0.004129911962863645
6.86325e-06;0.0038057991022115057
6.86350e-06;0.0034471783773731093
6.86375e-06;0.003420111264484534
6.86400e-06;0.0036199645888626737
6.86425e-06;0.003889855505116448
6.86450e-06;0.0041630565082046095
6.86475e-06;0.004217574718579995
6.86500e-06;0.004113447155200004
6.86525e-06;0.003914537407596199
6.86550e-06;0.0036941504996642963
6.86575e-06;0.0036815342569656664
6.86600e-06;0.003811086809814199
6.86625e-06;0.003984483953229438
6.86650e-06;0.00415988215611057
6.86675e-06;0.004198188159665961
6.86700e-06;0.004136975675796502
6.86725e-06;0.004016211556625066
6.86750e-06;0.0038817739489616456
6.86775e-06;0.0038772147421817886
6.86800e-06;0.003961386794829388
6.86825e-06;0.004072651790798223
6.86850e-06;0.004184752732806108
6.86875e-06;0.004210523145849769
6.86900e-06;0.004173461279816788
6.86925e-06;0.004098563960038366
6.86950e-06;0.004014528566890055
6.86975e-06;0.004011227510659409
6.87000e-06;0.004062837522112416
6.87025e-06;0.004130700464722429
6.87050e-06;0.004198273653642315
6.87075e-06;0.004210744719103466
6.87100e-06;0.004182633306537287
6.87125e-06;0.004127145878503168
6.87150e-06;0.004069335892329062
6.87175e-06;0.004059023358542746
6.87200e-06;0.004081814687835311
6.87225e-06;0.004112937065608754
6.87250e-06;0.004144599239178063
6.87275e-06;0.004140207446917337
6.87300e-06;0.004109542242857476
6.87325e-06;0.00406075213513274
6.87350e-06;0.00401041903941829
6.87375e-06;0.003989060162266935
6.87400e-06;0.003987927255098415
6.87425e-06;0.0039914492572439295
6.87450e-06;0.003995258832235406
6.87475e-06;0.003976094409784575
6.87500e-06;0.003940264464683453
6.87525e-06;0.003892941721032219
6.87550e-06;0.0038446405383449366
6.87575e-06;0.003814496875061246
6.87600e-06;0.0037971152076584297
6.87625e-06;0.0037829254759269627
6.87650e-06;0.003768941783884433
6.87675e-06;0.003740966172197999
6.87700e-06;0.0037029448949291765
6.87725e-06;0.0036624803049671406
6.87750e-06;0.00362186051565472
6.87775e-06;0.0035812407263424366
6.87800e-06;0.003556242369482565
6.87825e-06;0.0035326204776289062
6.87850e-06;0.0035089852181098852
6.87875e-06;0.0034853499585907844
6.87900e-06;0.0034521009873977096
6.87925e-06;0.003418897342176812
6.87950e-06;0.0033857884365980466
6.87975e-06;0.0033526795310193933
6.88000e-06;0.003331554228829839
6.88025e-06;0.0033137492587341304
6.88050e-06;0.0032961535485012765
6.88075e-06;0.0032785578382684226
6.88100e-06;0.00325560227859786
6.88125e-06;0.0032321271289514585
6.88150e-06;0.003213619582514258
6.88175e-06;0.003195593601251871
6.88200e-06;0.0031775676199895446
6.88225e-06;0.0031645514381216195
6.88250e-06;0.003152020911975284
6.88275e-06;0.0031394903858289916
6.88300e-06;0.0031269598596826566
6.88325e-06;0.0031144293335363636
6.88350e-06;0.003105017037553598
6.88375e-06;0.0030959070263931934
6.88400e-06;0.00308679701523282
6.88425e-06;0.003077687004072446
6.88450e-06;0.0030685769929120416
6.88475e-06;0.0030629225012207997
6.88500e-06;0.003057602991565563
6.88525e-06;0.003052283481910309
6.88550e-06;0.003046963972255072
6.88575e-06;0.0030416444625998356
6.88600e-06;0.0030363249529445813
6.88625e-06;0.0030310054432893447
6.88650e-06;0.0030256859336341086
6.88675e-06;0.003020366423978854
6.88700e-06;0.003015046914323617
6.88725e-06;0.003009727404668363
6.88750e-06;0.0030044078950131263
6.88775e-06;0.0030003223946718518
6.88800e-06;0.0029980007751313907
6.88825e-06;0.0029956791555909375
6.88850e-06;0.0029933575360504843
6.88875e-06;0.002991035916510023
6.88900e-06;0.0029887142969695695
6.88925e-06;0.0029863926774291163
6.88950e-06;0.0029840710578886553
6.88975e-06;0.002981749438348202
6.89000e-06;0.002979427818807749
6.89025e-06;0.0029771061992672878
6.89050e-06;0.0029747845797268345
6.89075e-06;0.002972462960186381
6.89100e-06;0.0029644761322044507
6.89125e-06;0.002955940112393528
6.89150e-06;0.0029474040925825764
6.89175e-06;0.0029388680727716536
6.89200e-06;0.0029303320529607308
6.89225e-06;0.0029217960331497793
6.89250e-06;0.0029132600133388565
6.89275e-06;0.0029047239935279336
6.89300e-06;0.002896187973716982
6.89325e-06;0.0028876519539060594
6.89350e-06;0.0028791159340951365
6.89375e-06;0.0028705799142841847
6.89400e-06;0.0028620438944732623
6.89425e-06;0.0028498807256201034
6.89450e-06;0.0028325329455292513
6.89475e-06;0.0028151851654384576
6.89500e-06;0.0027978373853476644
6.89525e-06;0.0027804896052568123
6.89550e-06;0.0027631418251660186
6.89575e-06;0.0027457940450751664
6.89600e-06;0.0027284462649843732
6.89625e-06;0.00271109848489358
6.89650e-06;0.002693750704802728
6.89675e-06;0.0026764029247119342
6.89700e-06;0.002659055144621141
6.89725e-06;0.002641707364530289
6.89750e-06;0.002624359584439495
6.89775e-06;0.0026057722273394902
6.89800e-06;0.002587064704216997
6.89825e-06;0.002568357181094567
6.89850e-06;0.0025496496579721375
6.89875e-06;0.002530942134849644
