Time(s);Current(A)
5.50000e-06;-0.00038120492579437807
5.50025e-06;-0.0003853232400400938
5.50050e-06;-0.00038944155428580955
5.50075e-06;-0.00039355986853153925
5.50100e-06;-0.00039767818277725497
5.50125e-06;-0.0004017964970229707
5.50150e-06;-0.0004059148112687004
5.50175e-06;-0.00041003312551441616
5.50200e-06;-0.0004141514397601319
5.50225e-06;-0.0004181399787840185
5.50250e-06;-0.00041964249313517784
5.50275e-06;-0.0004211450074863372
5.50300e-06;-0.0004226475218375016
5.50325e-06;-0.00042415003618866094
5.50350e-06;-0.00042565255053982537
5.50375e-06;-0.0004271550648909847
5.50400e-06;-0.00042865757924214404
5.50425e-06;-0.00043016009359330847
5.50450e-06;-0.0004316626079444678
5.50475e-06;-0.00043309557654968585
5.50500e-06;-0.0004331962997709269
5.50525e-06;-0.0004332970229921676
5.50550e-06;-0.00043339774621340826
5.50575e-06;-0.0004334984694346493
5.50600e-06;-0.00043359919265589
5.50625e-06;-0.0004336999158771307
5.50650e-06;-0.00043380063909837175
5.50675e-06;-0.00043390136231961246
5.50700e-06;-0.00043374401280571803
5.50725e-06;-0.0004333751816743287
5.50750e-06;-0.00043300635054294064
5.50775e-06;-0.0004326375194115513
5.50800e-06;-0.0004322686882801632
5.50825e-06;-0.0004318998571487751
5.50850e-06;-0.00043153102601738575
5.50875e-06;-0.0004311621948859977
5.50900e-06;-0.0004307915833397541
5.50925e-06;-0.0004303868654734214
5.50950e-06;-0.0004298898794460468
5.50975e-06;-0.00042762536860586924
5.51000e-06;-0.00042520145398421323
5.51025e-06;-0.00041956499745806963
5.51050e-06;-0.0004108838050460285
5.51075e-06;-0.0004020563635124446
5.51100e-06;-0.0003903382787184756
5.51125e-06;-0.00037682720569085724
5.51150e-06;-0.00036153923680742666
5.51175e-06;-0.00034413368052425754
5.51200e-06;-0.00032411946660441395
5.51225e-06;-0.00030138780631201755
5.51250e-06;-0.00027612694010234647
5.51275e-06;-0.0002485434484077833
5.51300e-06;-0.00021884394076483548
5.51325e-06;-0.00018723213913355354
5.51350e-06;-0.00015384454646826938
5.51375e-06;-0.00011859424315750444
5.51400e-06;-8.130007846218514e-05
5.51425e-06;-4.202039825886459e-05
5.51450e-06;-9.995940413304852e-07
5.51475e-06;4.150644143580059e-05
5.51500e-06;8.524184224096776e-05
5.51525e-06;0.00012996975962947354
5.51550e-06;0.00017575546187059254
5.51575e-06;0.0002216112543147266
5.51600e-06;0.00026880972196983397
5.51625e-06;0.00031600818962510127
5.51650e-06;0.00036320665728020865
5.51675e-06;0.0004104051249353161
5.51700e-06;0.0004576035925905833
5.51725e-06;0.0005046764145008804
5.51750e-06;0.0005493420242977223
5.51775e-06;0.0005940076340947156
5.51800e-06;0.0006385053042486092
5.51825e-06;0.0006797858572263053
5.51850e-06;0.0007208671879649117
5.51875e-06;0.0007581321399353399
5.51900e-06;0.0007951414810011382
5.51925e-06;0.0008272542400735805
5.51950e-06;0.0008591380830827896
5.51975e-06;0.0008866367208745126
5.52000e-06;0.0009141353586663288
5.52025e-06;0.0009414785056481147
5.52050e-06;0.0009658430101456955
5.52075e-06;0.0009902075146431938
5.52100e-06;0.001014241215817859
5.52125e-06;0.0010319379197664342
5.52150e-06;0.0010496346237149495
5.52175e-06;0.0010673313276634646
5.52200e-06;0.0010850280316120398
5.52225e-06;0.0011027247355605552
5.52250e-06;0.0011204214395090705
5.52275e-06;0.0011381181434576457
5.52300e-06;0.001155814847406161
5.52325e-06;0.0011703540374524183
5.52350e-06;0.0011823057548361823
5.52375e-06;0.001194257472219906
5.52400e-06;0.0012062091896036296
5.52425e-06;0.0012181609069873939
5.52450e-06;0.0012301126243711175
5.52475e-06;0.0012420643417548817
5.52500e-06;0.0012540160591386054
5.52525e-06;0.0012656750584945226
5.52550e-06;0.0012717266373639651
5.52575e-06;0.0012777782162333876
5.52600e-06;0.0012838297951028098
5.52625e-06;0.0012898813739722526
5.52650e-06;0.0012959329528416748
5.52675e-06;0.0013019845317110972
5.52700e-06;0.0013080361105805398
5.52725e-06;0.0013140876894499622
5.52750e-06;0.0013201392683193844
5.52775e-06;0.0013261908471888272
5.52800e-06;0.0013322424260582494
5.52825e-06;0.0013382940049276718
5.52850e-06;0.0013443455837971146
5.52875e-06;0.0013503971626665368
5.52900e-06;0.0013564487415359797
5.52925e-06;0.0013625003204054019
5.52950e-06;0.0013685518992748243
5.52975e-06;0.0013746034781442669
5.53000e-06;0.0013806550570136893
5.53025e-06;0.0013867066358831115
5.53050e-06;0.0013924318840522665
5.53075e-06;0.001391905814300104
5.53100e-06;0.0013913797445479416
5.53125e-06;0.0013908536747957775
5.53150e-06;0.001390327605043615
5.53175e-06;0.0013898015352914526
5.53200e-06;0.0013892754655392885
5.53225e-06;0.001388749395787126
5.53250e-06;0.0013882233260349636
5.53275e-06;0.0013876972562827995
5.53300e-06;0.001387171186530637
5.53325e-06;0.0013866451167784727
5.53350e-06;0.0013861190470263103
5.53375e-06;0.001385592977274148
5.53400e-06;0.0013850669075219837
5.53425e-06;0.0013845408377698213
5.53450e-06;0.0013840147680176588
5.53475e-06;0.0013834886982654947
5.53500e-06;0.0013829626285133323
5.53525e-06;0.0013824365587611698
5.53550e-06;0.0013819104890090057
5.53575e-06;0.001381271049761433
5.53600e-06;0.0013784598603309775
5.53625e-06;0.0013756486709005128
5.53650e-06;0.0013728374814700574
5.53675e-06;0.001370026292039602
5.53700e-06;0.001367215102609137
5.53725e-06;0.0013644039131786817
5.53750e-06;0.0013615927237482263
5.53775e-06;0.0013587815343177616
5.53800e-06;0.0013559703448873062
5.53825e-06;0.0013531591554568412
5.53850e-06;0.0013503479660263858
5.53875e-06;0.0013475367765959304
5.53900e-06;0.0013447255871654655
5.53925e-06;0.0013419143977350103
5.53950e-06;0.0013392283148173853
5.53975e-06;0.0013389388209560866
5.54000e-06;0.0013386493270947889
5.54025e-06;0.001338359833233491
5.54050e-06;0.0013380703393721923
5.54075e-06;0.0013377808455108946
5.54100e-06;0.0013374913516495967
5.54125e-06;0.001337201857788298
5.54150e-06;0.0013369123639270003
5.54175e-06;0.0013366228700657024
5.54200e-06;0.0013363333762044037
5.54225e-06;0.001336043882343106
5.54250e-06;0.0013357543884818072
5.54275e-06;0.0013354648946205094
5.54300e-06;0.0013351754007592117
5.54325e-06;0.0013350253924716436
5.54350e-06;0.0013375474241267735
5.54375e-06;0.0013400694557819033
5.54400e-06;0.0013425914874370417
5.54425e-06;0.0013451135190921714
5.54450e-06;0.0013476355507473013
5.54475e-06;0.0013501575824024397
5.54500e-06;0.0013526796140575694
5.54525e-06;0.0013552016457126991
5.54550e-06;0.0013577236773678375
5.54575e-06;0.0013602457090229675
5.54600e-06;0.0013627677406780972
5.54625e-06;0.0013655368145008672
5.54650e-06;0.0013685083307751072
5.54675e-06;0.0013714798470493576
5.54700e-06;0.0013744513633235976
5.54725e-06;0.0013774228795978378
5.54750e-06;0.001380394395872088
5.54775e-06;0.0013833659121463282
5.54800e-06;0.0013863374284205684
5.54825e-06;0.0013893089446948186
5.54850e-06;0.0013922804609690586
5.54875e-06;0.0013952519772432988
5.54900e-06;0.0013980029447255102
5.54925e-06;0.001396528993705099
5.54950e-06;0.0013950550426846881
5.54975e-06;0.001393581091664272
5.55000e-06;0.001392107140643861
5.55025e-06;0.0013906331896234498
5.55050e-06;0.0013891592386030337
5.55075e-06;0.0013870389727444884
5.55100e-06;0.0013725376482887864
5.55125e-06;0.0013580363238331335
5.55150e-06;0.0013435349993774805
5.55175e-06;0.0013290336749217785
5.55200e-06;0.0013145323504661255
5.55225e-06;0.0013000310260104727
5.55250e-06;0.0012849997307581627
5.55275e-06;0.0012598161086537366
5.55300e-06;0.0012346324865493102
5.55325e-06;0.0012091881825590162
5.55350e-06;0.0011787501549039312
5.55375e-06;0.0011483121272488463
5.55400e-06;0.0011176203676846515
5.55425e-06;0.001082068020916173
5.55450e-06;0.0010465156741476943
5.55475e-06;0.001010755489574449
5.55500e-06;0.000971013883122878
5.55525e-06;0.0009312722766711723
5.55550e-06;0.0008915306702196014
5.55575e-06;0.0008517890637680304
5.55600e-06;0.0008119589560037845
5.55625e-06;0.0007704334826512628
5.55650e-06;0.0007289080092987411
5.55675e-06;0.0006873825359460788
5.55700e-06;0.0006458570625935572
5.55725e-06;0.0006044386252368508
5.55750e-06;0.000565070611074932
5.55775e-06;0.0005257025969131465
5.55800e-06;0.00048648129849420557
5.55825e-06;0.0004500705439475591
5.55850e-06;0.0004137841756962801
5.55875e-06;0.00037998126561795644
5.55900e-06;0.00034822071471949284
5.55925e-06;0.00031876980112427477
5.55950e-06;0.0002918767345113106
5.55975e-06;0.0002677007997318341
5.56000e-06;0.00024629433915188706
5.56025e-06;0.00022769151664508563
5.56050e-06;0.00021194715931513314
5.56075e-06;0.0001991182379100852
5.56100e-06;0.00018926171884633419
5.56125e-06;0.0001824340011317811
5.56150e-06;0.00017867947994867087
5.56175e-06;0.00017798690249411952
5.56200e-06;0.00018027796471355116
5.56225e-06;0.00018546304122108308
5.56250e-06;0.00019346539920322568
5.56275e-06;0.00020420968739896268
5.56300e-06;0.00021762052544353676
5.56325e-06;0.00023362220209308747
5.56350e-06;0.00025213148938350947
5.56375e-06;0.00027303026963704756
5.56400e-06;0.0002961584974407587
5.56425e-06;0.0003213489592381757
5.56450e-06;0.0003484821710330717
5.56475e-06;0.000378038973507034
5.56500e-06;0.00040773820526318014
5.56525e-06;0.00044016586778116546
5.56550e-06;0.0004727401642209384
5.56575e-06;0.0005081234371370037
5.56600e-06;0.0005435067100531888
5.56625e-06;0.000578889982969254
5.56650e-06;0.0006142732558853193
5.56675e-06;0.0006499961590808812
5.56700e-06;0.0006859973774602664
5.56725e-06;0.0007219985958396517
5.56750e-06;0.0007579998142191589
5.56775e-06;0.000793862308687148
5.56800e-06;0.0008270673539191889
5.56825e-06;0.0008602723991511174
5.56850e-06;0.0008932409324369931
5.56875e-06;0.0009216787508376512
5.56900e-06;0.000950116569238213
5.56925e-06;0.0009782515014890305
5.56950e-06;0.0010005842287773125
5.56975e-06;0.0010229169560655189
5.57000e-06;0.0010450153651745569
5.57025e-06;0.0010626250840511968
5.57050e-06;0.0010802348029277772
5.57075e-06;0.0010975852587915287
5.57100e-06;0.0011099691714815544
5.57125e-06;0.0011223530841715382
5.57150e-06;0.001134486699511274
5.57175e-06;0.0011418255213992688
5.57200e-06;0.0011491643432872387
5.57225e-06;0.001156141553887227
5.57250e-06;0.0011561915979236973
5.57275e-06;0.0011562416419601677
5.57300e-06;0.0011562916859966382
5.57325e-06;0.0011563417300331086
5.57350e-06;0.001156391774069579
5.57375e-06;0.0011564418181060495
5.57400e-06;0.0011564918621425199
5.57425e-06;0.001156158955478075
5.57450e-06;0.0011484900961526996
5.57475e-06;0.0011408212368273502
5.57500e-06;0.001133152377502001
5.57525e-06;0.0011254835181766256
5.57550e-06;0.0011178146588512762
5.57575e-06;0.001110145799525927
5.57600e-06;0.0011024769402005515
5.57625e-06;0.001094703928906119
5.57650e-06;0.0010849357419591614
5.57675e-06;0.0010751675550122368
5.57700e-06;0.0010653993680653125
5.57725e-06;0.0010556311811183547
5.57750e-06;0.0010458629941714303
5.57775e-06;0.001036094807224506
5.57800e-06;0.0010263266202775482
5.57825e-06;0.0010165584333306239
5.57850e-06;0.0010067902463836993
5.57875e-06;0.0009970220594367417
5.57900e-06;0.0009872538724898174
5.57925e-06;0.0009787878006214457
5.57950e-06;0.0009713887667043864
5.57975e-06;0.0009639897327873521
5.58000e-06;0.0009565906988703178
5.58025e-06;0.0009491916649532585
5.58050e-06;0.0009417926310362242
5.58075e-06;0.000934393597119165
5.58100e-06;0.0009269945632021308
5.58125e-06;0.0009195955292850965
5.58150e-06;0.0009121964953680372
5.58175e-06;0.000904797461451003
5.58200e-06;0.0008973491353220407
5.58225e-06;0.0008889565483988926
5.58250e-06;0.0008805639614757728
5.58275e-06;0.0008721713745526531
5.58300e-06;0.000863778787629505
5.58325e-06;0.0008553862007063853
5.58350e-06;0.0008469936137832656
5.58375e-06;0.0008386010268601174
5.58400e-06;0.0008302084399369978
5.58425e-06;0.0008218158530138781
5.58450e-06;0.0008134232660907299
5.58475e-06;0.000804998191920162
5.58500e-06;0.0007959507793949462
5.58525e-06;0.0007869033668697611
5.58550e-06;0.000777855954344576
5.58575e-06;0.0007688085418193602
5.58600e-06;0.000759761129294175
5.58625e-06;0.0007507137167689898
5.58650e-06;0.000741666304243774
5.58675e-06;0.0007326188917185889
5.58700e-06;0.0007235714791934038
5.58725e-06;0.000714524066668188
5.58750e-06;0.0007056533372727029
5.58775e-06;0.00070016721866548
5.58800e-06;0.0006946811000582383
5.58825e-06;0.0006891949814510153
5.58850e-06;0.0006837088628437923
5.58875e-06;0.0006782227442365507
5.58900e-06;0.0006727366256293276
5.58925e-06;0.000667250507022086
5.58950e-06;0.0006617643884148629
5.58975e-06;0.0006562782698076399
5.59000e-06;0.0006507921512003983
5.59025e-06;0.0006453060325931752
5.59050e-06;0.0006398199139859522
5.59075e-06;0.0006343337953787105
5.59100e-06;0.0006288476767714876
5.59125e-06;0.0006237202249056019
5.59150e-06;0.0006254635327084339
5.59175e-06;0.00062720684051126
5.59200e-06;0.0006289501483140862
5.59225e-06;0.0006306934561169183
5.59250e-06;0.0006324367639197445
5.59275e-06;0.0006341800717225706
5.59300e-06;0.0006359233795254027
5.59325e-06;0.0006376666873282289
5.59350e-06;0.000639409995131061
5.59375e-06;0.0006411533029338872
5.59400e-06;0.0006428966107367133
5.59425e-06;0.0006446399185395453
5.59450e-06;0.0006463832263423715
5.59475e-06;0.0006481265341451976
5.59500e-06;0.0006500484415282829
5.59525e-06;0.0006553916719694944
5.59550e-06;0.000660734902410706
5.59575e-06;0.0006660781328519357
5.59600e-06;0.0006714213632931473
5.59625e-06;0.0006767645937343589
5.59650e-06;0.0006821078241755886
5.59675e-06;0.0006874510546168002
5.59700e-06;0.0006927942850580117
5.59725e-06;0.0006979480459969258
5.59750e-06;0.0007029465432783694
5.59775e-06;0.0007079450405598301
5.59800e-06;0.0007129435378412737
5.59825e-06;0.0007179420351227174
5.59850e-06;0.000722940532404178
5.59875e-06;0.0007279390296856216
5.59900e-06;0.0007329375269670654
5.59925e-06;0.0007377185546238945
5.59950e-06;0.0007383336495286823
5.59975e-06;0.0007389487444334702
5.60000e-06;0.0007395638393382601
5.60025e-06;0.0007401789342430479
5.60050e-06;0.0007407940291478358
5.60075e-06;0.0007414091240526258
5.60100e-06;0.0007420242189574136
5.60125e-06;0.0007426393138622014
5.60150e-06;0.0007432544087669913
5.60175e-06;0.0007438695036717792
5.60200e-06;0.0007444845985765691
5.60225e-06;0.000744776150882897
5.60250e-06;0.0007388697952768154
5.60275e-06;0.0007329634396707138
5.60300e-06;0.0007270570840646322
5.60325e-06;0.0007211507284585507
5.60350e-06;0.0007152443728524491
5.60375e-06;0.0007093380172463675
5.60400e-06;0.0007034316616402859
5.60425e-06;0.0006975253060341843
5.60450e-06;0.0006916189504281027
5.60475e-06;0.0006857125948220212
5.60500e-06;0.0006798062392159196
5.60525e-06;0.0006737540377204165
5.60550e-06;0.0006649079556166693
5.60575e-06;0.0006560618735128922
5.60600e-06;0.0006472157914091452
5.60625e-06;0.0006383697093053681
5.60650e-06;0.0006295236272016209
5.60675e-06;0.0006206775450978738
5.60700e-06;0.0006118314629940967
5.60725e-06;0.0006033795092711925
5.60750e-06;0.0005952505300278526
5.60775e-06;0.0005871215507844851
5.60800e-06;0.0005789925715411452
5.60825e-06;0.0005708635922978052
5.60850e-06;0.0005627346130544378
5.60875e-06;0.0005546056338110978
5.60900e-06;0.0005465454282784618
5.60925e-06;0.0005398026787082968
5.60950e-06;0.0005330599291381549
5.60975e-06;0.0005263171795680129
5.61000e-06;0.0005195744299978481
5.61025e-06;0.0005108209139070671
5.61050e-06;0.0005004196446930071
5.61075e-06;0.0004900183754789824
5.61100e-06;0.0004796171062649576
5.61125e-06;0.00046907547166412367
5.61150e-06;0.00045584494309806867
5.61175e-06;0.00044248228603894964
5.61200e-06;0.00042658852415540597
5.61225e-06;0.00041055698740396704
5.61250e-06;0.0003918861816740414
5.61275e-06;0.0003731061506086973
5.61300e-06;0.00035223375652004157
5.61325e-06;0.0003312717496033692
5.61350e-06;0.00030859308448500034
5.61375e-06;0.00028580700360027916
5.61400e-06;0.000260963224498777
5.61425e-06;0.0002360234913169262
5.61450e-06;0.00020924562443837942
5.61475e-06;0.00018240467966143965
5.61500e-06;0.00015435539012151762
5.61525e-06;0.00012627029743180328
5.61550e-06;9.749934567379979e-05
5.61575e-06;6.870323213601443e-05
5.61600e-06;3.941150242954552e-05
5.61625e-06;9.854130947882441e-06
5.61650e-06;-1.9794577811996733e-05
5.61675e-06;-4.935457426648492e-05
5.61700e-06;-7.864583447831203e-05
5.61725e-06;-0.00010748928247624468
5.61750e-06;-0.00013572710561375934
5.61775e-06;-0.0001632729821085766
5.61800e-06;-0.00019007303878761566
5.61825e-06;-0.00021600039116059048
5.61850e-06;-0.0002408704219907474
5.61875e-06;-0.00026449494302238576
5.61900e-06;-0.0002866857171778204
5.61925e-06;-0.0003072193595130481
5.61950e-06;-0.00032536600525644795
5.61975e-06;-0.00034338790661647694
5.62000e-06;-0.00035902015603139775
5.62025e-06;-0.0003745386224373662
5.62050e-06;-0.00038787741725276545
5.62075e-06;-0.0004010849593008978
5.62100e-06;-0.00041177817227198906
5.62125e-06;-0.00042233113986042507
5.62150e-06;-0.000430197512331169
5.62175e-06;-0.00043795419308644354
5.62200e-06;-0.000443609576661239
5.62225e-06;-0.0004491422967545564
5.62250e-06;-0.00045232522747118024
5.62275e-06;-0.0004555081581878149
5.62300e-06;-0.0004585366815000163
5.62325e-06;-0.000458607316496535
5.62350e-06;-0.0004586779514930535
5.62375e-06;-0.00045862897517417187
5.62400e-06;-0.0004562886779594771
5.62425e-06;-0.0004539483807447902
5.62450e-06;-0.0004515129136083182
5.62475e-06;-0.0004472543344218295
5.62500e-06;-0.0004429957552353552
5.62525e-06;-0.00043866487655641996
5.62550e-06;-0.00043294900067001994
5.62575e-06;-0.000427179132599536
5.62600e-06;-0.00042037496924348045
5.62625e-06;-0.0004135708058874019
5.62650e-06;-0.0004067666425313463
5.62675e-06;-0.0003999624791752908
5.62700e-06;-0.0003931583158192122
5.62725e-06;-0.0003862131246222414
5.62750e-06;-0.0003791523660220345
5.62775e-06;-0.00037209160742185155
5.62800e-06;-0.00036503084882166857
5.62825e-06;-0.00035797009022146164
5.62850e-06;-0.0003510402131091449
5.62875e-06;-0.00034661755270009535
5.62900e-06;-0.0003421948922910308
5.62925e-06;-0.00033777223188198125
5.62950e-06;-0.0003333495714729317
5.62975e-06;-0.00032892691106386714
5.63000e-06;-0.0003245042506548176
5.63025e-06;-0.000320081590245768
5.63050e-06;-0.0003156589298367035
5.63075e-06;-0.00031123626942765396
5.63100e-06;-0.0003068136090186044
5.63125e-06;-0.0003025658827295723
5.63150e-06;-0.0003016692625040723
5.63175e-06;-0.0003007726422785693
5.63200e-06;-0.0002998760220530693
5.63225e-06;-0.0002989794018275693
5.63250e-06;-0.0002980827816020663
5.63275e-06;-0.00029718616137656636
5.63300e-06;-0.0002962895411510664
5.63325e-06;-0.00029539292092556335
5.63350e-06;-0.00029449630070006337
5.63375e-06;-0.0002935996804745634
5.63400e-06;-0.00029280647361283716
5.63425e-06;-0.0002939942933812377
5.63450e-06;-0.0002951821131496382
5.63475e-06;-0.0002963699329180427
5.63500e-06;-0.0002975577526864433
5.63525e-06;-0.0002987455724548438
5.63550e-06;-0.0002999333922232483
5.63575e-06;-0.00030112121199164885
5.63600e-06;-0.00030230903176005336
5.63625e-06;-0.00030385851316982104
5.63650e-06;-0.0003057043636968888
5.63675e-06;-0.0003075502142239628
5.63700e-06;-0.0003093960647510306
5.63725e-06;-0.00031124191527809835
5.63750e-06;-0.00031308776580517235
5.63775e-06;-0.0003149336163322401
5.63800e-06;-0.0003167794668593079
5.63825e-06;-0.0003186146475241711
5.63850e-06;-0.0003202454321574301
5.63875e-06;-0.00032187621679068904
5.63900e-06;-0.00032349091444152604
5.63925e-06;-0.0003247974435983897
5.63950e-06;-0.0003260306399108725
5.63975e-06;-0.00032585904372649905
5.64000e-06;-0.0003255366775647395
5.64025e-06;-0.0003223261030598093
5.64050e-06;-0.0003190048181670571
5.64075e-06;-0.0003134940645208557
5.64100e-06;-0.00030660328472770427
5.64125e-06;-0.0002984073871941598
5.64150e-06;-0.00028891408153552224
5.64175e-06;-0.0002779081683813332
5.64200e-06;-0.0002650828156193359
5.64225e-06;-0.0002503741696038257
5.64250e-06;-0.0002339057546352476
5.64275e-06;-0.00021581267069469869
5.64300e-06;-0.00019623001704115309
5.64325e-06;-0.00017529105256882532
5.64350e-06;-0.0001530869344269821
5.64375e-06;-0.0001295691876148057
5.64400e-06;-0.00010463196262140705
5.64425e-06;-7.832160956735105e-05
5.64450e-06;-5.080184099877925e-05
5.64475e-06;-2.22436143642427e-05
5.64500e-06;7.1821197923883375e-06
