Time(s);Current(A)
2.25000e-06;-0.004707056546177604
2.25025e-06;-0.0046843424267730424
2.25050e-06;-0.0046604593092839115
2.25075e-06;-0.004630517598950933
2.25100e-06;-0.004600575888617903
2.25125e-06;-0.004570112786972811
2.25150e-06;-0.004536947458768236
2.25175e-06;-0.00450350654733785
2.25200e-06;-0.00446863736448296
2.25225e-06;-0.004433644963765994
2.25250e-06;-0.00439797524634274
2.25275e-06;-0.004362098715763725
2.25300e-06;-0.004326216462388586
2.25325e-06;-0.0042905296381314595
2.25350e-06;-0.0042552444483702784
2.25375e-06;-0.0042205842388722044
2.25400e-06;-0.0041867880582728036
2.25425e-06;-0.004154092640663073
2.25450e-06;-0.004122730816686723
2.25475e-06;-0.00409293541698741
2.25500e-06;-0.004064939196892289
2.25525e-06;-0.004038970378973845
2.25550e-06;-0.004015216737075207
2.25575e-06;-0.003993749150294334
2.25600e-06;-0.003974546765964513
2.25625e-06;-0.003957619567155388
2.25650e-06;-0.003943022789402988
2.25675e-06;-0.003931017118756157
2.25700e-06;-0.003922100636426788
2.25725e-06;-0.0039139993426854916
2.25750e-06;-0.003910122945299302
2.25775e-06;-0.003907210059877115
2.25800e-06;-0.003909290789729237
2.25825e-06;-0.0039113715195813565
2.25850e-06;-0.0039148606587193205
2.25875e-06;-0.003925649192555927
2.25900e-06;-0.003936437726392534
2.25925e-06;-0.003947226260229122
2.25950e-06;-0.003958014794065729
2.25975e-06;-0.003970243771823873
2.26000e-06;-0.003989938170912461
2.26025e-06;-0.004009632570001083
2.26050e-06;-0.004029326969089703
2.26075e-06;-0.0040490213681783245
2.26100e-06;-0.004069523958948261
2.26125e-06;-0.004094215183046467
2.26150e-06;-0.0041189064071446724
2.26175e-06;-0.0041439430580081475
2.26200e-06;-0.004170769959990376
2.26225e-06;-0.004197596861972604
2.26250e-06;-0.004224525893185201
2.26275e-06;-0.004251984231873018
2.26300e-06;-0.004279442570560835
2.26325e-06;-0.004306760393687534
2.26350e-06;-0.004333349963633619
2.26375e-06;-0.004359939533579749
2.26400e-06;-0.0043860077310430125
2.26425e-06;-0.004409373799532822
2.26450e-06;-0.004432739868022672
2.26475e-06;-0.004456105936512521
2.26500e-06;-0.004478773764174313
2.26525e-06;-0.004497822803284823
2.26550e-06;-0.004516854067691546
2.26575e-06;-0.0045357932107382825
2.26600e-06;-0.004555430010909833
2.26625e-06;-0.004578682574460901
2.26650e-06;-0.004602544185225621
2.26675e-06;-0.004629562318776458
2.26700e-06;-0.004657157703407674
2.26725e-06;-0.004687744820284912
2.26750e-06;-0.00471833193716215
2.26775e-06;-0.004750654794492387
2.26800e-06;-0.004791973513175029
2.26825e-06;-0.004833292231857671
2.26850e-06;-0.0048746109505402434
2.26875e-06;-0.004915929669222886
2.26900e-06;-0.004957248387905528
2.26925e-06;-0.005006487665811126
2.26950e-06;-0.005059775657556933
2.26975e-06;-0.00511306364930283
2.27000e-06;-0.005166351641048728
2.27025e-06;-0.0052196396327945345
2.27050e-06;-0.0052741340882677965
2.27075e-06;-0.005334881310621811
2.27100e-06;-0.005395628532975723
2.27125e-06;-0.005456729692864209
2.27150e-06;-0.005519665212827712
2.27175e-06;-0.005582600732791215
2.27200e-06;-0.005645733506777049
2.27225e-06;-0.005709888593652011
2.27250e-06;-0.005774043680526973
2.27275e-06;-0.005837993153243274
2.27300e-06;-0.005900876984803885
2.27325e-06;-0.005963325260804458
2.27350e-06;-0.006023516173140569
2.27375e-06;-0.006083161078208297
2.27400e-06;-0.00613997617904207
2.27425e-06;-0.0061958017334941195
2.27450e-06;-0.0062464987435045145
2.27475e-06;-0.006297195753514995
2.27500e-06;-0.006346209388609855
2.27525e-06;-0.006386498558408081
2.27550e-06;-0.006426787728206376
2.27575e-06;-0.006464096339120228
2.27600e-06;-0.006485957540006352
2.27625e-06;-0.006507818740892439
2.27650e-06;-0.006529679941778563
2.27675e-06;-0.006551541142664687
2.27700e-06;-0.006573402343550774
2.27725e-06;-0.006595263544436897
2.27750e-06;-0.006612980678571556
2.27775e-06;-0.006609220264107421
2.27800e-06;-0.0066054598496432925
2.27825e-06;-0.006601699435179157
2.27850e-06;-0.006597939020715022
2.27875e-06;-0.006594178606250894
2.27900e-06;-0.006590418191786759
2.27925e-06;-0.006583358672781156
2.27950e-06;-0.006559200809957457
2.27975e-06;-0.006535042947133717
2.28000e-06;-0.0065108850843099775
2.28025e-06;-0.006486727221486238
2.28050e-06;-0.0064625693586625385
2.28075e-06;-0.006438411495838799
2.28100e-06;-0.006406356152508072
2.28125e-06;-0.006370263892372075
2.28150e-06;-0.006334171632236016
2.28175e-06;-0.006298079372099957
2.28200e-06;-0.006261987111963898
2.28225e-06;-0.006225894851827901
2.28250e-06;-0.006189286287143285
2.28275e-06;-0.006150001859182572
2.28300e-06;-0.006110717431221924
2.28325e-06;-0.006071578615241614
2.28350e-06;-0.006033194465769695
2.28375e-06;-0.005994810316297842
2.28400e-06;-0.005956854328812088
2.28425e-06;-0.005921117386148299
2.28450e-06;-0.005885924191256498
2.28475e-06;-0.005853549090256482
2.28500e-06;-0.005822089788191074
2.28525e-06;-0.005795376818003807
2.28550e-06;-0.005768663847816585
2.28575e-06;-0.005743255385235093
2.28600e-06;-0.005724607823764426
2.28625e-06;-0.005705960262293758
2.28650e-06;-0.005688702516964984
2.28675e-06;-0.005678647803229
2.28700e-06;-0.005668593089493017
2.28725e-06;-0.0056607969701372865
2.28750e-06;-0.005664706519025128
2.28775e-06;-0.005668616067912969
2.28800e-06;-0.0056725256168008035
2.28825e-06;-0.005676435165688645
2.28850e-06;-0.005680344714576486
2.28875e-06;-0.005684254263464327
2.28900e-06;-0.005699196382321619
2.28925e-06;-0.005719777966458847
2.28950e-06;-0.005740359550596074
2.28975e-06;-0.005760941134733267
2.29000e-06;-0.005781522718870495
2.29025e-06;-0.005802104303007722
2.29050e-06;-0.005824575000587773
2.29075e-06;-0.005856836449189597
2.29100e-06;-0.005889097897791475
2.29125e-06;-0.0059213593463933525
2.29150e-06;-0.005953620794995176
2.29175e-06;-0.0059858822435970545
2.29200e-06;-0.006018143692198932
2.29225e-06;-0.006050405140800756
2.29250e-06;-0.0060842456999249525
2.29275e-06;-0.006118893445315689
2.29300e-06;-0.0061535411907064266
2.29325e-06;-0.006188188936097104
2.29350e-06;-0.006222836681487842
2.29375e-06;-0.006257484426878578
2.29400e-06;-0.006292132172269257
2.29425e-06;-0.006325927198839524
2.29450e-06;-0.006355302820267617
2.29475e-06;-0.006384678441695709
2.29500e-06;-0.006413039674836239
2.29525e-06;-0.006436143614826442
2.29550e-06;-0.006459247554816644
2.29575e-06;-0.006481061071394418
2.29600e-06;-0.006496186681328748
2.29625e-06;-0.006511312291263078
2.29650e-06;-0.006524091898522275
2.29675e-06;-0.0065247128245873795
2.29700e-06;-0.006525333750652484
2.29725e-06;-0.006525954676717589
2.29750e-06;-0.006526575602782692
2.29775e-06;-0.006527196528847797
2.29800e-06;-0.006527817454912902
2.29825e-06;-0.006525309667283802
2.29850e-06;-0.006506586624335888
2.29875e-06;-0.006487863581387973
2.29900e-06;-0.006469140538440058
2.29925e-06;-0.006450417495492176
2.29950e-06;-0.0064316944525442616
2.29975e-06;-0.006412971409596346
2.30000e-06;-0.006391996822503657
2.30025e-06;-0.0063593531065810035
2.30050e-06;-0.00632670939065835
2.30075e-06;-0.006294065674735752
2.30100e-06;-0.006261421958813099
2.30125e-06;-0.0062287782428904455
2.30150e-06;-0.006196134526967792
2.30175e-06;-0.006159536524142538
2.30200e-06;-0.006120917227660567
2.30225e-06;-0.006082297931178596
2.30250e-06;-0.0060436786346966895
2.30275e-06;-0.0060050593382147185
2.30300e-06;-0.005966440041732747
2.30325e-06;-0.0059279645225974505
2.30350e-06;-0.005890234161572976
2.30375e-06;-0.005852503800548438
2.30400e-06;-0.005815205442653617
2.30425e-06;-0.00578014603716292
2.30450e-06;-0.005745620211710949
2.30475e-06;-0.005713859783610125
2.30500e-06;-0.005682795807569285
2.30525e-06;-0.005655341349392195
2.30550e-06;-0.005628983223899766
2.30575e-06;-0.005608307086641157
2.30600e-06;-0.005587630949382583
2.30625e-06;-0.005568405785297373
2.30650e-06;-0.005556700612738741
2.30675e-06;-0.005544995440180129
2.30700e-06;-0.0055356845611661655
2.30725e-06;-0.005538782641530724
2.30750e-06;-0.005541880721895283
2.30775e-06;-0.005544978802259837
2.30800e-06;-0.005548076882624395
2.30825e-06;-0.005551174962988953
2.30850e-06;-0.005554273043353507
2.30875e-06;-0.005569600869205334
2.30900e-06;-0.005591180114740569
2.30925e-06;-0.005612759360275768
2.30950e-06;-0.005634338605811003
2.30975e-06;-0.005655917851346238
2.31000e-06;-0.005677497096881473
2.31025e-06;-0.005700783134982684
2.31050e-06;-0.0057329150055703505
2.31075e-06;-0.005765046876158017
2.31100e-06;-0.005797901208117896
2.31125e-06;-0.005834499856993847
2.31150e-06;-0.005871098505869799
2.31175e-06;-0.005908137103770582
2.31200e-06;-0.005947455835446061
2.31225e-06;-0.005986774567121606
2.31250e-06;-0.006026199118538058
2.31275e-06;-0.0060661721043222035
2.31300e-06;-0.006106145090106416
2.31325e-06;-0.006145876008526023
2.31350e-06;-0.006184352358932764
2.31375e-06;-0.00622282870933957
2.31400e-06;-0.006260697606733108
2.31425e-06;-0.006295418243637348
2.31450e-06;-0.0063301388805415285
2.31475e-06;-0.0063640619905871035
2.31500e-06;-0.0063938517401200415
2.31525e-06;-0.006422447195253296
2.31550e-06;-0.006444852953753395
2.31575e-06;-0.006467258712253494
2.31600e-06;-0.006487685202252215
2.31625e-06;-0.006497853692562731
2.31650e-06;-0.0065080221828732465
2.31675e-06;-0.00651614864089776
2.31700e-06;-0.006513691811945926
2.31725e-06;-0.006511234982994087
2.31750e-06;-0.00650574237704822
2.31775e-06;-0.006484516180921748
2.31800e-06;-0.006463289984795241
2.31825e-06;-0.006442063788668733
2.31850e-06;-0.006420837592542226
2.31875e-06;-0.006399611396415754
2.31900e-06;-0.00636393735533622
2.31925e-06;-0.00632087807942731
2.31950e-06;-0.006277818803518472
2.31975e-06;-0.006234759527609562
2.32000e-06;-0.006191700251700652
2.32025e-06;-0.006146199178518691
2.32050e-06;-0.00608804294730741
2.32075e-06;-0.006029886716096129
2.32100e-06;-0.005971730484884849
2.32125e-06;-0.005913574253673668
2.32150e-06;-0.005850447950750559
2.32175e-06;-0.005784781120376412
2.32200e-06;-0.005719114290002375
2.32225e-06;-0.0056534474596282285
2.32250e-06;-0.005587502970639355
2.32275e-06;-0.005520119454059488
2.32300e-06;-0.005452840326206343
2.32325e-06;-0.00538625375305231
2.32350e-06;-0.005320658393634809
2.32375e-06;-0.005256388634044345
2.32400e-06;-0.005193782001898789
2.32425e-06;-0.005133235349212675
2.32450e-06;-0.005075180405553933
2.32475e-06;-0.0050200514822703445
2.32500e-06;-0.004968282185337033
2.32525e-06;-0.00492029687055645
2.32550e-06;-0.004876755492270988
2.32575e-06;-0.0048384429770271
2.32600e-06;-0.00480144948037557
2.32625e-06;-0.004771292091256354
2.32650e-06;-0.004742516685358175
2.32675e-06;-0.004720903715199717
2.32700e-06;-0.004701113543427343
2.32725e-06;-0.004690770430134104
2.32750e-06;-0.004680427316840848
2.32775e-06;-0.004672972964934497
2.32800e-06;-0.0046804902620940295
2.32825e-06;-0.004688007559253575
2.32850e-06;-0.0046955248564131205
2.32875e-06;-0.004703042153572653
2.32900e-06;-0.004710559450732198
2.32925e-06;-0.004731213230477693
2.32950e-06;-0.004758581922312242
2.32975e-06;-0.0047859506141467445
2.33000e-06;-0.004813319305981294
2.33025e-06;-0.004840687997815843
2.33050e-06;-0.00486991807635236
2.33075e-06;-0.004908795205907109
2.33100e-06;-0.004947672335461857
2.33125e-06;-0.004987449296844131
2.33150e-06;-0.005031889837018699
2.33175e-06;-0.005076330377193342
2.33200e-06;-0.0051212035857937255
2.33225e-06;-0.005168319194843443
2.33250e-06;-0.0052155629173304295
2.33275e-06;-0.005263470616229937
2.33300e-06;-0.005311325593550274
2.33325e-06;-0.005358907329548666
2.33350e-06;-0.005406234646269678
2.33375e-06;-0.005452243378439544
2.33400e-06;-0.005497771289808038
2.33425e-06;-0.005540807240319732
2.33450e-06;-0.00558293118282972
2.33475e-06;-0.0056203284408133415
2.33500e-06;-0.005657725698797026
2.33525e-06;-0.005692775169462933
2.33550e-06;-0.005715656709622325
2.33575e-06;-0.0057385382497816785
2.33600e-06;-0.00576141978994107
2.33625e-06;-0.005784301330100463
2.33650e-06;-0.005807182870259816
2.33675e-06;-0.005830064410419208
2.33700e-06;-0.0058529459505786
2.33725e-06;-0.0058625980746963
2.33750e-06;-0.005865487782380818
2.33775e-06;-0.005868377490065336
2.33800e-06;-0.005871267197749853
2.33825e-06;-0.0058741569054343665
2.33850e-06;-0.005877046613118884
2.33875e-06;-0.005879936320803403
2.33900e-06;-0.005880194950551886
2.33925e-06;-0.005866817433090106
2.33950e-06;-0.005853439915628326
2.33975e-06;-0.005840062398166547
2.34000e-06;-0.005826684880704789
2.34025e-06;-0.005813307363243009
2.34050e-06;-0.0057999298457812294
2.34075e-06;-0.0057849895746392805
2.34100e-06;-0.005761949984604114
2.34125e-06;-0.0057389103945689485
2.34150e-06;-0.005715870804533821
2.34175e-06;-0.005692831214498655
2.34200e-06;-0.005669791624463489
2.34225e-06;-0.005646752034428323
2.34250e-06;-0.0056232809415806394
2.34275e-06;-0.005597573489333099
2.34300e-06;-0.0055718660370855586
2.34325e-06;-0.005546227223312929
2.34350e-06;-0.005520944143718555
2.34375e-06;-0.0054956610641241814
2.34400e-06;-0.005470845511961484
2.34425e-06;-0.005448453024808111
2.34450e-06;-0.0054260605376547
2.34475e-06;-0.005403668050501289
2.34500e-06;-0.005381967872997837
2.34525e-06;-0.005363855744397359
2.34550e-06;-0.0053457436157968805
2.34575e-06;-0.005327631487196433
2.34600e-06;-0.005309289379536336
2.34625e-06;-0.005289755354195064
2.34650e-06;-0.005270221328853792
2.34675e-06;-0.005250687303512552
2.34700e-06;-0.00523115327817128
2.34725e-06;-0.005211619252830008
2.34750e-06;-0.005192085227488768
2.34775e-06;-0.005171851931097257
2.34800e-06;-0.005147994506795497
2.34825e-06;-0.005124137082493737
2.34850e-06;-0.005100279658192017
2.34875e-06;-0.005076422233890256
2.34900e-06;-0.005052564809588495
2.34925e-06;-0.005028707385286775
2.34950e-06;-0.005004115338336559
2.34975e-06;-0.004975715945947221
2.35000e-06;-0.0049473165535579315
2.35025e-06;-0.004918917161168593
2.35050e-06;-0.004890517768779256
2.35075e-06;-0.004862118376389918
2.35100e-06;-0.004833718984000628
2.35125e-06;-0.004804029071199686
2.35150e-06;-0.004773679489339111
2.35175e-06;-0.004743329907478588
2.35200e-06;-0.004712980325618013
2.35225e-06;-0.004682630743757438
2.35250e-06;-0.0046522811618968625
2.35275e-06;-0.004622095410894933
2.35300e-06;-0.004592758749794546
2.35325e-06;-0.004563422088694158
2.35350e-06;-0.004536194115112212
2.35375e-06;-0.004519894884093579
2.35400e-06;-0.004484244629816283
2.35425e-06;-0.00445895022033642
2.35450e-06;-0.06495031836648826
2.35475e-06;-0.03589885301977619
2.35500e-06;-0.020497591250731157
2.35525e-06;-0.0043165188929892625
2.35550e-06;0.012376517291307882
2.35575e-06;0.015348613110669318
2.35600e-06;0.008242405975006757
2.35625e-06;-0.004042071251282371
2.35650e-06;-0.018381109729219608
2.35675e-06;-0.02040849287312509
2.35700e-06;-0.013045088467216946
2.35725e-06;-0.003091199829954743
2.35750e-06;0.007110308422717204
2.35775e-06;0.008824009526505094
2.35800e-06;0.004275578504980999
2.35825e-06;-0.0034912313343922925
2.35850e-06;-0.01253231961734416
2.35875e-06;-0.013855243964337897
2.35900e-06;-0.009293270698459026
2.35925e-06;-0.0031078645614312497
2.35950e-06;0.00323269424056868
2.35975e-06;0.004256535622588524
2.36000e-06;0.0013581905613615978
2.36025e-06;-0.0035554239880640198
2.36050e-06;-0.009266307029304853
2.36075e-06;-0.010141675502200504
2.36100e-06;-0.007330148580592358
2.36125e-06;-0.003501183745982023
2.36150e-06;0.00042557422400879563
2.36175e-06;0.0010228393088536191
2.36200e-06;-0.0008354537359490728
2.36225e-06;-0.0039545049664012
2.36250e-06;-0.007571138877054134
2.36275e-06;-0.008156962143634944
2.36300e-06;-0.0064315710714038426
2.36325e-06;-0.004067102887812568
2.36350e-06;-0.0016395113472054501
2.36375e-06;-0.0012954080121382772
2.36400e-06;-0.002487052571359322
2.36425e-06;-0.004465773583068974
2.36450e-06;-0.006753324317681678
2.36475e-06;-0.007139452337862795
2.36500e-06;-0.0060749193574834905
2.36525e-06;-0.004607089563636337
2.36550e-06;-0.0030967311913320324
2.36575e-06;-0.0028886661274595458
2.36600e-06;-0.0036400552232025763
2.36625e-06;-0.004882110997660996
2.36650e-06;-0.006315366481736307
2.36675e-06;-0.006555485338180528
2.36700e-06;-0.005885038165824107
2.36725e-06;-0.004960262440155846
2.36750e-06;-0.0040072731443533
2.36775e-06;-0.003868545562219573
2.36800e-06;-0.004329377564355766
2.36825e-06;-0.005096196148415389
2.36850e-06;-0.005981511898301534
2.36875e-06;-0.0061183235608229455
2.36900e-06;-0.005683807769691503
2.36925e-06;-0.00508918043644031
2.36950e-06;-0.00447620279086333
2.36975e-06;-0.004372692392526926
2.37000e-06;-0.004644234582669061
2.37025e-06;-0.005107024709797726
2.37050e-06;-0.005643720746041111
2.37075e-06;-0.005711367327290273
2.37100e-06;-0.005421099990500312
2.37125e-06;-0.005030637750866964
2.37150e-06;-0.004628898807790986
2.37175e-06;-0.004546607121293237
2.37200e-06;-0.004699652974539435
2.37225e-06;-0.00497299862195631
2.37250e-06;-0.005293247418116989
2.37275e-06;-0.005320416240694982
2.37300e-06;-0.005124257012485432
2.37325e-06;-0.004866330525146795
2.37350e-06;-0.00460245076231314
2.37375e-06;-0.004539886322085779
2.37400e-06;-0.004626047695591135
2.37425e-06;-0.00478897746865104
2.37450e-06;-0.004982807075260477
2.37475e-06;-0.004994690881816376
2.37500e-06;-0.004868447887463458
2.37525e-06;-0.004705398964015978
2.37550e-06;-0.004540426276430658
2.37575e-06;-0.004502870993125093
2.37600e-06;-0.004559203211646704
2.37625e-06;-0.004664068631700378
2.37650e-06;-0.004788671840919269
2.37675e-06;-0.0047996672404719085
2.37700e-06;-0.004724487387142648
2.37725e-06;-0.004626578925899457
2.37750e-06;-0.004527768940414059
2.37775e-06;-0.004509048187172103
2.37800e-06;-0.00454938247623953
2.37825e-06;-0.0046203322408062035
2.37850e-06;-0.004703833605039249
2.37875e-06;-0.004716336174101448
2.37900e-06;-0.004675004146748126
2.37925e-06;-0.004619559083458071
2.37950e-06;-0.004563648392480445
2.37975e-06;-0.004557976811464129
2.38000e-06;-0.004589339174591341
2.38025e-06;-0.004639893226257478
2.38050e-06;-0.004698296830649187
2.38075e-06;-0.004712190620507162
2.38100e-06;-0.004692304311748096
2.38125e-06;-0.0046634951391712285
2.38150e-06;-0.004634287301859661
2.38175e-06;-0.0046364147209215925
2.38200e-06;-0.004661577211326025
2.38225e-06;-0.004698571659754097
2.38250e-06;-0.004740266902054451
2.38275e-06;-0.004753839785866837
2.38300e-06;-0.004745987996235896
2.38325e-06;-0.004732257515772445
2.38350e-06;-0.004717961991082186
2.38375e-06;-0.004722952672200231
2.38400e-06;-0.004742003595327922
2.38425e-06;-0.004768069611035952
2.38450e-06;-0.004796656895707485
2.38475e-06;-0.004807179855122917
2.38500e-06;-0.004803809898319658
2.38525e-06;-0.004796259784459222
2.38550e-06;-0.004787985305436055
2.38575e-06;-0.004791849316332283
2.38600e-06;-0.004805033487488582
2.38625e-06;-0.004823298009544513
2.38650e-06;-0.004838305833763621
2.38675e-06;-0.004852278932011853
2.38700e-06;-0.00485539235562039
2.38725e-06;-0.00485506604561347
2.38750e-06;-0.004858813269039807
2.38775e-06;-0.004863624947121562
2.38800e-06;-0.004876713979762216
2.38825e-06;-0.004894384854872232
2.38850e-06;-0.004910494766286989
2.38875e-06;-0.004926056933678183
2.38900e-06;-0.004935154361637188
2.38925e-06;-0.004942364239654091
2.38950e-06;-0.004952381446109869
2.38975e-06;-0.00496311796558068
2.39000e-06;-0.004979184687203067
2.39025e-06;-0.004998210874991364
2.39050e-06;-0.00501628862731084
2.39075e-06;-0.005034027295558868
2.39100e-06;-0.005047668630466468
2.39125e-06;-0.005060082541643603
2.39150e-06;-0.005072445848821623
2.39175e-06;-0.005087933044434362
2.39200e-06;-0.005105758396261579
2.39225e-06;-0.005123975189671476
2.39250e-06;-0.00514219248011264
2.39275e-06;-0.0051604097705538355
2.39300e-06;-0.005175219600318141
2.39325e-06;-0.005188994977582282
2.39350e-06;-0.005202724845418099
2.39375e-06;-0.005216454713253938
2.39400e-06;-0.005231648504166518
2.39425e-06;-0.00524624400832824
2.39450e-06;-0.005260598172729929
2.39475e-06;-0.00527495233713162
2.39500e-06;-0.005286099056128797
2.39525e-06;-0.005295461058063258
2.39550e-06;-0.005304577309084881
2.39575e-06;-0.005313693560106505
2.39600e-06;-0.0053240788093273555
2.39625e-06;-0.005335293339275223
2.39650e-06;-0.005346635916911465
