Time(s);Current(A)
1.45000e-05;-0.005308672856998633
1.45003e-05;-0.00530606071631156
1.45005e-05;-0.005303448575624487
1.45008e-05;-0.005300836434937415
1.45010e-05;-0.005298224294250359
1.45013e-05;-0.005295612153563286
1.45015e-05;-0.005293000012876213
1.45018e-05;-0.005290387872189158
1.45020e-05;-0.00528655962341182
1.45023e-05;-0.005277560527291715
1.45025e-05;-0.005268561431171671
1.45028e-05;-0.005259562335051566
1.45030e-05;-0.005250563238931461
1.45033e-05;-0.005241564142811417
1.45035e-05;-0.005232565046691312
1.45038e-05;-0.005223565950571207
1.45040e-05;-0.005214566854451163
1.45043e-05;-0.0052015329514912565
1.45045e-05;-0.005186689739257607
1.45048e-05;-0.005171846527024058
1.45050e-05;-0.005157003314790409
1.45053e-05;-0.00514216010255676
1.45055e-05;-0.005127316890323211
1.45058e-05;-0.005112473678089561
1.45060e-05;-0.005097630465855912
1.45063e-05;-0.005082787253622364
1.45065e-05;-0.005066650417477331
1.45068e-05;-0.005049933487703841
1.45070e-05;-0.005033216557930465
1.45073e-05;-0.005016499628156975
1.45075e-05;-0.004999782698383486
1.45078e-05;-0.004983065768610109
1.45080e-05;-0.00496634883883662
1.45083e-05;-0.00494963190906313
1.45085e-05;-0.0049329149792897535
1.45088e-05;-0.004918957000604395
1.45090e-05;-0.004906236205256108
1.45093e-05;-0.004893515409907821
1.45095e-05;-0.004880794614559621
1.45098e-05;-0.004868073819211334
1.45100e-05;-0.004855353023863048
1.45103e-05;-0.004842632228514847
1.45105e-05;-0.004829911433166561
1.45108e-05;-0.004817190637818274
1.45110e-05;-0.004804469842470073
1.45113e-05;-0.004793009789252281
1.45115e-05;-0.004782115084642172
1.45118e-05;-0.0047712203800321365
1.45120e-05;-0.004760325675422027
1.45123e-05;-0.004749430970811918
1.45125e-05;-0.004738536266201882
1.45128e-05;-0.0047276415615917725
1.45130e-05;-0.0047167468569816635
1.45133e-05;-0.004705852152371627
1.45135e-05;-0.0046949574477615184
1.45138e-05;-0.004683143942964075
1.45140e-05;-0.004670918424961051
1.45143e-05;-0.004658692906957945
1.45145e-05;-0.004646467388954839
1.45148e-05;-0.004634241870951816
1.45150e-05;-0.00462201635294871
1.45153e-05;-0.004609790834945604
1.45155e-05;-0.00459756531694258
1.45158e-05;-0.004585339798939474
1.45160e-05;-0.004573114280936368
1.45163e-05;-0.004560924802508206
1.45165e-05;-0.004548751485135407
1.45168e-05;-0.004536578167762608
1.45170e-05;-0.004524404850389891
1.45173e-05;-0.0045122315330170925
1.45175e-05;-0.004500058215644294
1.45178e-05;-0.004487884898271495
1.45180e-05;-0.004475711580898778
1.45183e-05;-0.004463538263525979
1.45185e-05;-0.00445136494615318
1.45188e-05;-0.004441652556267604
1.45190e-05;-0.004433043708411083
1.45193e-05;-0.00442443486055456
1.45195e-05;-0.004415826012698097
1.45198e-05;-0.004407217164841576
1.45200e-05;-0.0043986083169850546
1.45203e-05;-0.004389999469128591
1.45205e-05;-0.004381390621272069
1.45208e-05;-0.004372781773415548
1.45210e-05;-0.004364172925559085
1.45213e-05;-0.004355564077702563
1.45215e-05;-0.004346955229846041
1.45218e-05;-0.004338633746291764
1.45220e-05;-0.004331534125293858
1.45223e-05;-0.004324434504295953
1.45225e-05;-0.004317334883298095
1.45228e-05;-0.004310235262300189
1.45230e-05;-0.0043031356413022834
1.45233e-05;-0.004296036020304426
1.45235e-05;-0.00428893639930652
1.45238e-05;-0.004281836778308614
1.45240e-05;-0.004274737157310757
1.45243e-05;-0.004267637536312851
1.45245e-05;-0.004260537915314945
1.45248e-05;-0.004253438294317088
1.45250e-05;-0.004246130911903661
1.45253e-05;-0.004238730364025051
1.45255e-05;-0.004231329816146491
1.45258e-05;-0.004223929268267881
1.45260e-05;-0.0042165287203892714
1.45263e-05;-0.004209128172510662
1.45265e-05;-0.004201727624632103
1.45268e-05;-0.004194327076753493
1.45270e-05;-0.004186926528874883
1.45273e-05;-0.004180094348203717
1.45275e-05;-0.004173517037740925
1.45278e-05;-0.0041669397272781315
1.45280e-05;-0.004160362416815383
1.45283e-05;-0.004153785106352591
1.45285e-05;-0.0041472077958897985
1.45288e-05;-0.00414063048542705
1.45290e-05;-0.004134053174964257
1.45293e-05;-0.004127475864501465
1.45295e-05;-0.0041217291896161875
1.45298e-05;-0.004116354992699369
1.45300e-05;-0.0041116168733815696
1.45303e-05;-0.004107163987321704
1.45305e-05;-0.004105271004159101
1.45308e-05;-0.004104525946099407
1.45310e-05;-0.004103780888039718
1.45313e-05;-0.004106762384175754
1.45315e-05;-0.0041114149613176955
1.45318e-05;-0.004116067538459605
1.45320e-05;-0.004126769132246649
1.45323e-05;-0.004140183257849628
1.45325e-05;-0.0041535973834525165
1.45328e-05;-0.004167011509055496
1.45330e-05;-0.004180425634658474
1.45333e-05;-0.004193839760261362
1.45335e-05;-0.004209503420036289
1.45338e-05;-0.004234732017260047
1.45340e-05;-0.004259960614483635
1.45343e-05;-0.004285189211707394
1.45345e-05;-0.0043104178089311525
1.45348e-05;-0.004335646406154911
1.45350e-05;-0.004360875003378499
1.45353e-05;-0.004390745022031078
1.45355e-05;-0.004422696371259699
1.45358e-05;-0.004454647720488103
1.45360e-05;-0.004488228084219709
1.45363e-05;-0.004522538939191118
1.45365e-05;-0.004556849794162294
1.45368e-05;-0.004592095663378714
1.45370e-05;-0.004627760816594042
1.45373e-05;-0.004663425969809129
1.45375e-05;-0.004698819781354734
1.45378e-05;-0.004734091916443576
1.45380e-05;-0.004769364051532178
1.45383e-05;-0.004803161489655363
1.45385e-05;-0.004836297636419324
1.45388e-05;-0.00486943378318306
1.45390e-05;-0.004898970973493073
1.45393e-05;-0.0049268943008463385
1.45395e-05;-0.0049548176281994155
1.45398e-05;-0.004982740955552681
1.45400e-05;-0.005009141011805634
1.45403e-05;-0.005029064174762531
1.45405e-05;-0.005048987337719564
1.45408e-05;-0.005068910500676596
1.45410e-05;-0.005088833663633494
1.45413e-05;-0.005100881010900359
1.45415e-05;-0.005109396643527055
1.45418e-05;-0.005117912276153693
1.45420e-05;-0.005126427908780389
1.45423e-05;-0.005134943541407084
1.45425e-05;-0.005143459174033723
1.45428e-05;-0.005151974806660418
1.45430e-05;-0.005160490439287114
1.45433e-05;-0.00516900607191381
1.45435e-05;-0.005177521704540448
1.45438e-05;-0.005186037337167144
1.45440e-05;-0.005186309695210366
1.45443e-05;-0.005182885560766278
1.45445e-05;-0.0051794614263221675
1.45448e-05;-0.005176037291878056
1.45450e-05;-0.005172613157433969
1.45453e-05;-0.005169189022989858
1.45455e-05;-0.005165764888545747
1.45458e-05;-0.005162340754101659
1.45460e-05;-0.005158916619657548
1.45463e-05;-0.005155492485213437
1.45465e-05;-0.005152068350769349
1.45468e-05;-0.005145588870350156
1.45470e-05;-0.005137739295640225
1.45473e-05;-0.005129889720930345
1.45475e-05;-0.005122040146220414
1.45478e-05;-0.0051141905715104815
1.45480e-05;-0.005106340996800603
1.45483e-05;-0.005098491636420584
1.45485e-05;-0.0050906423721515095
1.45488e-05;-0.005082793107882489
1.45490e-05;-0.005074943843613415
1.45493e-05;-0.005067094579344342
1.45495e-05;-0.005059245315075321
1.45498e-05;-0.005052315579714934
1.45500e-05;-0.005045798184337775
1.45503e-05;-0.005038465156477244
1.45505e-05;-0.005030766378414185
1.45508e-05;-0.005019279747801028
1.45510e-05;-0.005006094548450999
1.45513e-05;-0.004988228276638954
1.45515e-05;-0.004968262893725205
1.45518e-05;-0.004948297510811457
1.45520e-05;-0.004923222824270064
1.45523e-05;-0.0048958569969579915
1.45525e-05;-0.00486849116964592
1.45528e-05;-0.0048324189397787615
1.45530e-05;-0.004792442539145109
1.45533e-05;-0.004752466138511456
1.45535e-05;-0.004712489737878074
1.45538e-05;-0.004670139697408392
1.45540e-05;-0.00461769702671208
1.45543e-05;-0.004565254356016124
1.45545e-05;-0.0045128116853198124
1.45548e-05;-0.004460369014623501
1.45550e-05;-0.004401542348864916
1.45553e-05;-0.004339852938506248
1.45555e-05;-0.004278163528147581
1.45558e-05;-0.004213793654316723
1.45560e-05;-0.004148221792975127
1.45563e-05;-0.004081662138647673
1.45565e-05;-0.004014013006819166
1.45568e-05;-0.003945511661797179
1.45570e-05;-0.003876443747727902
1.45573e-05;-0.0038072060651114584
1.45575e-05;-0.003738212032505811
1.45578e-05;-0.0036698750850513483
1.45580e-05;-0.003602601978579399
1.45583e-05;-0.0035367139779911736
1.45585e-05;-0.003472406315424248
1.45588e-05;-0.003409902606578077
1.45590e-05;-0.003349561106104886
1.45593e-05;-0.003291809050387835
1.45595e-05;-0.0032370843383658083
1.45598e-05;-0.0031858246750671062
1.45600e-05;-0.0031384673885241055
1.45603e-05;-0.0030954278730344776
1.45605e-05;-0.0030570303813777944
1.45608e-05;-0.003023463511061912
1.45610e-05;-0.002994827339458445
1.45613e-05;-0.0029711978529588685
1.45615e-05;-0.00295264973469727
1.45618e-05;-0.00293925747389873
1.45620e-05;-0.002931095182791305
1.45623e-05;-0.002928223398734997
1.45625e-05;-0.0029324332390105595
1.45628e-05;-0.002939081834455395
1.45630e-05;-0.0029543210139280555
1.45633e-05;-0.0029734124282157852
1.45635e-05;-0.0029925038425033853
1.45638e-05;-0.003021057065123305
1.45640e-05;-0.0030538532015373164
1.45643e-05;-0.0030866493379511054
1.45645e-05;-0.0031265084219390484
1.45648e-05;-0.0031695347099790308
1.45650e-05;-0.003217361479032693
1.45653e-05;-0.0032673409049994327
1.45655e-05;-0.0033213057421128695
1.45658e-05;-0.003377057738227342
1.45660e-05;-0.003435975976562001
1.45663e-05;-0.0034963140378649013
1.45665e-05;-0.0035584852629118383
1.45668e-05;-0.0036223706731371274
1.45670e-05;-0.003687283060167567
1.45673e-05;-0.0037528385749355515
1.45675e-05;-0.0038186523873091874
1.45678e-05;-0.003884339966309959
1.45680e-05;-0.0039495168198805265
1.45683e-05;-0.00401379509684977
1.45685e-05;-0.004076772805333721
1.45688e-05;-0.0041380269878686406
1.45690e-05;-0.004196177178758847
1.45693e-05;-0.004253193212438094
1.45695e-05;-0.004304489316568825
1.45698e-05;-0.004353220459844391
1.45700e-05;-0.004401951603120288
1.45703e-05;-0.004444928524061673
1.45705e-05;-0.004485325106396634
1.45708e-05;-0.004523519663207547
1.45710e-05;-0.004560726776165581
1.45713e-05;-0.004597933889123363
1.45715e-05;-0.004631001541310174
1.45718e-05;-0.004662212954753262
1.45720e-05;-0.004693424368196139
1.45723e-05;-0.004724635781639228
1.45725e-05;-0.004752485323234833
1.45728e-05;-0.004778827316596366
1.45730e-05;-0.004805169309958077
1.45733e-05;-0.004831511303319789
1.45735e-05;-0.004855856277718693
1.45738e-05;-0.004879305738384078
1.45740e-05;-0.004902755199049463
1.45743e-05;-0.004923230877296534
1.45745e-05;-0.004942373036410292
1.45748e-05;-0.004961515195524051
1.45750e-05;-0.00498065735463768
1.45753e-05;-0.004999799513751438
1.45755e-05;-0.005018941672865197
1.45758e-05;-0.005038083831978826
1.45760e-05;-0.005057225991092584
1.45763e-05;-0.0050763681502063425
1.45765e-05;-0.005094551513051005
1.45768e-05;-0.005108658109037772
1.45770e-05;-0.005122764705024541
1.45773e-05;-0.005136871301011213
1.45775e-05;-0.00515097789699798
1.45778e-05;-0.005165084492984748
1.45780e-05;-0.0051791910889715164
1.45783e-05;-0.005193297684958189
1.45785e-05;-0.005207404280944956
1.45788e-05;-0.005221510876931724
1.45790e-05;-0.0052305777543573935
1.45793e-05;-0.00523738469471155
1.45795e-05;-0.005244191635065706
1.45798e-05;-0.005250998575419817
1.45800e-05;-0.005257805515773973
1.45803e-05;-0.0052646124561281284
1.45805e-05;-0.005271419396482239
1.45808e-05;-0.005278226336836395
1.45810e-05;-0.0052850332771905515
1.45813e-05;-0.005291840217544662
1.45815e-05;-0.005298647157898818
1.45818e-05;-0.005305454098252975
1.45820e-05;-0.005312261038607084
1.45823e-05;-0.0053190679789612404
1.45825e-05;-0.005324404811423038
1.45828e-05;-0.005323490798602487
1.45830e-05;-0.005322576785781931
1.45833e-05;-0.005321662772961374
1.45835e-05;-0.005320748760140824
1.45838e-05;-0.005319834747320266
1.45840e-05;-0.00531892073449971
1.45843e-05;-0.005318006721679159
1.45845e-05;-0.005317092708858603
1.45848e-05;-0.005316178696038046
1.45850e-05;-0.005315264683217496
1.45853e-05;-0.005314350670396939
1.45855e-05;-0.005313436657576383
1.45858e-05;-0.005312522644755832
1.45860e-05;-0.005311608631935276
1.45863e-05;-0.005308557627476005
1.45865e-05;-0.005304548341999947
1.45868e-05;-0.005300539056523915
1.45870e-05;-0.005296529771047856
1.45873e-05;-0.005292520485571797
1.45875e-05;-0.0052885112000957656
1.45878e-05;-0.005284501914619707
1.45880e-05;-0.005280492629143648
1.45883e-05;-0.005276547200586006
1.45885e-05;-0.005272630407083138
1.45888e-05;-0.005268713613580271
1.45890e-05;-0.00526479682007743
1.45893e-05;-0.005260880026574563
1.45895e-05;-0.0052569632330716955
1.45898e-05;-0.005253046439568855
1.45900e-05;-0.005249129646065988
1.45903e-05;-0.005244635063770346
1.45905e-05;-0.005239881386388969
1.45908e-05;-0.005235127709007559
1.45910e-05;-0.005230374031626149
1.45913e-05;-0.005225620354244772
1.45915e-05;-0.0052208666768633625
1.45918e-05;-0.005216112999481953
1.45920e-05;-0.005211359322100576
1.45923e-05;-0.0052066056447191665
1.45925e-05;-0.005199305406479202
1.45928e-05;-0.005190863226041085
1.45930e-05;-0.005182421045602911
1.45933e-05;-0.005173978865164737
1.45935e-05;-0.00516553668472662
1.45938e-05;-0.005157094504288445
1.45940e-05;-0.005148652323850271
1.45943e-05;-0.005140210143412155
1.45945e-05;-0.005131767962973981
1.45948e-05;-0.005121136063121249
1.45950e-05;-0.00510952223778515
1.45953e-05;-0.00509790841244913
1.45955e-05;-0.005086294587113032
1.45958e-05;-0.005074680761776933
1.45960e-05;-0.005063066936440913
1.45963e-05;-0.005051453111104815
1.45965e-05;-0.005039839285768716
1.45968e-05;-0.005028225460432695
1.45970e-05;-0.005016611635096597
1.45973e-05;-0.005005266225826738
1.45975e-05;-0.004994041181099488
1.45978e-05;-0.004982816136372163
1.45980e-05;-0.004971591091644838
1.45983e-05;-0.004960366046917588
1.45985e-05;-0.0049491410021902625
1.45988e-05;-0.004937915957462937
1.45990e-05;-0.0049266909127356874
1.45993e-05;-0.004915465868008362
1.45995e-05;-0.004904240823281037
1.45998e-05;-0.0048947250381749545
1.46000e-05;-0.004885975728247729
1.46003e-05;-0.004876765876920489
1.46005e-05;-0.004867349507199259
1.46008e-05;-0.00485380830472471
1.46010e-05;-0.004838417423077043
1.46013e-05;-0.004823026541429481
1.46015e-05;-0.004803084256919763
1.46018e-05;-0.004781101008427682
1.46020e-05;-0.004759117759935748
1.46023e-05;-0.00473226568598089
1.46025e-05;-0.004703230307733391
1.46028e-05;-0.004674194929486088
1.46030e-05;-0.00463759702743256
1.46033e-05;-0.0045976078987237205
1.46035e-05;-0.004557618770014881
1.46038e-05;-0.004517629641306312
1.46040e-05;-0.004475645409899536
1.46043e-05;-0.0044251780743839834
1.46045e-05;-0.004374710738868774
1.46048e-05;-0.004324243403353222
1.46050e-05;-0.0042737760678376695
1.46053e-05;-0.004218176423953821
1.46055e-05;-0.004160275323387832
1.46058e-05;-0.004102374222821842
1.46060e-05;-0.0040426642849577575
1.46063e-05;-0.003982143218768945
1.46065e-05;-0.003920803305148547
1.46068e-05;-0.0038586043125116687
1.46070e-05;-0.003795916940028549
1.46073e-05;-0.0037331007965575903
1.46075e-05;-0.0036705316873390896
1.46078e-05;-0.003608584990871958
1.46080e-05;-0.0035476298496684693
1.46083e-05;-0.003487953329929472
1.46085e-05;-0.0034297215318615554
1.46088e-05;-0.0033731262569674444
1.46090e-05;-0.0033184871770341583
1.46093e-05;-0.003266190461586155
1.46095e-05;-0.0032189581173440065
1.46098e-05;-0.00317365455158386
1.46100e-05;-0.0031283509858234066
1.46103e-05;-0.003088648610837015
1.46105e-05;-0.003051457951244718
1.46108e-05;-0.0030142672916521687
1.46110e-05;-0.0029795128665950034
1.46113e-05;-0.002945850910627686
1.46115e-05;-0.0029121889546601405
1.46118e-05;-0.0028820655855515288
1.46120e-05;-0.0028535290081529506
1.46123e-05;-0.0028249924307545654
1.46125e-05;-0.0027992325801844743
1.46128e-05;-0.0027747178840470026
1.46130e-05;-0.002750203187909697
1.46133e-05;-0.002725688491772226
1.46135e-05;-0.002701173795634754
1.46138e-05;-0.0026774369749281227
1.46140e-05;-0.002657007652262735
1.46143e-05;-0.002636578329597347
1.46145e-05;-0.002616149006932097
1.46148e-05;-0.0025957196842667095
1.46150e-05;-0.0025752903616013214
1.46153e-05;-0.002556221756227089
1.46155e-05;-0.0025377633308492835
1.46158e-05;-0.0025193049054714773
1.46160e-05;-0.0025022060818950275
1.46163e-05;-0.002485716938101246
1.46165e-05;-0.002469227794307464
1.46168e-05;-0.002453326959332919
1.46170e-05;-0.0024376899368898034
1.46173e-05;-0.0024225685118429287
1.46175e-05;-0.0024076782936894334
1.46178e-05;-0.0023933498878194993
1.46180e-05;-0.0023797350793974266
1.46183e-05;-0.0023667687064072643
1.46185e-05;-0.0023543243407372835
1.46188e-05;-0.0023422871523877484
1.46190e-05;-0.002330663484360357
1.46193e-05;-0.0023195246304857082
1.46195e-05;-0.0023089522588176127
1.46198e-05;-0.0022990275220055303
1.46200e-05;-0.002289867058960569
1.46203e-05;-0.0022820483713009636
1.46205e-05;-0.0022768104030114686
1.46208e-05;-0.0022751986826129787
1.46210e-05;-0.002277500577252385
1.46213e-05;-0.0022836171968811238
1.46215e-05;-0.0022933922955561854
1.46218e-05;-0.002306669571832638
1.46220e-05;-0.002323314979494438
1.46223e-05;-0.002343483316607254
1.46225e-05;-0.002369345960667057
1.46228e-05;-0.002397260957857294
1.46230e-05;-0.00243264717430893
1.46233e-05;-0.0024713836741549118
1.46235e-05;-0.0025101201740008934
1.46238e-05;-0.00255626155800015
1.46240e-05;-0.0026057234790562616
1.46243e-05;-0.0026551854001123734
1.46245e-05;-0.002710453706041547
1.46248e-05;-0.0027683257415821875
1.46250e-05;-0.0028304920644622094
1.46253e-05;-0.002894584054232307
1.46255e-05;-0.002961228070273192
1.46258e-05;-0.0030303510045437128
1.46260e-05;-0.0031011407010658083
1.46263e-05;-0.0031733210612974504
1.46265e-05;-0.0032467784023019345
1.46268e-05;-0.003321351321627611
1.46270e-05;-0.003396692129085034
1.46273e-05;-0.0034723585494189414
1.46275e-05;-0.0035478938244081653
1.46278e-05;-0.003622841550489979
1.46280e-05;-0.0036967504348559862
1.46283e-05;-0.0037692407900857994
1.46285e-05;-0.003840034476083172
1.46288e-05;-0.003908823519675994
1.46290e-05;-0.003975183036333174
1.46293e-05;-0.004038629095061638
1.46295e-05;-0.004097270434875854
1.46298e-05;-0.004154182858918675
1.46300e-05;-0.004203467656446408
1.46303e-05;-0.0042493320336172095
1.46305e-05;-0.004295196410788011
1.46308e-05;-0.004332410004023259
1.46310e-05;-0.004365744367275184
1.46313e-05;-0.004399078730527108
1.46315e-05;-0.004423252311816453
1.46318e-05;-0.004443317967127401
1.46320e-05;-0.0044633836224383504
1.46323e-05;-0.004470634511755333
1.46325e-05;-0.004472138936376095
1.46328e-05;-0.004473643360996857
1.46330e-05;-0.004475147785617609
1.46333e-05;-0.004476652210238371
1.46335e-05;-0.0044742260369039786
1.46338e-05;-0.004455087103998647
1.46340e-05;-0.004435948171093186
1.46343e-05;-0.004416809238187725
1.46345e-05;-0.004397670305282393
1.46348e-05;-0.004378531372376933
1.46350e-05;-0.004350773980384084
1.46353e-05;-0.004319151853685805
1.46355e-05;-0.004287529726987311
1.46358e-05;-0.004251386525111016
1.46360e-05;-0.004213215958949801
1.46363e-05;-0.0041750453927883275
1.46365e-05;-0.004134266753084589
1.46368e-05;-0.00409231858734033
1.46370e-05;-0.0040492746063348194
1.46373e-05;-0.004005739234092488
1.46375e-05;-0.0039617831054403595
1.46378e-05;-0.003917638298988563
1.46380e-05;-0.003873597897995173
1.46383e-05;-0.003829938187467578
1.46385e-05;-0.0037870202265669413
1.46388e-05;-0.0037452060459962316
1.46390e-05;-0.0037048163348764956
1.46393e-05;-0.003666146633833558
1.46395e-05;-0.0036303144475248834
1.46398e-05;-0.0035955033559155842
1.46400e-05;-0.0035643241114676916
1.46403e-05;-0.003534773479005786
1.46405e-05;-0.003508902114198226
1.46408e-05;-0.003484680625923756
1.46410e-05;-0.0034640791698738217
1.46413e-05;-0.003445101027694273
1.46415e-05;-0.0034309857365292596
1.46418e-05;-0.003419051070566206
1.46420e-05;-0.003407116404603152
1.46423e-05;-0.0034037747606630296
1.46425e-05;-0.0034042864448075674
1.46428e-05;-0.003404798128952105
1.46430e-05;-0.0034053098130966395
1.46433e-05;-0.0034058214972411773
1.46435e-05;-0.003406333181385715
1.46438e-05;-0.0034166192472403992
1.46440e-05;-0.0034312883926978788
1.46443e-05;-0.0034459575381553583
1.46445e-05;-0.003460626683612739
1.46448e-05;-0.0034752958290702185
1.46450e-05;-0.003489964974527698
1.46453e-05;-0.0035101776828019853
1.46455e-05;-0.0035328762646415863
1.46458e-05;-0.0035555748464811874
