Time(s);Current(A)
1.25000e-05;-0.014387222571469457
1.25003e-05;-0.014354803204791941
1.25005e-05;-0.014324372239666587
1.25008e-05;-0.01429580416117455
1.25010e-05;-0.014269175320459857
1.25012e-05;-0.014242571804964735
1.25015e-05;-0.014215994652652933
1.25018e-05;-0.014187835472672218
1.25020e-05;-0.014158029424994225
1.25023e-05;-0.014128223377316432
1.25025e-05;-0.014097373139661808
1.25028e-05;-0.014065435915492235
1.25030e-05;-0.01403349869132288
1.25033e-05;-0.013999513090399469
1.25035e-05;-0.013963395159192449
1.25038e-05;-0.013927277227985672
1.25040e-05;-0.013888105972730536
1.25043e-05;-0.013845756251735904
1.25045e-05;-0.01380340653074156
1.25048e-05;-0.013761056809746928
1.25050e-05;-0.013718707088752297
1.25053e-05;-0.013670539112651505
1.25055e-05;-0.013622312125329333
1.25058e-05;-0.013574085138007161
1.25060e-05;-0.013525858150685317
1.25063e-05;-0.013475791016191055
1.25065e-05;-0.013423808315366317
1.25068e-05;-0.013371454406146045
1.25070e-05;-0.013318714074406858
1.25073e-05;-0.013265743077831628
1.25075e-05;-0.013212322516122348
1.25078e-05;-0.01315858125395162
1.25080e-05;-0.01310478467706922
1.25083e-05;-0.01305124757250573
1.25085e-05;-0.012998284727290647
1.25088e-05;-0.012946210015834032
1.25090e-05;-0.012895279780049155
1.25093e-05;-0.012845608868164224
1.25095e-05;-0.012797253529794958
1.25097e-05;-0.012750383845314427
1.25100e-05;-0.01270528838256459
1.25103e-05;-0.012662287497809378
1.25105e-05;-0.012621702041026778
1.25108e-05;-0.01258385284349296
1.25110e-05;-0.012549093153213798
1.25113e-05;-0.012517828634088908
1.25115e-05;-0.012490407327791
1.25118e-05;-0.012467005718157032
1.25120e-05;-0.012447680208199257
1.25123e-05;-0.012432460143929892
1.25125e-05;-0.012421374852658772
1.25128e-05;-0.01241445504932898
1.25130e-05;-0.012411751107628682
1.25133e-05;-0.012414409768962652
1.25135e-05;-0.012420393516504575
1.25138e-05;-0.012431480942192144
1.25140e-05;-0.012447881222290302
1.25143e-05;-0.012464281502388458
1.25145e-05;-0.01248749221310497
1.25148e-05;-0.012517792482629226
1.25150e-05;-0.012548092752153484
1.25153e-05;-0.012578393021677535
1.25155e-05;-0.01260869329120179
1.25158e-05;-0.012652420949446654
1.25160e-05;-0.012696284793986741
1.25163e-05;-0.012740148638527125
1.25165e-05;-0.012784012483067509
1.25168e-05;-0.01283161786892828
1.25170e-05;-0.012883118144659367
1.25173e-05;-0.012934618420390454
1.25175e-05;-0.012987728406612121
1.25178e-05;-0.013042514077945593
1.25180e-05;-0.013097299749279066
1.25182e-05;-0.013152370994782692
1.25185e-05;-0.013207739518827444
1.25188e-05;-0.013262566630749699
1.25190e-05;-0.01331683014055967
1.25193e-05;-0.013369907928160854
1.25195e-05;-0.013421751396260687
1.25198e-05;-0.013470688461351998
1.25200e-05;-0.013516600003358588
1.25203e-05;-0.01356251154536549
1.25205e-05;-0.01360842308737239
1.25208e-05;-0.013644514315307056
1.25210e-05;-0.013680505941433482
1.25213e-05;-0.013716497567559906
1.25215e-05;-0.01375017035532351
1.25218e-05;-0.013781429266217903
1.25220e-05;-0.013812688177112297
1.25223e-05;-0.01384394708800648
1.25225e-05;-0.013875205998900873
1.25228e-05;-0.013906464909795267
1.25230e-05;-0.01393772382068945
1.25233e-05;-0.013968982731583843
1.25235e-05;-0.01399938948306932
1.25238e-05;-0.01402890914905542
1.25240e-05;-0.01405842881504172
1.25243e-05;-0.014087948481028019
1.25245e-05;-0.014117468147014117
1.25248e-05;-0.014146987813000417
1.25250e-05;-0.014176507478986716
1.25253e-05;-0.014206027144972816
1.25255e-05;-0.014235951678946953
1.25258e-05;-0.014266297674583501
1.25260e-05;-0.014296643670219843
1.25263e-05;-0.01432698966585639
1.25265e-05;-0.014357335661492937
1.25267e-05;-0.014387681657129277
1.25270e-05;-0.014418027652765826
1.25273e-05;-0.014448373648402372
1.25275e-05;-0.01447871964403892
1.25278e-05;-0.01450611869321126
1.25280e-05;-0.014533487853197252
1.25283e-05;-0.014560857013183243
1.25285e-05;-0.014588226173169048
1.25288e-05;-0.014615595333155039
1.25290e-05;-0.01464296449314103
1.25293e-05;-0.014670333653126836
1.25295e-05;-0.014697702813112827
1.25298e-05;-0.014722527855512015
1.25300e-05;-0.014744704508658609
1.25303e-05;-0.014766881161805353
1.25305e-05;-0.014787223904020898
1.25308e-05;-0.014805657571740138
1.25310e-05;-0.014820892808750328
1.25313e-05;-0.01483279852610338
1.25315e-05;-0.014844704243456353
1.25318e-05;-0.014851035674684687
1.25320e-05;-0.014851564355466211
1.25323e-05;-0.014852093036247732
1.25325e-05;-0.014847095799792
1.25328e-05;-0.014836346164194904
1.25330e-05;-0.014825596528597884
1.25333e-05;-0.014806806036981075
1.25335e-05;-0.014779645131679505
1.25338e-05;-0.014752484226378117
1.25340e-05;-0.014725323321076546
1.25343e-05;-0.014698162415774976
1.25345e-05;-0.014661968757633648
1.25348e-05;-0.014616372135703048
1.25350e-05;-0.01457077551377245
1.25352e-05;-0.014525178891842159
1.25355e-05;-0.01447958226991156
1.25358e-05;-0.014427206043657792
1.25360e-05;-0.014367772348314985
1.25363e-05;-0.014308338652972583
1.25365e-05;-0.014248904957629777
1.25368e-05;-0.014189471262286972
1.25370e-05;-0.014122628808480758
1.25373e-05;-0.014055711211888915
1.25375e-05;-0.013988793615297071
1.25378e-05;-0.01392187601870568
1.25380e-05;-0.01385394232056927
1.25383e-05;-0.01378496958428495
1.25385e-05;-0.013716227595155962
1.25388e-05;-0.013648108002377082
1.25390e-05;-0.01358097821459459
1.25393e-05;-0.013515151773361867
1.25395e-05;-0.013450930490759263
1.25398e-05;-0.013388675847080322
1.25400e-05;-0.013328805231916221
1.25403e-05;-0.013271749885022307
1.25405e-05;-0.013217940971346927
1.25408e-05;-0.013167807905405534
1.25410e-05;-0.013121701010421307
1.25413e-05;-0.013079743475441954
1.25415e-05;-0.013041874431643608
1.25418e-05;-0.01300807059964203
1.25420e-05;-0.01297947416520012
1.25423e-05;-0.012954127290009557
1.25425e-05;-0.012933132702069038
1.25428e-05;-0.012916668781594986
1.25430e-05;-0.012905682865780092
1.25433e-05;-0.012900399472814274
1.25435e-05;-0.012895116079848458
1.25437e-05;-0.012897757609674619
1.25440e-05;-0.012908648868391217
1.25443e-05;-0.012919540127107816
1.25445e-05;-0.012930431385824413
1.25448e-05;-0.012941322644540938
1.25450e-05;-0.012960715784740935
1.25453e-05;-0.012988959259403276
1.25455e-05;-0.013017202734065427
1.25458e-05;-0.01304544620872777
1.25460e-05;-0.013073689683390111
1.25463e-05;-0.013108245130550958
1.25465e-05;-0.013149371248902973
1.25468e-05;-0.01319049736725499
1.25470e-05;-0.013231623485606726
1.25473e-05;-0.013272749603958743
1.25475e-05;-0.013313875722310757
1.25478e-05;-0.013357495424124333
1.25480e-05;-0.013403710909905765
1.25483e-05;-0.013449926395687196
1.25485e-05;-0.013496141881468315
1.25488e-05;-0.013542357367249746
1.25490e-05;-0.013588572853031177
1.25493e-05;-0.013633362901615029
1.25495e-05;-0.01367666909089379
1.25498e-05;-0.013719975280172552
1.25500e-05;-0.013760991628519905
1.25503e-05;-0.013799624285898817
1.25505e-05;-0.013834890514342335
1.25508e-05;-0.013866652339426806
1.25510e-05;-0.013898414164511493
1.25513e-05;-0.013924962949094599
1.25515e-05;-0.013946085034645877
1.25518e-05;-0.013967207120197299
1.25520e-05;-0.013982573916556187
1.25522e-05;-0.013991949540914799
1.25525e-05;-0.014001325165273474
1.25528e-05;-0.014004733011962346
1.25530e-05;-0.014001928489249308
1.25533e-05;-0.013999123966536289
1.25535e-05;-0.013988497525467871
1.25538e-05;-0.013969728581621621
1.25540e-05;-0.013950959637775496
1.25543e-05;-0.013932190693929246
1.25545e-05;-0.013913421750082994
1.25548e-05;-0.013886187064526944
1.25550e-05;-0.013850139665482908
1.25553e-05;-0.01381409226643887
1.25555e-05;-0.013778044867395077
1.25558e-05;-0.01374199746835104
1.25560e-05;-0.01370067144181102
1.25563e-05;-0.013653850441135975
1.25565e-05;-0.013607029440460616
1.25568e-05;-0.013557873576242054
1.25570e-05;-0.013506287153173164
1.25573e-05;-0.013453391347815962
1.25575e-05;-0.013399132494618864
1.25578e-05;-0.013344128030459075
1.25580e-05;-0.013288347396175055
1.25583e-05;-0.01323238515040799
1.25585e-05;-0.013176315985586256
1.25588e-05;-0.01312056549752327
1.25590e-05;-0.01306544195399161
1.25593e-05;-0.013011254535384357
1.25595e-05;-0.012958325692495108
1.25598e-05;-0.012906997089794722
1.25600e-05;-0.012857618867167468
1.25603e-05;-0.012811990024376824
1.25605e-05;-0.012769133353460744
1.25607e-05;-0.012726276682544954
1.25610e-05;-0.012689631763183084
1.25613e-05;-0.012659453186475244
1.25615e-05;-0.012629274609767404
1.25618e-05;-0.012599096033059769
1.25620e-05;-0.012568917456351929
1.25623e-05;-0.01253873887964409
1.25625e-05;-0.012508560302936454
1.25628e-05;-0.012478381726228614
1.25630e-05;-0.01245486385333076
1.25633e-05;-0.012438279675829373
1.25635e-05;-0.012421695498327874
1.25638e-05;-0.012405111320826374
1.25640e-05;-0.012388527143324987
1.25643e-05;-0.012371942965823488
1.25645e-05;-0.012355358788321988
1.25648e-05;-0.012338774610820601
1.25650e-05;-0.01232703658583225
1.25653e-05;-0.012320343334839527
1.25655e-05;-0.012313650083846849
1.25658e-05;-0.012306956832854123
1.25660e-05;-0.0123002635818614
1.25663e-05;-0.012293570330868722
1.25665e-05;-0.012286877079875996
1.25668e-05;-0.012280183828883273
1.25670e-05;-0.012273490577890593
1.25673e-05;-0.012272166346846443
1.25675e-05;-0.012270896570691475
1.25678e-05;-0.012269626794536515
1.25680e-05;-0.012268357018381549
1.25683e-05;-0.01226708724222658
1.25685e-05;-0.01226581746607162
1.25688e-05;-0.012264547689916652
1.25690e-05;-0.012263277913761686
1.25692e-05;-0.012262681774254037
1.25695e-05;-0.012262786880658887
1.25698e-05;-0.012262891987063736
1.25700e-05;-0.012262997093468586
1.25703e-05;-0.012262701800801969
1.25705e-05;-0.01226240244711727
1.25708e-05;-0.012262103093432572
1.25710e-05;-0.012261947520937528
1.25713e-05;-0.012261941622561221
1.25715e-05;-0.012261935724184915
1.25718e-05;-0.012262909523934306
1.25720e-05;-0.01226490317512571
1.25723e-05;-0.012266896826317111
1.25725e-05;-0.012270499970707626
1.25728e-05;-0.012275778574014464
1.25730e-05;-0.012281057177321301
1.25733e-05;-0.012286335780628104
1.25735e-05;-0.012291614383934944
1.25738e-05;-0.012296892987241782
1.25740e-05;-0.012302171590548585
1.25743e-05;-0.01230991818048382
1.25745e-05;-0.012320233908458508
1.25748e-05;-0.012330549636433125
1.25750e-05;-0.012340865364407812
1.25753e-05;-0.0123511810923825
1.25755e-05;-0.012361496820357117
1.25758e-05;-0.012371812548331805
1.25760e-05;-0.012383875383987964
1.25763e-05;-0.012397756933227028
1.25765e-05;-0.012411638482466186
1.25768e-05;-0.012425520031705346
1.25770e-05;-0.01243940158094441
1.25773e-05;-0.012453283130183568
1.25775e-05;-0.012467164679422727
1.25777e-05;-0.012481046228661792
1.25780e-05;-0.012495068778082732
1.25783e-05;-0.012509092757587636
1.25785e-05;-0.012523116737092539
1.25788e-05;-0.012537140716597346
1.25790e-05;-0.01255116469610225
1.25793e-05;-0.012565188675607153
1.25795e-05;-0.012579212655111962
1.25798e-05;-0.012592085607199453
1.25800e-05;-0.012603760356553976
1.25803e-05;-0.012615435105908417
1.25805e-05;-0.012626074183078961
1.25808e-05;-0.012635635140629963
1.25810e-05;-0.012643896526563954
1.25813e-05;-0.012650805077422451
1.25815e-05;-0.012655175782725151
1.25818e-05;-0.012656904627864493
1.25820e-05;-0.012658633473003845
1.25823e-05;-0.012657251955316022
1.25825e-05;-0.01265263259534595
1.25828e-05;-0.012648013235375847
1.25830e-05;-0.012640186622700304
1.25833e-05;-0.012629021306794172
1.25835e-05;-0.012617855990887966
1.25838e-05;-0.012602507121127171
1.25840e-05;-0.012582803232896452
1.25843e-05;-0.012563099344665598
1.25845e-05;-0.012543395456434745
1.25848e-05;-0.012523691568204025
1.25850e-05;-0.012495438545150455
1.25853e-05;-0.01246709881312605
1.25855e-05;-0.012438759081101838
1.25858e-05;-0.012410419349077434
1.25860e-05;-0.012379225497786887
1.25862e-05;-0.012345060550019065
1.25865e-05;-0.012310895602251013
1.25868e-05;-0.012275477778615896
1.25870e-05;-0.012238755729498807
1.25873e-05;-0.012201477438176579
1.25875e-05;-0.012163322592552343
1.25878e-05;-0.012124655437143275
1.25880e-05;-0.012085681094801624
1.25883e-05;-0.012046615651066232
1.25885e-05;-0.012007675610382873
1.25888e-05;-0.011969077989613748
1.25890e-05;-0.011931026535218662
1.25893e-05;-0.011893695741156358
1.25895e-05;-0.01185725303976788
1.25898e-05;-0.011821899129177423
1.25900e-05;-0.011787865759089855
1.25903e-05;-0.011755392279407072
1.25905e-05;-0.011724716671099526
1.25908e-05;-0.011696077315342435
1.25910e-05;-0.011669685745813922
1.25913e-05;-0.011645670182115408
1.25915e-05;-0.011624073607241086
1.25918e-05;-0.011604919536141014
1.25920e-05;-0.0115882529415882
1.25923e-05;-0.01157412785899417
1.25925e-05;-0.011562597830056
1.25928e-05;-0.01155437692427204
1.25930e-05;-0.011548208309199054
1.25933e-05;-0.011544621269414622
1.25935e-05;-0.01154372161180754
1.25938e-05;-0.011545840598665121
1.25940e-05;-0.011551101950329956
1.25943e-05;-0.01155636330199483
1.25945e-05;-0.011566002707226356
1.25947e-05;-0.011580199602289185
1.25950e-05;-0.011594396497352107
1.25953e-05;-0.011608593392415031
1.25955e-05;-0.011622790287477858
1.25958e-05;-0.011641234153380359
1.25960e-05;-0.011664099053909775
1.25963e-05;-0.01168696395443919
1.25965e-05;-0.011709828854968452
1.25968e-05;-0.011732693755497866
1.25970e-05;-0.01175776233036984
1.25973e-05;-0.011785124898052717
1.25975e-05;-0.011812487465735776
1.25978e-05;-0.01184057723986774
1.25980e-05;-0.011869424025293684
1.25983e-05;-0.011898270810719824
1.25985e-05;-0.011927045651228515
1.25988e-05;-0.011955745598128528
1.25990e-05;-0.011984445545028737
1.25993e-05;-0.012012462243368315
1.25995e-05;-0.01203976768993328
1.25998e-05;-0.012066046894726724
1.26000e-05;-0.012091257796821565
1.26003e-05;-0.012114589461167712
1.26005e-05;-0.012135964866459428
1.26008e-05;-0.012157340271751143
1.26010e-05;-0.012175926404535072
1.26013e-05;-0.012191608945369022
1.26015e-05;-0.012207291486202972
1.26018e-05;-0.012220199660664325
1.26020e-05;-0.012230219760244613
1.26023e-05;-0.0122402398598249
1.26025e-05;-0.012246687678291167
1.26028e-05;-0.012249416804281885
1.26030e-05;-0.012252145930272603
1.26032e-05;-0.012254875056263303
1.26035e-05;-0.012254906788951393
1.26038e-05;-0.012249835073259814
1.26040e-05;-0.012244763357568269
1.26043e-05;-0.01223969164187669
1.26045e-05;-0.01223553070136213
1.26048e-05;-0.01368902675852963
1.26050e-05;-0.021057771487227962
1.26053e-05;-0.02576313564525909
1.26055e-05;-0.024551973990363046
1.26058e-05;-0.02185439070184031
1.26060e-05;-0.015706776871234753
1.26063e-05;-0.011394678985801883
1.26065e-05;-0.011058785657670829
1.26068e-05;-0.012185620078387718
1.26070e-05;-0.016831874461160634
1.26073e-05;-0.019896400130875163
1.26075e-05;-0.01917555133451314
1.26078e-05;-0.01788193739387494
1.26080e-05;-0.015450977704168983
1.26083e-05;-0.011702306817052976
1.26085e-05;-0.010452378635973274
1.26088e-05;-0.011141749381699583
1.26090e-05;-0.013309052485364493
1.26093e-05;-0.015140124599470915
1.26095e-05;-0.015501435957690017
1.26098e-05;-0.014553054144372517
1.26100e-05;-0.01268811816210777
1.26103e-05;-0.011060638120845564
1.26105e-05;-0.010408961115105694
1.26108e-05;-0.010854648582549769
1.26110e-05;-0.012225140537479464
1.26113e-05;-0.013383760439191372
1.26115e-05;-0.013620043280037453
1.26117e-05;-0.013034144241117762
1.26120e-05;-0.011872506728061208
1.26123e-05;-0.010858202693619003
1.26125e-05;-0.010453857741346757
1.26128e-05;-0.01073570440119377
1.26130e-05;-0.01159572270854315
1.26133e-05;-0.012321994936148759
1.26135e-05;-0.012469624209221302
1.26138e-05;-0.01210149277254621
1.26140e-05;-0.01137209876685138
1.26143e-05;-0.01073446595674481
1.26145e-05;-0.01047843470394093
1.26148e-05;-0.010651786872087432
1.26150e-05;-0.01118688589656323
1.26153e-05;-0.011637833670235381
1.26155e-05;-0.011726023844234853
1.26158e-05;-0.011490930608236269
1.26160e-05;-0.011029406573487437
1.26163e-05;-0.010625280638876057
1.26165e-05;-0.010460140352933927
1.26168e-05;-0.01056393786286535
1.26170e-05;-0.010894326564715144
1.26173e-05;-0.011172029475103647
1.26175e-05;-0.011222582506924697
1.26178e-05;-0.011070770464436363
1.26180e-05;-0.010777316555580486
1.26183e-05;-0.01052005463407606
1.26185e-05;-0.010412759135007709
1.26188e-05;-0.010474215546560589
1.26190e-05;-0.010677920656527642
1.26193e-05;-0.010848966926036086
1.26195e-05;-0.010878113755776709
1.26198e-05;-0.01078093506179462
1.26200e-05;-0.010595512792974887
1.26202e-05;-0.010433279573579259
1.26205e-05;-0.010365534911559088
1.26208e-05;-0.010404070895297443
1.26210e-05;-0.010532573519336865
1.26213e-05;-0.010642401647370434
1.26215e-05;-0.010666249996056488
1.26218e-05;-0.01061440232751226
1.26220e-05;-0.010510668674670216
1.26223e-05;-0.010424657471651872
1.26225e-05;-0.010400830980942861
1.26228e-05;-0.010446374448531488
1.26230e-05;-0.010550866666865461
1.26233e-05;-0.010646057569062964
1.26235e-05;-0.010689593852831428
1.26238e-05;-0.01068772573083766
1.26240e-05;-0.010655176924154101
1.26243e-05;-0.010635354002174049
1.26245e-05;-0.010655909773959442
1.26248e-05;-0.010721144864722032
1.26250e-05;-0.01082433227115598
1.26253e-05;-0.010922523258115702
1.26255e-05;-0.010988993387227818
1.26258e-05;-0.011022483969352794
1.26260e-05;-0.011044049674890663
1.26263e-05;-0.011074489384111789
1.26265e-05;-0.011127162214181733
1.26268e-05;-0.011213923708871514
1.26270e-05;-0.011314799447880044
1.26273e-05;-0.011410707683534865
1.26275e-05;-0.011489584242086778
1.26278e-05;-0.01154623532112414
1.26280e-05;-0.011594716714729282
1.26283e-05;-0.011647313166845115
1.26285e-05;-0.011711864099186047
1.26288e-05;-0.011795167604566429
1.26290e-05;-0.011886176446557853
1.26293e-05;-0.01197188497334047
1.26295e-05;-0.01204402003996841
1.26298e-05;-0.012098602014021619
1.26300e-05;-0.012146497605727658
1.26303e-05;-0.012194043348430501
1.26305e-05;-0.012245247070029974
1.26308e-05;-0.01230160468680791
1.26310e-05;-0.012359655575087985
1.26313e-05;-0.012417706463367664
1.26315e-05;-0.012463994278642771
1.26318e-05;-0.012494382408860704
1.26320e-05;-0.012519494280321607
1.26323e-05;-0.01254460615178268
1.26325e-05;-0.012570376205443415
1.26328e-05;-0.012596967188769875
1.26330e-05;-0.012623813182864945
1.26333e-05;-0.012650659176960012
1.26335e-05;-0.012668930981995154
1.26338e-05;-0.01267557128304439
1.26340e-05;-0.012678341036381309
1.26343e-05;-0.012681110789718208
1.26345e-05;-0.012683882305518618
1.26348e-05;-0.012686654852823257
1.26350e-05;-0.012686406341873131
1.26353e-05;-0.012684389718058225
1.26355e-05;-0.01268237309424332
1.26358e-05;-0.012672747523874454
1.26360e-05;-0.01265866872051396
1.26363e-05;-0.012644589917153466
1.26365e-05;-0.012630038626705246
1.26368e-05;-0.01261521080716415
1.26370e-05;-0.012600382987623053
1.26373e-05;-0.012585555168082057
1.26375e-05;-0.012566542232107052
1.26378e-05;-0.012545079903375039
1.26380e-05;-0.01252361757464317
1.26383e-05;-0.012502155245911157
1.26385e-05;-0.012481471338554805
1.26388e-05;-0.012461243012234157
1.26390e-05;-0.012441014685913646
1.26393e-05;-0.012420495748946086
1.26395e-05;-0.012399806728391862
1.26398e-05;-0.012379117707837776
1.26400e-05;-0.012359384725813338
1.26403e-05;-0.012340211277528872
1.26405e-05;-0.012321037829244534
1.26408e-05;-0.01230571046795818
1.26410e-05;-0.012292634078128863
1.26413e-05;-0.012279557688299633
1.26415e-05;-0.012268732747666692
1.26418e-05;-0.012259225496384158
1.26420e-05;-0.01224971824510169
1.26423e-05;-0.012246692355396237
1.26425e-05;-0.012247459765197722
1.26428e-05;-0.012248227174999201
1.26430e-05;-0.012248994584800684
1.26433e-05;-0.01224976199460217
1.26435e-05;-0.012250529404403649
1.26438e-05;-0.012251296814205134
1.26440e-05;-0.012260157372434924
1.26443e-05;-0.012273754548978163
1.26445e-05;-0.012287351725521492
1.26448e-05;-0.012300948902064823
1.26450e-05;-0.01231454607860806
1.26453e-05;-0.012328143255151391
1.26455e-05;-0.01234174043169472
1.26458e-05;-0.01236120348399283
1.26460e-05;-0.01238409961487255
1.26463e-05;-0.01240699574575227
1.26465e-05;-0.012429891876631833
1.26468e-05;-0.012452788007511553
1.26470e-05;-0.012475684138391273
1.26473e-05;-0.012498580269270995
1.26475e-05;-0.012521894151489407
