Time(s);Current(A)
1.32500e-05;0.0072820974073427806
1.32503e-05;0.007264956298941661
1.32505e-05;0.007247815190540541
1.32508e-05;0.007230674082139538
1.32510e-05;0.007213532973738418
1.32513e-05;0.007197506866824858
1.32515e-05;0.007181944466603139
1.32518e-05;0.007166382066381314
1.32520e-05;0.00715081966615949
1.32523e-05;0.007135257265937771
1.32525e-05;0.007119694865715946
1.32528e-05;0.0071041324654941215
1.32530e-05;0.007088570065272402
1.32533e-05;0.007073007665050577
1.32535e-05;0.0070574452648287525
1.32538e-05;0.007041882864606928
1.32540e-05;0.007026320464385209
1.32543e-05;0.007010758064163384
1.32545e-05;0.00699519566394156
1.32548e-05;0.00697963326371984
1.32550e-05;0.0069640708634980154
1.32553e-05;0.006951400498582059
1.32555e-05;0.006939932872980203
1.32558e-05;0.00692846524737827
1.32560e-05;0.006916997621776336
1.32563e-05;0.00690552999617448
1.32565e-05;0.006894062370572547
1.32568e-05;0.0068825947449706135
1.32570e-05;0.006871127119368757
1.32573e-05;0.006859659493766824
1.32575e-05;0.006848191868164891
1.32578e-05;0.0068367242425630345
1.32580e-05;0.006825256616961101
1.32583e-05;0.006813788991359167
1.32585e-05;0.006802321365757312
1.32588e-05;0.006790853740155378
1.32590e-05;0.006779386114553444
1.32593e-05;0.006767918488951589
1.32595e-05;0.006756450863349655
1.32598e-05;0.006744983237747721
1.32600e-05;0.006733515612145866
1.32603e-05;0.006722047986543932
1.32605e-05;0.006710580360941998
1.32608e-05;0.006699112735340143
1.32610e-05;0.006687645109738209
1.32613e-05;0.0066761774841362755
1.32615e-05;0.006664709858534419
1.32618e-05;0.006657344892963466
1.32620e-05;0.006651686141180004
1.32623e-05;0.006646027389396541
1.32625e-05;0.006640368637613117
1.32628e-05;0.006634709885829654
1.32630e-05;0.006629051134046191
1.32633e-05;0.006623392382262767
1.32635e-05;0.006617733630479304
1.32638e-05;0.006612074878695842
1.32640e-05;0.006606416126912418
1.32643e-05;0.0066007573751289544
1.32645e-05;0.006595098623345492
1.32648e-05;0.006589439871562068
1.32650e-05;0.006583781119778605
1.32653e-05;0.006578122367995143
1.32655e-05;0.006572463616211718
1.32658e-05;0.006566804864428255
1.32660e-05;0.006561146112644792
1.32663e-05;0.006555487360861368
1.32665e-05;0.006549828609077906
1.32668e-05;0.006544169857294443
1.32670e-05;0.006538511105511019
1.32673e-05;0.006532852353727556
1.32675e-05;0.006527193601944093
1.32678e-05;0.006521534850160669
1.32680e-05;0.006515876098377206
1.32683e-05;0.006515594586782056
1.32685e-05;0.006517549361225964
1.32688e-05;0.006519504135669886
1.32690e-05;0.006521458910113808
1.32693e-05;0.0065234136845577165
1.32695e-05;0.006525368459001638
1.32698e-05;0.00652732323344556
1.32700e-05;0.006529278007889469
1.32703e-05;0.0065312327823333904
1.32705e-05;0.006533187556777313
1.32708e-05;0.006535142331221234
1.32710e-05;0.006537097105665143
1.32713e-05;0.006539051880109065
1.32715e-05;0.006551794301690426
1.32718e-05;0.006569023088738832
1.32720e-05;0.0065862518757873545
1.32723e-05;0.0066034806628358774
1.32725e-05;0.006620709449884284
1.32728e-05;0.006637938236932807
1.32730e-05;0.00665516702398133
1.32733e-05;0.006672395811029736
1.32735e-05;0.006689624598078259
1.32738e-05;0.006706853385126782
1.32740e-05;0.0067240821721751875
1.32743e-05;0.00674131095922371
1.32745e-05;0.006758539746272233
1.32748e-05;0.006779575005236331
1.32750e-05;0.006802193299308979
1.32753e-05;0.006824811593381627
1.32755e-05;0.006847429887454122
1.32758e-05;0.0068700481815267694
1.32760e-05;0.006892666475599417
1.32763e-05;0.006915284769671912
1.32765e-05;0.00693790306374456
1.32768e-05;0.006960521357817208
1.32770e-05;0.006983139651889702
1.32773e-05;0.007005757945962351
1.32775e-05;0.007028376240034998
1.32778e-05;0.007044749478829259
1.32780e-05;0.007058525524742757
1.32783e-05;0.007072301570656254
1.32785e-05;0.007086077616569658
1.32788e-05;0.007099853662483156
1.32790e-05;0.007113629708396654
1.32793e-05;0.007127405754310151
1.32795e-05;0.007141181800223555
1.32798e-05;0.007154957846137053
1.32800e-05;0.007168733892050551
1.32803e-05;0.007182509937963955
1.32805e-05;0.007196285983877453
1.32808e-05;0.007203000190940986
1.32810e-05;0.007206777521264104
1.32813e-05;0.007210554851587248
1.32815e-05;0.007214332181910392
1.32818e-05;0.007218109512233509
1.32820e-05;0.007221886842556653
1.32823e-05;0.007225664172879797
1.32825e-05;0.007229441503202915
1.32828e-05;0.007233218833526058
1.32830e-05;0.0072369961638492014
1.32833e-05;0.007240773494172319
1.32835e-05;0.007244550824495463
1.32838e-05;0.007248328154818607
1.32840e-05;0.0072521054851417245
1.32843e-05;0.007255882815464868
1.32845e-05;0.007259660145788011
1.32848e-05;0.00726343747611113
1.32850e-05;0.007267214806434273
1.32853e-05;0.007270992136757417
1.32855e-05;0.007274769467080534
1.32858e-05;0.007278546797403678
1.32860e-05;0.007282324127726822
1.32863e-05;0.00728610145804994
1.32865e-05;0.0072898787883730835
1.32868e-05;0.007293115091062532
1.32870e-05;0.007294269569929969
1.32873e-05;0.007295424048797412
1.32875e-05;0.007296578527664856
1.32878e-05;0.0072977330065323
1.32880e-05;0.007298887485399736
1.32883e-05;0.00730004196426718
1.32885e-05;0.007301196443134624
1.32888e-05;0.00730235092200206
1.32890e-05;0.0073035054008695035
1.32893e-05;0.007304659879736947
1.32895e-05;0.007305814358604384
1.32898e-05;0.007306968837471828
1.32900e-05;0.007308123316339271
1.32903e-05;0.007309277795206707
1.32905e-05;0.007310432274074151
1.32908e-05;0.0073115867529415955
1.32910e-05;0.007312741231809031
1.32913e-05;0.007313895710676475
1.32915e-05;0.007315050189543919
1.32918e-05;0.007316204668411355
1.32920e-05;0.007317359147278799
1.32923e-05;0.007318513626146243
1.32925e-05;0.007319668105013679
1.32928e-05;0.0073208225838811225
1.32930e-05;0.007324015185093444
1.32933e-05;0.0073280554003958154
1.32935e-05;0.007332095615698214
1.32938e-05;0.007336135831000613
1.32940e-05;0.007340176046302984
1.32943e-05;0.007344216261605383
1.32945e-05;0.0073482564769077816
1.32948e-05;0.007352296692210152
1.32950e-05;0.007356336907512552
1.32953e-05;0.0073603771228149505
1.32955e-05;0.007364417338117321
1.32958e-05;0.007368457553419721
1.32960e-05;0.007372497768722119
1.32963e-05;0.007376097629359875
1.32965e-05;0.007378003046360668
1.32968e-05;0.007379908463361475
1.32970e-05;0.007381813880362282
1.32973e-05;0.007383719297363076
1.32975e-05;0.007385624714363883
1.32978e-05;0.00738753013136469
1.32980e-05;0.007389435548365484
1.32983e-05;0.007391340965366291
1.32985e-05;0.007393246382367097
1.32988e-05;0.007395151799367891
1.32990e-05;0.007397057216368698
1.32993e-05;0.007398962633369505
1.32995e-05;0.007400868050370299
1.32998e-05;0.007395483785850913
1.33000e-05;0.007387067889405389
1.33003e-05;0.007378651992959923
1.33005e-05;0.007370236096514398
1.33008e-05;0.007361820200068874
1.33010e-05;0.007342791206245678
1.33013e-05;0.0073193484386851965
1.33015e-05;0.007295905671124714
1.33018e-05;0.007272462903564391
1.33020e-05;0.007249020136003909
1.33023e-05;0.007225577368443427
1.33025e-05;0.0072021346008831035
1.33028e-05;0.007178691833322622
1.33030e-05;0.0071552490657621395
1.33033e-05;0.007131806298201817
1.33035e-05;0.007108363530641334
1.33038e-05;0.007084920763080853
1.33040e-05;0.007059254904165461
1.33043e-05;0.007025034797265723
1.33045e-05;0.0069908146903659854
1.33048e-05;0.006956594583466247
1.33050e-05;0.00692237447656674
1.33053e-05;0.006888154369667002
1.33055e-05;0.006853934262767264
1.33058e-05;0.006819714155867757
1.33060e-05;0.006785494048968019
1.33063e-05;0.0067512739420682805
1.33065e-05;0.006717053835168774
1.33068e-05;0.006682833728269036
1.33070e-05;0.006648613621369297
1.33073e-05;0.006624680062576125
1.33075e-05;0.006605024472247009
1.33078e-05;0.006585368881917893
1.33080e-05;0.006565713291588911
1.33083e-05;0.006546057701259795
1.33085e-05;0.006526402110930679
1.33088e-05;0.006506746520601697
1.33090e-05;0.006487090930272581
1.33093e-05;0.006467435339943465
1.33095e-05;0.006447779749614482
1.33098e-05;0.0064281241592853665
1.33100e-05;0.0064084685689562515
1.33103e-05;0.006388812978627268
1.33105e-05;0.006369157388298153
1.33108e-05;0.006349501797969037
1.33110e-05;0.0063298462076400545
1.33113e-05;0.006310190617310939
1.33115e-05;0.006304391057118715
1.33118e-05;0.006304353941174932
1.33120e-05;0.00630431682523115
1.33123e-05;0.006304279709287367
1.33125e-05;0.006304242593343585
1.33128e-05;0.006304205477399802
1.33130e-05;0.00630416836145602
1.33133e-05;0.006304131245512237
1.33135e-05;0.0063040941295684555
1.33138e-05;0.006304057013624673
1.33140e-05;0.00630401989768089
1.33143e-05;0.006303982781737108
1.33145e-05;0.006303945665793325
1.33148e-05;0.006303908549849543
1.33150e-05;0.00630387143390576
1.33153e-05;0.006303834317961978
1.33155e-05;0.0063037972020181954
1.33158e-05;0.006307290804121078
1.33160e-05;0.006312252760846642
1.33163e-05;0.006317214717572206
1.33165e-05;0.006322176674297736
1.33168e-05;0.006327138631023301
1.33170e-05;0.0063321005877488646
1.33173e-05;0.006337062544474395
1.33175e-05;0.006342024501199959
1.33178e-05;0.006346986457925524
1.33180e-05;0.0063519484146510536
1.33183e-05;0.006356910371376618
1.33185e-05;0.006361872328102182
1.33188e-05;0.006366834284827713
1.33190e-05;0.006371796241553276
1.33193e-05;0.006376758198278841
1.33195e-05;0.006381720155004372
1.33198e-05;0.0063866821117299355
1.33200e-05;0.006391644068455499
1.33203e-05;0.00639660602518103
1.33205e-05;0.006401567981906595
1.33208e-05;0.006406529938632158
1.33210e-05;0.0064122690891483215
1.33213e-05;0.006420998808813483
1.33215e-05;0.0064297285284786445
1.33218e-05;0.006438458248143805
1.33220e-05;0.006447187967808908
1.33223e-05;0.006455917687474069
1.33225e-05;0.006464647407139231
1.33228e-05;0.0064733771268043324
1.33230e-05;0.006482106846469494
1.33233e-05;0.0064908365661346555
1.33235e-05;0.006499566285799758
1.33238e-05;0.0065082960054649195
1.33240e-05;0.006517025725130081
1.33243e-05;0.006525755444795183
1.33245e-05;0.006534485164460344
1.33248e-05;0.006543214884125506
1.33250e-05;0.006551944603790608
1.33253e-05;0.006560674323455769
1.33255e-05;0.0065694040431209305
1.33258e-05;0.006578133762786033
1.33260e-05;0.0065868634824511945
1.33263e-05;0.006595593202116356
1.33265e-05;0.006602604042341624
1.33268e-05;0.006608900035179222
1.33270e-05;0.00661519602801682
1.33273e-05;0.006621492020854375
1.33275e-05;0.006627788013691973
1.33278e-05;0.006634084006529571
1.33280e-05;0.0066403799993671265
1.33283e-05;0.006646675992204724
1.33285e-05;0.006652971985042323
1.33288e-05;0.006659267977879878
1.33290e-05;0.006665563970717475
1.33293e-05;0.006671859963555073
1.33295e-05;0.006678155956392629
1.33298e-05;0.006684451949230227
1.33300e-05;0.006690747942067824
1.33303e-05;0.006697043934905423
1.33305e-05;0.006703339927742978
1.33308e-05;0.0067096359205805756
1.33310e-05;0.006715931913418173
1.33313e-05;0.006722227906255729
1.33315e-05;0.006728523899093327
1.33318e-05;0.0067348198919309245
1.33320e-05;0.00674111588476848
1.33323e-05;0.006747411877606078
1.33325e-05;0.006751914064559189
1.33328e-05;0.0067556702437230175
1.33330e-05;0.00675942642288687
1.33333e-05;0.006763182602050724
1.33335e-05;0.0067669387812145515
1.33338e-05;0.006770694960378405
1.33340e-05;0.006774451139542259
1.33343e-05;0.006778207318706086
1.33345e-05;0.00678196349786994
1.33348e-05;0.006785719677033793
1.33350e-05;0.006789475856197621
1.33353e-05;0.006793232035361474
1.33355e-05;0.0067969882145253275
1.33358e-05;0.006800744393689155
1.33360e-05;0.006804500572853009
1.33363e-05;0.006808256752016862
1.33365e-05;0.00681201293118069
1.33368e-05;0.0068157691103445436
1.33370e-05;0.006819525289508396
1.33373e-05;0.006823281468672225
1.33375e-05;0.0068270376478360775
1.33378e-05;0.006830793826999931
1.33380e-05;0.006834550006163759
1.33383e-05;0.006838306185327612
1.33385e-05;0.00683501675442972
1.33388e-05;0.006828797196011916
1.33390e-05;0.006822577637594155
1.33393e-05;0.006816358079176351
1.33395e-05;0.006810138520758547
1.33398e-05;0.006803918962340785
1.33400e-05;0.006797699403922982
1.33403e-05;0.006791479845505178
1.33405e-05;0.006785260287087416
1.33408e-05;0.0067790407286696126
1.33410e-05;0.006772821170251808
1.33413e-05;0.006766601611834047
1.33415e-05;0.006756564248919852
1.33418e-05;0.0067318363307121935
1.33420e-05;0.006707108412504703
1.33423e-05;0.006682380494297043
1.33425e-05;0.0066576525760893845
1.33428e-05;0.006632924657881894
1.33430e-05;0.006608196739674235
1.33433e-05;0.006583468821466576
1.33435e-05;0.006558740903259085
1.33438e-05;0.006534012985051426
1.33440e-05;0.006509285066843767
1.33443e-05;0.006484557148636276
1.33445e-05;0.006459829230428617
1.33448e-05;0.0064302140662057345
1.33450e-05;0.006398566394659694
1.33453e-05;0.00636691872311344
1.33455e-05;0.0063352710515671845
1.33458e-05;0.006303623380021144
1.33460e-05;0.006271975708474889
1.33463e-05;0.0062403280369286345
1.33465e-05;0.006208680365382594
1.33468e-05;0.00617703269383634
1.33470e-05;0.0061453850222900844
1.33473e-05;0.006115607240392119
1.33475e-05;0.006093024619300384
1.33478e-05;0.006070441998208496
1.33480e-05;0.006047859377116608
1.33483e-05;0.0060252767560248725
1.33485e-05;0.006002694134932984
1.33488e-05;0.005980111513841097
1.33490e-05;0.0059575288927493615
1.33493e-05;0.005934946271657473
1.33495e-05;0.005912363650565585
1.33498e-05;0.005889781029473851
1.33500e-05;0.005876900718322374
1.33503e-05;0.005868055402739076
1.33505e-05;0.005859210087155839
1.33508e-05;0.005850364771572541
1.33510e-05;0.005841519455989244
1.33513e-05;0.005832674140406006
1.33515e-05;0.005823828824822708
1.33518e-05;0.00581498350923941
1.33520e-05;0.0058061381936561724
1.33523e-05;0.005797292878072875
1.33525e-05;0.005788447562489577
1.33528e-05;0.005779602246906339
1.33530e-05;0.005770756931323041
1.33533e-05;0.005761911615739744
1.33535e-05;0.005753066300156507
1.33538e-05;0.005744220984573209
1.33540e-05;0.005735375668989911
1.33543e-05;0.005726530353406673
1.33545e-05;0.005717685037823376
1.33548e-05;0.005708839722240078
1.33550e-05;0.00569999440665684
1.33553e-05;0.005691149091073542
1.33555e-05;0.005682303775490245
1.33557e-05;0.005673458459907007
1.33560e-05;0.005664613144323709
1.33563e-05;0.005655767828740411
1.33565e-05;0.0056469225131571136
1.33568e-05;0.005638077197573876
1.33570e-05;0.005629231881990578
1.33573e-05;0.00562038656640728
1.33575e-05;0.005611541250824043
1.33578e-05;0.0056026959352407455
1.33580e-05;0.005602565019140744
1.33583e-05;0.005603560898409996
1.33585e-05;0.005604556777679255
1.33588e-05;0.0056055526569485144
1.33590e-05;0.005606548536217767
1.33593e-05;0.005607544415487026
1.33595e-05;0.005608540294756285
1.33598e-05;0.005609536174025538
1.33600e-05;0.005610532053294797
1.33603e-05;0.005611527932564056
1.33605e-05;0.005612523811833308
1.33608e-05;0.0056135196911025675
1.33610e-05;0.005614515570371827
1.33613e-05;0.005615511449641079
1.33615e-05;0.005616507328910338
1.33618e-05;0.005617503208179598
1.33620e-05;0.00561849908744885
1.33623e-05;0.005619494966718109
1.33625e-05;0.005620490845987368
1.33628e-05;0.005621486725256621
1.33630e-05;0.00562248260452588
1.33633e-05;0.005623478483795139
1.33635e-05;0.005624474363064392
1.33638e-05;0.005625470242333651
1.33640e-05;0.00562646612160291
1.33642e-05;0.005627462000872162
1.33645e-05;0.0056284578801414215
1.33648e-05;0.005629453759410681
1.33650e-05;0.00563044963867994
1.33653e-05;0.005631445517949192
1.33655e-05;0.005632441397218451
1.33658e-05;0.0056333562352847665
1.33660e-05;0.004415907322757151
1.33663e-05;-0.000579507985418763
1.33665e-05;-0.004379341765253599
1.33668e-05;-0.004354194420428794
1.33670e-05;-0.0024464880112478613
1.33673e-05;0.001412098654594975
1.33675e-05;0.004901041947291161
1.33678e-05;0.0057133895886122155
1.33680e-05;0.004614567375278748
1.33683e-05;0.0020711895522133737
1.33685e-05;-0.00032217111729275326
1.33688e-05;-0.00075172078102683
1.33690e-05;0.0005987367337640289
1.33693e-05;0.0028158210984108307
1.33695e-05;0.004859187067418556
1.33698e-05;0.0056762249652236516
1.33700e-05;0.0050657220832225945
1.33703e-05;0.0034952733910711535
1.33705e-05;0.0024905767748979093
1.33708e-05;0.002028014203577116
1.33710e-05;0.00288498153327316
1.33713e-05;0.004329037627732597
1.33715e-05;0.00554344859780269
1.33718e-05;0.006107455600124076
1.33720e-05;0.005699386733078019
1.33723e-05;0.004762167610977507
1.33725e-05;0.003917704450260707
1.33727e-05;0.0036306515722405244
1.33730e-05;0.004171645062524822
1.33733e-05;0.0050741287886139
1.33735e-05;0.005832604511853309
1.33738e-05;0.006183548212558872
1.33740e-05;0.005925524451065905
1.33743e-05;0.005336035632246501
1.33745e-05;0.004804666832003533
1.33748e-05;0.004622468719959401
1.33750e-05;0.004958937408520169
1.33753e-05;0.005521797969110922
1.33755e-05;0.005994410230656213
1.33758e-05;0.0062117269845841415
1.33760e-05;0.006047606292250557
1.33763e-05;0.005675910602421361
1.33765e-05;0.00534069019438908
1.33768e-05;0.005224254779716371
1.33770e-05;0.005432758232161075
1.33773e-05;0.005783105711068016
1.33775e-05;0.006076956379072541
1.33778e-05;0.006210941321023776
1.33780e-05;0.006106070089767504
1.33783e-05;0.005871272139734944
1.33785e-05;0.005659481695961892
1.33788e-05;0.0055851937108936
1.33790e-05;0.005715465385971512
1.33793e-05;0.005936026286482699
1.33795e-05;0.006122697765984961
1.33798e-05;0.0062106503330412
1.33800e-05;0.006150331281916535
1.33803e-05;0.006009899295806369
1.33805e-05;0.005885069837082598
1.33808e-05;0.0058474725057017785
1.33810e-05;0.005939017677388239
1.33812e-05;0.006088032642132729
1.33815e-05;0.00621664487640119
1.33818e-05;0.006284163735783428
1.33820e-05;0.00625947154207489
1.33823e-05;0.006185184238698952
1.33825e-05;0.006121173903313053
1.33828e-05;0.006112221689687
1.33830e-05;0.006184488215741884
1.33833e-05;0.006292986665971
1.33835e-05;0.006388851744913862
1.33838e-05;0.006446512370062301
1.33840e-05;0.00644639470780045
1.33843e-05;0.006415112005477838
1.33845e-05;0.006390084157612834
1.33848e-05;0.006399274620751781
1.33850e-05;0.006458981060027056
1.33853e-05;0.006540934959136904
1.33855e-05;0.006614441594784678
1.33858e-05;0.00666023672738419
1.33860e-05;0.00666543560282632
1.33863e-05;0.006667220911368811
1.33865e-05;0.006662029219298484
1.33868e-05;0.006679497487327175
1.33870e-05;0.006730120690023789
1.33873e-05;0.0067802721320480855
1.33875e-05;0.006828927450144201
1.33878e-05;0.006867437736944098
1.33880e-05;0.006873774455741804
1.33883e-05;0.006878447955832211
1.33885e-05;0.0068778467871102944
1.33888e-05;0.0068842723518289526
1.33890e-05;0.006912982232836527
1.33893e-05;0.006938945460546708
1.33895e-05;0.006956198056021069
1.33897e-05;0.006973450651495313
1.33900e-05;0.006984115602970137
1.33903e-05;0.006974944685462017
1.33905e-05;0.006969122522386796
1.33908e-05;0.006963300359311613
1.33910e-05;0.0069610008843046635
1.33913e-05;0.006967076129072209
1.33915e-05;0.006964281074805371
1.33918e-05;0.006961486020538515
1.33920e-05;0.006954296574029853
1.33923e-05;0.006934132217294026
1.33925e-05;0.006917016487433064
1.33928e-05;0.006899900757572103
1.33930e-05;0.0068827850277112575
1.33933e-05;0.0068648217808071205
1.33935e-05;0.006844170750452884
1.33938e-05;0.006823519720098787
1.33940e-05;0.00680286868974455
1.33943e-05;0.006780924401445291
1.33945e-05;0.0067548787238829126
1.33948e-05;0.006728833046320358
1.33950e-05;0.006702787368757804
1.33953e-05;0.0066767416911954255
1.33955e-05;0.006649309739203144
1.33958e-05;0.00662139003365989
1.33960e-05;0.006593470328116827
1.33963e-05;0.006565550622573573
1.33965e-05;0.00653832053056438
1.33968e-05;0.006513277452797654
1.33970e-05;0.006488234375030759
1.33973e-05;0.006463191297263864
1.33975e-05;0.006438148219497138
1.33978e-05;0.0064140822869069025
1.33980e-05;0.006393115235520069
1.33983e-05;0.006372148184133378
1.33985e-05;0.0063511811327465455
1.33988e-05;0.006330214081359712
1.33990e-05;0.006313817706287954
1.33993e-05;0.006311916600965745
1.33995e-05;0.006310015495643523
1.33998e-05;0.006308114390321301
1.34000e-05;0.006306213284999093
1.34003e-05;0.006304312179676872
1.34005e-05;0.00630241107435465
1.34008e-05;0.006300509969032441
