Time(s);Current(A)
5.00000e-06;0.002179067087304101
5.00025e-06;0.0021633709875091348
5.00050e-06;0.0021476748877141158
5.00075e-06;0.0021319787879191497
5.00100e-06;0.002116282688124184
5.00125e-06;0.0021008616770867407
5.00150e-06;0.0020912392988119426
5.00175e-06;0.002081616920537144
5.00200e-06;0.002071994542262313
5.00225e-06;0.002062372163987515
5.00250e-06;0.0020527497857127162
5.00275e-06;0.002043127407437885
5.00300e-06;0.002033505029163087
5.00325e-06;0.0020238826508882884
5.00350e-06;0.0020142602726134573
5.00375e-06;0.002004637894338659
5.00400e-06;0.001995015516063828
5.00425e-06;0.0019853931377890295
5.00450e-06;0.0019757707595142314
5.00475e-06;0.0019661483812394003
5.00500e-06;0.0019568685516136676
5.00525e-06;0.0019548093508350638
5.00550e-06;0.0019527501500564534
5.00575e-06;0.0019506909492778498
5.00600e-06;0.0019486317484992462
5.00625e-06;0.0019465725477206357
5.00650e-06;0.001944513346942032
5.00675e-06;0.0019424541461634287
5.00700e-06;0.0019403949453848182
5.00725e-06;0.0019383357446062146
5.00750e-06;0.001936276543827611
5.00775e-06;0.0019342173430490005
5.00800e-06;0.0019321581422703969
5.00825e-06;0.0019300989414917863
5.00850e-06;0.001928039740713183
5.00875e-06;0.001926108118838016
5.00900e-06;0.001926865749752468
5.00925e-06;0.0019276233806669175
5.00950e-06;0.0019283810115813672
5.00975e-06;0.0019291386424958193
5.01000e-06;0.0019298962734102688
5.01025e-06;0.0019306539043247185
5.01050e-06;0.0019314115352391705
5.01075e-06;0.00193216916615362
5.01100e-06;0.0019329267970680697
5.01125e-06;0.0019331003156653516
5.01150e-06;0.0019327867540595717
5.01175e-06;0.001932473192453792
5.01200e-06;0.0019321596308480111
5.01225e-06;0.0019318460692422312
5.01250e-06;0.0019315325076364504
5.01275e-06;0.0019312189460306706
5.01300e-06;0.0019309053844248907
5.01325e-06;0.0019305918228191099
5.01350e-06;0.001929847062451327
5.01375e-06;0.0019200130056424936
5.01400e-06;0.001910178948833627
5.01425e-06;0.0019003448920247934
5.01450e-06;0.0018905108352159602
5.01475e-06;0.0018806767784070933
5.01500e-06;0.00187084272159826
5.01525e-06;0.0018610086647894266
5.01550e-06;0.00185117460798056
5.01575e-06;0.0018413405511717264
5.01600e-06;0.0018315064943628932
5.01625e-06;0.0018157288011739182
5.01650e-06;0.0017949948221311178
5.01675e-06;0.0017742608430882474
5.01700e-06;0.0017535268640454472
5.01725e-06;0.001732792885002647
5.01750e-06;0.0017120589059597766
5.01775e-06;0.0016913249269169765
5.01800e-06;0.001670590947874176
5.01825e-06;0.0016498569688313057
5.01850e-06;0.0016291229897885055
5.01875e-06;0.0016082239874116917
5.01900e-06;0.001583846436082686
5.01925e-06;0.0015594688847537631
5.01950e-06;0.0015350913334248402
5.01975e-06;0.0015107137820958346
5.02000e-06;0.0014863362307669114
5.02025e-06;0.0014619586794379885
5.02050e-06;0.001437741652123669
5.02075e-06;0.0014169083320062464
5.02100e-06;0.0013960750118887535
5.02125e-06;0.001375241691771331
5.02150e-06;0.0013544083716539085
5.02175e-06;0.0013335750515364154
5.02200e-06;0.0013127417314189927
5.02225e-06;0.0012921857852130057
5.02250e-06;0.0012774766408205187
5.02275e-06;0.0012627674964280815
5.02300e-06;0.0012480583520356441
5.02325e-06;0.0012333492076431571
5.02350e-06;0.00121864006325072
5.02375e-06;0.0012039309188582826
5.02400e-06;0.0011892217744657956
5.02425e-06;0.0011745126300733585
5.02450e-06;0.001160497004232984
5.02475e-06;0.0011470596903835062
5.02500e-06;0.0011336223765340738
5.02525e-06;0.0011201850626845957
5.02550e-06;0.0011067477488351633
5.02575e-06;0.001093310434985731
5.02600e-06;0.0010798731211362528
5.02625e-06;0.0010664358072868204
5.02650e-06;0.0010529910019302553
5.02675e-06;0.001039388282091917
5.02700e-06;0.0010257855622536247
5.02725e-06;0.0010121828424153325
5.02750e-06;0.0009985801225769941
5.02775e-06;0.0009849774027387017
5.02800e-06;0.0009713746829004095
5.02825e-06;0.0009577719630620712
5.02850e-06;0.0009441692432237789
5.02875e-06;0.0009305665233854867
5.02900e-06;0.0009176117837291559
5.02925e-06;0.0009051973824791
5.02950e-06;0.0008927829812290021
5.02975e-06;0.0008803685799789462
5.03000e-06;0.0008679541787288903
5.03025e-06;0.0008555397774787924
5.03050e-06;0.0008431253762287364
5.03075e-06;0.0008307109749786806
5.03100e-06;0.0008182965737285827
5.03125e-06;0.0008059878637475771
5.03150e-06;0.0007959070341744028
5.03175e-06;0.0007858262046011944
5.03200e-06;0.0007758484261382833
5.03225e-06;0.0007680428758225555
5.03250e-06;0.0007602373255068012
5.03275e-06;0.0007526592298456109
5.03300e-06;0.000749875681293068
5.03325e-06;0.0007473380776643818
5.03350e-06;0.0007499847800061172
5.03375e-06;0.0007528616765782413
5.03400e-06;0.0007605908681441274
5.03425e-06;0.0007685454176114564
5.03450e-06;0.0007812503164475906
5.03475e-06;0.0007942284975272449
5.03500e-06;0.0008129672315974565
5.03525e-06;0.0008319800981244972
5.03550e-06;0.0008567714393994739
5.03575e-06;0.0008818014374918861
5.03600e-06;0.0009118621145826477
5.03625e-06;0.0009421865981042577
5.03650e-06;0.0009780718926931612
5.03675e-06;0.0010139571872821865
5.03700e-06;0.0010501470717322174
5.03725e-06;0.0010927574466324194
5.03750e-06;0.0011353678215327656
5.03775e-06;0.0011782479285522521
5.03800e-06;0.00122681375501583
5.03825e-06;0.0012753795814792435
5.03850e-06;0.001323945407942657
5.03875e-06;0.001372511234406235
5.03900e-06;0.0014210770608696485
5.03925e-06;0.0014708512175460695
5.03950e-06;0.001521632977911028
5.03975e-06;0.0015724147382758145
5.04000e-06;0.0016231964986406012
5.04025e-06;0.0016739782590055596
5.04050e-06;0.0017245039636799736
5.04075e-06;0.0017696322361876657
5.04100e-06;0.001814760508695511
5.04125e-06;0.0018598887812032031
5.04150e-06;0.0019050170537108955
5.04175e-06;0.0019501453262187407
5.04200e-06;0.0019870289503858608
5.04225e-06;0.0020170375183910815
5.04250e-06;0.0020470460863962004
5.04275e-06;0.0020770546544013196
5.04300e-06;0.0021070632224065404
5.04325e-06;0.0021362411090044184
5.04350e-06;0.002147908951049845
5.04375e-06;0.0021595767930953106
5.04400e-06;0.0021706155564750695
5.04425e-06;0.0021683938864733242
5.04450e-06;0.0021661722164715716
5.04475e-06;0.002163293955169146
5.04500e-06;0.0021465753179709364
5.04525e-06;0.0021298566807726703
5.04550e-06;0.002112523566606112
5.04575e-06;0.0020822378101919767
5.04600e-06;0.002051952053777739
5.04625e-06;0.0020211227444319763
5.04650e-06;0.0019788358101007733
5.04675e-06;0.001936548875769714
5.04700e-06;0.0018937890137608316
5.04725e-06;0.0018410602459434339
5.04750e-06;0.0017883314781262148
5.04775e-06;0.001735167734741594
5.04800e-06;0.001672835083163493
5.04825e-06;0.001610502431585603
5.04850e-06;0.0015481697800077132
5.04875e-06;0.001485837128429612
5.04900e-06;0.0014232724627693204
5.04925e-06;0.0013558171412189513
5.04950e-06;0.0012883618196683534
5.04975e-06;0.0012209064981179843
5.05000e-06;0.001153451176567615
5.05025e-06;0.001086101059825124
5.05050e-06;0.0010209685693106567
5.05075e-06;0.0009558360787959689
5.05100e-06;0.0008909149108553294
5.05125e-06;0.0008304482397256408
5.05150e-06;0.0007702419236449321
5.05175e-06;0.0007155236664840748
5.05200e-06;0.0006610509442998099
5.05225e-06;0.0006119357321829145
5.05250e-06;0.000566802236898938
5.05275e-06;0.0005248828734689217
5.05300e-06;0.00048475299915494516
5.05325e-06;0.00044581472022258236
5.05350e-06;0.000408275407884291
5.05375e-06;0.00037242109063120475
5.05400e-06;0.00033853771227963894
5.05425e-06;0.00030690576726790286
5.05450e-06;0.00027766345008137987
5.05475e-06;0.00025033774025787545
5.05500e-06;0.00022404418332677738
5.05525e-06;0.00019841622612477077
5.05550e-06;0.000173591686716498
5.05575e-06;0.00014975769877723894
5.05600e-06;0.00012710131031871762
5.05625e-06;0.00010580612448831966
5.05650e-06;8.596660631924489e-05
5.05675e-06;6.729439309593479e-05
5.05700e-06;4.9243380137780116e-05
5.05725e-06;3.1591952849936285e-05
5.05750e-06;1.4434450252434812e-05
5.05775e-06;-2.103946161754758e-06
5.05800e-06;-1.7898096901180016e-05
5.05825e-06;-3.282502918160978e-05
5.05850e-06;-4.681761603265992e-05
5.05875e-06;-6.004854055858259e-05
5.05900e-06;-7.285189358545598e-05
5.05925e-06;-8.535849720936911e-05
5.05950e-06;-9.74891955210685e-05
5.05975e-06;-0.00010893946096797913
5.06000e-06;-0.00012034962386922123
5.06025e-06;-0.00013087068935355842
5.06050e-06;-0.00014046911081031635
5.06075e-06;-0.00015003078855778453
5.06100e-06;-0.000158817940740561
5.06125e-06;-0.00016757369171639666
5.06150e-06;-0.00017566753245006026
5.06175e-06;-0.0001837190058743747
5.06200e-06;-0.0001908774131173434
5.06225e-06;-0.00019798178568752485
5.06250e-06;-0.00020394715416049587
5.06275e-06;-0.00020984716298922264
5.06300e-06;-0.0002143694471328423
5.06325e-06;-0.00021882221975781313
5.06350e-06;-0.0002218097497820798
5.06375e-06;-0.00022472644123014174
5.06400e-06;-0.0002261499168537382
5.06425e-06;-0.00022750100638132753
5.06450e-06;-0.0002273262597073077
5.06475e-06;-0.0002270777923003
5.06500e-06;-0.00022527535570032029
5.06525e-06;-0.00022340235832635647
5.06550e-06;-0.00022004200095799154
5.06575e-06;-0.0002166160117453114
5.06600e-06;-0.00021180656010659046
5.06625e-06;-0.00020693626747599986
5.06650e-06;-0.00020078349943869708
5.06675e-06;-0.00019457481340751304
5.06700e-06;-0.0001871874245024684
5.06725e-06;-0.00017975185652071492
5.06750e-06;-0.00017130071533651904
5.06775e-06;-0.00016280224298201212
5.06800e-06;-0.0001533060705576063
5.06825e-06;-0.0001438098981332005
5.06850e-06;-0.0001342744613479944
5.06875e-06;-0.00012391136584981625
5.06900e-06;-0.0001135482703516381
5.06925e-06;-0.00010316856230292965
5.06950e-06;-9.243867608014369e-05
5.06975e-06;-8.170878985735774e-05
5.07000e-06;-7.098756932807068e-05
5.07025e-06;-6.044901411202649e-05
5.07050e-06;-4.9910458895982305e-05
5.07075e-06;-3.939073738488477e-05
5.07100e-06;-2.9282351851268148e-05
5.07125e-06;-1.9493728733875118e-05
5.07150e-06;-1.0095452432366117e-05
5.07175e-06;-1.158325198071613e-06
5.07200e-06;7.2468553476573915e-06
5.07225e-06;1.5050821022698918e-05
5.07250e-06;2.222425464725599e-05
5.07275e-06;2.8908889018294563e-05
5.07300e-06;3.535995490994951e-05
5.07325e-06;4.168483090737564e-05
5.07350e-06;4.784242218360613e-05
5.07375e-06;5.3678149462797035e-05
5.07400e-06;5.949415649203011e-05
5.07425e-06;6.487355919491685e-05
5.07450e-06;6.981201720011606e-05
5.07475e-06;7.47397705929075e-05
5.07500e-06;7.94418800289623e-05
5.07525e-06;8.413623000644603e-05
5.07550e-06;8.866701731918215e-05
5.07575e-06;9.319780463193361e-05
5.07600e-06;9.769521451021264e-05
5.07625e-06;0.0001014890569832529
5.07650e-06;0.00010528289945628032
5.07675e-06;0.00010907674192930773
5.07700e-06;0.00011287058440234799
5.07725e-06;0.0001166644268753754
5.07750e-06;0.00012045826934840281
5.07775e-06;0.00012425211182144307
5.07800e-06;0.00012804595429447048
5.07825e-06;0.0001318397967674979
5.07850e-06;0.00013563363924053816
5.07875e-06;0.00013942748171356557
5.07900e-06;0.00014270664246757148
5.07925e-06;0.00014555661988044916
5.07950e-06;0.0001484065972933172
5.07975e-06;0.00015125657470618523
5.08000e-06;0.00015410655211906292
5.08025e-06;0.00015695652953193098
5.08050e-06;0.00015980650694480866
5.08075e-06;0.0001626564843576767
5.08100e-06;0.00016550646177054473
5.08125e-06;0.00016835643918342242
5.08150e-06;0.00017120641659629045
5.08175e-06;0.00017401851649113728
5.08200e-06;0.00017603219111789187
5.08225e-06;0.00017804586574463963
5.08250e-06;0.00018007643830354031
5.08275e-06;0.00018246320463419786
5.08300e-06;0.00018484997096484732
5.08325e-06;0.00018730069661459874
5.08350e-06;0.00019109962930540588
5.08375e-06;0.00019489856199620014
5.08400e-06;0.00019874137711146342
5.08425e-06;0.00020350919572073215
5.08450e-06;0.0002083187149799985
5.08475e-06;0.00021400724781766507
5.08500e-06;0.00021975384626150764
5.08525e-06;0.00022672441738270856
5.08550e-06;0.0002337558712376629
5.08575e-06;0.0002420706803787226
5.08600e-06;0.00025038548951978234
5.08625e-06;0.00025875885528162785
5.08650e-06;0.0002683665438830671
5.08675e-06;0.00027797423248450626
5.08700e-06;0.0002876637342229488
5.08725e-06;0.00029907778601615404
5.08750e-06;0.0003104918378093593
5.08775e-06;0.0003219058896026032
5.08800e-06;0.0003333199413958084
5.08825e-06;0.0003447339931890137
5.08850e-06;0.00035619302191891924
5.08875e-06;0.0003686001255111387
5.08900e-06;0.00038100722910335813
5.08925e-06;0.00039341433269561967
5.08950e-06;0.0004058214362878391
5.08975e-06;0.00041822853988010057
5.09000e-06;0.00043058680921086265
5.09025e-06;0.00044191569461424977
5.09050e-06;0.00045324458001767533
5.09075e-06;0.0004645734654210625
5.09100e-06;0.0004759023508244497
5.09125e-06;0.00048723123622787523
5.09150e-06;0.0004985601216312624
5.09175e-06;0.0005083223083269943
5.09200e-06;0.0005167780546327018
5.09225e-06;0.0005252338009383806
5.09250e-06;0.0005336895472440594
5.09275e-06;0.0005421452935497669
5.09300e-06;0.0005506010398554457
5.09325e-06;0.0005590778436654099
5.09350e-06;0.0005679985214239069
5.09375e-06;0.0005769191991823737
5.09400e-06;0.0005858398769408706
5.09425e-06;0.0005947605546993374
5.09450e-06;0.0006036812324578041
5.09475e-06;0.000612601910216301
5.09500e-06;0.0006215225879747678
5.09525e-06;0.0006304432657332345
5.09550e-06;0.0006393639434917315
5.09575e-06;0.0006482846212501983
5.09600e-06;0.000657205299008665
5.09625e-06;0.000666125976767162
5.09650e-06;0.0006751492534063232
5.09675e-06;0.0006863352255696335
5.09700e-06;0.0006975211977329819
5.09725e-06;0.0007087071698962923
5.09750e-06;0.0007198931420596027
5.09775e-06;0.000731079114222951
5.09800e-06;0.0007422650863862614
5.09825e-06;0.0007534510585496097
5.09850e-06;0.0007646370307129201
5.09875e-06;0.0007758230028762306
5.09900e-06;0.0007870089750395789
5.09925e-06;0.0007981949472028894
5.09950e-06;0.0008093809193661998
5.09975e-06;0.0008205025016857618
5.10000e-06;0.0008302668018793994
5.10025e-06;0.0008400311020730371
5.10050e-06;0.0008497954022667078
5.10075e-06;0.0008595597024603454
5.10100e-06;0.000869324002653983
5.10125e-06;0.0008790883028476537
5.10150e-06;0.0008888526030412913
5.10175e-06;0.0008986169032349289
5.10200e-06;0.0009083812034285996
5.10225e-06;0.0009180070926060775
5.10250e-06;0.0009247153974695234
5.10275e-06;0.0009314237023329465
5.10300e-06;0.0009381320071963696
5.10325e-06;0.0009448403120598154
5.10350e-06;0.0009515486169232386
5.10375e-06;0.0009582569217866616
5.10400e-06;0.0009649652266501075
5.10425e-06;0.0009716735315135306
5.10450e-06;0.0009783818363769538
5.10475e-06;0.0009850942625385605
5.10500e-06;0.0009918935620950359
5.10525e-06;0.0009986928616515115
5.10550e-06;0.0010054921612080098
5.10575e-06;0.0010122914607644852
5.10600e-06;0.0010190907603209605
5.10625e-06;0.0010258900598774591
5.10650e-06;0.0010326893594339345
5.10675e-06;0.001039488658990433
5.10700e-06;0.0010462879585469084
5.10725e-06;0.0010530872581033838
5.10750e-06;0.0010598865576598824
5.10775e-06;0.0010666858572163577
5.10800e-06;0.0010734821035087267
5.10825e-06;0.0010802139896388624
5.10850e-06;0.001086945875768975
5.10875e-06;0.001093677761899088
5.10900e-06;0.0011004096480292237
5.10925e-06;0.0011071415341593366
5.10950e-06;0.0011138734202894495
5.10975e-06;0.0011206053064195852
5.11000e-06;0.001127337192549698
5.11025e-06;0.0011340690786798108
5.11050e-06;0.0011408009648099465
5.11075e-06;0.0011475328509400595
5.11100e-06;0.0011542647370701951
5.11125e-06;0.0011609471264957519
5.11150e-06;0.0011665385440283254
5.11175e-06;0.001171126083810466
5.11200e-06;0.001175713623592591
5.11225e-06;0.001180301163374716
5.11250e-06;0.0011848887031568566
5.11275e-06;0.001185421163641216
5.11300e-06;0.0011825721702752516
5.11325e-06;0.0011797231769092775
5.11350e-06;0.0011768741835433132
5.11375e-06;0.001173646623417969
5.11400e-06;0.0011624392039703301
5.11425e-06;0.0011510146703919157
5.11450e-06;0.0011350135590297863
5.11475e-06;0.001118737229044714
5.11500e-06;0.0010966595289215232
5.11525e-06;0.0010743028876915555
5.11550e-06;0.0010460664095900934
5.11575e-06;0.0010175906485431865
5.11600e-06;0.0009840710103064608
5.11625e-06;0.0009503434296961508
5.11650e-06;0.0009122326039973281
5.11675e-06;0.0008739041935843835
5.11700e-06;0.0008309892859035592
5.11725e-06;0.00078784366024144
5.11750e-06;0.000739834699414334
5.11775e-06;0.0006918257385873907
5.11800e-06;0.0006436396917543872
5.11825e-06;0.0005917208253309422
5.11850e-06;0.000539801958907673
5.11875e-06;0.0004877759335473044
5.11900e-06;0.00043349109062942485
5.11925e-06;0.0003792062477117292
5.11950e-06;0.00032491705442651617
5.11975e-06;0.0002705361591670365
5.12000e-06;0.00021615526390755683
5.12025e-06;0.00016183971950480485
5.12050e-06;0.00010895400414324961
5.12075e-06;5.723051406192228e-05
5.12100e-06;6.843755337891897e-06
5.12125e-06;-4.194082027203789e-05
5.12150e-06;-8.877805203459615e-05
5.12175e-06;-0.00013331533909586546
5.12200e-06;-0.00017520014460217973
5.12225e-06;-0.0002140831364293602
5.12250e-06;-0.00024969904812496363
5.12275e-06;-0.00028215916721923713
5.12300e-06;-0.0003118713822540553
5.12325e-06;-0.0003390000160623556
5.12350e-06;-0.000363436961939232
5.12375e-06;-0.0003850461898994457
5.12400e-06;-0.0004036917030157745
5.12425e-06;-0.0004192396046073062
5.12450e-06;-0.00043160867748266284
5.12475e-06;-0.00044095346845454523
5.12500e-06;-0.00044761441646359623
5.12525e-06;-0.00045177935752616067
5.12550e-06;-0.0004534653653297985
5.12575e-06;-0.0004526721223687091
5.12600e-06;-0.0004493993640720794
5.12625e-06;-0.00044364801991346963
5.12650e-06;-0.0004354073899245661
5.12675e-06;-0.0004240509443130731
5.12700e-06;-0.0004125319471667658
5.12725e-06;-0.00039758650449487823
5.12750e-06;-0.00038249740083881953
5.12775e-06;-0.00036438004810077437
5.12800e-06;-0.00034613475804991836
5.12825e-06;-0.00032519266028731877
5.12850e-06;-0.0003041509234705288
5.12875e-06;-0.0002810088817155416
5.12900e-06;-0.00025779919528559457
5.12925e-06;-0.0002331636177112223
5.12950e-06;-0.00020852804013676656
5.12975e-06;-0.00018386403907863226
5.13000e-06;-0.00015860089560812142
5.13025e-06;-0.00013333775213752498
5.13050e-06;-0.00010808861115099853
5.13075e-06;-8.315905194552055e-05
5.13100e-06;-5.8778627293533996e-05
5.13125e-06;-3.516455439634306e-05
5.13150e-06;-1.2492068236124865e-05
5.13175e-06;9.067910839765019e-06
5.13200e-06;2.9344466616048164e-05
5.13225e-06;4.817347037627773e-05
5.13250e-06;6.556792493081028e-05
5.13275e-06;8.228762359471736e-05
5.13300e-06;9.955496605977089e-05
5.13325e-06;0.0001178893200314489
5.13350e-06;0.00013715822910264223
5.13375e-06;0.00015716671150219552
5.13400e-06;0.00017771977156591078
5.13425e-06;0.0001986409387206966
5.13450e-06;0.00022010861528162944
5.13475e-06;0.0002416507260301158
5.13500e-06;0.00026486568104081704
5.13525e-06;0.00029026941056443516
5.13550e-06;0.0003157823384384509
5.13575e-06;0.0003435970729327645
5.13600e-06;0.00037148426470437045
5.13625e-06;0.000400898793103145
5.13650e-06;0.00043038855086967385
5.13675e-06;0.0004614640785283599
5.13700e-06;0.0004926618940859026
5.13725e-06;0.0005264374326025583
5.13750e-06;0.0005602129711190997
5.13775e-06;0.0005940847510446861
5.13800e-06;0.0006299852164904007
5.13825e-06;0.0006658856819359937
5.13850e-06;0.0007017861473815868
5.13875e-06;0.0007376866128273014
5.13900e-06;0.0007735870782728943
5.13925e-06;0.0008094875437184873
5.13950e-06;0.000845388009164202
5.13975e-06;0.000881288474609795
5.14000e-06;0.000917188940055388
5.14025e-06;0.0009528164936419423
5.14050e-06;0.000982691301687381
5.14075e-06;0.001012566109732921
5.14100e-06;0.00104244091777836
5.14125e-06;0.0010723157258237988
5.14150e-06;0.0011021905338693388
5.14175e-06;0.0011320653419147775
5.14200e-06;0.0011619401499602163
5.14225e-06;0.0011918149580057563
5.14250e-06;0.0012157209336751426
5.14275e-06;0.0012346496130388313
5.14300e-06;0.0012535782924025841
5.14325e-06;0.001272506971766273
5.14350e-06;0.0012914356511299616
5.14375e-06;0.0013103643304937145
5.14400e-06;0.0013292930098574031
5.14425e-06;0.001348221689221092
5.14450e-06;0.0013667961219391651
5.14475e-06;0.001377903342288103
5.14500e-06;0.0013890105626370786
5.14525e-06;0.0014001177829860165
5.14550e-06;0.0014112250033349544
