Time(s);Current(A)
7.75000e-06;-0.00016456525906814973
7.75025e-06;-0.00019725001512300313
7.75050e-06;-0.00022993477117763504
7.75075e-06;-0.00026246881301089273
7.75100e-06;-0.00029445708044844763
7.75125e-06;-0.0003260771520358371
7.75150e-06;-0.0003563638931295695
7.75175e-06;-0.0003860828163178007
7.75200e-06;-0.0004137455269535361
7.75225e-06;-0.00044065088358993847
7.75250e-06;-0.00046481366943854107
7.75275e-06;-0.0004882840475742694
7.75300e-06;-0.0005092470418869948
7.75325e-06;-0.0005302100361998624
7.75350e-06;-0.0005510494162951824
7.75375e-06;-0.0005714411579779043
7.75400e-06;-0.0005918328996607642
7.75425e-06;-0.0006122246413436242
7.75450e-06;-0.000632616383026346
7.75475e-06;-0.000653008124709206
7.75500e-06;-0.0006733951505606511
7.75525e-06;-0.0006937803094860842
7.75550e-06;-0.0007141654684116554
7.75575e-06;-0.0007345506273372266
7.75600e-06;-0.0007549357862626597
7.75625e-06;-0.0007756469819880973
7.75650e-06;-0.0007975388396019066
7.75675e-06;-0.0008194306972155677
7.75700e-06;-0.0008413225548293771
7.75725e-06;-0.0008632144124431865
7.75750e-06;-0.0008851062700568476
7.75775e-06;-0.000906998127670657
7.75800e-06;-0.0009288899852844664
7.75825e-06;-0.0009509236556734737
7.75850e-06;-0.0009734708660655503
7.75875e-06;-0.000996018076457627
7.75900e-06;-0.0010185652868495505
7.75925e-06;-0.001041112497241627
7.75950e-06;-0.0010636597076337036
7.75975e-06;-0.0010862069180256275
7.76000e-06;-0.001108754128417704
7.76025e-06;-0.001130882683237775
7.76050e-06;-0.0011514951801203125
7.76075e-06;-0.0011721076770029896
7.76100e-06;-0.0011927201738856667
7.76125e-06;-0.0012133326707683438
7.76150e-06;-0.0012315965050147552
7.76175e-06;-0.0012489305394742137
7.76200e-06;-0.001266264573933672
7.76225e-06;-0.0012835986083930132
7.76250e-06;-0.0013001108219008494
7.76275e-06;-0.0013136470134462762
7.76300e-06;-0.0013260636412222102
7.76325e-06;-0.001334426044827372
7.76350e-06;-0.0013412950963476
7.76375e-06;-0.0013427563414671667
7.76400e-06;-0.0013427742392063686
7.76425e-06;-0.0013375654102541876
7.76450e-06;-0.0013309650398032414
7.76475e-06;-0.0013193255448886404
7.76500e-06;-0.0013061006615222666
7.76525e-06;-0.0012871346847439771
7.76550e-06;-0.0012664981351770696
7.76575e-06;-0.0012398120181240377
7.76600e-06;-0.0012116356475145975
7.76625e-06;-0.0011780626910605886
7.76650e-06;-0.0011431808457202464
7.76675e-06;-0.0011035591819750223
7.76700e-06;-0.0010626561508242079
7.76725e-06;-0.0010171129635263272
7.76750e-06;-0.0009703840223530124
7.76775e-06;-0.0009193611658567379
7.76800e-06;-0.0008674144063167029
7.76825e-06;-0.0008121219596851394
7.76850e-06;-0.0007563059877282614
7.76875e-06;-0.0006983184792426877
7.76900e-06;-0.0006390821474947754
7.76925e-06;-0.0005787250519116443
7.76950e-06;-0.0005174464534473058
7.76975e-06;-0.00045557175037813473
7.77000e-06;-0.00039346920606696413
7.77025e-06;-0.0003315071105939149
7.77050e-06;-0.0002700535785593771
7.77075e-06;-0.00020946573132978003
7.77100e-06;-0.00015004637193057662
7.77125e-06;-9.204753505931426e-05
7.77150e-06;-3.5765844871180945e-05
7.77175e-06;1.8423103944858315e-05
7.77200e-06;7.011685806093351e-05
7.77225e-06;0.00011891301913935422
7.77250e-06;0.0001644105924768493
7.77275e-06;0.00020635003145645062
7.77300e-06;0.00024519441526854195
7.77325e-06;0.00028219833788605865
7.77350e-06;0.0003182729954630601
7.77375e-06;0.00035331043551982123
7.77400e-06;0.00038694175970581103
7.77425e-06;0.0004198566940742965
7.77450e-06;0.00045017739933796646
7.77475e-06;0.0004797270486421027
7.77500e-06;0.0005064845088848609
7.77525e-06;0.0005332419691274379
7.77550e-06;0.0005596977511136735
7.77575e-06;0.0005850610796698933
7.77600e-06;0.0006104244082259412
7.77625e-06;0.0006352393392600991
7.77650e-06;0.000658068383870361
7.77675e-06;0.0006808974284804683
7.77700e-06;0.0007031905644490721
7.77725e-06;0.0007235430393950687
7.77750e-06;0.0007438955143409272
7.77775e-06;0.0007642479892869237
7.77800e-06;0.0007846004642329202
7.77825e-06;0.0008049529391789167
7.77850e-06;0.0008253054141247752
7.77875e-06;0.0008449948849885138
7.77900e-06;0.0008622834500254876
7.77925e-06;0.0008795720150623443
7.77950e-06;0.0008968605800993181
7.77975e-06;0.0009141491451362918
7.78000e-06;0.0009314377101731485
7.78025e-06;0.0009487262752101223
7.78050e-06;0.0009654339171749559
7.78075e-06;0.000980037889454634
7.78100e-06;0.0009946418617344114
7.78125e-06;0.0010088678849380476
7.78150e-06;0.0010217252587418145
7.78175e-06;0.0010345826325456684
7.78200e-06;0.0010474400063495224
7.78225e-06;0.0010585185997374856
7.78250e-06;0.0010688930010343736
7.78275e-06;0.0010792674023312617
7.78300e-06;0.0010892987954667153
7.78325e-06;0.0010980880691108476
7.78350e-06;0.0011068773427549798
7.78375e-06;0.0011156666163990524
7.78400e-06;0.0011244558900431849
7.78425e-06;0.0011332451636873171
7.78450e-06;0.0011420344373313897
7.78475e-06;0.001150767174530182
7.78500e-06;0.001159295178930614
7.78525e-06;0.0011678231833309885
7.78550e-06;0.0011763511877314206
7.78575e-06;0.0011848791921318528
7.78600e-06;0.001193407196532227
7.78625e-06;0.001201935200932659
7.78650e-06;0.0012105418350907024
7.78675e-06;0.0012194332075306554
7.78700e-06;0.0012283245799705482
7.78725e-06;0.0012372159524105012
7.78750e-06;0.0012461073248504542
7.78775e-06;0.0012549986972903468
7.78800e-06;0.0012638900697302998
7.78825e-06;0.001272911621512499
7.78850e-06;0.0012819847093147377
7.78875e-06;0.0012910577971170377
7.78900e-06;0.001300130884919338
7.78925e-06;0.0013092039727215766
7.78950e-06;0.0013182770605238766
7.78975e-06;0.0013272854848764087
7.79000e-06;0.0013360597464875524
7.79025e-06;0.0013448340080987559
7.79050e-06;0.0013534611358002368
7.79075e-06;0.0013615554543217015
7.79100e-06;0.001369649772843221
7.79125e-06;0.0013775711363859448
7.79150e-06;0.0013848661861128584
7.79175e-06;0.0013921612358398215
7.79200e-06;0.0013989351632720526
7.79225e-06;0.0014038219747901702
7.79250e-06;0.001408708786308321
7.79275e-06;0.001413595597826472
7.79300e-06;0.0014184824093445897
7.79325e-06;0.0014233692208627405
7.79350e-06;0.0014282560323808913
7.79375e-06;0.001433142843899009
7.79400e-06;0.00143802965541716
7.79425e-06;0.0014429164669353108
7.79450e-06;0.0014478032784534284
7.79475e-06;0.0014526900899715792
7.79500e-06;0.001456203821212908
7.79525e-06;0.0014591739708725003
7.79550e-06;0.0014621441205320722
7.79575e-06;0.0014651142701916644
7.79600e-06;0.0014680844198512566
7.79625e-06;0.0014710545695108288
7.79650e-06;0.001474024719170421
7.79675e-06;0.001476994868830013
7.79700e-06;0.001479965018489585
7.79725e-06;0.0014829351681491772
7.79750e-06;0.0014859053178087694
7.79775e-06;0.0014887174030313612
7.79800e-06;0.0014909570968641094
7.79825e-06;0.0014931967906968574
7.79850e-06;0.0014954364845295904
7.79875e-06;0.0014976761783623384
7.79900e-06;0.0014999158721950864
7.79925e-06;0.0015021555660278195
7.79950e-06;0.0015043952598605675
7.79975e-06;0.0015066349536933155
7.80000e-06;0.0015084542187126808
7.80025e-06;0.001510107042364219
7.80050e-06;0.001511759866015757
7.80075e-06;0.001513412689667284
7.80100e-06;0.0015150655133188222
7.80125e-06;0.0015167183369703605
7.80150e-06;0.0015183711606218874
7.80175e-06;0.0015200239842734257
7.80200e-06;0.0015215974642622896
7.80225e-06;0.0015228613012576372
7.80250e-06;0.0015240188705582817
7.80275e-06;0.0015250172191866483
7.80300e-06;0.0015256038817790794
7.80325e-06;0.001525328907213333
7.80350e-06;0.0015238825034032306
7.80375e-06;0.0015212276809586638
7.80400e-06;0.0015173091420884403
7.80425e-06;0.0015121145158055222
7.80450e-06;0.0015064793442973886
7.80475e-06;0.0014992488468664276
7.80500e-06;0.0014913194801587557
7.80525e-06;0.001480859330661962
7.80550e-06;0.0014703991811652391
7.80575e-06;0.0014588608798572099
7.80600e-06;0.001443418317567674
7.80625e-06;0.0014279757552782425
7.80650e-06;0.0014125331929887065
7.80675e-06;0.0013970906306991705
7.80700e-06;0.0013805460755646568
7.80725e-06;0.0013600109250218016
7.80750e-06;0.0013394757744789462
7.80775e-06;0.0013189406239362302
7.80800e-06;0.001298405473393375
7.80825e-06;0.0012771296511524784
7.80850e-06;0.0012531716689589622
7.80875e-06;0.0012292136867652836
7.80900e-06;0.001205255704571605
7.80925e-06;0.0011812977223780885
7.80950e-06;0.00115733974018441
7.80975e-06;0.0011333286043753946
7.81000e-06;0.0011091249858528251
7.81025e-06;0.0010849213673300917
7.81050e-06;0.0010607177488073582
7.81075e-06;0.001036514130284789
7.81100e-06;0.0010123105117620555
7.81125e-06;0.0009886535105764062
7.81150e-06;0.000966975949317035
7.81175e-06;0.000945298388057517
7.81200e-06;0.0009241909203151709
7.81225e-06;0.0009051479056975341
7.81250e-06;0.0008866682942112382
7.81275e-06;0.0008702289082662608
7.81300e-06;0.0008537183002554342
7.81325e-06;0.0008369497790919352
7.81350e-06;0.0008201812579283226
7.81375e-06;0.0008029066941937541
7.81400e-06;0.0007837996220454114
7.81425e-06;0.0007646925498969394
7.81450e-06;0.0007452919656678778
7.81475e-06;0.0007248284997998316
7.81500e-06;0.0007043650339316465
7.81525e-06;0.0006831205919860339
7.81550e-06;0.0006590480377132871
7.81575e-06;0.0006349754834403772
7.81600e-06;0.0006102199513945872
7.81625e-06;0.0005829911837215972
7.81650e-06;0.0005557624160484226
7.81675e-06;0.0005280203129268031
7.81700e-06;0.0004984192920333007
7.81725e-06;0.00046881827113959783
7.81750e-06;0.00043858439893540424
7.81775e-06;0.0004060588117295391
7.81800e-06;0.0003735332245234536
7.81825e-06;0.0003407133569025747
7.81850e-06;0.0003068278253096902
7.81875e-06;0.00027294229371657605
7.81900e-06;0.00023891485120737136
7.81925e-06;0.0002043735133015329
7.81950e-06;0.00016983217539546033
7.81975e-06;0.00013529035150747844
7.82000e-06;0.00010074676775605639
7.82025e-06;6.633815262167305e-05
7.82050e-06;3.256966829061523e-05
7.82075e-06;-4.688412043092615e-07
7.82100e-06;-3.2662064761674776e-05
7.82125e-06;-6.398064713630947e-05
7.82150e-06;-9.434863553131227e-05
7.82175e-06;-0.00012358609988855483
7.82200e-06;-0.000151475966736377
7.82225e-06;-0.000177801200174953
7.82250e-06;-0.00020234517378303607
7.82275e-06;-0.0002249278693178882
7.82300e-06;-0.00024556040392692807
7.82325e-06;-0.0002644816982559558
7.82350e-06;-0.0002818804238156923
7.82375e-06;-0.0002977447011382831
7.82400e-06;-0.000311985320685469
7.82425e-06;-0.0003245130816023654
7.82450e-06;-0.000335239104891962
7.82475e-06;-0.00034391783750609107
7.82500e-06;-0.0003504914614836926
7.82525e-06;-0.00035641602250826405
7.82550e-06;-0.00035999016206323683
7.82575e-06;-0.00036294960587831643
7.82600e-06;-0.00036368308061348947
7.82625e-06;-0.0003637940723521854
7.82650e-06;-0.00036165089538117473
7.82675e-06;-0.00035891800298007437
7.82700e-06;-0.00035404960153277986
7.82725e-06;-0.00034871631692856374
7.82750e-06;-0.0003416995725803432
7.82775e-06;-0.0003342799439811996
7.82800e-06;-0.0003254013693910009
7.82825e-06;-0.0003161554837958081
7.82850e-06;-0.00030557947195003775
7.82875e-06;-0.0002946462224650514
7.82900e-06;-0.00028241932494038163
7.82925e-06;-0.00027019242741571186
7.82950e-06;-0.00025772651732296567
7.82975e-06;-0.0002443950821387384
7.83000e-06;-0.0002310636469545111
7.83025e-06;-0.00021773221177037413
7.83050e-06;-0.00020439882111250343
7.83075e-06;-0.00019105834918891932
7.83100e-06;-0.0001777178772654256
7.83125e-06;-0.00016437740534184147
7.83150e-06;-0.00015127632070679385
7.83175e-06;-0.00013904211812076236
7.83200e-06;-0.0001270060418569675
7.83225e-06;-0.00011584606075852536
7.83250e-06;-0.00010543835214902091
7.83275e-06;-9.578478104919935e-05
7.83300e-06;-8.653010129598709e-05
7.83325e-06;-7.708727962963507e-05
7.83350e-06;-6.677308172241478e-05
7.83375e-06;-5.560710799779208e-05
7.83400e-06;-4.371214909100329e-05
7.83425e-06;-3.121099858324153e-05
7.83450e-06;-1.8225999033988107e-05
7.83475e-06;-4.834408032835061e-06
7.83500e-06;9.114353289698982e-06
7.83525e-06;2.4008845530717854e-05
7.83550e-06;4.010393018257876e-05
7.83575e-06;5.736172481384871e-05
7.83600e-06;7.564008042405933e-05
7.83625e-06;9.479687858374997e-05
7.83650e-06;0.00011469027669171728
7.83675e-06;0.00013520668726345236
7.83700e-06;0.00015637525316828939
7.83725e-06;0.0001784682063329327
7.83750e-06;0.00020163838421593562
7.83775e-06;0.0002251675185184698
7.83800e-06;0.0002499965250005277
7.83825e-06;0.0002748255314827539
7.83850e-06;0.0002998508484153218
7.83875e-06;0.00032558705524717886
7.83900e-06;0.0003513232620792103
7.83925e-06;0.00037718036189689544
7.83950e-06;0.0004034752458581961
7.83975e-06;0.000429770129819675
7.84000e-06;0.00045599734158754734
7.84025e-06;0.0004819794951893157
7.84050e-06;0.0005077497270905416
7.84075e-06;0.0005327525367976169
7.84100e-06;0.0005574738275760377
7.84125e-06;0.0005811756669578666
7.84150e-06;0.0006043946712422667
7.84175e-06;0.0006258652072543237
7.84200e-06;0.0006473357432665262
7.84225e-06;0.0006681173101787656
7.84250e-06;0.0006864039453465384
7.84275e-06;0.0007042090490661315
7.84300e-06;0.0007202704053573064
7.84325e-06;0.000736428974824357
7.84350e-06;0.000752939577842462
7.84375e-06;0.0007694501808605671
7.84400e-06;0.00078601999179977
7.84425e-06;0.0008028042096292756
7.84450e-06;0.0008195884274587813
7.84475e-06;0.0008364132116571074
7.84500e-06;0.0008533848969598616
7.84525e-06;0.0008703565822626159
7.84550e-06;0.0008878005929976688
7.84575e-06;0.000906955013844535
7.84600e-06;0.0009261094346914012
7.84625e-06;0.0009452638555382674
7.84650e-06;0.000964418276385004
7.84675e-06;0.0009847507722349443
7.84700e-06;0.0010055496500478663
7.84725e-06;0.0010263485278606474
7.84750e-06;0.0010471474056735694
7.84775e-06;0.0010682829902265813
7.84800e-06;0.0010906378752308906
7.84825e-06;0.0011129927602353514
7.84850e-06;0.001135380419104008
7.84875e-06;0.0011578867604420133
7.84900e-06;0.0011803976110205175
7.84925e-06;0.0012029513675089114
7.84950e-06;0.0012256104342173166
7.84975e-06;0.001248280500732766
7.85000e-06;0.0012708188262203722
7.85025e-06;0.001293082933976244
7.85050e-06;0.0013149301587398097
7.85075e-06;0.0013362313213745823
7.85100e-06;0.001356924726152588
7.85125e-06;0.0013770203436071764
7.85150e-06;0.0013964918091001698
7.85175e-06;0.0014152283388322905
7.85200e-06;0.0014323035784355234
7.85225e-06;0.0014457618333469672
7.85250e-06;0.0014592200882583197
7.85275e-06;0.0014726783431697635
7.85300e-06;0.0014861365980812073
7.85325e-06;0.00149959485299256
7.85350e-06;0.0015130531079040038
7.85375e-06;0.0015265113628154473
7.85400e-06;0.0015399696177268
7.85425e-06;0.001549543188898132
7.85450e-06;0.001557578872902558
7.85475e-06;0.001565614556906984
7.85500e-06;0.0015736502409113553
7.85525e-06;0.0015816859249157813
7.85550e-06;0.0015897216089202073
7.85575e-06;0.001597757292924579
7.85600e-06;0.001605792976929005
7.85625e-06;0.001613027256001389
7.85650e-06;0.001617359444680184
7.85675e-06;0.0016216916333590084
7.85700e-06;0.0016260238220378329
7.85725e-06;0.0016303560107166278
7.85750e-06;0.0016346881993954522
7.85775e-06;0.0016390203880742766
7.85800e-06;0.0016433525767530718
7.85825e-06;0.001647684765431896
7.85850e-06;0.0016520169541107204
7.85875e-06;0.0016563491427895156
7.85900e-06;0.0016606813314683398
7.85925e-06;0.001663354896378366
7.85950e-06;0.0016653718373828255
7.85975e-06;0.0016673887783872987
7.86000e-06;0.001669405719391772
7.86025e-06;0.0016714226603962315
7.86050e-06;0.001673439601400705
7.86075e-06;0.0016754565424051781
7.86100e-06;0.0016774734834096377
7.86125e-06;0.001679490424414111
7.86150e-06;0.0016815073654185841
7.86175e-06;0.0016835243064230437
7.86200e-06;0.0016853876966767733
7.86225e-06;0.001686672041096006
7.86250e-06;0.0016878469746068366
7.86275e-06;0.0016888758681856712
7.86300e-06;0.0016896071871798004
7.86325e-06;0.00168977624426324
7.86350e-06;0.0016892012781204802
7.86375e-06;0.0016878597857244828
7.86400e-06;0.0016857843885566613
7.86425e-06;0.0016830077993224546
7.86450e-06;0.0016794894492738674
7.86475e-06;0.0016752019893863032
7.86500e-06;0.0016705684516001745
7.86525e-06;0.0016646816780213518
7.86550e-06;0.0016583299572584382
7.86575e-06;0.0016502945448898174
7.86600e-06;0.0016422591325211424
7.86625e-06;0.0016336178562686562
7.86650e-06;0.0016227825933219453
7.86675e-06;0.0016119473303751607
7.86700e-06;0.0016011120674283763
7.86725e-06;0.0015902768044816652
7.86750e-06;0.0015788201581389972
7.86775e-06;0.0015651133250148364
7.86800e-06;0.0015514064918907685
7.86825e-06;0.0015376996587666077
7.86850e-06;0.0015239928256424468
7.86875e-06;0.001510003030549295
7.86900e-06;0.0014949885584422027
7.86925e-06;0.00147997408633511
7.86950e-06;0.0014648732584968515
7.86975e-06;0.0014494597146665362
7.87000e-06;0.001434046170836221
7.87025e-06;0.0014187134070657893
7.87050e-06;0.0014036731683674658
7.87075e-06;0.0013886329296691423
7.87100e-06;0.0013737675604870172
7.87125e-06;0.001359535438147709
7.87150e-06;0.0013455854750151176
7.87175e-06;0.0013326572818904857
7.87200e-06;0.0013197290887659412
7.87225e-06;0.0013072048463227536
7.87250e-06;0.0012961434116887237
7.87275e-06;0.0012853130567288702
7.87300e-06;0.0012753194998419589
7.87325e-06;0.001265096865988249
7.87350e-06;0.0012540446863723795
7.87375e-06;0.00124267701527872
7.87400e-06;0.0012301668695747685
7.87425e-06;0.001217656723870902
7.87450e-06;0.0012048953538604955
7.87475e-06;0.0011912242369570712
7.87500e-06;0.0011775531200537395
7.87525e-06;0.0011639642251624917
7.87550e-06;0.0011517670906607805
7.87575e-06;0.001134221309778957
7.87600e-06;0.0011180469341610163
7.87625e-06;-0.05622795168253177
7.87650e-06;-0.027138942615179698
7.87675e-06;-0.010097455323686111
7.87700e-06;0.010888303904668006
7.87725e-06;0.02701411234348482
7.87750e-06;0.023683442004042713
7.87775e-06;0.010968400335972238
7.87800e-06;-0.00617389185670649
7.87825e-06;-0.02042512829646999
7.87850e-06;-0.016670877071459908
7.87875e-06;-0.004780375787123254
7.87900e-06;0.008124955912153162
7.87925e-06;0.018019741265344648
7.87950e-06;0.015811511454903792
7.87975e-06;0.007766618041702217
7.88000e-06;-0.0030300797468922527
7.88025e-06;-0.012004150750723846
7.88050e-06;-0.009693172737581003
7.88075e-06;-0.0022821723564087288
7.88100e-06;0.0057666986216133795
7.88125e-06;0.011931513424806812
7.88150e-06;0.010516963851816519
7.88175e-06;0.005448688606672558
7.88200e-06;-0.0013407580221486157
7.88225e-06;-0.00698594880703293
7.88250e-06;-0.005560012774776651
7.88275e-06;-0.0009378059719921186
7.88300e-06;0.004084790634045937
7.88325e-06;0.007926884459988712
7.88350e-06;0.007020338377535422
7.88375e-06;0.003824309569847949
7.88400e-06;-0.00045043674864778517
7.88425e-06;-0.004008918890383342
7.88450e-06;-0.0031387217012700023
7.88475e-06;-0.0002672758558792432
7.88500e-06;0.0028540490990865888
7.88525e-06;0.005235077096642159
7.88550e-06;0.0046409739050106745
7.88575e-06;0.0026124266739607047
7.88600e-06;-9.197199086444848e-05
7.88625e-06;-0.0023477619146513736
7.88650e-06;-0.001829561897890918
7.88675e-06;-5.801728192733206e-05
7.88700e-06;0.0018698303533580683
7.88725e-06;0.0033338297898243803
7.88750e-06;0.0029342705564756877
7.88775e-06;0.0016364446142336224
7.88800e-06;-8.432378808346678e-05
7.88825e-06;-0.0015235850421119771
7.88850e-06;-0.0012247320369912105
7.88875e-06;-0.00014032592657785446
7.88900e-06;0.001042492614943405
7.88925e-06;0.0019353562096499017
7.88950e-06;0.001661641092881492
7.88975e-06;0.0008261708028535706
7.89000e-06;-0.00027318732533167993
7.89025e-06;-0.0011950747528096553
7.89050e-06;-0.0010270440715801849
7.89075e-06;-0.0003657617380635852
7.89100e-06;0.0003584123503416973
7.89125e-06;0.0009023006489956698
7.89150e-06;0.0007169190678377763
7.89175e-06;0.00018126840070208634
7.89200e-06;-0.0005179530127823212
7.89225e-06;-0.0011041850967031912
7.89250e-06;-0.0010058175521049388
7.89275e-06;-0.0005966395509094172
7.89300e-06;-0.00014668444074849478
7.89325e-06;0.00019079153091260711
7.89350e-06;7.121945514772723e-05
7.89375e-06;-0.00026813408303760663
7.89400e-06;-0.0007102832745923438
7.89425e-06;-0.0010819661147525787
7.89450e-06;-0.0010251256197528246
7.89475e-06;-0.0007739071661772743
7.89500e-06;-0.0004974450295922028
7.89525e-06;-0.0002917120106351312
7.89550e-06;-0.00037250459066091017
