Time(s);Current(A)
1.43000e-05;0.01281436804093687
1.43003e-05;0.012804169127422245
1.43005e-05;0.01279397021390762
1.43008e-05;0.012783771300393066
1.43010e-05;0.012773572386878441
1.43013e-05;0.012763373473363817
1.43015e-05;0.012758710819962668
1.43018e-05;0.012765067383095217
1.43020e-05;0.012771423946227767
1.43023e-05;0.012777780509360273
1.43025e-05;0.012784137072492823
1.43028e-05;0.012790493635625372
1.43030e-05;0.012796850198757878
1.43033e-05;0.012803206761890428
1.43035e-05;0.012809563325022977
1.43038e-05;0.012815919888155483
1.43040e-05;0.012822276451288033
1.43043e-05;0.012828633014420584
1.43045e-05;0.012834989577553132
1.43048e-05;0.012842702007119712
1.43050e-05;0.012853113115130405
1.43053e-05;0.012863524223141099
1.43055e-05;0.012873935331151722
1.43058e-05;0.012884346439162416
1.43060e-05;0.012894757547173109
1.43063e-05;0.012905168655183732
1.43065e-05;0.012915579763194426
1.43068e-05;0.012925990871205119
1.43070e-05;0.012936401979215742
1.43073e-05;0.012943182959014136
1.43075e-05;0.012949243516159958
1.43078e-05;0.012955304073305739
1.43080e-05;0.01296136463045156
1.43083e-05;0.012967425187597382
1.43085e-05;0.012973485744743161
1.43088e-05;0.012979546301888982
1.43090e-05;0.012985606859034804
1.43093e-05;0.012991667416180585
1.43095e-05;0.012995832167453933
1.43098e-05;0.0129962235599992
1.43100e-05;0.012996614952544464
1.43103e-05;0.012997006345089731
1.43105e-05;0.012997397737634997
1.43108e-05;0.012997789130180262
1.43110e-05;0.01299818052272553
1.43113e-05;0.012998571915270795
1.43115e-05;0.01299896330781606
1.43118e-05;0.012999354700361327
1.43120e-05;0.012999746092906593
1.43123e-05;0.013000137485451858
1.43125e-05;0.013000528877997125
1.43128e-05;0.013000920270542391
1.43130e-05;0.01300131166308766
1.43133e-05;0.013001703055632923
1.43135e-05;0.01300209444817819
1.43138e-05;0.013002485840723457
1.43140e-05;0.013002877233268722
1.43143e-05;0.013003268625813988
1.43145e-05;0.013003660018359255
1.43148e-05;0.01300405141090452
1.43150e-05;0.013004442803449786
1.43153e-05;0.013004834195995053
1.43155e-05;0.013005225588540316
1.43158e-05;0.013005616981085584
1.43160e-05;0.01300600837363085
1.43163e-05;0.013006399766176114
1.43165e-05;0.013007270305483414
1.43168e-05;0.013008235934595052
1.43170e-05;0.013009201563706684
1.43173e-05;0.013010167192818322
1.43175e-05;0.01301113282192996
1.43178e-05;0.013012098451041591
1.43180e-05;0.013013064080153227
1.43183e-05;0.013014029709264865
1.43185e-05;0.013014995338376497
1.43188e-05;0.013015960967488135
1.43190e-05;0.013016926596599773
1.43193e-05;0.013017892225711404
1.43195e-05;0.01301885785482304
1.43198e-05;0.013019823483934679
1.43200e-05;0.01302078911304631
1.43203e-05;0.013021754742157948
1.43205e-05;0.013022720371269586
1.43208e-05;0.013023686000381217
1.43210e-05;0.013024651629492855
1.43213e-05;0.013025617258604492
1.43215e-05;0.01302658288771613
1.43218e-05;0.013027548516827761
1.43220e-05;0.0130285141459394
1.43223e-05;0.013029479775051037
1.43225e-05;0.013030445404162668
1.43228e-05;0.013031411033274305
1.43230e-05;0.013032376662385943
1.43233e-05;0.013034655998004406
1.43235e-05;0.01303955009813401
1.43238e-05;0.013044545856069277
1.43240e-05;0.013049743950843936
1.43243e-05;0.013054942045618632
1.43245e-05;0.013060140140393327
1.43248e-05;0.013065338235167987
1.43250e-05;0.013070536329942681
1.43253e-05;0.013075734424717376
1.43255e-05;0.013080932519492036
1.43258e-05;0.013086130614266731
1.43260e-05;0.01309013736646597
1.43263e-05;0.013093907688950072
1.43265e-05;0.013097678011434202
1.43268e-05;0.01310144833391833
1.43270e-05;0.013105218656402434
1.43273e-05;0.013108988978886562
1.43275e-05;0.01311275930137069
1.43278e-05;0.013116529623854794
1.43280e-05;0.013121251390608256
1.43283e-05;0.013127866885296607
1.43285e-05;0.013134482379984914
1.43288e-05;0.013141097874673267
1.43290e-05;0.01314771336936162
1.43293e-05;0.013154328864049925
1.43295e-05;0.013160944358738278
1.43298e-05;0.01316755985342663
1.43300e-05;0.013174175348114981
1.43303e-05;0.013180790842803288
1.43305e-05;0.013187406337491641
1.43308e-05;0.013201271968752887
1.43310e-05;0.013216576436970134
1.43313e-05;0.013231880905187484
1.43315e-05;0.013247185373404835
1.43318e-05;0.01326248984162208
1.43320e-05;0.013277794309839431
1.43323e-05;0.01329309877805678
1.43325e-05;0.013308403246274027
1.43328e-05;0.013323707714491378
1.43330e-05;0.013339012182708727
1.43333e-05;0.01335576553750985
1.43335e-05;0.013375402715449637
1.43338e-05;0.013395039893389426
1.43340e-05;0.01341467707132908
1.43343e-05;0.013434314249268869
1.43345e-05;0.013453951427208656
1.43348e-05;0.013473588605148312
1.43350e-05;0.013493225783088099
1.43353e-05;0.013512862961027886
1.43355e-05;0.013532500138967542
1.43358e-05;0.013552137316907329
1.43360e-05;0.013571774494847116
1.43363e-05;0.013591411672786772
1.43365e-05;0.01361104885072656
1.43368e-05;0.013620956658167352
1.43370e-05;0.013628933608486027
1.43373e-05;0.013636910558804756
1.43375e-05;0.013644887509123484
1.43378e-05;0.01365286445944216
1.43380e-05;0.013660841409760888
1.43383e-05;0.013668818360079618
1.43385e-05;0.013676795310398346
1.43388e-05;0.013684772260717022
1.43390e-05;0.01369274921103575
1.43393e-05;0.01370072616135448
1.43395e-05;0.013708703111673154
1.43398e-05;0.013716680061991884
1.43400e-05;0.01371729374402361
1.43403e-05;0.013703251783784287
1.43405e-05;0.013689209823544869
1.43408e-05;0.01367516786330545
1.43410e-05;0.013661125903066128
1.43413e-05;0.01364708394282671
1.43415e-05;0.013633041982587291
1.43418e-05;0.013619000022347968
1.43420e-05;0.013604958062108551
1.43423e-05;0.013590916101869133
1.43425e-05;0.01357687414162981
1.43428e-05;0.013562832181390393
1.43430e-05;0.013548790221150974
1.43433e-05;0.013525119473848624
1.43435e-05;0.01349953783086328
1.43438e-05;0.013473956187877936
1.43440e-05;0.013448374544892765
1.43443e-05;0.013422792901907421
1.43445e-05;0.013397211258922077
1.43448e-05;0.013371629615936907
1.43450e-05;0.013346047972951563
1.43453e-05;0.013320466329966219
1.43455e-05;0.013294884686981048
1.43458e-05;0.013269303043995704
1.43460e-05;0.01324372140101036
1.43463e-05;0.013222032634968583
1.43465e-05;0.013208092141796513
1.43468e-05;0.013194151648624444
1.43470e-05;0.013180211155452374
1.43473e-05;0.013166270662280398
1.43475e-05;0.013152330169108328
1.43478e-05;0.013138389675936259
1.43480e-05;0.013124449182764284
1.43483e-05;0.013110508689592215
1.43485e-05;0.013096568196420143
1.43488e-05;0.01308262770324817
1.43490e-05;0.0130686872100761
1.43493e-05;0.01305474671690403
1.43495e-05;0.013040806223732054
1.43498e-05;0.013026865730559984
1.43500e-05;0.013012925237387915
1.43503e-05;0.012998984744215939
1.43505e-05;0.012985044251043869
1.43508e-05;0.0129711037578718
1.43510e-05;0.012957163264699825
1.43513e-05;0.012943222771527754
1.43515e-05;0.012929282278355684
1.43518e-05;0.01291534178518371
1.43520e-05;0.01290140129201164
1.43523e-05;0.01288746079883957
1.43525e-05;0.012873520305667595
1.43528e-05;0.012859579812495525
1.43530e-05;0.012854171367840207
1.43533e-05;0.012850456163940975
1.43535e-05;0.012846740960041717
1.43538e-05;0.01284302575614246
1.43540e-05;0.012839310552243228
1.43543e-05;0.01283559534834397
1.43545e-05;0.012831880144444712
1.43548e-05;0.01282816494054548
1.43550e-05;0.012824449736646223
1.43553e-05;0.012820734532746965
1.43555e-05;0.012817019328847707
1.43558e-05;0.012813304124948474
1.43560e-05;0.012809588921049216
1.43563e-05;0.01280587371714996
1.43565e-05;0.012802158513250728
1.43568e-05;0.01279844330935147
1.43570e-05;0.012794728105452211
1.43573e-05;0.012791012901552979
1.43575e-05;0.012787297697653723
1.43578e-05;0.012783582493754464
1.43580e-05;0.012779867289855232
1.43583e-05;0.012776152085955974
1.43585e-05;0.012772436882056717
1.43588e-05;0.012768721678157484
1.43590e-05;0.012765006474258227
1.43593e-05;0.012761291270358969
1.43595e-05;0.0127570458684969
1.43598e-05;0.012751745175508734
1.43600e-05;0.012746444482520571
1.43603e-05;0.012741143789532443
1.43605e-05;0.012735843096544278
1.43608e-05;0.012730542403556113
1.43610e-05;0.012725241710567985
1.43613e-05;0.01271994101757982
1.43615e-05;0.012714640324591655
1.43618e-05;0.012709339631603526
1.43620e-05;0.012704038938615362
1.43623e-05;0.012698738245627198
1.43625e-05;0.01269343755263907
1.43628e-05;0.012688136859650905
1.43630e-05;0.01268283616666274
1.43633e-05;0.012677535473674612
1.43635e-05;0.012672234780686447
1.43638e-05;0.012666197442410309
1.43640e-05;0.012660013912065202
1.43643e-05;0.012653830381720136
1.43645e-05;0.012647646851375028
1.43648e-05;0.01264146332102992
1.43650e-05;0.012635279790684855
1.43653e-05;0.012629096260339747
1.43655e-05;0.01262291272999464
1.43658e-05;0.012616729199649575
1.43660e-05;0.012610545669304467
1.43663e-05;0.012604362138959359
1.43665e-05;0.012598178608614294
1.43668e-05;0.012591995078269186
1.43670e-05;0.012585811547924078
1.43673e-05;0.012579628017579012
1.43675e-05;0.012573444487233906
1.43678e-05;0.01256964702751009
1.43680e-05;0.012570598735701056
1.43683e-05;0.012571550443892028
1.43685e-05;0.012572502152083
1.43688e-05;0.012573453860273967
1.43690e-05;0.012574405568464939
1.43693e-05;0.01257535727665591
1.43695e-05;0.012576308984846877
1.43698e-05;0.01257726069303785
1.43700e-05;0.012582887709678593
1.43703e-05;0.012597820328879326
1.43705e-05;0.012612752948080161
1.43708e-05;0.012627685567280996
1.43710e-05;0.012642618186481729
1.43713e-05;0.012657550805682564
1.43715e-05;0.0126724834248834
1.43718e-05;0.012687416044084134
1.43720e-05;0.012702348663284967
1.43723e-05;0.012721260054515226
1.43725e-05;0.012748090681787751
1.43728e-05;0.012774921309060097
1.43730e-05;0.012801751936332623
1.43733e-05;0.01282858256360515
1.43735e-05;0.012855413190877494
1.43738e-05;0.01288224381815002
1.43740e-05;0.012909074445422547
1.43743e-05;0.012935905072694891
1.43745e-05;0.012962735699967419
1.43748e-05;0.012989566327239944
1.43750e-05;0.013016396954512288
1.43753e-05;0.01304210367129685
1.43755e-05;0.013065573388228235
1.43758e-05;0.013089043105159457
1.43760e-05;0.013112512822090841
1.43763e-05;0.013135982539022224
1.43765e-05;0.013159452255953448
1.43768e-05;0.01318292197288483
1.43770e-05;0.013206391689816212
1.43773e-05;0.013229861406747437
1.43775e-05;0.013253331123678819
1.43778e-05;0.013276800840610203
1.43780e-05;0.013300270557541426
1.43783e-05;0.013317890720577496
1.43785e-05;0.013323868095912312
1.43788e-05;0.01332984547124709
1.43790e-05;0.013335822846581906
1.43793e-05;0.013341800221916724
1.43795e-05;0.0133477775972515
1.43798e-05;0.013353754972586318
1.43800e-05;0.013359732347921134
1.43803e-05;0.01336570972325591
1.43805e-05;0.013371687098590728
1.43808e-05;0.013377664473925546
1.43810e-05;0.013383641849260362
1.43813e-05;0.013389619224595138
1.43815e-05;0.013395596599929956
1.43818e-05;0.013401573975264773
1.43820e-05;0.01340755135059955
1.43823e-05;0.013413528725934366
1.43825e-05;0.013419506101269183
1.43828e-05;0.01342548347660396
1.43830e-05;0.013428106261990348
1.43833e-05;0.013424052165806069
1.43835e-05;0.013419998069621816
1.43838e-05;0.013415943973437535
1.43840e-05;0.013411889877253256
1.43843e-05;0.013407835781069003
1.43845e-05;0.013403781684884722
1.43848e-05;0.013399727588700443
1.43850e-05;0.01339567349251619
1.43853e-05;0.013391619396331909
1.43855e-05;0.01338756530014763
1.43858e-05;0.013383511203963376
1.43860e-05;0.013379457107779096
1.43863e-05;0.013375403011594815
1.43865e-05;0.013371348915410563
1.43868e-05;0.013367294819226282
1.43870e-05;0.013363240723042001
1.43873e-05;0.01335918662685775
1.43875e-05;0.01335513253067347
1.43878e-05;0.013349579162039204
1.43880e-05;0.013341041683649068
1.43883e-05;0.013332504205258873
1.43885e-05;0.01332396672686868
1.43888e-05;0.013315429248478542
1.43890e-05;0.013306891770088349
1.43893e-05;0.013298354291698154
1.43895e-05;0.01328981681330796
1.43898e-05;0.013281279334917824
1.43900e-05;0.01327274185652763
1.43903e-05;0.013264204378137436
1.43905e-05;0.013247333779486645
1.43908e-05;0.013228809418687992
1.43910e-05;0.013210285057889336
1.43913e-05;0.013191760697090809
1.43915e-05;0.013173236336292153
1.43918e-05;0.0131547119754935
1.43920e-05;0.01313618761469497
1.43923e-05;0.013117663253896317
1.43925e-05;0.013099138893097663
1.43928e-05;0.013080614532299134
1.43930e-05;0.013060101302977271
1.43933e-05;0.013035629485631806
1.43935e-05;0.013011157668286505
1.43938e-05;0.01298668585094104
1.43940e-05;0.012962214033595572
1.43943e-05;0.012937742216250272
1.43945e-05;0.012913270398904806
1.43948e-05;0.012888798581559339
1.43950e-05;0.01286432676421404
1.43953e-05;0.012839854946868573
1.43955e-05;0.012815383129523107
1.43958e-05;0.012790911312177806
1.43960e-05;0.012766439494832341
1.43963e-05;0.012741967677486874
1.43965e-05;0.012717495860141573
1.43968e-05;0.01270426747134246
1.43970e-05;0.012693270414381395
1.43973e-05;0.012682273357420405
1.43975e-05;0.01267127630045934
1.43978e-05;0.012660279243498275
1.43980e-05;0.01264928218653721
1.43983e-05;0.01263828512957622
1.43985e-05;0.012627288072615156
1.43988e-05;0.01261629101565409
1.43990e-05;0.0126052939586931
1.43993e-05;0.012594296901732036
1.43995e-05;0.012583299844770971
1.43998e-05;0.012572302787809981
1.44000e-05;0.012561305730848916
1.44003e-05;0.012559357704024414
1.44005e-05;0.01257542061251978
1.44008e-05;0.012591483521015256
1.44010e-05;0.01260754642951073
1.44013e-05;0.012623609338006096
1.44015e-05;0.012639672246501572
1.44018e-05;0.012655735154997046
1.44020e-05;0.012671798063492412
1.44023e-05;0.012687860971987888
1.44025e-05;0.012703923880483362
1.44028e-05;0.012719986788978729
1.44030e-05;0.012736049697474204
1.44033e-05;0.012756428494910176
1.44035e-05;0.012785397516424053
1.44038e-05;0.012814366537938127
1.44040e-05;0.012843335559452202
1.44043e-05;0.01287230458096608
1.44045e-05;0.012901273602480156
1.44048e-05;0.01293024262399423
1.44050e-05;0.012959211645508107
1.44053e-05;0.012988180667022182
1.44055e-05;0.013017149688536256
1.44058e-05;0.013046118710050134
1.44060e-05;0.01307508773156421
1.44063e-05;0.013101417480226021
1.44065e-05;0.013122494094361241
1.44068e-05;0.01314357070849632
1.44070e-05;0.01316464732263154
1.44073e-05;0.01318572393676676
1.44075e-05;0.013206800550901836
1.44078e-05;0.013227877165037056
1.44080e-05;0.013248953779172276
1.44083e-05;0.013270030393307354
1.44085e-05;0.013291107007442574
1.44088e-05;0.01329716093746104
1.44090e-05;0.013300233517685611
1.44093e-05;0.013303306097910203
1.44095e-05;0.013306378678134794
1.44098e-05;0.013309451258359365
1.44100e-05;0.013312523838583955
1.44103e-05;0.013315596418808548
1.44105e-05;0.013318668999033119
1.44108e-05;0.01332174157925771
1.44110e-05;0.01331856012208814
1.44113e-05;0.013302930804614763
1.44115e-05;0.013287301487141282
1.44118e-05;0.013271672169667799
1.44120e-05;0.013256042852194424
1.44123e-05;0.01324041353472094
1.44125e-05;0.013224784217247458
1.44128e-05;0.013209154899774082
1.44130e-05;0.0131935255823006
1.44133e-05;0.013177896264827118
1.44135e-05;0.013162266947353741
1.44138e-05;0.013146637629880258
1.44140e-05;0.013131008312406777
1.44143e-05;0.0131153789949334
1.44145e-05;0.013094991109764321
1.44148e-05;0.013073658855751895
1.44150e-05;0.013052326601739614
1.44153e-05;0.013030994347727188
1.44155e-05;0.013009662093714762
1.44158e-05;0.012988329839702337
1.44160e-05;0.012966997585690055
1.44163e-05;0.01294566533167763
1.44165e-05;0.012924333077665204
1.44168e-05;0.012903000823652921
1.44170e-05;0.012881668569640497
1.44173e-05;0.01286033631562807
1.44175e-05;0.01283900406161579
1.44178e-05;0.012818736004860453
1.44180e-05;0.01280058609642448
1.44183e-05;0.012782436187988633
1.44185e-05;0.01276428627955266
1.44188e-05;0.012746136371116688
1.44190e-05;0.012727986462680838
1.44193e-05;0.012709836554244867
1.44195e-05;0.012691686645808895
1.44198e-05;0.012673536737373045
1.44200e-05;0.012655386828937073
1.44203e-05;0.012631659130102817
1.44205e-05;0.01260682448232829
1.44208e-05;0.012581989834553593
1.44210e-05;0.012557155186778897
1.44213e-05;0.012532320539004368
1.44215e-05;0.012507485891229672
1.44218e-05;0.012482651243454976
1.44220e-05;0.012457816595680448
1.44223e-05;0.012432981947905751
1.44225e-05;0.012406156233441575
1.44228e-05;0.012375367555781882
1.44230e-05;0.01234457887812198
1.44233e-05;0.012313790200462077
1.44235e-05;0.012283001522802385
1.44238e-05;0.012252212845142484
1.44240e-05;0.012221424167482581
1.44243e-05;0.01219063548982268
1.44245e-05;0.012159846812162986
1.44248e-05;0.012129058134503086
1.44250e-05;0.012098269456843183
1.44253e-05;0.012068965245618672
1.44255e-05;0.01204261567467783
1.44258e-05;0.012016266103736989
1.44260e-05;0.011989916532796326
1.44263e-05;0.011963566961855486
1.44265e-05;0.011937217390914644
1.44268e-05;0.011910867819973981
1.44270e-05;0.01188451824903314
1.44273e-05;0.011858168678092298
1.44275e-05;0.011831819107151635
1.44278e-05;0.011805469536210794
1.44280e-05;0.011782655887746475
1.44283e-05;0.011766880040032188
1.44285e-05;0.011751104192317794
1.44288e-05;0.0117353283446034
1.44290e-05;0.01171955249688911
1.44293e-05;0.011703776649174717
1.44295e-05;0.011688000801460322
1.44298e-05;0.011672224953746035
1.44300e-05;0.011656449106031641
1.44303e-05;0.011640673258317247
1.44305e-05;0.01162489741060296
1.44308e-05;0.011609121562888566
1.44310e-05;0.011593345715174171
1.44313e-05;0.011577569867459883
1.44315e-05;0.011561794019745488
1.44318e-05;0.011546018172031094
1.44320e-05;0.011531726045772163
1.44323e-05;0.011520387077010898
1.44325e-05;0.011509048108249632
1.44328e-05;0.011497709139488367
1.44330e-05;0.011486370170727178
1.44333e-05;0.011475031201965913
1.44335e-05;0.011463692233204648
1.44338e-05;0.011452353264443459
1.44340e-05;0.011441014295682193
1.44343e-05;0.011429675326920928
1.44345e-05;0.01141833635815974
1.44348e-05;0.011406997389398476
1.44350e-05;0.01139565842063721
1.44353e-05;0.011384319451876021
1.44355e-05;0.011372980483114756
1.44358e-05;0.01136164151435349
1.44360e-05;0.011351323308135722
1.44363e-05;0.01134303679900504
1.44365e-05;0.011334750289874358
1.44368e-05;0.011326463780743732
1.44370e-05;0.01131817727161305
1.44373e-05;0.011309890762482367
1.44375e-05;0.01130160425335174
1.44378e-05;0.011293317744221059
1.44380e-05;0.011285031235090377
1.44383e-05;0.01127674472595975
1.44385e-05;0.011268458216829069
1.44388e-05;0.011260171707698385
1.44390e-05;0.011251885198567759
1.44393e-05;0.011243598689437077
1.44395e-05;0.011234398814642669
1.44398e-05;0.011223381002492878
1.44400e-05;0.011212363190343013
1.44403e-05;0.011201345378193147
1.44405e-05;0.011190327566043356
1.44408e-05;0.011179309753893491
1.44410e-05;0.011168291941743626
1.44413e-05;0.011157274129593761
1.44415e-05;0.01114625631744397
1.44418e-05;0.011135238505294106
1.44420e-05;0.01112422069314424
1.44423e-05;0.011113202880994448
1.44425e-05;0.011102185068844583
1.44428e-05;0.011091167256694718
1.44430e-05;0.011079329004905903
1.44433e-05;0.011065857773110055
1.44435e-05;0.011052386541314208
1.44438e-05;0.011038915309518452
1.44440e-05;0.011025444077722605
1.44443e-05;0.011011972845926758
1.44445e-05;0.010998501614131002
1.44448e-05;0.010985030382335155
1.44450e-05;0.010971559150539307
1.44453e-05;0.01095808791874355
1.44455e-05;0.010944616686947703
1.44458e-05;0.010931145455151855
1.44460e-05;0.0109176742233561
1.44463e-05;0.010904202991560252
1.44465e-05;0.010890731759764405
1.44468e-05;0.010877260527968648
1.44470e-05;0.010866149878028964
1.44473e-05;0.010859737663895072
1.44475e-05;0.010853325449761225
1.44478e-05;0.010846913235627333
1.44480e-05;0.010840501021493441
1.44483e-05;0.010834088807359595
1.44485e-05;0.010827676593225703
1.44488e-05;0.010821264379091812
1.44490e-05;0.010814852164957964
1.44493e-05;0.010808439950824074
1.44495e-05;0.010802027736690182
1.44498e-05;0.010795615522556291
1.44500e-05;0.010789203308422443
1.44503e-05;0.01078279109428855
1.44505e-05;0.01077637888015466
1.44508e-05;0.010769966666020812
1.44510e-05;0.010766508411523854
1.44513e-05;0.010768929635297261
1.44515e-05;0.010771350859070652
1.44518e-05;0.01077377208284406
1.44520e-05;0.010776193306617467
