Time(s);Current(A)
1.45000e-05;5.1757106070790015e-05
1.45003e-05;8.669239703695572e-05
1.45005e-05;0.0001224124369070905
1.45008e-05;0.00015876253179498414
1.45010e-05;0.00019543622300618104
1.45013e-05;0.00023284542811226807
1.45015e-05;0.0002702546332183551
1.45018e-05;0.00030754741629754784
1.45020e-05;0.0003445755795033801
1.45023e-05;0.0003816037427092123
1.45025e-05;0.0004179691888487934
1.45028e-05;0.0004528283211808998
1.45030e-05;0.0004876874535130062
1.45033e-05;0.000521648914293872
1.45035e-05;0.000553570024642648
1.45038e-05;0.0005844407001940636
1.45040e-05;0.0006129238041546231
1.45043e-05;0.0006400616590449057
1.45045e-05;0.0006641418482226722
1.45048e-05;0.0006866328111562886
1.45050e-05;0.0007055115637548276
1.45053e-05;0.0007227007319659731
1.45055e-05;0.0007360495821546595
1.45058e-05;0.0007476595403267087
1.45060e-05;0.0007553171073658668
1.45063e-05;0.0007611882798893774
1.45065e-05;0.0007629990911165711
1.45068e-05;0.0007630078574353955
1.45070e-05;0.0007589206901090483
1.45073e-05;0.0007531057994552537
1.45075e-05;0.0007433639033902688
1.45078e-05;0.0007320005910690452
1.45080e-05;0.0007169519025586123
1.45083e-05;0.000700389216396539
1.45085e-05;0.0006803853097126782
1.45088e-05;0.000658994778232482
1.45090e-05;0.0006344525366423845
1.45093e-05;0.0006087073845253354
1.45095e-05;0.0005802280931665656
1.45098e-05;0.0005507496042620001
1.45100e-05;0.0005190000027861057
1.45103e-05;0.0004863010775353238
1.45105e-05;0.0004514443996262525
1.45108e-05;0.0004165877217171813
1.45110e-05;0.00038100642914278254
1.45113e-05;0.00034377813344681457
1.45115e-05;0.0003065498377508466
1.45118e-05;0.00026932154205513086
1.45120e-05;0.0002320932463591629
1.45123e-05;0.00019486495066319492
1.45125e-05;0.0001578389096167332
1.45128e-05;0.00012150987962430102
1.45130e-05;8.60304977459526e-05
1.45133e-05;5.164201679837284e-05
1.45135e-05;1.859144490979593e-05
1.45138e-05;-1.2873457389287486e-05
1.45140e-05;-4.250495301325443e-05
1.45143e-05;-7.00589198382436e-05
1.45145e-05;-9.540082198218688e-05
1.45148e-05;-0.00011877113485243595
1.45150e-05;-0.00014069636178790893
1.45153e-05;-0.00016147545802654097
1.45155e-05;-0.00018106800182404983
1.45158e-05;-0.00019933872746900425
1.45160e-05;-0.000216152398353405
1.45163e-05;-0.00023137607005548132
1.45165e-05;-0.0002449454574517303
1.45168e-05;-0.0002570311460469213
1.45170e-05;-0.00026798290333583446
1.45173e-05;-0.00027785863971042376
1.45175e-05;-0.00028676147234330814
1.45178e-05;-0.00029502759631401266
1.45180e-05;-0.0003018465219265726
1.45183e-05;-0.0003079723218789038
1.45185e-05;-0.0003125226912188989
1.45188e-05;-0.00031655077316287175
1.45190e-05;-0.0003193917290209906
1.45193e-05;-0.0003217555005514839
1.45195e-05;-0.00032303466240643855
1.45198e-05;-0.0003243138242614019
1.45200e-05;-0.0003249891329046158
1.45203e-05;-0.0003242919215421974
1.45205e-05;-0.00032359471017977433
1.45208e-05;-0.00032247856922333146
1.45210e-05;-0.00032041022790171847
1.45213e-05;-0.0003183418865800915
1.45215e-05;-0.0003159639717057935
1.45218e-05;-0.00031288241580421116
1.45220e-05;-0.0003098008599026079
1.45223e-05;-0.0003067193040010046
1.45225e-05;-0.00030363774809942225
1.45228e-05;-0.00030055619219781897
1.45230e-05;-0.0002974033148264434
1.45233e-05;-0.00029423321978100673
1.45235e-05;-0.00029106312473554854
1.45238e-05;-0.00028789302969009034
1.45240e-05;-0.0002847229346446536
1.45243e-05;-0.000281700907458206
1.45245e-05;-0.0002790154291130254
1.45248e-05;-0.00027632995076786306
1.45250e-05;-0.0002732436430414359
1.45253e-05;-0.0002692462755839492
1.45255e-05;-0.0002648436518775363
1.45258e-05;-0.0002595199064508144
1.45260e-05;-0.0002538637591317389
1.45263e-05;-0.0002474520834187139
1.45265e-05;-0.0002406786124195456
1.45268e-05;-0.00023308280370864268
1.45270e-05;-0.00022495027100375402
1.45273e-05;-0.0002155977987422917
1.45275e-05;-0.00020596871468159036
1.45278e-05;-0.00019571090956604705
1.45280e-05;-0.00018768555200824707
1.45283e-05;-0.00017503512863457007
1.45285e-05;-0.015078622876044265
1.45288e-05;-0.029921278036404597
1.45290e-05;-0.021162736652609124
1.45293e-05;-0.014979814802676513
1.45295e-05;-0.007065908738744136
1.45298e-05;0.013840532062434846
1.45300e-05;0.009376097057534416
1.45303e-05;0.005936949017134486
1.45305e-05;-0.0035327384110174997
1.45308e-05;-0.011990249280167627
1.45310e-05;-0.011032413168931544
1.45313e-05;-0.005727036573470908
1.45315e-05;0.0016033302915536615
1.45318e-05;0.007949788089226863
1.45320e-05;0.00814000217132826
1.45323e-05;0.004926587913878653
1.45325e-05;-0.001140955631034986
1.45328e-05;-0.006537303220985535
1.45330e-05;-0.006009869850727142
1.45333e-05;-0.0027411965055504505
1.45335e-05;0.0018082522086843896
1.45338e-05;0.00574981851626952
1.45340e-05;0.005841022930830018
1.45343e-05;0.003804424143421278
1.45345e-05;-1.694117518112343e-05
1.45348e-05;-0.0034155579098467566
1.45350e-05;-0.003101815097556811
1.45353e-05;-0.0010698019247728026
1.45355e-05;0.0017652379867338084
1.45358e-05;0.004219997539394755
1.45360e-05;0.004263354272784574
1.45363e-05;0.0029743707317311904
1.45365e-05;0.0005679547235366563
1.45368e-05;-0.0015731274439055017
1.45370e-05;-0.001388426291223449
1.45373e-05;-0.00012721986860891378
1.45375e-05;0.001637093379154608
1.45378e-05;0.003163266801408298
1.45380e-05;0.0031790796472217506
1.45383e-05;0.0023605571891017803
1.45385e-05;0.0008423848941674083
1.45388e-05;-0.0005092511651689847
1.45390e-05;-0.00040376218964535953
1.45393e-05;0.0003762094010075275
1.45395e-05;0.0014714440357287489
1.45398e-05;0.0024176204070769777
1.45400e-05;0.002417873689788043
1.45403e-05;0.001895735465988233
1.45405e-05;0.0009356194333607069
1.45408e-05;8.012211750553506e-05
1.45410e-05;0.00013762376950196675
1.45413e-05;0.0006178209589348279
1.45415e-05;0.0012956746116421993
1.45418e-05;0.001880333745760638
1.45420e-05;0.0018726789282489376
1.45423e-05;0.001538056041089457
1.45425e-05;0.0009293735920806558
1.45428e-05;0.00038652740008818064
1.45430e-05;0.0004158613048518211
1.45433e-05;0.0007102164023104924
1.45435e-05;0.0011286155901126485
1.45438e-05;0.0014888721189808608
1.45440e-05;0.0014783628978611112
1.45443e-05;0.0012633300221875786
1.45445e-05;0.0008768828334618749
1.45448e-05;0.0005317137357528617
1.45450e-05;0.0005446408987543439
1.45453e-05;0.0007230414054170748
1.45455e-05;0.0009785819177227644
1.45458e-05;0.0011971736690529534
1.45460e-05;0.0011830368686949917
1.45463e-05;0.0010403566506515078
1.45465e-05;0.0007899183293579955
1.45468e-05;0.0005649907300970863
1.45470e-05;0.0005640518432854686
1.45473e-05;0.0006664630482723738
1.45475e-05;0.0008169205913801279
1.45478e-05;0.000943993432776521
1.45480e-05;0.0009250883424365621
1.45483e-05;0.0008255123438525569
1.45485e-05;0.000658327416914836
1.45488e-05;0.0005070507997709539
1.45490e-05;0.0004960371070871533
1.45493e-05;0.0005497446067341934
1.45495e-05;0.0006335622822748925
1.45498e-05;0.0007027807243516408
1.45500e-05;0.0006806482527431705
1.45503e-05;0.0006081152466149061
1.45505e-05;0.0004934036822150485
1.45508e-05;0.00038886590082416945
1.45510e-05;0.0003724288167255534
1.45513e-05;0.000396803193536029
1.45515e-05;0.00044034196867209454
1.45518e-05;0.0004750747071226441
1.45520e-05;0.0004529632582331054
1.45523e-05;0.0003996989569641942
1.45525e-05;0.0003204707598796303
1.45528e-05;0.000248109132400566
1.45530e-05;0.0002314607090930312
1.45533e-05;0.00024093602701018087
1.45535e-05;0.0002630098687970586
1.45538e-05;0.0002801975290958194
1.45540e-05;0.0002624461140063211
1.45543e-05;0.00022588578443016213
1.45545e-05;0.00017374918904038987
1.45548e-05;0.00012640167710221742
1.45550e-05;0.00011410753094316553
1.45553e-05;0.00011811849681785713
1.45555e-05;0.00012992071040149723
1.45558e-05;0.00013856857353537486
1.45560e-05;0.00012524515540836734
1.45563e-05;0.00010006295162869337
1.45565e-05;6.505497662692818e-05
1.45568e-05;3.298546962355631e-05
1.45570e-05;2.2817922297576295e-05
1.45573e-05;2.281414412194684e-05
1.45575e-05;2.764754668360469e-05
1.45578e-05;3.0468884238338187e-05
1.45580e-05;1.9499198230066663e-05
1.45583e-05;1.0811536095168405e-06
1.45585e-05;-2.3503890384194714e-05
1.45588e-05;-4.625295860350879e-05
1.45590e-05;-5.52807537374986e-05
1.45593e-05;-5.793366299064434e-05
1.45595e-05;-5.7541343793774045e-05
1.45598e-05;-5.8386886003572924e-05
1.45600e-05;-6.784078773431494e-05
1.45603e-05;-8.19220151270319e-05
1.45605e-05;-9.982013010970219e-05
1.45608e-05;-0.0001165145402882952
1.45610e-05;-0.0001245533253304536
1.45613e-05;-0.00012853136507309863
1.45615e-05;-0.00013052715970083263
1.45618e-05;-0.00013321620524231833
1.45620e-05;-0.00014120759786256045
1.45623e-05;-0.0001519997352610134
1.45625e-05;-0.00016507720267285524
1.45628e-05;-0.00017728749257701744
1.45630e-05;-0.00018395546561308758
1.45633e-05;-0.00018795214985352447
1.45635e-05;-0.00019057213888115467
1.45638e-05;-0.0001934838021543073
1.45640e-05;-0.00019956650024729653
1.45643e-05;-0.00020738710769829322
1.45645e-05;-0.000216493055963966
1.45648e-05;-0.00022437082201848623
1.45650e-05;-0.00022866125235177428
1.45653e-05;-0.00023097992542043966
1.45655e-05;-0.00023277986076273817
1.45658e-05;-0.00023413001948689467
1.45660e-05;-0.0002373451773138643
1.45663e-05;-0.00024136541310614597
1.45665e-05;-0.0002456110406140397
1.45668e-05;-0.00024943590010265333
1.45670e-05;-0.00025062408396133606
1.45673e-05;-0.000250415220322064
1.45675e-05;-0.00024981630788794906
1.45678e-05;-0.00024882092918507927
1.45680e-05;-0.0002488236212893965
1.45683e-05;-0.0002490223127418808
1.45685e-05;-0.0002496495875997169
1.45688e-05;-0.000249544183549415
1.45690e-05;-0.00024783666181651265
1.45693e-05;-0.00024570088326596396
1.45695e-05;-0.0002426286538191103
1.45698e-05;-0.00023979704160675077
1.45700e-05;-0.0002374915768264822
1.45703e-05;-0.00023518611204621364
1.45705e-05;-0.00023282253761399603
1.45708e-05;-0.0002303318972871273
1.45710e-05;-0.00022743907493766565
1.45713e-05;-0.00022366681833282975
1.45715e-05;-0.00021989456172796828
1.45718e-05;-0.0002161223051231068
1.45720e-05;-0.00021254192658752777
1.45723e-05;-0.00020938111963268944
1.45725e-05;-0.0002062203126778511
1.45728e-05;-0.00020305950572303418
1.45730e-05;-0.0001998598377339052
1.45733e-05;-0.00019657519398047347
1.45735e-05;-0.00019329055022706399
1.45738e-05;-0.00019000590647363225
1.45740e-05;-0.0001871066936277136
1.45743e-05;-0.00018505028608925206
1.45745e-05;-0.0001829938785507766
1.45748e-05;-0.00018093747101230112
1.45750e-05;-0.00017888845780166226
1.45753e-05;-0.00017689462974768505
1.45755e-05;-0.00017498611696165428
1.45758e-05;-0.00017307760417563644
1.45760e-05;-0.00017140808629382095
1.45763e-05;-0.00017026116836394806
1.45765e-05;-0.00016911425043408297
1.45768e-05;-0.0001679673325042101
1.45770e-05;-0.00016682041457433724
1.45773e-05;-0.00016567349664447213
1.45775e-05;-0.00016452657871459926
1.45778e-05;-0.0001633796607847264
1.45780e-05;-0.00016251862643601776
1.45783e-05;-0.00016172299950078451
1.45785e-05;-0.00016092737256554588
1.45788e-05;-0.00016013174563030724
1.45790e-05;-0.00015933611869507397
1.45793e-05;-0.00015854049175983534
1.45795e-05;-0.0001577448648245967
1.45798e-05;-0.00015704526473087256
1.45800e-05;-0.0001565556424311488
1.45803e-05;-0.00015606602013142502
1.45805e-05;-0.00015557639783170458
1.45808e-05;-0.0001550867755319808
1.45810e-05;-0.00015459715323225704
1.45813e-05;-0.0001541075309325366
1.45815e-05;-0.00015361790863281283
1.45818e-05;-0.00015312828633308906
1.45820e-05;-0.0001527866196942267
1.45823e-05;-0.00015247880388739608
1.45825e-05;-0.00015217098808056545
1.45828e-05;-0.0001518631722737369
1.45830e-05;-0.00015155535646690625
1.45833e-05;-0.00015124754066007563
1.45835e-05;-0.00015093972485324709
1.45838e-05;-0.00015063190904641646
1.45840e-05;-0.00015036057485144373
1.45843e-05;-0.0001501690134393788
1.45845e-05;-0.00014997745202731258
1.45848e-05;-0.00014949695585715506
1.45850e-05;-0.00014838465838880953
1.45853e-05;-0.0001468193581635432
1.45855e-05;-0.0001442634961526209
1.45858e-05;-0.00014140581724759793
1.45860e-05;-0.0001377047861576741
1.45863e-05;-0.0001334319052039555
1.45865e-05;-0.00012859759517588402
1.45868e-05;-0.0001231007848775161
1.45870e-05;-0.00011677069535117655
1.45873e-05;-0.00010955039408599364
1.45875e-05;-0.00010148502322610655
1.45878e-05;-9.265007395413736e-05
1.45880e-05;-8.312544018711755e-05
1.45883e-05;-7.297412143281962e-05
1.45885e-05;-6.224408705121297e-05
1.45888e-05;-5.0913490969184564e-05
1.45890e-05;-3.891680325635052e-05
1.45893e-05;-2.625981999711353e-05
1.45895e-05;-1.301227721311307e-05
1.45898e-05;7.370865039064319e-07
1.45900e-05;1.4896782143684784e-05
1.45903e-05;2.9385912410880645e-05
1.45905e-05;4.4170472821156176e-05
1.45908e-05;5.919224392639534e-05
1.45910e-05;7.434794137413625e-05
1.45913e-05;8.979648983642867e-05
1.45915e-05;0.00010524503829882578
1.45918e-05;0.00012063400212526516
1.45920e-05;0.00013589267477233992
1.45923e-05;0.0001511513474195181
1.45925e-05;0.0001661833816928632
1.45928e-05;0.0001807198355112014
1.45930e-05;0.00019499045428276101
1.45933e-05;0.00020867978290809358
1.45935e-05;0.00022198677101439637
1.45938e-05;0.00023445771143340346
1.45940e-05;0.00024641831651214607
1.45943e-05;0.00025726299309281834
1.45945e-05;0.0002674061503743042
1.45948e-05;0.00027601532535788013
1.45950e-05;0.0002839275772385522
1.45953e-05;0.0002898219464396352
1.45955e-05;0.0002941446386616342
1.45958e-05;0.00029690237152880846
1.45960e-05;0.00029810125660567117
1.45963e-05;0.00029774928295206324
1.45965e-05;0.0002958370636238057
1.45968e-05;0.0002923051466323882
1.45970e-05;0.0002870755621348651
1.45973e-05;0.00028013560840202243
1.45975e-05;0.0002715429251680726
1.45978e-05;0.00026137249059596446
1.45980e-05;0.0002496988512273365
1.45983e-05;0.00023659778558072134
1.45985e-05;0.00022213413300411035
1.45988e-05;0.00020634140786802074
1.45990e-05;0.00018924148849065113
1.45993e-05;0.00017089716966528178
1.45995e-05;0.0001514152929081967
1.45998e-05;0.00013091354716777856
1.46000e-05;0.00010950935626351764
1.46003e-05;8.732090205183764e-05
1.46005e-05;6.445950208484595e-05
1.46008e-05;4.101685079262432e-05
1.46010e-05;1.707735574187221e-05
1.46013e-05;-7.248954360462445e-06
1.46015e-05;-3.181122044328237e-05
1.46018e-05;-5.644741404873267e-05
1.46020e-05;-8.108360765401602e-05
1.46023e-05;-0.00010553744741641707
1.46025e-05;-0.0001295925418163722
1.46028e-05;-0.00015331013886491328
1.46030e-05;-0.0001762897448660855
1.46033e-05;-0.00019890680846989552
1.46035e-05;-0.00022042264350503838
1.46038e-05;-0.00024090504040065496
1.46040e-05;-0.0002601930669078199
1.46043e-05;-0.0002781243073925746
1.46045e-05;-0.00029450384866442427
1.46048e-05;-0.0003090396238296862
1.46050e-05;-0.0003214114888009236
1.46053e-05;-0.0003314449860122001
1.46055e-05;-0.0003391085009573901
1.46058e-05;-0.00034440558661776526
1.46060e-05;-0.00034733992773268956
1.46063e-05;-0.0003479142353402428
1.46065e-05;-0.000346110852127598
1.46068e-05;-0.0003418513380997331
1.46070e-05;-0.00033503962816194496
1.46073e-05;-0.0003256709514628297
1.46075e-05;-0.00031382997484993364
1.46078e-05;-0.0002996234386306442
1.46080e-05;-0.0002831581190354468
1.46083e-05;-0.00026454022324695365
1.46085e-05;-0.00024386317428231612
1.46088e-05;-0.00022118227303681432
1.46090e-05;-0.00019654184481245266
1.46093e-05;-0.00017004338124738277
1.46095e-05;-0.00014184439079898762
1.46098e-05;-0.00011211618875126884
1.46100e-05;-8.103010434562421e-05
1.46103e-05;-4.875708535322246e-05
1.46105e-05;-1.5460090005215477e-05
1.46108e-05;1.872181529699541e-05
1.46110e-05;5.365646740058445e-05
1.46113e-05;8.919150269943811e-05
1.46115e-05;0.0001250681670324836
1.46118e-05;0.0001609448313655291
1.46120e-05;0.00019682149569857457
1.46123e-05;0.00023269816003137694
1.46125e-05;0.00026814965177077686
1.46128e-05;0.0003026714367534209
1.46130e-05;0.00033657644095410244
1.46133e-05;0.00036913275695451186
1.46135e-05;0.00040078436889813627
1.46138e-05;0.0004304577031090463
1.46140e-05;0.00045893011263237963
1.46143e-05;0.00048477651141715864
1.46145e-05;0.0005093102977142767
1.46148e-05;0.0005309738503300683
1.46150e-05;0.0005515645096114951
1.46153e-05;0.0005698091188480887
1.46155e-05;0.0005869501203772125
1.46158e-05;0.0006016779100530294
1.46160e-05;0.0006151805770832919
1.46163e-05;0.0006260043207339816
1.46165e-05;0.0006355970144040278
1.46168e-05;0.0006424978236435772
1.46170e-05;0.0006483817798088479
1.46173e-05;0.0006520422267730647
1.46175e-05;0.0006544849731992664
1.46178e-05;0.000654265025851227
1.46180e-05;0.0006540450785031877
1.46183e-05;0.0006523882257671414
1.46185e-05;0.0006475893533707806
1.46188e-05;0.0006427904809744199
1.46190e-05;0.0006368796441498818
1.46193e-05;0.0006285373221877636
1.46195e-05;0.0006201950002256455
1.46198e-05;0.0006109444290698512
1.46200e-05;0.0005997078281815791
1.46203e-05;0.0005884712272933069
1.46205e-05;0.0005764170620909125
1.46208e-05;0.0005625751639104619
1.46210e-05;0.0005487332657299175
1.46213e-05;0.0005348913675493731
1.46215e-05;0.0005210494693689225
1.46218e-05;0.0005069197748624548
1.46220e-05;0.00049216076841809
1.46223e-05;0.0004774017619738252
1.46225e-05;0.0004626427555294604
1.46228e-05;0.00044788374908509565
1.46230e-05;0.0004334866321787655
1.46233e-05;0.0004198808436734398
1.46235e-05;0.00040627505516811405
1.46238e-05;0.00039333715586930244
1.46240e-05;0.0003818597013814472
1.46243e-05;0.000370382246893592
1.46245e-05;0.0003596205569451267
1.46248e-05;0.0003504239987539961
1.46250e-05;0.00034122744056286553
1.46253e-05;0.00033246884455333454
1.46255e-05;0.0003246679217466494
1.46258e-05;0.00031686699893996423
1.46260e-05;0.00030961051724425067
1.46263e-05;0.0003035445416800291
1.46265e-05;0.00029747856611580755
1.46268e-05;0.00029184858608777764
1.46270e-05;0.00028717197888317647
1.46273e-05;0.0002824953716785753
1.46275e-05;0.00027814866162359487
1.46278e-05;0.00027452332358019816
1.46280e-05;0.0002708979855368015
1.46283e-05;0.0002678320789476417
1.46285e-05;0.00026598945723376333
1.46288e-05;0.00026414683551988493
1.46290e-05;0.0002623042138060065
1.46293e-05;0.00026046159209214064
1.46295e-05;0.00025861897037826224
1.46298e-05;0.00025677634866438383
1.46300e-05;0.00025493372695051795
1.46303e-05;0.0002543607097767141
1.46305e-05;0.00025407816591012887
1.46308e-05;0.0002537956220435456
1.46310e-05;0.00025351307817696037
1.46313e-05;0.0002532305343103752
1.46315e-05;0.00025294799044379187
1.46318e-05;0.0002526654465772067
1.46320e-05;0.0002525846220739683
1.46323e-05;0.00025294488868991355
1.46325e-05;0.00025330515530586116
1.46328e-05;0.0002536654219218088
1.46330e-05;0.000254025688537754
1.46333e-05;0.0002544233247308319
1.46335e-05;0.0002548295107237224
1.46338e-05;0.0002552356967166102
1.46340e-05;0.00025564188270950074
1.46343e-05;0.0002559739227217756
1.46345e-05;0.0002561438308839815
1.46348e-05;0.0002558083081423564
1.46350e-05;0.00025436758122325185
1.46353e-05;0.0002521410029079006
1.46355e-05;0.00024819603689713786
1.46358e-05;0.00024370313943663136
1.46360e-05;0.0002376757068484066
1.46363e-05;0.0002305963672685253
1.46365e-05;0.00022248268143447027
1.46368e-05;0.00021318982485381624
1.46370e-05;0.00020247207385894623
1.46373e-05;0.0001902239437694769
1.46375e-05;0.00017651356172233588
1.46378e-05;0.00016145559680963065
1.46380e-05;0.00014516471355663867
1.46383e-05;0.00012775456643697512
1.46385e-05;0.0001093075435601945
1.46388e-05;8.980430647549685e-05
1.46390e-05;6.91623289108782e-05
1.46393e-05;4.738692536634914e-05
1.46395e-05;2.4592181244608322e-05
1.46398e-05;9.213175990261165e-07
1.46400e-05;-2.348246427471321e-05
1.46403e-05;-4.8476601677946664e-05
1.46405e-05;-7.400141653230303e-05
1.46408e-05;-9.994618990182881e-05
1.46410e-05;-0.00012611861426963498
1.46413e-05;-0.0001527888333552799
1.46415e-05;-0.0001794590524407441
1.46418e-05;-0.00020603477284653323
1.46420e-05;-0.00023240385702376153
1.46423e-05;-0.0002587729412008112
1.46425e-05;-0.0002846503290262696
1.46428e-05;-0.00030945254543256033
1.46430e-05;-0.000334254761838683
1.46433e-05;-0.0003584014353705106
1.46435e-05;-0.00038111466128746993
