Time(s);Current(A)
6.50000e-06;-0.0002031385780920556
6.50025e-06;-0.00021509052239817802
6.50050e-06;-0.0002253357965418726
6.50075e-06;-0.00023382517690361142
6.50100e-06;-0.00024050946148067878
6.50125e-06;-0.0002453452427363306
6.50150e-06;-0.00024833222042321276
6.50175e-06;-0.0002495381608973559
6.50200e-06;-0.00024904644089121
6.50225e-06;-0.00024690876665788377
6.50250e-06;-0.0002431581480838759
6.50275e-06;-0.00023782542618729595
6.50300e-06;-0.00023094147264516568
6.50325e-06;-0.00022254079803526254
6.50350e-06;-0.00021268487425873505
6.50375e-06;-0.0002014778284705898
6.50400e-06;-0.0001890335884587618
6.50425e-06;-0.00017544618357139637
6.50450e-06;-0.0001607979466631093
6.50475e-06;-0.00014516988824592276
6.50500e-06;-0.00012864297362124606
6.50525e-06;-0.0001113004553330758
6.50550e-06;-9.324249467693082e-05
6.50575e-06;-7.459595363026239e-05
6.50600e-06;-5.5493812801107255e-05
6.50625e-06;-3.605659684679902e-05
6.50650e-06;-1.639748502534948e-05
6.50675e-06;3.3711905047451665e-06
6.50700e-06;2.3137106432766503e-05
6.50725e-06;4.2786526663949546e-05
6.50750e-06;6.219513791434667e-05
6.50775e-06;8.122190539314186e-05
6.50800e-06;9.972197095200181e-05
6.50825e-06;0.00011755828887779311
6.50850e-06;0.00013459842616397156
6.50875e-06;0.00015071048425096918
6.50900e-06;0.0001657625826635146
6.50925e-06;0.00017960996687556763
6.50950e-06;0.00019203121111441672
6.50975e-06;0.0002027318317225646
6.51000e-06;0.00021150052062295012
6.51025e-06;0.00021827512118489874
6.51050e-06;0.000223056057450369
6.51075e-06;0.0002258495977623966
6.51100e-06;0.0002266620265710136
6.51125e-06;0.0002254915611694
6.51150e-06;0.0002222883891742239
6.51175e-06;0.00021695697445620437
6.51200e-06;0.0002094538609553361
6.51225e-06;0.00019982904919486617
6.51250e-06;0.00018817172389014138
6.51275e-06;0.00017457473883494452
6.51300e-06;0.00015913093722576428
6.51325e-06;0.00014192811829188967
6.51350e-06;0.00012302398631498503
6.51375e-06;0.00010244759888578442
6.51400e-06;8.026065144651329e-05
6.51425e-06;5.658336598912901e-05
6.51450e-06;3.15605055739424e-05
6.51475e-06;5.339113471888662e-06
6.51500e-06;-2.1933770710204547e-05
6.51525e-06;-5.01142870605141e-05
6.51550e-06;-7.907742500937146e-05
6.51575e-06;-0.00010886961162872003
6.51600e-06;-0.00013899643081217357
6.51625e-06;-0.000169507587094761
6.51650e-06;-0.00020025293595462033
6.51675e-06;-0.00023099828481458386
6.51700e-06;-0.0002616135209788872
6.51725e-06;-0.0002912868551899839
6.51750e-06;-0.00032096018940118117
6.51775e-06;-0.0003506335236122779
6.51800e-06;-0.0003789116714709768
6.51825e-06;-0.0004063396742662743
6.51850e-06;-0.0004321557412239531
6.51875e-06;-0.00045698958864331187
6.51900e-06;-0.000479705103405553
6.51925e-06;-0.0005011298299886166
6.51950e-06;-0.0005198240067608961
6.51975e-06;-0.0005368543459833553
6.52000e-06;-0.0005506722608982456
6.52025e-06;-0.0005625327120936749
6.52050e-06;-0.0005710968820408589
6.52075e-06;-0.0005776524907474077
6.52100e-06;-0.0005808727741826974
6.52125e-06;-0.0005820607052304499
6.52150e-06;-0.000579808042244428
6.52175e-06;-0.0005754588822362808
6.52200e-06;-0.0005676455643397719
6.52225e-06;-0.0005577213909846694
6.52250e-06;-0.0005445587880856584
6.52275e-06;-0.0005294228753953467
6.52300e-06;-0.0005113023102688876
6.52325e-06;-0.0004913630722960986
6.52350e-06;-0.00046865149167448183
6.52375e-06;-0.00044425060738891264
6.52400e-06;-0.0004173408417095323
6.52425e-06;-0.0003889023102651243
6.52450e-06;-0.00035837445339490854
6.52475e-06;-0.00032657348365825795
6.52500e-06;-0.0002931203043279334
6.52525e-06;-0.0002586603649848932
6.52550e-06;-0.0002229592633489508
6.52575e-06;-0.0001865018699141208
6.52600e-06;-0.00014924636167152502
6.52625e-06;-0.00011150452888714797
6.52650e-06;-7.350536316778585e-05
6.52675e-06;-3.5349393789816636e-05
6.52700e-06;2.6543531778310548e-06
6.52725e-06;4.028108919236816e-05
6.52750e-06;7.73197703472858e-05
6.52775e-06;0.0001135603350329718
6.52800e-06;0.00014877872897329695
6.52825e-06;0.00018273201680666588
6.52850e-06;0.00021516992174569054
6.52875e-06;0.00024584154320061666
6.52900e-06;0.00027449599160078166
6.52925e-06;0.00030092579780167196
6.52950e-06;0.00032521724565853473
6.52975e-06;0.0003478471202607189
6.53000e-06;0.00036922840132299164
6.53025e-06;0.0003889920323837101
6.53050e-06;0.0004080327332468256
6.53075e-06;0.00042521067794903944
6.53100e-06;0.0004412535678598439
6.53125e-06;0.00045523481037965514
6.53150e-06;0.0004679598054106767
6.53175e-06;0.00047920268281597414
6.53200e-06;0.0004895424443180837
6.53225e-06;0.0004983292067454266
6.53250e-06;0.0005061696622551754
6.53275e-06;0.0005140101177648976
6.53300e-06;0.0005197403875984037
6.53325e-06;0.0005241848335474515
6.53350e-06;0.0005286292794964993
6.53375e-06;0.0005314948929354092
6.53400e-06;0.0005333984580702623
6.53425e-06;0.0005353020232051154
6.53450e-06;0.0005359732873582625
6.53475e-06;0.0005358936592781329
6.53500e-06;0.0005358140311980033
6.53525e-06;0.0005341808218674262
6.53550e-06;0.0005316009508754449
6.53575e-06;0.0005290210798834636
6.53600e-06;0.0005264412088914737
6.53625e-06;0.0005238613378994924
6.53650e-06;0.0005212814669075111
6.53675e-06;0.0005185459216930591
6.53700e-06;0.0005146834314603108
6.53725e-06;0.0005108209412275493
6.53750e-06;0.000506958450994801
6.53775e-06;0.0005030959607620527
6.53800e-06;0.0004992334705292912
6.53825e-06;0.0004953709802965429
6.53850e-06;0.0004924547766522247
6.53875e-06;0.0004901151847774204
6.53900e-06;0.0004877755929026242
6.53925e-06;0.00048543600102782795
6.53950e-06;0.00048309640915302377
6.53975e-06;0.00048075681727822745
6.54000e-06;0.0004784172254034312
6.54025e-06;0.000476077633528627
6.54050e-06;0.00047427728109040686
6.54075e-06;0.0004763805498618936
6.54100e-06;0.0004784838186333874
6.54125e-06;0.0004805870874048741
6.54150e-06;0.00048269035617636794
6.54175e-06;0.0004847936249478546
6.54200e-06;0.0004868968937193413
6.54225e-06;0.0004890001624908352
6.54250e-06;0.0004911034312623219
6.54275e-06;0.0004960140039074815
6.54300e-06;0.0005026351835440717
6.54325e-06;0.0005092563631806396
6.54350e-06;0.0005158775428172074
6.54375e-06;0.0005224987224537977
6.54400e-06;0.0005291199020903655
6.54425e-06;0.0005357410817269333
6.54450e-06;0.0005423622613635236
6.54475e-06;0.0005505934960698095
6.54500e-06;0.0005598058042838556
6.54525e-06;0.0005690181124979329
6.54550e-06;0.0005782304207119788
6.54575e-06;0.0005874427289260561
6.54600e-06;0.0005966550371401022
6.54625e-06;0.0006058673453541482
6.54650e-06;0.0006150796535682255
6.54675e-06;0.0006240778390429908
6.54700e-06;0.0006329455506284715
6.54725e-06;0.0006418132622139823
6.54750e-06;0.000650680973799463
6.54775e-06;0.0006595486853849437
6.54800e-06;0.0006684163969704545
6.54825e-06;0.0006772841085559352
6.54850e-06;0.0006861518201414159
6.54875e-06;0.0006936307788671014
6.54900e-06;0.0007002635127243606
6.54925e-06;0.0007068962465816197
6.54950e-06;0.0007135289804389013
6.54975e-06;0.0007201617142961605
6.55000e-06;0.0007267944481534421
6.55025e-06;0.0007334271820107013
6.55050e-06;0.0007400599158679604
6.55075e-06;0.0007473106911115209
6.55100e-06;0.000754938064672783
6.55125e-06;0.000762565438234045
6.55150e-06;0.0007701928117953329
6.55175e-06;0.0007778201853565949
6.55200e-06;0.000785447558917857
6.55225e-06;0.0007930749324791448
6.55250e-06;0.0008007023060404069
6.55275e-06;0.000808329679601669
6.55300e-06;0.0008159570531629569
6.55325e-06;0.0008235844267242189
6.55350e-06;0.000831211800285481
6.55375e-06;0.0008390828067168766
6.55400e-06;0.0008487175017327256
6.55425e-06;0.0008583521967486073
6.55450e-06;0.0008679868917644562
6.55475e-06;0.0008776215867803052
6.55500e-06;0.0008872562817961869
6.55525e-06;0.0008968909768120358
6.55550e-06;0.0009065256718278848
6.55575e-06;0.0009161603668437665
6.55600e-06;0.0009257950618596154
6.55625e-06;0.0009354297568754644
6.55650e-06;0.0009450644518913461
6.55675e-06;0.000954699146907195
6.55700e-06;0.000962765459731959
6.55725e-06;0.0009698760920671294
6.55750e-06;0.0009769867244022756
6.55775e-06;0.000984097356737422
6.55800e-06;0.0009912079890725923
6.55825e-06;0.0009983186214077386
6.55850e-06;0.0010054292537429088
6.55875e-06;0.0010125398860780551
6.55900e-06;0.0010196505184132015
6.55925e-06;0.0010267611507483719
6.55950e-06;0.0010338717830835182
6.55975e-06;0.0010409824154186643
6.56000e-06;0.0010480930477538347
6.56025e-06;0.001055203680088981
6.56050e-06;0.0010623143124241273
6.56075e-06;0.001066473884528997
6.56100e-06;0.0010688352529169345
6.56125e-06;0.001071196621304872
6.56150e-06;0.0010735579896928177
6.56175e-06;0.0010759193580807552
6.56200e-06;0.0010782807264686927
6.56225e-06;0.001080642094856638
6.56250e-06;0.0010830034632445756
6.56275e-06;0.0010853648316325212
6.56300e-06;0.0010877262000204588
6.56325e-06;0.0010900875684083963
6.56350e-06;0.0010924489367963419
6.56375e-06;0.0010948103051842794
6.56400e-06;0.001097171673572217
6.56425e-06;0.0010995330419601625
6.56450e-06;0.0011002739983943877
6.56475e-06;0.0011000275704411446
6.56500e-06;0.0010997811424879004
6.56525e-06;0.0010995347145346572
6.56550e-06;0.001099288286581414
6.56575e-06;0.00109904185862817
6.56600e-06;0.0010987954306749266
6.56625e-06;0.0010985490027216834
6.56650e-06;0.0010983025747684394
6.56675e-06;0.001098056146815196
6.56700e-06;0.001097809718861952
6.56725e-06;0.0010975632909087088
6.56750e-06;0.0010973168629554656
6.56775e-06;0.0010970704350022214
6.56800e-06;0.0010968240070489783
6.56825e-06;0.001096577579095735
6.56850e-06;0.001096331151142491
6.56875e-06;0.0010960847231892476
6.56900e-06;0.0010958382952360045
6.56925e-06;0.0010955918672827603
6.56950e-06;0.0010953454393295172
6.56975e-06;0.0010950990113762738
6.57000e-06;0.0010948525834230298
6.57025e-06;0.0010946061554697865
6.57050e-06;0.0010943597275165434
6.57075e-06;0.0010941132995632992
6.57100e-06;0.001093866871610056
6.57125e-06;0.0010933739591300218
6.57150e-06;0.0010910967145702785
6.57175e-06;0.0010888194700105353
6.57200e-06;0.0010865422254507841
6.57225e-06;0.0010842649808910408
6.57250e-06;0.0010819877363312976
6.57275e-06;0.0010797104917715464
6.57300e-06;0.0010774332472118031
6.57325e-06;0.0010751560026520599
6.57350e-06;0.0010728787580923087
6.57375e-06;0.0010706015135325654
6.57400e-06;0.0010683242689728221
6.57425e-06;0.001066047024413071
6.57450e-06;0.0010637697798533277
6.57475e-06;0.0010614925352935844
6.57500e-06;0.0010592152907338333
6.57525e-06;0.00105693804617409
6.57550e-06;0.001054660801614339
6.57575e-06;0.0010523835570545956
6.57600e-06;0.0010501063124948523
6.57625e-06;0.0010478290679351015
6.57650e-06;0.001045551823375358
6.57675e-06;0.0010432745788156146
6.57700e-06;0.0010409973342558638
6.57725e-06;0.0010387200896961202
6.57750e-06;0.001036442845136377
6.57775e-06;0.001034165600576626
6.57800e-06;0.0010318883560168825
6.57825e-06;0.0010296592144037884
6.57850e-06;0.0010274593839164105
6.57875e-06;0.00102525955342904
6.57900e-06;0.0010230597229416694
6.57925e-06;0.0010208598924542915
6.57950e-06;0.0010168004163064622
6.57975e-06;0.0010116077807255472
6.58000e-06;0.0010064151451446499
6.58025e-06;0.0010012225095637525
6.58050e-06;0.0009960298739828375
6.58075e-06;0.000987526621117673
6.58100e-06;0.0009770060714714048
6.58125e-06;0.0009664855218251009
6.58150e-06;0.0009532727008207348
6.58175e-06;0.0009384193669216044
6.58200e-06;0.0009235660330224237
6.58225e-06;0.0009054658422899528
6.58250e-06;0.0008853872066706204
6.58275e-06;0.0008653085710512199
6.58300e-06;0.0008426956124283475
6.58325e-06;0.0008185383854113621
6.58350e-06;0.0007943811583942948
6.58375e-06;0.0007677383877831641
6.58400e-06;0.0007395810721004489
6.58425e-06;0.0007114237564178291
6.58450e-06;0.0006812918391506276
6.58475e-06;0.0006499567150254381
6.58500e-06;0.0006186215909003548
6.58525e-06;0.000586060891648995
6.58550e-06;0.0005527533985084268
6.58575e-06;0.0005194459053679715
6.58600e-06;0.0004861384122275161
6.58625e-06;0.0004524682021018279
6.58650e-06;0.0004185769734339019
6.58675e-06;0.00038468574476597584
6.58700e-06;0.000350794516097935
6.58725e-06;0.00031777583273269146
6.58750e-06;0.00028528882750451475
6.58775e-06;0.00025384898966638377
6.58800e-06;0.00022304723446484658
6.58825e-06;0.00019328185032090807
6.58850e-06;0.00016501783446311416
6.58875e-06;0.00013828910653919656
6.58900e-06;0.00011331351069740866
6.58925e-06;9.030895593636575e-05
6.58950e-06;6.948264972058373e-05
6.58975e-06;5.099705886960729e-05
6.59000e-06;3.494661428234984e-05
6.59025e-06;2.13799838549625e-05
6.59050e-06;1.0333533314154062e-05
6.59075e-06;1.842974039655298e-06
6.59100e-06;-4.056012914511114e-06
6.59125e-06;-7.327717376050245e-06
6.59150e-06;-7.943151541160925e-06
6.59175e-06;-5.901349410391677e-06
6.59200e-06;-1.2439652711437934e-06
6.59225e-06;5.958681062755321e-06
6.59250e-06;1.5628564215518466e-05
6.59275e-06;2.768725062370342e-05
6.59300e-06;4.20562919182742e-05
6.59325e-06;5.865725916633053e-05
6.59350e-06;7.740752051876456e-05
6.59375e-06;9.820688714090162e-05
6.59400e-06;0.0001209284869478064
6.59425e-06;0.00014542748351650605
6.59450e-06;0.0001715542443693619
6.59475e-06;0.00019915887771482964
6.59500e-06;0.0002284398820187834
6.59525e-06;0.0002584144990827826
6.59550e-06;0.00028979573781150305
6.59575e-06;0.00032203408961353427
6.59600e-06;0.00035427244141556543
6.59625e-06;0.0003872758031911712
6.59650e-06;0.00042074531735577917
6.59675e-06;0.00045421483152050055
6.59700e-06;0.0004876843456851085
6.59725e-06;0.0005202425779571388
6.59750e-06;0.0005522455282772676
6.59775e-06;0.0005842484785972879
6.59800e-06;0.0006162514289173082
6.59825e-06;0.0006457914832259494
6.59850e-06;0.000673830792577344
6.59875e-06;0.0007018701019287385
6.59900e-06;0.0007271259045829734
6.59925e-06;0.0007506856008568516
6.59950e-06;0.0007717462988104073
6.59975e-06;0.0007912842531688576
6.60000e-06;0.0008085761544365708
6.60025e-06;0.000824499442156059
6.60050e-06;0.0008374219160935407
6.60075e-06;0.0008485158694074676
6.60100e-06;0.0008596098227213944
6.60125e-06;0.0008668829232345949
6.60150e-06;0.000871827819249623
6.60175e-06;0.000876772715264668
6.60200e-06;0.000878359270709116
6.60225e-06;0.0008778994495904533
6.60250e-06;0.000877439628471789
6.60275e-06;0.0008738125455911861
6.60300e-06;0.0008682555184114383
6.60325e-06;0.0008626984912316717
6.60350e-06;0.0008543020949241457
6.60375e-06;0.0008441755529346007
6.60400e-06;0.0008340490109450214
6.60425e-06;0.00082172310352241
6.60450e-06;0.0008080570312829316
6.60475e-06;0.0007943909590434068
6.60500e-06;0.0007784726888841883
6.60525e-06;0.0007611820608770039
6.60550e-06;0.0007438914328697608
6.60575e-06;0.0007266008048625763
6.60600e-06;0.0007093101768553333
6.60625e-06;0.0006918224566909925
6.60650e-06;0.000672907961942844
6.60675e-06;0.0006539934671946315
6.60700e-06;0.000635078972446483
6.60725e-06;0.0006161644776983345
6.60750e-06;0.000597249982950122
6.60775e-06;0.0005798722160576488
6.60800e-06;0.0005634308413509236
6.60825e-06;0.0005469894666441426
6.60850e-06;0.0005305480919374173
6.60875e-06;0.000514106717230692
6.60900e-06;0.000497665342523911
6.60925e-06;0.0004851764774015944
6.60950e-06;0.0004750960407301313
6.60975e-06;0.000465015604058634
6.61000e-06;0.0004549351673871708
6.61025e-06;0.0004448547307156735
6.61050e-06;0.0004347742940442104
6.61075e-06;0.0004277806710863852
6.61100e-06;0.00042266797208620303
6.61125e-06;0.00041919724696192916
6.61150e-06;0.00041672704479999865
6.61175e-06;0.00041580903696203364
6.61200e-06;0.00041583684567203505
6.61225e-06;0.0004173128187186088
6.61250e-06;0.00041967121851584776
6.61275e-06;0.0004234229600669889
6.61300e-06;0.00042802372268941984
6.61325e-06;0.0004342482151340757
6.61350e-06;0.00044146211368044857
6.61375e-06;0.0004486760122268214
6.61400e-06;0.0004574969367220431
6.61425e-06;0.00046729708895429264
6.61450e-06;0.00047709724118657543
6.61475e-06;0.0004885983733809089
6.61500e-06;0.0005011359833995348
6.61525e-06;0.0005136735934182031
6.61550e-06;0.000526211203436829
6.61575e-06;0.0005387488134554548
6.61600e-06;0.0005512864234741232
6.61625e-06;0.0005646279895327444
6.61650e-06;0.0005784594394381548
6.61675e-06;0.0005922908893436121
6.61700e-06;0.0006061223392490225
6.61725e-06;0.0006199537891544329
6.61750e-06;0.0006337852390598901
6.61775e-06;0.0006467726882371093
6.61800e-06;0.0006592458526738225
6.61825e-06;0.0006717190171105779
6.61850e-06;0.000684192181547291
6.61875e-06;0.0006961991877553026
6.61900e-06;0.0007048316166994167
6.61925e-06;0.0007134640456435309
6.61950e-06;0.0007220964745876743
6.61975e-06;0.0007307289035317884
6.62000e-06;0.0007355468815199738
6.62025e-06;0.0007380405559211761
6.62050e-06;0.0007377456841305574
6.62075e-06;0.0007357516351868143
6.62100e-06;0.000731095160022065
6.62125e-06;0.0007248163578469902
6.62150e-06;0.0007156714097102534
6.62175e-06;0.0007047799996537149
6.62200e-06;0.0006906742664347371
6.62225e-06;0.0006746099124490251
6.62250e-06;0.0006556080699026376
6.62275e-06;0.0006348162934243471
6.62300e-06;0.0006114483890473983
6.62325e-06;0.0005865107428167155
6.62350e-06;0.0005591517342037006
6.62375e-06;0.0005303172888015766
6.62400e-06;0.0004991257707356311
6.62425e-06;0.00046649799027953526
6.62450e-06;0.00043196887078786583
6.62475e-06;0.00039628118635712505
6.62500e-06;0.0003592008564182407
6.62525e-06;0.000321271929659644
6.62550e-06;0.0002823294904097308
6.62575e-06;0.00024276947585310306
6.62600e-06;0.00020245673810362762
6.62625e-06;0.00016168533481189927
6.62650e-06;0.00012091393152017092
6.62675e-06;8.014252822830442e-05
6.62700e-06;3.9593869370295546e-05
6.62725e-06;-4.3337164412675255e-07
6.62750e-06;-3.972259419484468e-05
6.62775e-06;-7.810346664359797e-05
6.62800e-06;-0.0001153849010340112
6.62825e-06;-0.00015132573681158647
6.62850e-06;-0.0001856626803087762
6.62875e-06;-0.0002181303470478145
6.62900e-06;-0.00024846335572782614
6.62925e-06;-0.00027643594932427734
6.62950e-06;-0.00030209230944704373
6.62975e-06;-0.0003258404841561451
6.63000e-06;-0.00034804170114566914
6.63025e-06;-0.0003687376315785017
6.63050e-06;-0.0003872560238790695
6.63075e-06;-0.00040480246132696014
6.63100e-06;-0.00041996586608531925
6.63125e-06;-0.0004336771899305195
6.63150e-06;-0.0004451449834456473
6.63175e-06;-0.0004552457006363004
6.63200e-06;-0.00046367663028358894
6.63225e-06;-0.0004710900889447903
6.63250e-06;-0.000476821770165738
6.63275e-06;-0.0004815286744578446
6.63300e-06;-0.0004844503319358893
6.63325e-06;-0.0004862841642929681
6.63350e-06;-0.0004862155213170452
6.63375e-06;-0.0004849876210087946
6.63400e-06;-0.00048375972070054823
6.63425e-06;-0.0004808637116755938
6.63450e-06;-0.0004769512546434513
6.63475e-06;-0.00047303879761132216
6.63500e-06;-0.0004675799392619256
6.63525e-06;-0.0004611787942848658
6.63550e-06;-0.0004547776493078277
6.63575e-06;-0.00044738473144706665
6.63600e-06;-0.00043938748512675665
6.63625e-06;-0.00043139023880644665
6.63650e-06;-0.00042599471903778506
6.63675e-06;-0.0014065150844623517
6.63700e-06;-0.013677727933532646
6.63725e-06;-0.016349697420936324
6.63750e-06;-0.013817007267373173
6.63775e-06;-0.010664956349081173
6.63800e-06;-0.0021630614239172936
6.63825e-06;0.002313859162784185
6.63850e-06;0.001565329617344859
6.63875e-06;0.00016157900102305525
6.63900e-06;-0.0058636795945715995
6.63925e-06;-0.011222577862856239
6.63950e-06;-0.008117228622665775
6.63975e-06;-0.004715990411758093
6.64000e-06;-0.0005439048502755999
6.64025e-06;0.0026650744111412607
6.64050e-06;0.0028670868919056488
6.64075e-06;0.0009017201609905026
6.64100e-06;-0.002322393885807581
6.64125e-06;-0.004737542808414196
6.64150e-06;-0.004452566349543025
6.64175e-06;-0.002435221571740318
6.64200e-06;0.00024896977501352724
6.64225e-06;0.002239343207367766
6.64250e-06;0.0023514506312389983
6.64275e-06;0.0011105344564751886
6.64300e-06;-0.0009148458193110389
6.64325e-06;-0.0024300698686737306
6.64350e-06;-0.0022511397940883663
6.64375e-06;-0.000984835838169522
6.64400e-06;0.000700938234904866
6.64425e-06;0.001953520576904925
6.64450e-06;0.002030745080656789
6.64475e-06;0.001261446614470377
6.64500e-06;1.5915623992390554e-06
6.64525e-06;-0.0009380792114947938
