Time(s);Current(A)
6.80000e-06;-0.0015527354575284053
6.80025e-06;-0.0015812709600256088
6.80050e-06;-0.001606697299808181
6.80075e-06;-0.0016294994990452296
6.80100e-06;-0.0016523016982823554
6.80125e-06;-0.0016751038975194041
6.80150e-06;-0.0016979060967564526
6.80175e-06;-0.0017207082959935787
6.80200e-06;-0.001743510495230627
6.80225e-06;-0.001766312694467753
6.80250e-06;-0.0017891148937048016
6.80275e-06;-0.0018119170929418503
6.80300e-06;-0.0018325666467979252
6.80325e-06;-0.0018513993629574476
6.80350e-06;-0.0018702320791169702
6.80375e-06;-0.0018890647952765566
6.80400e-06;-0.001907897511436079
6.80425e-06;-0.0019247801976504033
6.80450e-06;-0.0019400170540663226
6.80475e-06;-0.0019552539104821906
6.80500e-06;-0.001970490766898058
6.80525e-06;-0.0019857276233139778
6.80550e-06;-0.0019990502203043347
6.80575e-06;-0.002010757177897895
6.80600e-06;-0.0020177558866050034
6.80625e-06;-0.0020207808223273544
6.80650e-06;-0.0020238057580497155
6.80675e-06;-0.002019248134845881
6.80700e-06;-0.0020082908143146715
6.80725e-06;-0.001997333493783425
6.80750e-06;-0.0019805371483295245
6.80775e-06;-0.0019588126522927566
6.80800e-06;-0.0019316813847513306
6.80825e-06;-0.0018999867895149994
6.80850e-06;-0.0018623297044546847
6.80875e-06;-0.001819640264148264
6.80900e-06;-0.0017716876142184624
6.80925e-06;-0.0017192928031544575
6.80950e-06;-0.0016623692271209407
6.80975e-06;-0.0016016233629456806
6.81000e-06;-0.001536404037322563
6.81025e-06;-0.0014674090998577343
6.81050e-06;-0.001394138366842223
6.81075e-06;-0.001317258852460673
6.81100e-06;-0.0012370873265183757
6.81125e-06;-0.0011541373351804207
6.81150e-06;-0.0010689009756824125
6.81175e-06;-0.0009817349161530037
6.81200e-06;-0.0008932459439903902
6.81225e-06;-0.0008028737254538536
6.81250e-06;-0.0007113190793592933
6.81275e-06;-0.0006190760611362187
6.81300e-06;-0.0005266957325586104
6.81325e-06;-0.0004347290725726647
6.81350e-06;-0.00034372697918813464
6.81375e-06;-0.0002542004703259276
6.81400e-06;-0.00016655087748746744
6.81425e-06;-8.112540282306888e-05
6.81450e-06;1.6320331236993813e-06
6.81475e-06;8.116074646111663e-05
6.81500e-06;0.0001568644388533181
6.81525e-06;0.0002281468847229631
6.81550e-06;0.0002944119676880363
6.81575e-06;0.00035552546674105524
6.81600e-06;0.00041268445981729136
6.81625e-06;0.0004679191148654334
6.81650e-06;0.0005223922150732186
6.81675e-06;0.0005756517549130511
6.81700e-06;0.0006281099250159603
6.81725e-06;0.0006785021045477549
6.81750e-06;0.0007271505832438776
6.81775e-06;0.0007735755099945813
6.81800e-06;0.0008181237537446189
6.81825e-06;0.0008626719974945057
6.81850e-06;0.000907183277532261
6.81875e-06;0.0009516633601113688
6.81900e-06;0.000996143442690326
6.81925e-06;0.0010393821790171361
6.81950e-06;0.0010815732162268406
6.81975e-06;0.0011237642534365452
6.82000e-06;0.0011659552906463926
6.82025e-06;0.0012077238967052794
6.82050e-06;0.0012491359698928095
6.82075e-06;0.00129054804308048
6.82100e-06;0.00133196011626801
6.82125e-06;0.001372662608237556
6.82150e-06;0.0014127662120129944
6.82175e-06;0.001452869815788297
6.82200e-06;0.001492176989931167
6.82225e-06;0.0015308119756166465
6.82250e-06;0.0015691683919086801
6.82275e-06;0.0016072896949864673
6.82300e-06;0.0016446492173087
6.82325e-06;0.0016813657949056625
6.82350e-06;0.0017171740942338158
6.82375e-06;0.0017515017199706518
6.82400e-06;0.0017845937595920612
6.82425e-06;0.0018166059207300356
6.82450e-06;0.0018475603353488477
6.82475e-06;0.0018772916066582396
6.82500e-06;0.001905574757124661
6.82525e-06;0.001932184692798954
6.82550e-06;0.001956896518976299
6.82575e-06;0.0019794292404541774
6.82600e-06;0.0019993626657134216
6.82625e-06;0.002016250877541426
6.82650e-06;0.0020298460914131605
6.82675e-06;0.0020400983855253926
6.82700e-06;0.0020470143660062407
6.82725e-06;0.0020506009506018295
6.82750e-06;0.0020499492307439163
6.82775e-06;0.002047005203670225
6.82800e-06;0.0020402362688879405
6.82825e-06;0.0020302391031260525
6.82850e-06;0.002015489811824377
6.82875e-06;0.00199672971554261
6.82900e-06;0.001977969619260843
6.82925e-06;0.001954133657190163
6.82950e-06;0.0019260136526181883
6.82975e-06;0.0018978936480462142
6.83000e-06;0.0018652421638334143
6.83025e-06;0.0018287661002913463
6.83050e-06;0.0017922900367492783
6.83075e-06;0.001751000449050308
6.83100e-06;0.0017056482357962928
6.83125e-06;0.0016602960225422778
6.83150e-06;0.001614943809288109
6.83175e-06;0.0015695915960340938
6.83200e-06;0.0015240056966451406
6.83225e-06;0.0014731288143792105
6.83250e-06;0.0014222519321132803
6.83275e-06;0.0013713750498471776
6.83300e-06;0.0013204981675812473
6.83325e-06;0.001269621285315317
6.83350e-06;0.0012190403394471343
6.83375e-06;0.0011687091645854945
6.83400e-06;0.0011195134480409005
6.83425e-06;0.0010712760609498156
6.83450e-06;0.001024813610709099
6.83475e-06;0.0009798492112875114
6.83500e-06;0.0009373816143445126
6.83525e-06;0.0008970213244858584
6.83550e-06;0.0008598718428161768
6.83575e-06;0.0008254322907063716
6.83600e-06;0.0007946598324039014
6.83625e-06;0.0007669824097815889
6.83650e-06;0.0007431017854014301
6.83675e-06;0.0007224256675453746
6.83700e-06;0.0007046902323730574
6.83725e-06;0.0006914496368734487
6.83750e-06;0.00068196012708644
6.83775e-06;0.0006762780097901501
6.83800e-06;0.0006743987601243675
6.83825e-06;0.0006762407760458795
6.83850e-06;0.0006816936698159177
6.83875e-06;0.0006915737947611005
6.83900e-06;0.0007038147494358808
6.83925e-06;0.0007196189617685233
6.83950e-06;0.0007384305718301986
6.83975e-06;0.0007605707468086628
6.84000e-06;0.000785520238298426
6.84025e-06;0.0008134088973070141
6.84050e-06;0.0008437782205197704
6.84075e-06;0.0008771897424694738
6.84100e-06;0.0009131688872103236
6.84125e-06;0.0009491480319512952
6.84150e-06;0.0009875492941642623
6.84175e-06;0.0010279948291423242
6.84200e-06;0.001069817428118878
6.84225e-06;0.00111280227230429
6.84250e-06;0.0011565944784584338
6.84275e-06;0.0012010680999871802
6.84300e-06;0.0012457942174452408
6.84325e-06;0.0012907141868319589
6.84350e-06;0.001335457991730732
6.84375e-06;0.0013797622814961732
6.84400e-06;0.0014233488586250878
6.84425e-06;0.0014659205476412846
6.84450e-06;0.0015071729717200254
6.84475e-06;0.0015468047490147
6.84500e-06;0.0015845162600732524
6.84525e-06;0.001620007871554289
6.84550e-06;0.0016529801001183046
6.84575e-06;0.0016832033592582417
6.84600e-06;0.0017106658771904781
6.84625e-06;0.0017355352818203122
6.84650e-06;0.0017572119175755928
6.84675e-06;0.0017771591591016899
6.84700e-06;0.0017941929909132935
6.84725e-06;0.0018087678981677212
6.84750e-06;0.0018202338762942653
6.84775e-06;0.0018290759110253555
6.84800e-06;0.0018342906092463668
6.84825e-06;0.0018364438270388778
6.84850e-06;0.0018385970448313962
6.84875e-06;0.0018368241334768653
6.84900e-06;0.0018317375600151566
6.84925e-06;0.001826650986553465
6.84950e-06;0.0018165432749843162
6.84975e-06;0.0018021977112054402
6.85000e-06;0.0017878521474266127
6.85025e-06;0.0017735065836477853
6.85050e-06;0.001759161019868909
6.85075e-06;0.0017444520912546335
6.85100e-06;0.0017215160715468307
6.85125e-06;0.0016985800518389503
6.85150e-06;0.0016756440321311476
6.85175e-06;0.0016527080124233448
6.85200e-06;0.0016297719927154644
6.85225e-06;0.0016047949348306028
6.85250e-06;0.0015780952359900245
6.85275e-06;0.0015513955371493555
6.85300e-06;0.0015243145428346448
6.85325e-06;0.001496911734255246
6.85350e-06;0.0014695089256759404
6.85375e-06;0.0014425356874103114
6.85400e-06;0.0014159250074857331
6.85425e-06;0.001389314327561245
6.85450e-06;0.0013651089605521746
6.85475e-06;0.0013429336832227886
6.85500e-06;0.001320758405893478
6.85525e-06;0.001298583128564167
6.85550e-06;0.001276407851234781
6.85575e-06;0.0012544772535701162
6.85600e-06;0.001238086547750287
6.85625e-06;0.0012216958419304022
6.85650e-06;0.0012053051361105727
6.85675e-06;0.0011889144302907435
6.85700e-06;0.0011725237244708587
6.85725e-06;0.001158796651583545
6.85750e-06;0.001147317691069436
6.85775e-06;0.0011358387305553657
6.85800e-06;0.0011243597700412956
6.85825e-06;0.0011128808095271865
6.85850e-06;0.0011014018490131164
6.85875e-06;0.0010899228884990462
6.85900e-06;0.0010784439279849373
6.85925e-06;0.001066964967470867
6.85950e-06;0.001055486006956797
6.85975e-06;0.0010440070464426878
6.86000e-06;0.0010325280859286177
6.86025e-06;0.001021196875045233
6.86050e-06;0.0010132109236662655
6.86075e-06;0.001005224972287325
6.86100e-06;0.0009972390209083846
6.86125e-06;0.0009892530695294172
6.86150e-06;0.0009812671181504767
6.86175e-06;0.0009732811667715091
6.86200e-06;0.0009652952153925687
6.86225e-06;0.0009573092640136282
6.86250e-06;0.0009493233126346607
6.86275e-06;0.0009413373612557202
6.86300e-06;0.0009333514098767798
6.86325e-06;0.0009253654584978122
6.86350e-06;0.0009187097497139673
6.86375e-06;0.0009131767687656947
6.86400e-06;0.0009076437878174032
6.86425e-06;0.0009021108068691306
6.86450e-06;0.0008965778259208578
6.86475e-06;0.0008910448449725664
6.86500e-06;0.0008855118640242938
6.86525e-06;0.0008799788830760211
6.86550e-06;0.0008744459021277297
6.86575e-06;0.000871096557998571
6.86600e-06;0.0008695902084093041
6.86625e-06;0.0008680838588200424
6.86650e-06;0.0008665775092307806
6.86675e-06;0.0008650711596415138
6.86700e-06;0.000863564810052252
6.86725e-06;0.0008620584604629903
6.86750e-06;0.0008605521108737234
6.86775e-06;0.0008590457612844617
6.86800e-06;0.0008607797357897899
6.86825e-06;0.0008652485513462219
6.86850e-06;0.0008697173669026389
6.86875e-06;0.0008741861824590558
6.86900e-06;0.0008786549980154878
6.86925e-06;0.0008831238135719047
6.86950e-06;0.0008875926291283217
6.86975e-06;0.0008920614446847537
6.87000e-06;0.0008965302602411706
6.87025e-06;0.000903439462933172
6.87050e-06;0.0009124083580274342
6.87075e-06;0.0009213772531216964
6.87100e-06;0.000930346148215989
6.87125e-06;0.0009393150433102512
6.87150e-06;0.0009482839384045135
6.87175e-06;0.0009572528334988061
6.87200e-06;0.0009662217285930683
6.87225e-06;0.0009751906236873305
6.87250e-06;0.0009848189352125373
6.87275e-06;0.0009950037957347309
6.87300e-06;0.0010051886562569246
6.87325e-06;0.0010153735167791526
6.87350e-06;0.0010255583773013462
6.87375e-06;0.0010357432378235397
6.87400e-06;0.0010459280983457677
6.87425e-06;0.0010550313204729838
6.87450e-06;0.0010632216372863442
6.87475e-06;0.0010714119540996768
6.87500e-06;0.0010796022709130095
6.87525e-06;0.00108779258772637
6.87550e-06;0.0010959829045397028
6.87575e-06;0.0011041732213530355
6.87600e-06;0.0011103941952778547
6.87625e-06;0.00111495303923751
6.87650e-06;0.0011195118831971657
6.87675e-06;0.0011240707271568367
6.87700e-06;0.0011286295711164921
6.87725e-06;0.0011331884150761477
6.87750e-06;0.0011377472590358186
6.87775e-06;0.0011423061029954742
6.87800e-06;0.0011468649469551296
6.87825e-06;0.0011514237909148006
6.87850e-06;0.0011559826348744562
6.87875e-06;0.001160541478834127
6.87900e-06;0.0011651003227937827
6.87925e-06;0.001169659166753438
6.87950e-06;0.001174218010713109
6.87975e-06;0.0011787768546727647
6.88000e-06;0.0011833356986324201
6.88025e-06;0.0011878062309127494
6.88050e-06;0.0011902772625338477
6.88075e-06;0.001192748294154946
6.88100e-06;0.0011952193257760526
6.88125e-06;0.0011976903573971509
6.88150e-06;0.0012001613890182492
6.88175e-06;0.001202632420639356
6.88200e-06;0.0012051034522604543
6.88225e-06;0.0012075744838815526
6.88250e-06;0.001210045515502659
6.88275e-06;0.0012125165471237574
6.88300e-06;0.001214987578744864
6.88325e-06;0.0012174586103659622
6.88350e-06;0.0012199296419870605
6.88375e-06;0.0012224006736081673
6.88400e-06;0.0012248717052292656
6.88425e-06;0.001227342736850364
6.88450e-06;0.0012298137684714704
6.88475e-06;0.001231845149722912
6.88500e-06;0.0012335054650428078
6.88525e-06;0.0012350380330159248
6.88550e-06;0.0012364627819321037
6.88575e-06;0.0012372189011720816
6.88600e-06;0.0012374106954147921
6.88625e-06;0.0012353016169482074
6.88650e-06;0.0012312505965792738
6.88675e-06;0.001224630329905175
6.88700e-06;0.0012158416133915115
6.88725e-06;0.0012042068593936233
6.88750e-06;0.0011901700431592335
6.88775e-06;0.0011761332269248435
6.88800e-06;0.0011588344393771422
6.88825e-06;0.0011387825404767227
6.88850e-06;0.0011149208118615458
6.88875e-06;0.001087843578132191
6.88900e-06;0.001060766344402928
6.88925e-06;0.001029963562010508
6.88950e-06;0.0009960164079069252
6.88975e-06;0.0009620692538034574
6.89000e-06;0.0009246991526302788
6.89025e-06;0.00088444007619254
6.89050e-06;0.0008441809997549375
6.89075e-06;0.0008009684774716466
6.89100e-06;0.0007552632400456281
6.89125e-06;0.0007095580026197643
6.89150e-06;0.0006621170700632471
6.89175e-06;0.0006132112067918419
6.89200e-06;0.0005643053435204366
6.89225e-06;0.0005143643490008024
6.89250e-06;0.0004635497013076154
6.89275e-06;0.0004127350536144284
6.89300e-06;0.0003621090229162602
6.89325e-06;0.0003116421853995848
6.89350e-06;0.00026117534788290943
6.89375e-06;0.000211582521180516
6.89400e-06;0.00016335034696384151
6.89425e-06;0.00011636020492067435
6.89450e-06;7.084099924153727e-05
6.89475e-06;2.7097280289134843e-05
6.89500e-06;-1.4543148392872798e-05
6.89525e-06;-5.375253298903771e-05
6.89550e-06;-9.020316045689547e-05
6.89575e-06;-0.000123473530893278
6.89600e-06;-0.0001529057417862383
6.89625e-06;-0.0001777865826976464
6.89650e-06;-0.00019771932097459712
6.89675e-06;-0.00021262956790824114
6.89700e-06;-0.0002225361045918374
6.89725e-06;-0.0002274577636658068
6.89750e-06;-0.00022741341230373487
6.89775e-06;-0.00022236318013105246
6.89800e-06;-0.00021211912291006947
6.89825e-06;-0.00019645869230054084
6.89850e-06;-0.00017535761169053466
6.89875e-06;-0.0001489935095617963
6.89900e-06;-0.00011760236371758905
6.89925e-06;-8.142017896558656e-05
6.89950e-06;-4.0682980094690425e-05
6.89975e-06;4.410025825476892e-06
6.90000e-06;5.375237791596893e-05
6.90025e-06;0.0001072592922425918
6.90050e-06;0.00016472180790910582
6.90075e-06;0.00022580448280628843
6.90100e-06;0.00029013533088601137
6.90125e-06;0.00035734241554882893
6.90150e-06;0.0004275973752571714
6.90175e-06;0.0004993794119416249
6.90200e-06;0.000572652149998146
6.90225e-06;0.0006479711817830535
6.90250e-06;0.0007245228334142988
6.90275e-06;0.0008018730017871946
6.90300e-06;0.0008795646669902355
6.90325e-06;0.0009571409402990859
6.90350e-06;0.0010341449399350728
6.90375e-06;0.0011101342610154877
6.90400e-06;0.0011847028919432108
6.90425e-06;0.001257453406228747
6.90450e-06;0.0013279397668225675
6.90475e-06;0.001395666291446765
6.90500e-06;0.001460122964576872
6.90525e-06;0.001520799833819399
6.90550e-06;0.0015771870631968428
6.90575e-06;0.0016289849097595077
6.90600e-06;0.001676516741881859
6.90625e-06;0.001720545221258398
6.90650e-06;0.0017615135190130761
6.90675e-06;0.001799350840486628
6.90700e-06;0.001833818068608165
6.90725e-06;0.0018646760863067539
6.90750e-06;0.0018906137972925603
6.90775e-06;0.0019138352779527008
6.90800e-06;0.001933350728220145
6.90825e-06;0.0019497382802430789
6.90850e-06;0.0019623945280797255
6.90875e-06;0.0019719015465316466
6.90900e-06;0.001981408564983536
6.90925e-06;0.0019862393213607747
6.90950e-06;0.0019871233017045137
6.90975e-06;0.0019880072820482528
6.91000e-06;0.0019838995682225887
6.91025e-06;0.0019755788529442018
6.91050e-06;0.0019672581376658145
6.91075e-06;0.0019589374223873994
6.91100e-06;0.0019506167071090123
6.91125e-06;0.001937812921707565
6.91150e-06;0.001921225414727805
6.91175e-06;0.0019046379077481011
6.91200e-06;0.0018880504007683973
6.91225e-06;0.001871462893788637
6.91250e-06;0.001852908319673504
6.91275e-06;0.001832693536335295
6.91300e-06;0.0018124787529970173
6.91325e-06;0.0017916855975181486
6.91350e-06;0.0017704042946115035
6.91375e-06;0.0017491229917049307
6.91400e-06;0.0017280007179886867
6.91425e-06;0.0017070126652777248
6.91450e-06;0.001687026220790062
6.91475e-06;0.0016678851359650626
6.91500e-06;0.0016487440511399987
6.91525e-06;0.0016307304174068558
6.91550e-06;0.0016143628687539282
6.91575e-06;0.0015989257494200219
6.91600e-06;0.0015829299978920538
6.91625e-06;0.0015642170078860394
6.91650e-06;0.0015415611327651
6.91675e-06;0.0015139963868453005
6.91700e-06;0.0014838944696268835
6.91725e-06;0.0014504102306986694
6.91750e-06;0.0014140713044057136
6.91775e-06;0.0013742998349972368
6.91800e-06;0.0013316312912412286
6.91825e-06;0.0012836923408230073
6.91850e-06;0.0012313051549624045
6.91875e-06;0.0011738384732263847
6.91900e-06;0.001112084685194747
6.91925e-06;0.0010462766155703918
6.91950e-06;0.0009770467228825198
6.91975e-06;0.0009042856119603123
6.92000e-06;0.0008285441446611158
6.92025e-06;0.0007496879243169252
6.92050e-06;0.0006661769433479378
6.92075e-06;0.0005785156708172356
6.92100e-06;0.0004887946733235215
6.92125e-06;0.0003972316613622375
6.92150e-06;0.0003032848266706742
6.92175e-06;0.00020800275818439492
6.92200e-06;0.000111535510557233
6.92225e-06;1.3868607288512097e-05
6.92250e-06;-8.483725275084769e-05
6.92275e-06;-0.00018395555695724188
6.92300e-06;-0.0002826387565961789
6.92325e-06;-0.0003809547336801637
6.92350e-06;-0.00047756490726053713
6.92375e-06;-0.0005727353787285462
6.92400e-06;-0.0006653839764704435
6.92425e-06;-0.0007559041069411453
6.92450e-06;-0.0008430491127352579
6.92475e-06;-0.0009273455054778023
6.92500e-06;-0.0010069301455101977
6.92525e-06;-0.0010825380553311716
6.92550e-06;-0.0011522771314569405
6.92575e-06;-0.0012170628983381193
6.92600e-06;-0.0012778765655431874
6.92625e-06;-0.001335337771413295
6.92650e-06;-0.0013909937213491229
6.92675e-06;-0.0014451260310913948
6.92700e-06;-0.0014959314594311197
6.92725e-06;-0.0015439289921539705
6.92750e-06;-0.001591926524876821
6.92775e-06;-0.0016357358680414954
6.92800e-06;-0.00167601036950924
6.92825e-06;-0.0017162848709769845
6.92850e-06;-0.0017524932104855582
6.92875e-06;-0.0017852696998737559
6.92900e-06;-0.0018180461892619536
6.92925e-06;-0.0018508226786502623
6.92950e-06;-0.00188359916803846
6.92975e-06;-0.0019163756574266575
6.93000e-06;-0.0019491521468149662
6.93025e-06;-0.001981928636203164
6.93050e-06;-0.0020147051255914724
6.93075e-06;-0.0020474816149796704
6.93100e-06;-0.0020752966145904266
6.93125e-06;-0.0020989241053270507
6.93150e-06;-0.002122551596063595
6.93175e-06;-0.002146179086800139
6.93200e-06;-0.002169806577536763
6.93225e-06;-0.0021934340682733073
6.93250e-06;-0.0022170615590098516
6.93275e-06;-0.0022406890497464757
6.93300e-06;-0.0022643165404830196
6.93325e-06;-0.002287944031219564
6.93350e-06;-0.0023084431482087732
6.93375e-06;-0.0023263019105028275
6.93400e-06;-0.0023441606727968817
6.93425e-06;-0.002362019435090996
6.93450e-06;-0.00237987819738505
6.93475e-06;-0.002395468707208123
6.93500e-06;-0.0024091448066873218
6.93525e-06;-0.00242282090616652
6.93550e-06;-0.002436497005645765
6.93575e-06;-0.0024501731051249634
6.93600e-06;-0.002457827825361497
6.93625e-06;-0.0024604004875585592
6.93650e-06;-0.0024629731497556127
6.93675e-06;-0.002465545811952666
6.93700e-06;-0.002468118474149728
6.93725e-06;-0.0024706911363467816
6.93750e-06;-0.0024642388446419142
6.93775e-06;-0.0024501694709224723
6.93800e-06;-0.002436100097203078
6.93825e-06;-0.002422030723483684
6.93850e-06;-0.002407961349764242
6.93875e-06;-0.002393891976044848
6.93900e-06;-0.002370319983646518
6.93925e-06;-0.0023387277590549735
6.93950e-06;-0.0023071355344634285
6.93975e-06;-0.0022755433098717768
6.94000e-06;-0.002243951085280232
6.94025e-06;-0.0022123588606886876
6.94050e-06;-0.002180766636097036
6.94075e-06;-0.0021421590082815554
6.94100e-06;-0.0020976303638826363
6.94125e-06;-0.0020531017194835664
6.94150e-06;-0.002008573075084647
6.94175e-06;-0.001964044430685728
6.94200e-06;-0.0019195157862866579
6.94225e-06;-0.0018749871418877386
6.94250e-06;-0.0018282983231782271
6.94275e-06;-0.0017797863123429516
6.94300e-06;-0.0017312743015078405
6.94325e-06;-0.0016832201651100509
6.94350e-06;-0.0016355524757990431
6.94375e-06;-0.0015878847864880356
6.94400e-06;-0.0015419053487049264
6.94425e-06;-0.0014973507991251074
6.94450e-06;-0.0014527962495452882
6.94475e-06;-0.0014106026216098707
6.94500e-06;-0.0013704016170153063
6.94525e-06;-0.0013328787296437625
6.94550e-06;-0.0012976161794162992
6.94575e-06;-0.0012642955340644183
6.94600e-06;-0.0012326138609288098
