Time(s);Current(A)
0.00000e+00;-4.456878624900907e-21
2.50000e-10;-2.4297693731582166e-15
5.00000e-10;-2.3283063956808063e-15
7.50000e-10;3.7698148323979176e-07
1.00000e-09;2.524898945969092e-06
1.25000e-09;7.477186025740107e-06
1.50000e-09;1.424396111833009e-05
1.75000e-09;2.1427063533470104e-05
2.00000e-09;2.8616658299021328e-05
2.25000e-09;3.5776709009911584e-05
2.50000e-09;4.287119038600838e-05
2.75000e-09;5.0100197107809205e-05
3.00000e-09;5.830080917924956e-05
3.25000e-09;6.808421477766254e-05
3.50000e-09;7.879418941579177e-05
3.75000e-09;8.951884390604092e-05
4.00000e-09;9.996542249175376e-05
4.25000e-09;0.0001099328360444459
4.50000e-09;0.00011972574748620981
4.75000e-09;0.00012932989035276015
5.00000e-09;0.00013884893838790496
5.25000e-09;0.00014885841510041143
5.50000e-09;0.00015908897175468962
5.75000e-09;0.00016852476403507246
6.00000e-09;0.0001776022851343158
6.25000e-09;0.00018583644985591122
6.50000e-09;0.00019305969046556464
6.75000e-09;0.00019927094528013732
7.00000e-09;0.0002043348339953845
7.25000e-09;0.00020802888242070903
7.50000e-09;0.00020992820715247466
7.75000e-09;0.00020971446958178646
8.00000e-09;0.00020735414555796738
8.25000e-09;0.00020290556269162045
8.50000e-09;0.00019642601744227506
8.75000e-09;0.000187944074049771
9.00000e-09;0.00017747881030791217
9.25000e-09;0.00016499478413820683
9.50000e-09;0.000150329746786117
9.75000e-09;0.00013338822459710536
1.00000e-08;0.00011425313616257246
1.02500e-08;9.306495888977653e-05
1.05000e-08;6.996349992008109e-05
1.07500e-08;4.5070565153603604e-05
1.10000e-08;1.8502009438820466e-05
1.12500e-08;-9.660473879292119e-06
1.15000e-08;-3.941460523776881e-05
1.17500e-08;-7.071629312332232e-05
1.20000e-08;-0.00010340969097814829
1.22500e-08;-0.00013730290601571323
1.25000e-08;-0.00017247117753960573
1.27500e-08;-0.00020805452473815887
1.30000e-08;-0.00024467038556542155
1.32500e-08;-0.00028175169236566773
1.35000e-08;-0.0003188329991659137
1.37500e-08;-0.0003559587932486118
1.40000e-08;-0.0003932751342682465
1.42500e-08;-0.00043059147528788096
1.45000e-08;-0.0004679078163075157
1.47500e-08;-0.0005038122315900528
1.50000e-08;-0.0005390801660260314
1.52500e-08;-0.0005743481004620099
1.55000e-08;-0.0006075652106083299
1.57500e-08;-0.0006398578313528865
1.60000e-08;-0.0006698313562147683
1.62500e-08;-0.0006987594577432042
1.65000e-08;-0.0007247154077216485
1.67500e-08;-0.0007493315439372756
1.70000e-08;-0.0007706189899786177
1.72500e-08;-0.0007904058985027289
1.75000e-08;-0.0008068410671209779
1.77500e-08;-0.0008217653076523778
1.80000e-08;-0.000833224003989635
1.82500e-08;-0.0008431204704981428
1.85000e-08;-0.0008493961431409046
1.87500e-08;-0.0008540396010826156
1.90000e-08;-0.0008550926771629932
1.92500e-08;-0.0008545272479448798
1.95000e-08;-0.0008506107608843278
1.97500e-08;-0.0008451836532037388
2.00000e-08;-0.0008365880399499437
2.02500e-08;-0.0008265640986640354
2.05000e-08;-0.0008135281051178597
2.07500e-08;-0.0007991343110003643
2.10000e-08;-0.0007814011811696594
2.12500e-08;-0.0007621627149279521
2.15000e-08;-0.0007429242486862446
2.17500e-08;-0.0007204601172816822
2.20000e-08;-0.0006965418909204075
2.22500e-08;-0.0006726236645591328
2.25000e-08;-0.000646293274092356
2.27500e-08;-0.0006188755061441954
2.30000e-08;-0.0005914577381960349
2.32500e-08;-0.0005625413331381614
2.35000e-08;-0.0005329493586850922
2.37500e-08;-0.0005033573842320229
2.40000e-08;-0.0004737654097789532
2.42500e-08;-0.0004442507993727295
2.45000e-08;-0.00041477106384181663
2.47500e-08;-0.00038529132831090375
2.50000e-08;-0.0003558115927799905
2.52500e-08;-0.00032766787907090273
2.55000e-08;-0.00030012642954457786
2.57500e-08;-0.0002737482191263526
2.60000e-08;-0.0002488535660932302
2.62500e-08;-0.0002254874178721792
2.65000e-08;-0.00020384789557129608
2.67500e-08;-0.00018407677641727341
2.70000e-08;-0.00016618195998235405
2.72500e-08;-0.00015010235468544087
2.75000e-08;-0.00013583030383236634
2.77500e-08;-0.00012341384436723884
2.80000e-08;-0.00011291148908943542
2.82500e-08;-0.00010438088816552042
2.85000e-08;-9.787929506984993e-05
2.87500e-08;-9.342866617798346e-05
2.90000e-08;-9.096711208042654e-05
2.92500e-08;-9.038951958988635e-05
2.95000e-08;-9.162425065578285e-05
2.97500e-08;-9.46345525587936e-05
3.00000e-08;-9.939025154875026e-05
3.02500e-08;-0.00010586062076304652
3.05000e-08;-0.00011401468582845304
3.07500e-08;-0.00012379935727828946
3.10000e-08;-0.00013510903647702573
3.12500e-08;-0.00014781106240960445
3.15000e-08;-0.00016179373328101135
3.17500e-08;-0.00017696721623528805
3.20000e-08;-0.00019358780957066244
3.22500e-08;-0.00021069764590595638
3.25000e-08;-0.0002290496400995879
3.27500e-08;-0.0002479615856167628
3.30000e-08;-0.0002679172720615506
3.32500e-08;-0.0002883434656241973
3.35000e-08;-0.000308769659186844
3.37500e-08;-0.0003296979539616011
3.40000e-08;-0.0003508525905305084
3.42500e-08;-0.0003720072270994157
3.45000e-08;-0.00039316186366832354
3.47500e-08;-0.0004140298505857551
3.50000e-08;-0.0004336700661030872
3.52500e-08;-0.00045331028162041927
3.55000e-08;-0.0004729504971377514
3.57500e-08;-0.0004925907126550835
3.60000e-08;-0.0005098510617760854
3.62500e-08;-0.000526038592873567
3.65000e-08;-0.0005422261239710487
3.67500e-08;-0.0005560768589713251
3.70000e-08;-0.0005688741915729469
3.72500e-08;-0.0005795479197054831
3.75000e-08;-0.0005892643499187857
3.77500e-08;-0.0005967790994617
3.80000e-08;-0.0006033013551785454
3.82500e-08;-0.0006075502935048457
3.85000e-08;-0.0006107744449466732
3.87500e-08;-0.0006116719376260995
3.90000e-08;-0.0006115205977077245
3.92500e-08;-0.0006090945361505794
3.95000e-08;-0.0006056430546890544
3.97500e-08;-0.0006000418698021503
4.00000e-08;-0.0005934716218688817
4.02500e-08;-0.0005844033902028821
4.05000e-08;-0.0005742090944960336
4.07500e-08;-0.0005640147987891852
4.10000e-08;-0.0005511522575957891
4.12500e-08;-0.0005370869002049979
4.15000e-08;-0.0005230215428142067
4.17500e-08;-0.0005068237208167205
4.20000e-08;-0.0004896646068458245
4.22500e-08;-0.0004725054928749289
4.25000e-08;-0.00045379161533015146
4.27500e-08;-0.0004343768671873676
4.30000e-08;-0.00041496211904458376
4.32500e-08;-0.0003945946369612271
4.35000e-08;-0.0003737976727251571
4.37500e-08;-0.0003530007084890876
4.40000e-08;-0.00033220374425301815
4.42500e-08;-0.00031153478225781736
4.45000e-08;-0.0002909235222879347
4.47500e-08;-0.00027031226231805203
4.50000e-08;-0.0002497010023481688
4.52500e-08;-0.00023005332246467204
4.55000e-08;-0.00021084001405907528
4.57500e-08;-0.00019243764395782156
4.60000e-08;-0.00017506886704216724
4.62500e-08;-0.00015876479123330607
4.65000e-08;-0.00014365659654731424
4.67500e-08;-0.00012926268786022667
4.70000e-08;-0.00011387182504602192
4.72500e-08;-9.562187165318864e-05
4.75000e-08;-7.380005959006258e-05
4.77500e-08;-4.854570645903032e-05
4.80000e-08;-2.0174248000720844e-05
4.82500e-08;1.099890634187271e-05
4.85000e-08;4.466302077267781e-05
4.87500e-08;8.089118684526774e-05
4.90000e-08;0.00012052670517024298
4.92500e-08;0.00016450730757472154
4.95000e-08;0.00021305069300229997
4.97500e-08;0.00026584081341546724
5.00000e-08;0.00032245131323714767
5.02500e-08;0.0003824558805460152
5.05000e-08;0.0004454311959977605
5.07500e-08;0.0005111943263238413
5.10000e-08;0.0005800448500600266
5.12500e-08;0.0006534679162624357
5.15000e-08;0.0007284993956173835
5.17500e-08;0.0008073534392473046
5.20000e-08;0.000887930653495783
5.22500e-08;0.000970964499710219
5.25000e-08;0.0010551057690364291
5.27500e-08;0.0011403891335046135
5.30000e-08;0.0012269300690532065
5.32500e-08;0.0013145244719939178
5.35000e-08;0.0014028857764483032
5.37500e-08;0.001491518089277496
5.40000e-08;0.0015798822911261155
5.42500e-08;0.0016674393428815395
5.45000e-08;0.0017536515254877958
5.47500e-08;0.0018380752617031312
5.50000e-08;0.0019204564771973635
5.52500e-08;0.002000564339869138
5.55000e-08;0.00207799112048983
5.57500e-08;0.0021521977767037974
5.60000e-08;0.0022226179039001597
5.62500e-08;0.0022886859880359768
5.65000e-08;0.0023498393564217717
5.67500e-08;0.0024058105914874723
5.70000e-08;0.002456977635499368
5.72500e-08;0.0025039417096311993
5.75000e-08;0.00254689927636669
5.77500e-08;0.0025856966231444256
5.80000e-08;0.0026201040342594987
5.82500e-08;0.0026498916177262436
5.85000e-08;0.0026731508189048593
5.87500e-08;0.0026941242032852003
5.90000e-08;0.00270906919015757
5.92500e-08;0.0027212966406550184
5.95000e-08;0.0027270194796369623
5.97500e-08;0.002729810110121583
6.00000e-08;0.002732600740606204
6.02500e-08;0.0027275835369798885
6.05000e-08;0.00271904664620989
6.07500e-08;0.002710509755439892
6.10000e-08;0.0026935718119145695
6.12500e-08;0.00267284676469875
6.15000e-08;0.002652121717482932
6.17500e-08;0.0026313966702671125
6.20000e-08;0.0026106716230512943
6.22500e-08;0.0025825143634135195
6.25000e-08;0.0025510067428255747
6.27500e-08;0.002519499122237631
6.30000e-08;0.0024879915016496864
6.32500e-08;0.002456483881061743
6.35000e-08;0.002421917438723365
6.37500e-08;0.0023859721126335076
6.40000e-08;0.0023500267865436486
6.42500e-08;0.002313515749026058
6.45000e-08;0.0022767496949173214
6.47500e-08;0.002240290328620893
6.50000e-08;0.0022039692138721783
6.52500e-08;0.0021689183419462974
6.55000e-08;0.002134440081742103
6.57500e-08;0.0021049043740756536
6.60000e-08;0.0020775967156193877
6.62500e-08;0.002050289057163123
6.65000e-08;0.002022981398706857
6.67500e-08;0.0019956737402505925
6.70000e-08;0.0019683660817943266
6.72500e-08;0.0019410584233380608
6.75000e-08;0.0019178970685546654
6.77500e-08;0.0018966048226078409
6.80000e-08;0.0018753125766610174
6.82500e-08;0.0018540203307141929
6.85000e-08;0.0018327280847673694
6.87500e-08;0.0018114358388205448
6.90000e-08;0.0017901435928737203
6.92500e-08;0.0017695959279037036
6.95000e-08;0.0017493839119823557
6.97500e-08;0.0017291718960610089
7.00000e-08;0.001708959880139661
7.02500e-08;0.001688747864218313
7.05000e-08;0.0016685358482969662
7.07500e-08;0.001648323832375618
7.10000e-08;0.0016281118164542712
7.12500e-08;0.0016078998005329232
7.15000e-08;0.00158778674306255
7.17500e-08;0.0015680975422244045
7.20000e-08;0.001548408341386259
7.22500e-08;0.0015287191405481146
7.25000e-08;0.001509029939709969
7.27500e-08;0.0014893407388718246
7.30000e-08;0.001469651538033679
7.32500e-08;0.0014499623371955336
7.35000e-08;0.001430273136357389
7.37500e-08;0.0014105839355192436
7.40000e-08;0.0013921759023439572
7.42500e-08;0.0013743454056900427
7.45000e-08;0.0013565149090361292
7.47500e-08;0.0013386844123822147
7.50000e-08;0.0013208539157283004
7.52500e-08;0.0013050949981528073
7.55000e-08;0.0012902699260133057
7.57500e-08;0.001275444853873805
7.60000e-08;0.0012606197817343033
7.62500e-08;0.001245794709594802
7.65000e-08;0.0012329090032199023
7.67500e-08;0.0012208975419495502
7.70000e-08;0.0012088860806791985
7.72500e-08;0.001194682708293969
7.75000e-08;0.0011794912460925929
7.77500e-08;0.0011642997838912162
7.80000e-08;0.0011465198241286754
7.82500e-08;0.0011275729976706992
7.85000e-08;0.0011086261712127219
7.87500e-08;0.0010870750928658785
7.90000e-08;0.0010643500459431151
7.92500e-08;0.001041624999020352
7.95000e-08;0.001014861628426323
7.97500e-08;0.0009862778252121903
8.00000e-08;0.0009576940219980589
8.02500e-08;0.00092611472996582
8.05000e-08;0.0008931851039827822
8.07500e-08;0.0008602554779997427
8.10000e-08;0.0008244022072125398
8.12500e-08;0.0007872309889787379
8.15000e-08;0.000750059770744934
8.17500e-08;0.0007102955881032353
8.20000e-08;0.0006693625251599157
8.22500e-08;0.0006284294622165984
8.25000e-08;0.0005860941537738615
8.27500e-08;0.0005431267282309779
8.30000e-08;0.0005001593026880966
8.32500e-08;0.00045719187714521304
8.35000e-08;0.0004137919431490743
8.37500e-08;0.00037019703902154354
8.40000e-08;0.0003266021348940128
8.42500e-08;0.0002830072307664843
8.45000e-08;0.00024063820524822444
8.47500e-08;0.00019882179254416123
8.50000e-08;0.0001580709835751875
8.52500e-08;0.00011859855144665527
8.55000e-08;8.04418024824366e-05
8.57500e-08;4.3863079349452095e-05
8.60000e-08;9.139650252074325e-06
8.62500e-08;-2.3451261219500006e-05
8.65000e-08;-5.363402918446192e-05
8.67500e-08;-8.12694884932023e-05
8.70000e-08;-0.00010651896359015325
8.72500e-08;-0.00012965167656137699
8.75000e-08;-0.00015075399144139103
8.77500e-08;-0.00016975214219909217
8.80000e-08;-0.000186537378837613
8.82500e-08;-0.0002010010095677432
8.85000e-08;-0.00021303536372100528
8.87500e-08;-0.00022261821992497767
8.90000e-08;-0.00022991559615659547
8.92500e-08;-0.0002351610943110206
8.95000e-08;-0.0002384737597192978
8.97500e-08;-0.00023987230956074062
9.00000e-08;-0.00023935358352257925
9.02500e-08;-0.00023691443288235083
9.05000e-08;-0.00023255234181649632
9.07500e-08;-0.00022631835504143062
9.10000e-08;-0.00021838140532973318
9.12500e-08;-0.00020895274283477504
9.15000e-08;-0.00019817184056494604
9.17500e-08;-0.00018611535301210757
9.20000e-08;-0.00017284617256667448
9.22500e-08;-0.00015842724826675835
9.25000e-08;-0.00014292190183318084
9.27500e-08;-0.00012642698970654026
9.30000e-08;-0.00010911321900935958
9.32500e-08;-9.117778451208329e-05
9.35000e-08;-7.2772915938127e-05
9.37500e-08;-5.393566394246414e-05
9.40000e-08;-3.496350805704247e-05
9.42500e-08;-1.5835812873822663e-05
9.45000e-08;3.3696383569508e-06
9.47500e-08;2.2493179768549513e-05
9.50000e-08;4.136307016291617e-05
9.52500e-08;5.979099566697647e-05
9.55000e-08;7.761681252646633e-05
9.57500e-08;9.470506417194572e-05
9.60000e-08;0.00011092568007632884
9.62500e-08;0.00012614860073007747
9.65000e-08;0.00014024563128052305
9.67500e-08;0.0001530362726006189
9.70000e-08;0.00016540125324889063
9.72500e-08;0.00017735871103196298
9.75000e-08;0.0001891324619164214
9.77500e-08;0.0002004057688245732
9.80000e-08;0.00021145348100254211
9.82500e-08;0.00022250119318051163
9.85000e-08;0.00023251642850770447
9.87500e-08;0.00024206623444100362
9.90000e-08;0.0002516160403743023
9.92500e-08;0.0002611658463076014
9.95000e-08;0.0002707156522409006
9.97500e-08;0.00028026545817419924
1.00000e-07;0.0002892906269403465
1.00250e-07;0.0002980792949476255
1.00500e-07;0.00030686796295490494
1.00750e-07;0.0003156566309621844
1.01000e-07;0.00032444529896946336
1.01250e-07;0.00033323396697674276
1.01500e-07;0.0003416160315670657
1.01750e-07;0.0003498148037360944
1.02000e-07;0.0003580135759051227
1.02250e-07;0.0003662123480741514
1.02500e-07;0.0003744111202431801
1.02750e-07;0.00038260989241220843
1.03000e-07;0.00039080866458123713
1.03250e-07;0.0003990074367502654
1.03500e-07;0.0004072062089192941
1.03750e-07;0.0004144131806277941
1.04000e-07;0.0004211730594190416
1.04250e-07;0.00042793293821028936
1.04500e-07;0.0004346928170015368
1.04750e-07;0.0004414526957927846
1.05000e-07;0.00044821257458403207
1.05250e-07;0.00045497245337527986
1.05500e-07;0.00046173233216652764
1.05750e-07;0.0004684922109577751
1.06000e-07;0.0004741247258396252
1.06250e-07;0.00047924903726814203
1.06500e-07;0.00048437334869665913
1.06750e-07;0.0004881724108933109
1.07000e-07;0.0004913740650741951
1.07250e-07;0.0004945757192550796
1.07500e-07;0.0004954760513236886
1.07750e-07;0.0004953389722822374
1.08000e-07;0.0004952018932407862
1.08250e-07;0.0004931857294675854
1.08500e-07;0.0004903224946272519
1.08750e-07;0.00048591889978769385
1.09000e-07;0.0004808209273257401
1.09250e-07;0.00047393669093970047
1.09500e-07;0.00046624722610238777
1.09750e-07;0.0004568738469758921
1.10000e-07;0.00044674137750621125
1.10250e-07;0.000435132972939793
1.10500e-07;0.00042285923280000376
1.10750e-07;0.00040923621072301477
1.11000e-07;0.00039500494694670574
1.11250e-07;0.00037913587837471103
1.11500e-07;0.00036252850512033736
1.11750e-07;0.0003459211318659646
1.12000e-07;0.0003278459313766288
1.12250e-07;0.0003091090502502906
1.12500e-07;0.0002903721691239514
1.12750e-07;0.0002707221722459515
1.13000e-07;0.00025066055266615946
1.13250e-07;0.0002305989330863674
1.13500e-07;0.00021010310323820981
1.13750e-07;0.0001894115360988202
1.14000e-07;0.0001687199689594317
1.14250e-07;0.0001483235413624255
1.14500e-07;0.00012806015947799216
1.14750e-07;0.00010779677759355992
1.15000e-07;8.808071148510908e-05
1.15250e-07;6.898878117814707e-05
1.15500e-07;5.052920485550481e-05
1.15750e-07;3.283275348641394e-05
1.16000e-07;1.6033674264218102e-05
1.16250e-07;2.661966341656817e-07
1.16500e-07;-1.4335113890150092e-05
1.16750e-07;-2.761054689330577e-05
1.17000e-07;-3.936509501477272e-05
1.17250e-07;-4.943974318500186e-05
1.17500e-07;-5.7764140346115796e-05
1.17750e-07;-6.431971329686574e-05
1.18000e-07;-6.909751172579515e-05
1.18250e-07;-7.208861993404994e-05
1.18500e-07;-7.328389756680861e-05
1.18750e-07;-7.265846459009733e-05
1.19000e-07;-7.016533353969343e-05
1.19250e-07;-6.578007158559761e-05
1.19500e-07;-5.9533794283961046e-05
1.19750e-07;-5.1490042709279496e-05
1.20000e-07;-4.171839006186016e-05
1.20250e-07;-3.0288417578162538e-05
1.20500e-07;-1.7269569142603187e-05
1.20750e-07;-2.7214274483558923e-06
1.21000e-07;1.331027250792534e-05
1.21250e-07;3.076567405303226e-05
1.21500e-07;4.955012554190406e-05
1.21750e-07;6.954866753692207e-05
1.22000e-07;9.064257597690605e-05
1.22250e-07;0.00011271312906146742
1.22500e-07;0.00013588689706406723
1.22750e-07;0.00015942635162386279
1.23000e-07;0.00018393866266694335
1.23250e-07;0.00020888952688729185
1.23500e-07;0.000233840391107643
1.23750e-07;0.0002591549397368509
1.24000e-07;0.0002846334333628475
1.24250e-07;0.00031011192698884686
1.24500e-07;0.0003355904206148435
1.24750e-07;0.0003599947822053712
1.25000e-07;0.00038391493669541623
1.25250e-07;0.0004078350911854587
1.25500e-07;0.0004317552456755012
1.25750e-07;0.00045381261975871917
1.26000e-07;0.0004750302725880854
1.26250e-07;0.0004943927630572444
1.26500e-07;0.0005129189664055458
1.26750e-07;0.000530838250327617
1.27000e-07;0.000548483941538642
1.27250e-07;0.0005661296327496669
1.27500e-07;0.000586549329399248
1.27750e-07;0.000608219517688386
1.28000e-07;0.0006318316207869901
1.28250e-07;0.0006563191180719985
1.28500e-07;0.000681815946521214
1.28750e-07;0.0006988265364981965
1.29000e-07;0.0007302268336629282
1.29250e-07;-0.01994394157949907
1.29500e-07;-0.01924986819042395
1.29750e-07;-0.014817988126867805
1.30000e-07;-0.011181064613596222
1.30250e-07;0.004719515241293347
1.30500e-07;0.006348702446331068
1.30750e-07;0.005343073714197122
1.31000e-07;0.0016521319627582761
1.31250e-07;-0.00454053504172351
1.31500e-07;-0.0069505630621301065
1.31750e-07;-0.005422985881165299
1.32000e-07;-0.0016604771815498332
1.32250e-07;0.0030254591735271994
1.32500e-07;0.005405193669735198
1.32750e-07;0.00502065307708776
1.33000e-07;0.0025102826269089227
1.33250e-07;-0.0011346471174048928
1.33500e-07;-0.002712835396158762
1.33750e-07;-0.0018066250481967056
1.34000e-07;0.0005130242093991557
1.34250e-07;0.0034211655346760134
1.34500e-07;0.004892171540649583
1.34750e-07;0.004637166767747747
1.35000e-07;0.0030545560262324805
1.35250e-07;0.0007640395367035353
1.35500e-07;-0.00023018170340496474
1.35750e-07;0.00033252220098234895
1.36000e-07;0.0017804906946782728
1.36250e-07;0.0035963435157201516
1.36500e-07;0.0045107860866865045
1.36750e-07;0.004342696841854513
1.37000e-07;0.0033419060480704486
1.37250e-07;0.0018970888938594401
1.37500e-07;0.0012638485346146706
1.37750e-07;0.0016053353986484101
1.38000e-07;0.002500731175657324
1.38250e-07;0.003625909380800178
1.38500e-07;0.004185810027574022
1.38750e-07;0.004067054829208449
1.39000e-07;0.0034262196639238598
1.39250e-07;0.0025068409263864634
1.39500e-07;0.0020954549245473498
1.39750e-07;0.0022942507760438905
1.40000e-07;0.002839630408113214
1.40250e-07;0.0035285875182387624
1.40500e-07;0.003863156766474337
1.40750e-07;0.0037724058536812866
1.41000e-07;0.0033545006476836227
1.41250e-07;0.002762068438783836
1.41500e-07;0.002487841928797541
1.41750e-07;0.0025958556134196126
1.42000e-07;0.0029210195292719916
1.42250e-07;0.0033362122699070428
1.42500e-07;0.003529571490336838
1.42750e-07;0.0034567431147425457
1.43000e-07;0.00317929631693778
1.43250e-07;0.0027929070890886465
1.43500e-07;0.0026062751514365668
1.43750e-07;0.002659547997150112
1.44000e-07;0.0028493531166634413
1.44250e-07;0.0030961099196556304
1.44500e-07;0.0032045284050057367
