Time(s);Current(A)
7.25000e-06;0.0014078771216395603
7.25025e-06;0.001410353588960694
7.25050e-06;0.0014128300562818194
7.25075e-06;0.0014153065236029532
7.25100e-06;0.0014177829909240785
7.25125e-06;0.001420259458245204
7.25150e-06;0.0014227359255663376
7.25175e-06;0.0014252123928874632
7.25200e-06;0.0014276888602085885
7.25225e-06;0.0014301653275297223
7.25250e-06;0.0014308696168912765
7.25275e-06;0.0014310734601197955
7.25300e-06;0.0014312773033483153
7.25325e-06;0.0014314811465768343
7.25350e-06;0.0014316849898053533
7.25375e-06;0.0014318888330338729
7.25400e-06;0.0014252783712184604
7.25425e-06;0.0014167436147293623
7.25450e-06;0.0014082088582402352
7.25475e-06;0.001399674101751137
7.25500e-06;0.0013911393452620102
7.25525e-06;0.001382604588772912
7.25550e-06;0.0013671781222152108
7.25575e-06;0.0013498055025440259
7.25600e-06;0.0013324328828728995
7.25625e-06;0.0013099981622039624
7.25650e-06;0.0012861339525519345
7.25675e-06;0.0012622697428999875
7.25700e-06;0.0012343586847837476
7.25725e-06;0.0012053048353050865
7.25750e-06;0.001176250985826524
7.25775e-06;0.0011432191898543484
7.25800e-06;0.001109064059778321
7.25825e-06;0.0010749089297024093
7.25850e-06;0.0010372172070210622
7.25875e-06;0.0009985267843593286
7.25900e-06;0.0009598363616977262
7.25925e-06;0.0009211459390359926
7.25950e-06;0.0008824555163743901
7.25975e-06;0.0008420086381395822
7.26000e-06;0.0008010657536234725
7.26025e-06;0.0007601228691075016
7.26050e-06;0.0007191799845915306
7.26075e-06;0.000678237100075421
7.26100e-06;0.0006385397495542454
7.26125e-06;0.000599194125939358
7.26150e-06;0.0005598485023243372
7.26175e-06;0.000522528765347396
7.26200e-06;0.000485781119411421
7.26225e-06;0.00045146283531708527
7.26250e-06;0.00041783057980852086
7.26275e-06;0.0003865347615307089
7.26300e-06;0.00035773044295504315
7.26325e-06;0.0003317838252916437
7.26350e-06;0.00030649812635244326
7.26375e-06;0.00028234381774381554
7.26400e-06;0.00025895834094412726
7.26425e-06;0.00023665188690132524
7.26450e-06;0.00021461430640841897
7.26475e-06;0.00019380702098523855
7.26500e-06;0.0001743526036594329
7.26525e-06;0.00015615387942660342
7.26550e-06;0.0001388329639292547
7.26575e-06;0.00012191726543590926
7.26600e-06;0.00010524815688288585
7.26625e-06;8.890760743492626e-05
7.26650e-06;7.30204587078219e-05
7.26675e-06;5.7711515937738635e-05
7.26700e-06;4.3105468548446964e-05
7.26725e-06;2.9218870803426512e-05
7.26750e-06;1.582810644132634e-05
7.26775e-06;2.6502687185963943e-06
7.26800e-06;-1.0400870847047682e-05
7.26825e-06;-2.3260835186211854e-05
7.26850e-06;-3.5838293115214966e-05
7.26875e-06;-4.804194780017365e-05
7.26900e-06;-5.9780573449577375e-05
7.26925e-06;-7.090381065848711e-05
7.26950e-06;-8.18834344251031e-05
7.26975e-06;-9.254983904706736e-05
7.27000e-06;-0.00010312779357362819
7.27025e-06;-0.00011335389925626324
7.27050e-06;-0.00012348064618528107
7.27075e-06;-0.0001330361972523756
7.27100e-06;-0.00014243044806252193
7.27125e-06;-0.00015104222122249916
7.27150e-06;-0.00015943303016618666
7.27175e-06;-0.00016782383910984573
7.27200e-06;-0.00017562579265733018
7.27225e-06;-0.0001832614590640436
7.27250e-06;-0.00019045531087435357
7.27275e-06;-0.00019717040210493985
7.27300e-06;-0.00020338678862754937
7.27325e-06;-0.0002087533964555842
7.27350e-06;-0.0002123046868501484
7.27375e-06;-0.00021301814019669208
7.27400e-06;-0.00021050483879670625
7.27425e-06;-0.00020482349235218742
7.27450e-06;-0.00019611078700290863
7.27475e-06;-0.0001845033861936152
7.27500e-06;-0.00017013783348524724
7.27525e-06;-0.000152966742941221
7.27550e-06;-0.0001325577942433032
7.27575e-06;-0.00010844305830138255
7.27600e-06;-8.055153594047846e-05
7.27625e-06;-4.909258798271507e-05
7.27650e-06;-1.4324417570815633e-05
7.27675e-06;2.3494790062341998e-05
7.27700e-06;6.410693290511689e-05
7.27725e-06;0.00010736916788496454
7.27750e-06;0.0001533797380725132
7.27775e-06;0.00020225918018835362
7.27800e-06;0.0002538793985566666
7.27825e-06;0.00030793664741185923
7.27850e-06;0.00036475752796198804
7.27875e-06;0.00042221186532791336
7.27900e-06;0.0004822416597113271
7.27925e-06;0.0005429987385627956
7.27950e-06;0.0006037558174140584
7.27975e-06;0.0006665339223944645
7.28000e-06;0.0007298827458544981
7.28025e-06;0.0007932315693143171
7.28050e-06;0.0008565803927743507
7.28075e-06;0.000918452964277778
7.28100e-06;0.0009799086563259626
7.28125e-06;0.0010413643483743553
7.28150e-06;0.00110282004042254
7.28175e-06;0.0011598226097539624
7.28200e-06;0.001215567659754799
7.28225e-06;0.0012713127097554466
7.28250e-06;0.0013217896790848256
7.28275e-06;0.001370778992739593
7.28300e-06;0.0014141587872571629
7.28325e-06;0.0014559545071377736
7.28350e-06;0.0014912923088683985
7.28375e-06;0.0015248064561823311
7.28400e-06;0.0015583206034962636
7.28425e-06;0.001584570812746762
7.28450e-06;0.0016087697552540688
7.28475e-06;0.0016329686977614576
7.28500e-06;0.0016490539717530588
7.28525e-06;0.0016628480232363323
7.28550e-06;0.0016766420747196527
7.28575e-06;0.0016834414716866786
7.28600e-06;0.001688265645012972
7.28625e-06;0.001693089818339282
7.28650e-06;0.0016914427137348933
7.28675e-06;0.0016879681820396466
7.28700e-06;0.001684493650344388
7.28725e-06;0.0016749577121252252
7.28750e-06;0.0016637100905864868
7.28775e-06;0.0016524624690477103
7.28800e-06;0.00163443819751514
7.28825e-06;0.0016145002647372714
7.28850e-06;0.0015945623319593356
7.28875e-06;0.0015746243991814671
7.28900e-06;0.001554686466403531
7.28925e-06;0.0015347485336256626
7.28950e-06;0.0015129968413230414
7.28975e-06;0.001486576419854435
7.29000e-06;0.0014601559983859179
7.29025e-06;0.001433735576917401
7.29050e-06;0.0014073151554487946
7.29075e-06;0.0013808947339802775
7.29100e-06;0.0013544743125117607
7.29125e-06;0.0013319540944158957
7.29150e-06;0.0013105352565078612
7.29175e-06;0.0012891164185998268
7.29200e-06;0.0012676975806917197
7.29225e-06;0.0012462787427836852
7.29250e-06;0.0012248599048756506
7.29275e-06;0.0012034410669675435
7.29300e-06;0.001182022229059509
7.29325e-06;0.001160603391151402
7.29350e-06;0.0011391845532433675
7.29375e-06;0.0011177657153353328
7.29400e-06;0.0010963468774272257
7.29425e-06;0.0010861695155679845
7.29450e-06;0.0010791666391949766
7.29475e-06;0.0010721637628219448
7.29500e-06;0.001065160886448937
7.29525e-06;0.001058158010075929
7.29550e-06;0.0010511551337028975
7.29575e-06;0.0010441522573298896
7.29600e-06;0.0010371493809568817
7.29625e-06;0.0010301465045838502
7.29650e-06;0.0010231436282108423
7.29675e-06;0.0010161407518378344
7.29700e-06;0.0010091378754648027
7.29725e-06;0.001009384365641333
7.29750e-06;0.0010116780077038152
7.29775e-06;0.0010139716497662894
7.29800e-06;0.0010162652918287635
7.29825e-06;0.0010185589338912457
7.29850e-06;0.0010208525759537199
7.29875e-06;0.0010231462180161942
7.29900e-06;0.0010254398600786762
7.29925e-06;0.0010287360460833148
7.29950e-06;0.001034612842184262
7.29975e-06;0.0010404896382852293
7.30000e-06;0.0010463664343861765
7.30025e-06;0.0010522432304871235
7.30050e-06;0.0010581200265880907
7.30075e-06;0.001063996822689038
7.30100e-06;0.0010698736187899852
7.30125e-06;0.0010757504148909522
7.30150e-06;0.0010815246607343394
7.30175e-06;0.0010872699473643158
7.30200e-06;0.0010930152339942727
7.30225e-06;0.0010987605206242293
7.30250e-06;0.0011045058072542057
7.30275e-06;0.001110186636314727
7.30300e-06;0.0011157015476060028
7.30325e-06;0.0011212164588972975
7.30350e-06;0.0011267313701885733
7.30375e-06;0.0011322462814798491
7.30400e-06;0.0011377611927711436
7.30425e-06;0.001149456007483248
7.30450e-06;0.001162895967906216
7.30475e-06;0.0011763359283292294
7.30500e-06;0.0011897758887521972
7.30525e-06;0.001203215849175165
7.30550e-06;0.0012166558095981783
7.30575e-06;0.0012300957700211463
7.30600e-06;0.0012435357304441596
7.30625e-06;0.0012569756908671274
7.30650e-06;0.0012704156512900952
7.30675e-06;0.0012870024253236706
7.30700e-06;0.0013116892921626918
7.30725e-06;0.001336376159001713
7.30750e-06;0.0013610630258408178
7.30775e-06;0.001385749892679839
7.30800e-06;0.0014104367595188603
7.30825e-06;0.001435123626357965
7.30850e-06;0.001459810493196986
7.30875e-06;0.0014844973600360073
7.30900e-06;0.0015091842268751122
7.30925e-06;0.0015338710937141333
7.30950e-06;0.0015616285218267194
7.30975e-06;0.0015902530471205178
7.31000e-06;0.0016188775724142192
7.31025e-06;0.0016475020977080176
7.31050e-06;0.001676126623001719
7.31075e-06;0.0017047511482954202
7.31100e-06;0.0017333756735892186
7.31125e-06;0.001760683228008168
7.31150e-06;0.0017846008179656888
7.31175e-06;0.0018085184079232905
7.31200e-06;0.0018324359978808113
7.31225e-06;0.001856353587838332
7.31250e-06;0.001880271177795934
7.31275e-06;0.0019041887677534548
7.31300e-06;0.0019281063577109756
7.31325e-06;0.0019379234233099759
7.31350e-06;0.0019437586354844403
7.31375e-06;0.0019495938476589046
7.31400e-06;0.0019554290598333885
7.31425e-06;0.001961264272007853
7.31450e-06;0.0019670994841823374
7.31475e-06;0.0019729346963568016
7.31500e-06;0.001978769908531266
7.31525e-06;0.00198460512070575
7.31550e-06;0.0019904403328802143
7.31575e-06;0.001996275545054679
7.31600e-06;0.001982431515914296
7.31625e-06;0.0019630302569559614
7.31650e-06;0.0019436289979976274
7.31675e-06;0.0019242277390392273
7.31700e-06;0.001904826480080893
7.31725e-06;0.0018854252211225589
7.31750e-06;0.0018660239621641588
7.31775e-06;0.0018466227032058245
7.31800e-06;0.0018272214442474903
7.31825e-06;0.0018078201852890902
7.31850e-06;0.001788418926330756
7.31875e-06;0.0017588606083265338
7.31900e-06;0.0017264340338441746
7.31925e-06;0.0016940074593618155
7.31950e-06;0.0016615808848793466
7.31975e-06;0.0016291543103969875
7.32000e-06;0.0015967277359146283
7.32025e-06;0.0015639715951621571
7.32050e-06;0.0015303671304535357
7.32075e-06;0.0014967626657449145
7.32100e-06;0.0014631582010361795
7.32125e-06;0.001429553736327558
7.32150e-06;0.0013959492716189368
7.32175e-06;0.0013623448069102018
7.32200e-06;0.001331948034913771
7.32225e-06;0.0013024570847068554
7.32250e-06;0.00127296613449984
7.32275e-06;0.001247639199395062
7.32300e-06;0.0012234881423900514
7.32325e-06;0.0011993370853851228
7.32350e-06;0.0011800514697807333
7.32375e-06;0.0011621398083643804
7.32400e-06;0.001148803364896197
7.32425e-06;0.0011367589192846604
7.32450e-06;0.0011293611808200876
7.32475e-06;0.0011232756280792455
7.32500e-06;0.0011218960163930482
7.32525e-06;0.0011218453175203924
7.32550e-06;0.0011266793507845438
7.32575e-06;0.0011328927857564128
7.32600e-06;0.0011439269984008665
7.32625e-06;0.001156322552623033
7.32650e-06;0.001174233532581006
7.32675e-06;0.001193702016096156
7.32700e-06;0.0012131704996112397
7.32725e-06;0.0012386016513424155
7.32750e-06;0.0012657166036359505
7.32775e-06;0.0012928315559294858
7.32800e-06;0.0013250235879124555
7.32825e-06;0.0013586493387149129
7.32850e-06;0.0013922750895173702
7.32875e-06;0.0014308365151304255
7.32900e-06;0.001470791728175506
7.32925e-06;0.0015107469412205866
7.32950e-06;0.0015507021542658023
7.32975e-06;0.0015906573673108828
7.33000e-06;0.0016306125803559634
7.33025e-06;0.0016721378475084425
7.33050e-06;0.0017141064829470734
7.33075e-06;0.0017560751183857044
7.33100e-06;0.0017980437538244777
7.33125e-06;0.0018400123892631085
7.33150e-06;0.0018819810247018818
7.33175e-06;0.0019132618848043844
7.33200e-06;0.0019415246192175275
7.33225e-06;0.0019697873536307664
7.33250e-06;0.0019980500880439097
7.33275e-06;0.0020263128224570527
7.33300e-06;0.0020545755568702915
7.33325e-06;0.002082838291283435
7.33350e-06;0.002111101025696578
7.33375e-06;0.0021393637601098167
7.33400e-06;0.00216762649452296
7.33425e-06;0.002195889228936103
7.33450e-06;0.002224151963349342
7.33475e-06;0.002245950831578452
7.33500e-06;0.0022511113085908487
7.33525e-06;0.002256271785603263
7.33550e-06;0.002261432262615659
7.33575e-06;0.002266592739628073
7.33600e-06;0.00227175321664047
7.33625e-06;0.0022769136936528662
7.33650e-06;0.0022820741706652803
7.33675e-06;0.002287234647677677
7.33700e-06;0.002292395124690074
7.33725e-06;0.0022975556017024875
7.33750e-06;0.0023027160787148842
7.33775e-06;0.002307876555727281
7.33800e-06;0.0023027717951592283
7.33825e-06;0.0022947682295293838
7.33850e-06;0.002286764663899539
7.33875e-06;0.002278761098269667
7.33900e-06;0.0022707575326398224
7.33925e-06;0.0022627539670099775
7.33950e-06;0.0022547504013801056
7.33975e-06;0.002246746835750261
7.34000e-06;0.0022387432701203892
7.34025e-06;0.0022299108052573216
7.34050e-06;0.002218944702517622
7.34075e-06;0.0022079785997778847
7.34100e-06;0.002197012497038185
7.34125e-06;0.0021860463942984846
7.34150e-06;0.0021750802915587474
7.34175e-06;0.0021641141888190476
7.34200e-06;0.0021531480860793478
7.34225e-06;0.0021421819833396106
7.34250e-06;0.002131215880599911
7.34275e-06;0.002120346967336509
7.34300e-06;0.0021095054994530347
7.34325e-06;0.002098664031569597
7.34350e-06;0.002087822563686159
7.34375e-06;0.0020769810958026842
7.34400e-06;0.0020661396279192464
7.34425e-06;0.0020552981600357716
7.34450e-06;0.0020444566921523338
7.34475e-06;0.002024447472098907
7.34500e-06;0.0020018493663832427
7.34525e-06;0.001979251260667655
7.34550e-06;0.0019566531549520673
7.34575e-06;0.0019340550492364028
7.34600e-06;0.001911456943520815
7.34625e-06;0.0018888588378052273
7.34650e-06;0.001866260732089563
7.34675e-06;0.001833512129532238
7.34700e-06;0.001797897123602683
7.34725e-06;0.001762282117673007
7.34750e-06;0.0017266671117434516
7.34775e-06;0.0016910521058138965
7.34800e-06;0.0016554370998842207
7.34825e-06;0.0016198220939546654
7.34850e-06;0.0015782123182939954
7.34875e-06;0.001534909676910756
7.34900e-06;0.001491607035527517
7.34925e-06;0.001448304394144131
7.34950e-06;0.0014050017527608917
7.34975e-06;0.0013616991113776526
7.35000e-06;0.0013183964699942667
7.35025e-06;0.001274569852013085
7.35050e-06;0.0012305952680445648
7.35075e-06;0.0011866206840758955
7.35100e-06;0.0011426461001073755
7.35125e-06;0.0010986715161388552
7.35150e-06;0.0010588449942124712
7.35175e-06;0.0010201898453933824
7.35200e-06;0.0009815346965742933
7.35225e-06;0.0009428795477550735
7.35250e-06;0.0009042243989359845
7.35275e-06;0.0008709243085591373
7.35300e-06;0.0008391364355461922
7.35325e-06;0.0008117427879865723
7.35350e-06;0.0007855900277304019
7.35375e-06;0.0007644963651723134
7.35400e-06;0.0007448313434901553
7.35425e-06;0.0007304372317895114
7.35450e-06;0.0007175315747309297
7.35475e-06;0.0007100228755938113
7.35500e-06;0.0007040382258331424
7.35525e-06;0.0007021854929034118
7.35550e-06;0.0007042938256194789
7.35575e-06;0.0007113110487613625
7.35600e-06;0.0007194916698414631
7.35625e-06;0.0007328933400238376
7.35650e-06;0.0007477693846120515
7.35675e-06;0.0007675168393824804
7.35700e-06;0.000788639933866762
7.35725e-06;0.0008142886350654835
7.35750e-06;0.0008412153243810708
7.35775e-06;0.0008722315362980479
7.35800e-06;0.0009044025903427863
7.35825e-06;0.0009407833444929054
7.35850e-06;0.0009783528777504674
7.35875e-06;0.0010159224110079022
7.35900e-06;0.001058212631558592
7.35925e-06;0.0011018359291186705
7.35950e-06;0.001145459226678601
7.35975e-06;0.0011890825242385317
7.36000e-06;0.0012327058217986102
7.36025e-06;0.0012767721496653407
7.36050e-06;0.0013219788649335223
7.36075e-06;0.0013671855802018568
7.36100e-06;0.0014123922954700384
7.36125e-06;0.00145759901073822
7.36150e-06;0.0015028057260065546
7.36175e-06;0.0015421738032069677
7.36200e-06;0.0015798931047760606
7.36225e-06;0.0016176124063450258
7.36250e-06;0.001655331707913991
7.36275e-06;0.001693051009483084
7.36300e-06;0.001730770311052049
7.36325e-06;0.0017610015086342182
7.36350e-06;0.0017891181371619547
7.36375e-06;0.001817234765689596
7.36400e-06;0.0018453513942172373
7.36425e-06;0.001873468022744974
7.36450e-06;0.0019015846512726153
7.36475e-06;0.0019263237820547816
7.36500e-06;0.001950109139728825
7.36525e-06;0.001973894497402788
7.36550e-06;0.0019976798550767508
7.36575e-06;0.0020214652127507945
7.36600e-06;0.002045250570424757
7.36625e-06;0.002069035928098801
7.36650e-06;0.002092821285772764
7.36675e-06;0.0021166066434467265
7.36700e-06;0.0021403920011207702
7.36725e-06;0.002164177358794733
7.36750e-06;0.002187962716468696
7.36775e-06;0.002211748074142739
7.36800e-06;0.0022355334318167022
7.36825e-06;0.0022593187894906653
7.36850e-06;0.002280973638919723
7.36875e-06;0.002302026853166751
7.36900e-06;0.0023230800674137794
7.36925e-06;0.0023441332816608786
7.36950e-06;0.0023651864959079068
7.36975e-06;0.002386239710154935
7.37000e-06;0.002407292924402034
7.37025e-06;0.0024283461386490623
7.37050e-06;0.0024493993528961616
7.37075e-06;0.0024704525671431893
7.37100e-06;0.0024915057813902175
7.37125e-06;0.0025125589956373168
7.37150e-06;0.002533612209884345
7.37175e-06;0.002554665424131373
7.37200e-06;0.0025757186383784723
7.37225e-06;0.0025876908815329236
7.37250e-06;0.002597098745174702
7.37275e-06;0.0026065066088165126
7.37300e-06;0.0026159144724582912
7.37325e-06;0.00262532233610007
7.37350e-06;0.00263473019974188
7.37375e-06;0.002644138063383659
7.37400e-06;0.0026535459270254375
7.37425e-06;0.002662953790667248
7.37450e-06;0.0026723616543090265
7.37475e-06;0.0026817695179508372
7.37500e-06;0.002691177381592616
7.37525e-06;0.0027005852452343946
7.37550e-06;0.002709993108876205
7.37575e-06;0.0027194009725179835
7.37600e-06;0.002718171860667245
7.37625e-06;0.0027139389685215177
7.37650e-06;0.0027097060763758046
7.37675e-06;0.002705473184230091
7.37700e-06;0.002701240292084364
7.37725e-06;0.0026970073999386507
7.37750e-06;0.0026927745077929377
7.37775e-06;0.00268854161564721
7.37800e-06;0.002684308723501497
7.37825e-06;0.0026800758313557838
7.37850e-06;0.002675842939210056
7.37875e-06;0.002671610047064343
7.37900e-06;0.0026673771549186156
7.37925e-06;0.002663144262772902
7.37950e-06;0.002658911370627189
7.37975e-06;0.002650835174246378
7.38000e-06;0.0026416736654536373
7.38025e-06;0.002632512156660897
7.38050e-06;0.0026233506478681255
7.38075e-06;0.0026141891390753847
7.38100e-06;0.002605027630282644
7.38125e-06;0.0025958661214898725
7.38150e-06;0.00258827715903944
7.38175e-06;0.002581046880068466
7.38200e-06;0.0025738166010974674
7.38225e-06;0.002566586322126493
7.38250e-06;0.002559356043155519
7.38275e-06;0.0025521257641845205
7.38300e-06;0.002544895485213546
7.38325e-06;0.002537344193624507
7.38350e-06;-0.0040336653535042195
7.38375e-06;-0.04546556329415172
7.38400e-06;-0.02109714369580144
7.38425e-06;-0.007949486812238069
7.38450e-06;0.008261104148369617
7.38475e-06;0.021650715154959473
7.38500e-06;0.020064489956033195
7.38525e-06;0.010889547793861327
7.38550e-06;-0.0020879293485885435
7.38575e-06;-0.013816119286197621
7.38600e-06;-0.01171053454028283
7.38625e-06;-0.0029377638211453443
7.38650e-06;0.0069118840651022145
7.38675e-06;0.015086301840088828
7.38700e-06;0.013957883529238694
7.38725e-06;0.008115199866588986
7.38750e-06;-8.927323214537233e-05
7.38775e-06;-0.007500639035533701
7.38800e-06;-0.0062411382206272285
7.38825e-06;-0.000802768979531404
7.38850e-06;0.0053114335003101535
7.38875e-06;0.010377125743079555
7.38900e-06;0.009616554425595357
7.38925e-06;0.005904403664608073
7.38950e-06;0.0007145457077432049
7.38975e-06;-0.003976630910611461
7.39000e-06;-0.0032346401391165147
7.39025e-06;0.00012651741052785892
7.39050e-06;0.003912560471878946
7.39075e-06;0.007043530007097736
7.39100e-06;0.006527003954207483
7.39125e-06;0.004164090399768301
7.39150e-06;0.0008783089925293333
7.39175e-06;-0.0020921445065137214
7.39200e-06;-0.0016563226387027964
7.39225e-06;0.0004230200381071031
7.39250e-06;0.0027714639279131552
7.39275e-06;0.004712693751165176
7.39300e-06;0.0043725349502170855
7.39325e-06;0.0028793932032734337
7.39350e-06;0.0008115324112231473
7.39375e-06;-0.0010559535452119683
7.39400e-06;-0.0007873388476227381
7.39425e-06;0.0005129070131992367
7.39450e-06;0.0019836742980351564
7.39475e-06;0.003201203553985091
7.39500e-06;0.0029914717681654933
7.39525e-06;0.0020612887588873584
7.39550e-06;0.0007728088699982272
7.39575e-06;-0.00038855859316438117
7.39600e-06;-0.0002104631940732401
7.39625e-06;0.0006150477299167547
7.39650e-06;0.0015484235598097716
7.39675e-06;0.002324106163797249
7.39700e-06;0.0022066197722461775
7.39725e-06;0.001638652917375551
