Time(s);Current(A)
1.00000e-05;-0.007389649636911356
1.00003e-05;-0.007378049075853859
1.00005e-05;-0.007371065159507049
1.00008e-05;-0.0073640812431601905
1.00010e-05;-0.007357097326813332
1.00013e-05;-0.007350113410466522
1.00015e-05;-0.007343129494119664
1.00018e-05;-0.007336145577772806
1.00020e-05;-0.007339035197079179
1.00023e-05;-0.0073425244329250825
1.00025e-05;-0.007346013668770986
1.00028e-05;-0.007349502904616865
1.00030e-05;-0.007352992140462768
1.00033e-05;-0.0073564813763086715
1.00035e-05;-0.007363652206195599
1.00038e-05;-0.0073754567819170214
1.00040e-05;-0.007387261357638445
1.00042e-05;-0.007399065933359788
1.00045e-05;-0.00741087050908121
1.00048e-05;-0.007422675084802633
1.00050e-05;-0.007434479660523976
1.00053e-05;-0.007446284236245399
1.00055e-05;-0.007461827636366809
1.00057e-05;-0.0074775980940516955
1.00060e-05;-0.00749336855173669
1.00063e-05;-0.007509139009421683
1.00065e-05;-0.00752490946710657
1.00068e-05;-0.007540679924791563
1.00070e-05;-0.0075564503824765575
1.00073e-05;-0.007571936847494735
1.00075e-05;-0.007587065872278403
1.00078e-05;-0.007602194897062173
1.00080e-05;-0.007614958193658198
1.00083e-05;-0.0076247439259125305
1.00085e-05;-0.007634529658166929
1.00088e-05;-0.0076443153904213286
1.00090e-05;-0.007654101122675661
1.00093e-05;-0.007663886854930061
1.00095e-05;-0.00767367258718446
1.00098e-05;-0.007683458319438793
1.00100e-05;-0.007693244051693192
1.00103e-05;-0.007703029783947591
1.00105e-05;-0.007709007592653384
1.00108e-05;-0.007710192654063455
1.00110e-05;-0.007711377715473525
1.00113e-05;-0.007712562776883587
1.00115e-05;-0.0077137478382936575
1.00118e-05;-0.007714932899703728
1.00120e-05;-0.00771611796111379
1.00123e-05;-0.00771730302252386
1.00125e-05;-0.00771848808393393
1.00127e-05;-0.007719673145343993
1.00130e-05;-0.007718018396915934
1.00133e-05;-0.0077127893931884985
1.00135e-05;-0.0077075603894610975
1.00138e-05;-0.007702331385733662
1.00140e-05;-0.007697102382006225
1.00142e-05;-0.007691873378278825
1.00145e-05;-0.0076866443745513885
1.00148e-05;-0.007681415370823953
1.00150e-05;-0.007676186367096552
1.00153e-05;-0.007670957363369116
1.00155e-05;-0.007664655552671205
1.00157e-05;-0.007657003480435315
1.00160e-05;-0.007649351408199373
1.00163e-05;-0.007641699335963431
1.00165e-05;-0.007634047263727489
1.00168e-05;-0.007626395191491599
1.00170e-05;-0.007618743119255657
1.00173e-05;-0.007611091047019715
1.00175e-05;-0.007603438974783825
1.00178e-05;-0.007595786902547883
1.00180e-05;-0.007588487182166019
1.00183e-05;-0.007581630940592175
1.00185e-05;-0.0075747746990182845
1.00188e-05;-0.007568520612063064
1.00190e-05;-0.007563024411889008
1.00193e-05;-0.007557528211714915
1.00195e-05;-0.007553543377025131
1.00198e-05;-0.007551460784527867
1.00200e-05;-0.007549378192030587
1.00203e-05;-0.00755021123977612
1.00205e-05;-0.0075547139848552375
1.00208e-05;-0.007559216729934384
1.00210e-05;-0.007563719475013531
1.00212e-05;-0.0075682222200926475
1.00215e-05;-0.007572724965171795
1.00218e-05;-0.007577227710250942
1.00220e-05;-0.007585877246214967
1.00223e-05;-0.007599746036334867
1.00225e-05;-0.007613614826454767
1.00227e-05;-0.007627483616574573
1.00230e-05;-0.007641352406694473
1.00233e-05;-0.007655221196814372
1.00235e-05;-0.007669089986934178
1.00238e-05;-0.007686146100616952
1.00240e-05;-0.007707213859018187
1.00242e-05;-0.007728281617419279
1.00245e-05;-0.0077493493758205145
1.00248e-05;-0.007770417134221749
1.00250e-05;-0.007791484892622984
1.00253e-05;-0.007812552651024077
1.00255e-05;-0.00783362040942531
1.00258e-05;-0.00785653653724943
1.00260e-05;-0.007879564915934589
1.00263e-05;-0.007902593294619904
1.00265e-05;-0.00792562167330522
1.00268e-05;-0.007948650051990379
1.00270e-05;-0.007971678430675694
1.00273e-05;-0.00799470680936101
1.00275e-05;-0.008015733403768405
1.00278e-05;-0.008034240502690767
1.00280e-05;-0.00805274760161313
1.00283e-05;-0.008071254700535367
1.00285e-05;-0.00808976179945773
1.00288e-05;-0.008108268898380093
1.00290e-05;-0.00812677599730233
1.00293e-05;-0.008139216914140091
1.00295e-05;-0.008151289433754236
1.00297e-05;-0.008163361953368302
1.00300e-05;-0.008175434472982447
1.00303e-05;-0.008187506992596594
1.00305e-05;-0.008199579512210658
1.00308e-05;-0.00820861321477024
1.00310e-05;-0.008213822186595757
1.00312e-05;-0.00821903115842124
1.00315e-05;-0.008224240130246757
1.00318e-05;-0.008229449102072274
1.00320e-05;-0.008234658073897755
1.00323e-05;-0.008239867045723272
1.00325e-05;-0.00824507601754879
1.00327e-05;-0.008250284989374272
1.00330e-05;-0.008255493961199789
1.00333e-05;-0.008260702933025306
1.00335e-05;-0.008265911904850824
1.00338e-05;-0.008271120876676306
1.00340e-05;-0.008276329848501823
1.00343e-05;-0.00828153882032734
1.00345e-05;-0.008286747792152821
1.00348e-05;-0.008291956763978339
1.00350e-05;-0.008292773917508685
1.00353e-05;-0.008293324357372176
1.00355e-05;-0.00829387479723567
1.00358e-05;-0.008294425237099164
1.00360e-05;-0.008294975676962656
1.00363e-05;-0.00829552611682615
1.00365e-05;-0.008296076556689643
1.00368e-05;-0.008296626996553135
1.00370e-05;-0.00829717743641663
1.00373e-05;-0.008297727876280124
1.00375e-05;-0.008298278316143614
1.00378e-05;-0.008298828756007109
1.00380e-05;-0.008299379195870604
1.00382e-05;-0.008299929635734093
1.00385e-05;-0.008300480075597588
1.00388e-05;-0.008301030515461083
1.00390e-05;-0.008300019904056504
1.00393e-05;-0.008297044514695123
1.00395e-05;-0.008294069125333741
1.00397e-05;-0.00829109373597238
1.00400e-05;-0.008288118346611
1.00403e-05;-0.008285142957249617
1.00405e-05;-0.008282167567888256
1.00408e-05;-0.008279192178526873
1.00410e-05;-0.008276216789165493
1.00412e-05;-0.008273241399804131
1.00415e-05;-0.008267671852475742
1.00418e-05;-0.00825883723340068
1.00420e-05;-0.008250002614325621
1.00423e-05;-0.00824116799525062
1.00425e-05;-0.00823233337617556
1.00428e-05;-0.008223498757100501
1.00430e-05;-0.0082146641380255
1.00433e-05;-0.008205829518950441
1.00435e-05;-0.008196994899875382
1.00438e-05;-0.008188160280800381
1.00440e-05;-0.008177516165292846
1.00443e-05;-0.00816459457256419
1.00445e-05;-0.008151672979835618
1.00448e-05;-0.00813875138710696
1.00450e-05;-0.008125829794378302
1.00453e-05;-0.008112908201649732
1.00455e-05;-0.008099986608921073
1.00458e-05;-0.008087065016192415
1.00460e-05;-0.008074143423463844
1.00463e-05;-0.008061221830735186
1.00465e-05;-0.008048300238006529
1.00467e-05;-0.008036096042826481
1.00470e-05;-0.008024794782046277
1.00473e-05;-0.008013493521266072
1.00475e-05;-0.008002192260485945
1.00478e-05;-0.00799089099970574
1.00480e-05;-0.007979589738925536
1.00482e-05;-0.007968288478145407
1.00485e-05;-0.007956987217365203
1.00488e-05;-0.007945685956585
1.00490e-05;-0.007934384695804871
1.00493e-05;-0.007923083435024666
1.00495e-05;-0.007913976153360711
1.00497e-05;-0.007907630268388258
1.00500e-05;-0.00790128438341576
1.00503e-05;-0.007894938498443263
1.00505e-05;-0.007888592613470767
1.00508e-05;-0.007882246728498313
1.00510e-05;-0.007875900843525815
1.00513e-05;-0.00786955495855332
1.00515e-05;-0.007863209073580865
1.00518e-05;-0.007856863188608367
1.00520e-05;-0.007850517303635871
1.00523e-05;-0.007844171418663417
1.00525e-05;-0.00783782553369092
1.00528e-05;-0.007831479648718422
1.00530e-05;-0.007825133763745969
1.00533e-05;-0.007818787878773471
1.00535e-05;-0.0078124419938009745
1.00538e-05;-0.00780609610882852
1.00540e-05;-0.007799750223856023
1.00543e-05;-0.007794540684273419
1.00545e-05;-0.0077907613772656556
1.00548e-05;-0.007786982070257866
1.00550e-05;-0.007783202763250076
1.00552e-05;-0.007779423456242312
1.00555e-05;-0.007775644149234522
1.00558e-05;-0.007771864842226733
1.00560e-05;-0.007768085535218969
1.00563e-05;-0.0077643062282111795
1.00565e-05;-0.00776052692120339
1.00567e-05;-0.007756747614195625
1.00570e-05;-0.007752968307187836
1.00573e-05;-0.007749189000180046
1.00575e-05;-0.007745409693172283
1.00578e-05;-0.007741630386164493
1.00580e-05;-0.007737851079156703
1.00582e-05;-0.007734071772148939
1.00585e-05;-0.007730292465141149
1.00588e-05;-0.00772651315813336
1.00590e-05;-0.0077223284516627615
1.00593e-05;-0.007717633499343728
1.00595e-05;-0.007712938547024662
1.00598e-05;-0.007708243594705596
1.00600e-05;-0.007703548642386562
1.00603e-05;-0.0076988536900674965
1.00605e-05;-0.0076941587377484305
1.00608e-05;-0.0076894637854293965
1.00610e-05;-0.0076847688331103305
1.00613e-05;-0.007677980107219526
1.00615e-05;-0.0076685561058271986
1.00618e-05;-0.007659132104434808
1.00620e-05;-0.007649708103042417
1.00623e-05;-0.00764028410165009
1.00625e-05;-0.007630860100257699
1.00628e-05;-0.007621436098865308
1.00630e-05;-0.007612012097472981
1.00633e-05;-0.00760258809608059
1.00635e-05;-0.007591419871345546
1.00637e-05;-0.007578056323722479
1.00640e-05;-0.0075646927760993216
1.00643e-05;-0.007551329228476164
1.00645e-05;-0.007537965680853097
1.00648e-05;-0.007524602133229939
1.00650e-05;-0.007511238585606782
1.00652e-05;-0.007497875037983715
1.00655e-05;-0.007484511490360558
1.00658e-05;-0.00747051888026009
1.00660e-05;-0.007456488067404157
1.00663e-05;-0.007442457254548128
1.00665e-05;-0.007428426441692098
1.00667e-05;-0.007414395628836164
1.00670e-05;-0.0074003648159801354
1.00673e-05;-0.0073863340031241065
1.00675e-05;-0.0073723031902680775
1.00678e-05;-0.00735946736936953
1.00680e-05;-0.0073481355950751545
1.00683e-05;-0.007336803820780778
1.00685e-05;-0.007325472046486478
1.00688e-05;-0.0073141402721921015
1.00690e-05;-0.007302808497897726
1.00693e-05;-0.007291476723603426
1.00695e-05;-0.0072801449493090494
1.00698e-05;-0.007266006964145141
1.00700e-05;-0.007251698558726046
1.00703e-05;-0.007237390153306856
1.00705e-05;-0.007223081747887665
1.00708e-05;-0.007208773342468572
1.00710e-05;-0.00719446493704938
1.00713e-05;-0.0071801565316301896
1.00715e-05;-0.007162594866901542
1.00718e-05;-0.007140938569076943
1.00720e-05;-0.007119282271252344
1.00722e-05;-0.007097625973427891
1.00725e-05;-0.007075969675603292
1.00728e-05;-0.0070543133777786916
1.00730e-05;-0.0070271888846469436
1.00733e-05;-0.006999732309827639
1.00735e-05;-0.006972275735008335
1.00737e-05;-0.006944819160189216
1.00740e-05;-0.006917362585369911
1.00743e-05;-0.006888342252830327
1.00745e-05;-0.006857353735923641
1.00748e-05;-0.006826365219016743
1.00750e-05;-0.006794911994334522
1.00752e-05;-0.00676287387688625
1.00755e-05;-0.006730835759437761
1.00758e-05;-0.00669854453362836
1.00760e-05;-0.006665934739339486
1.00763e-05;-0.00663346163593594
1.00765e-05;-0.006601160575080552
1.00768e-05;-0.0065691730991968775
1.00770e-05;-0.00653788441029926
1.00773e-05;-0.006507310610956126
1.00775e-05;-0.006477512350889329
1.00778e-05;-0.006448586903468639
1.00780e-05;-0.006420704355880528
1.00783e-05;-0.006394062873663324
1.00785e-05;-0.006368860156694032
1.00788e-05;-0.006345293851528394
1.00790e-05;-0.006323563101235276
1.00793e-05;-0.0063038599466785404
1.00795e-05;-0.006286335016899597
1.00798e-05;-0.006271072909453437
1.00800e-05;-0.006258635061608237
1.00803e-05;-0.006248145342619699
1.00805e-05;-0.006239764023836939
1.00808e-05;-0.0062340363900030725
1.00810e-05;-0.0062310110298206935
1.00813e-05;-0.006231386818479553
1.00815e-05;-0.006231762607138409
1.00818e-05;-0.0062362492659272075
1.00820e-05;-0.006245909968125951
1.00822e-05;-0.006255570670324629
1.00825e-05;-0.006265231372523374
1.00828e-05;-0.006274892074722117
1.00830e-05;-0.0062889341836711654
1.00833e-05;-0.006308490840151028
1.00835e-05;-0.006328047496630889
1.00837e-05;-0.0063476041531106185
1.00840e-05;-0.006367160809590481
1.00843e-05;-0.0063900095378686406
1.00845e-05;-0.006417001749607862
1.00848e-05;-0.006443993961346902
1.00850e-05;-0.006470986173086124
1.00853e-05;-0.006497978384825346
1.00855e-05;-0.006524970596564385
1.00858e-05;-0.006553219072446112
1.00860e-05;-0.00658304871362933
1.00863e-05;-0.006612878354812345
1.00865e-05;-0.006642707995995562
1.00868e-05;-0.00667253763717878
1.00870e-05;-0.006702367278361795
1.00873e-05;-0.0067313629608268056
1.00875e-05;-0.006759309002102863
1.00878e-05;-0.006787255043378731
1.00880e-05;-0.006811929882351287
1.00883e-05;-0.006832487504727528
1.00885e-05;-0.00685304512710363
1.00888e-05;-0.006873602749479871
1.00890e-05;-0.006894160371856113
1.00893e-05;-0.006914717994232215
1.00895e-05;-0.0069352756166084556
1.00898e-05;-0.006955833238984696
1.00900e-05;-0.0069763908613607985
1.00903e-05;-0.006996948483737039
1.00905e-05;-0.007013925845763008
1.00907e-05;-0.0070306857797647416
1.00910e-05;-0.0070474457137665895
1.00913e-05;-0.007064205647768437
1.00915e-05;-0.00708096558177017
1.00918e-05;-0.007097725515772017
1.00920e-05;-0.007114485449773865
1.00922e-05;-0.007131245383775599
1.00925e-05;-0.007148005317777446
1.00928e-05;-0.007165071869160541
1.00930e-05;-0.007182524336807405
1.00933e-05;-0.00719997680445415
1.00935e-05;-0.007217429272101014
1.00938e-05;-0.007234881739747878
1.00940e-05;-0.007252334207394623
1.00943e-05;-0.0072697866750414866
1.00945e-05;-0.00728723914268835
1.00948e-05;-0.007304691610335096
1.00950e-05;-0.007321925629133296
1.00953e-05;-0.007338884702776186
1.00955e-05;-0.00735584377641896
1.00958e-05;-0.007372802850061849
1.00960e-05;-0.007389761923704739
1.00963e-05;-0.007406720997347514
1.00965e-05;-0.007423680070990404
1.00968e-05;-0.007440639144633294
1.00970e-05;-0.007457598218276068
1.00973e-05;-0.007472259909177396
1.00975e-05;-0.007484030057007652
1.00978e-05;-0.007495800204837828
1.00980e-05;-0.007507570352668084
1.00983e-05;-0.007519340500498339
1.00985e-05;-0.007531110648328516
1.00988e-05;-0.007542880796158772
1.00990e-05;-0.007554650943989027
1.00992e-05;-0.0075664210918192035
1.00995e-05;-0.007578191239649459
1.00998e-05;-0.007585728959363419
1.01000e-05;-0.007587939639758772
1.01003e-05;-0.0075901503201541405
1.01005e-05;-0.007592361000549508
1.01007e-05;-0.007594571680944861
1.01010e-05;-0.007596782361340228
1.01013e-05;-0.007598993041735596
1.01015e-05;-0.007601203722130964
1.01018e-05;-0.007603414402526317
1.01020e-05;-0.007605625082921685
1.01023e-05;-0.007604001554150902
1.01025e-05;-0.007597552194338706
1.01028e-05;-0.007591102834526467
1.01030e-05;-0.007584653474714228
1.01033e-05;-0.007578204114902032
1.01035e-05;-0.007571754755089794
1.01038e-05;-0.007565305395277554
1.01040e-05;-0.007558856035465359
1.01043e-05;-0.00755240667565312
1.01045e-05;-0.00754595731584088
1.01048e-05;-0.007535274138853829
1.01050e-05;-0.007524333843552843
1.01053e-05;-0.007513393548251858
1.01055e-05;-0.007502453252950947
1.01058e-05;-0.007491512957649961
1.01060e-05;-0.007480572662348975
1.01063e-05;-0.007469632367048063
1.01065e-05;-0.007458692071747078
1.01068e-05;-0.007447751776446092
1.01070e-05;-0.007436812863571056
1.01073e-05;-0.007425875690651545
1.01075e-05;-0.007414938517732033
1.01077e-05;-0.007404001344812595
1.01080e-05;-0.0073930641718930835
1.01083e-05;-0.007383222134181931
1.01085e-05;-0.007374758460888398
1.01088e-05;-0.007366294787594808
1.01090e-05;-0.0073578311143012165
1.01092e-05;-0.007349367441007683
1.01095e-05;-0.007343261036044581
1.01098e-05;-0.007340121547645538
1.01100e-05;-0.007336982059246495
1.01103e-05;-0.007337760718903322
1.01105e-05;-0.007343470857177418
1.01108e-05;-0.007349180995451514
1.01110e-05;-0.007354891133725571
1.01113e-05;-0.007360601271999667
1.01115e-05;-0.007366311410273764
1.01118e-05;-0.007372021548547821
1.01120e-05;-0.007383264796008525
1.01123e-05;-0.007401472152342276
1.01125e-05;-0.007419679508675903
1.01128e-05;-0.007437886865009653
1.01130e-05;-0.007456094221343403
1.01133e-05;-0.0074743015776770295
1.01135e-05;-0.00749250893401078
1.01138e-05;-0.007514956168078976
1.01140e-05;-0.007542739817741918
1.01143e-05;-0.007570523467405049
1.01145e-05;-0.007598307117068179
1.01148e-05;-0.007626090766731121
1.01150e-05;-0.007653874416394251
1.01153e-05;-0.007681658066057382
1.01155e-05;-0.007709441715720324
1.01158e-05;-0.007739747981665682
1.01160e-05;-0.0077702074452620255
1.01162e-05;-0.007800666908858164
1.01165e-05;-0.007831126372454507
1.01168e-05;-0.007861585836050851
1.01170e-05;-0.007892045299646988
1.01173e-05;-0.007922504763243333
1.01175e-05;-0.007951554324617086
1.01177e-05;-0.007978829347977948
1.01180e-05;-0.008006104371338996
1.01183e-05;-0.008029452181009672
1.01185e-05;-0.008047857101828829
1.01188e-05;-0.00806626202264786
1.01190e-05;-0.008084666943467017
1.01193e-05;-0.008103071864286174
1.01195e-05;-0.008121476785105207
1.01198e-05;-0.008139881705924364
1.01200e-05;-0.00815828662674352
1.01203e-05;-0.00816280996622516
1.01205e-05;-0.008165413121309112
1.01208e-05;-0.008168016276393061
1.01210e-05;-0.008170619431476995
1.01213e-05;-0.008173222586560945
1.01215e-05;-0.008175825741644896
1.01218e-05;-0.008178428896728828
1.01220e-05;-0.008180032783785826
1.01223e-05;-0.011934242340816414
1.01225e-05;-0.021097746688737967
1.01228e-05;-0.02176620453851162
1.01230e-05;-0.019834062367363695
1.01233e-05;-0.015884374353366815
1.01235e-05;-0.008589512839496124
1.01238e-05;-0.006846949012860546
1.01240e-05;-0.007421118424522512
1.01243e-05;-0.009430327282650535
1.01245e-05;-0.01505095855754623
1.01247e-05;-0.016396714693543712
1.01250e-05;-0.01463542183653931
1.01253e-05;-0.012510883363085737
1.01255e-05;-0.008578038864359485
1.01258e-05;-0.006474518653350083
1.01260e-05;-0.006588821674168321
1.01262e-05;-0.007508136817659168
1.01265e-05;-0.00924305073014701
1.01268e-05;-0.010498774457936675
1.01270e-05;-0.01079167315082954
1.01273e-05;-0.009975523220257434
1.01275e-05;-0.008422257127568248
1.01278e-05;-0.007166846780557116
1.01280e-05;-0.006570244637438763
1.01283e-05;-0.00695887322160793
1.01285e-05;-0.00805544228739389
1.01288e-05;-0.008851717224891682
1.01290e-05;-0.00904494747737028
1.01293e-05;-0.008543342306612613
1.01295e-05;-0.007579304239331385
1.01298e-05;-0.006800720824951163
1.01300e-05;-0.0064336389583218995
1.01303e-05;-0.006682593463529219
1.01305e-05;-0.007373947613833405
1.01308e-05;-0.007876228466275217
1.01310e-05;-0.007999906667922305
1.01313e-05;-0.007687601363471042
1.01315e-05;-0.0070849951492988564
1.01318e-05;-0.006597999273326292
1.01320e-05;-0.006368254958107346
1.01323e-05;-0.006523911070763702
1.01325e-05;-0.0069562261992388704
1.01328e-05;-0.007269690837523881
1.01330e-05;-0.007345648424500688
1.01332e-05;-0.007148225355952499
1.01335e-05;-0.006768741782502209
1.01338e-05;-0.006461507239665922
1.01340e-05;-0.006315275110215872
1.01343e-05;-0.006410338609485645
1.01345e-05;-0.006678601283986232
1.01347e-05;-0.006872348419548132
1.01350e-05;-0.006917300186087809
1.01353e-05;-0.00679103529349154
1.01355e-05;-0.006550803979683773
1.01358e-05;-0.006355942309702062
1.01360e-05;-0.006262071797903232
1.01363e-05;-0.006319509585679931
1.01365e-05;-0.0064856210655648205
1.01368e-05;-0.006605267199418556
1.01370e-05;-0.006631957090318596
1.01373e-05;-0.006551687082299445
1.01375e-05;-0.006400357607178333
1.01378e-05;-0.006277810240572396
1.01380e-05;-0.006218913315999459
1.01383e-05;-0.006255208411445008
1.01385e-05;-0.00636001247206589
1.01388e-05;-0.006436175612800089
1.01390e-05;-0.006454540337133893
1.01393e-05;-0.0064060243550824614
1.01395e-05;-0.006312566512574505
1.01398e-05;-0.006236329452668016
1.01400e-05;-0.006199086194066984
1.01403e-05;-0.006220634941935371
1.01405e-05;-0.00628430532974109
1.01408e-05;-0.0063292906959981346
1.01410e-05;-0.00633737873060173
1.01413e-05;-0.006302932458471911
1.01415e-05;-0.0062397467133224575
1.01417e-05;-0.0061868096659205155
1.01420e-05;-0.006157806778630207
1.01423e-05;-0.006165185525845901
1.01425e-05;-0.006198550280954052
1.01428e-05;-0.006219859707444773
1.01430e-05;-0.006217755653590783
1.01432e-05;-0.006188758716482103
1.01435e-05;-0.006141560105687261
1.01438e-05;-0.006100631283704337
1.01440e-05;-0.00607459296062645
1.01443e-05;-0.006071289296657714
1.01445e-05;-0.006084255010509926
1.01448e-05;-0.006089709443376972
1.01450e-05;-0.006080587575369478
1.01453e-05;-0.006054759709613487
1.01455e-05;-0.006017720557766687
1.01458e-05;-0.005984847877390382
1.01460e-05;-0.005961589518172602
1.01463e-05;-0.005952906454546591
1.01465e-05;-0.005954796696305918
1.01468e-05;-0.0059524123177493666
