Time(s);Current(A)
3.75000e-06;0.002162401890412161
3.75025e-06;0.0021103081472804435
3.75050e-06;0.002058214404148726
3.75075e-06;0.0020061206610170962
3.75100e-06;0.0019540269178853786
3.75125e-06;0.0019020187549369607
3.75150e-06;0.0018514687880611662
3.75175e-06;0.0018009188211854572
3.75200e-06;0.0017503688543096627
3.75225e-06;0.001699818887433868
3.75250e-06;0.001649268920558159
3.75275e-06;0.0016053611418600493
3.75300e-06;0.001566769695505058
3.75325e-06;0.001528178249150067
3.75350e-06;0.0014895868027951411
3.75375e-06;0.00145099535644015
3.75400e-06;0.0014131563138988668
3.75425e-06;0.0013881374388774216
3.75450e-06;0.001363579734877921
3.75475e-06;0.0013468798987541866
3.75500e-06;0.0013306521337064143
3.75525e-06;0.0013224679619589911
3.75550e-06;0.0013147674357379504
3.75575e-06;0.0013153077192465496
3.75600e-06;0.001316333474637523
3.75625e-06;0.0013256311589382218
3.75650e-06;0.0013353899432718198
3.75675e-06;0.0013530053859017084
3.75700e-06;0.0013710511128406228
3.75725e-06;0.0013964284306380154
3.75750e-06;0.0014222985171369698
3.75775e-06;0.0014565648626503334
3.75800e-06;0.001490831208163697
3.75825e-06;0.0015256032843433682
3.75850e-06;0.001568992477746519
3.75875e-06;0.0016123816711497432
3.75900e-06;0.0016562769523159552
3.75925e-06;0.0017087954352567585
3.75950e-06;0.001761313918197651
3.75975e-06;0.0018138324011385432
3.76000e-06;0.0018663508840794357
3.76025e-06;0.001918869367020239
3.76050e-06;0.001971576872428373
3.76075e-06;0.002027505121340469
3.76100e-06;0.0020834333702524706
3.76125e-06;0.002139361619164566
3.76150e-06;0.002195289868076662
3.76175e-06;0.0022512181169886637
3.76200e-06;0.0023061568358985008
3.76225e-06;0.0023442350070995615
3.76250e-06;0.0023823131783006226
3.76275e-06;0.002420391349501619
3.76300e-06;0.00245846952070268
3.76325e-06;0.0024965476919037413
3.76350e-06;0.002534625863104738
3.76375e-06;0.002572704034305799
3.76400e-06;0.0026107822055068597
3.76425e-06;0.0026488603767079208
3.76450e-06;0.0026869385479089173
3.76475e-06;0.0027250167191099784
3.76500e-06;0.0027610750395382373
3.76525e-06;0.002762717232873033
3.76550e-06;0.0027643594262078313
3.76575e-06;0.0027660016195426296
3.76600e-06;0.0027676438128774253
3.76625e-06;0.002769286006212224
3.76650e-06;0.0027709281995470223
3.76675e-06;0.002772570392881821
3.76700e-06;0.0027742125862166168
3.76725e-06;0.002775854779551415
3.76750e-06;0.0027774969728862134
3.76775e-06;0.002779139166221009
3.76800e-06;0.0027794802046046192
3.76825e-06;0.002757650934778207
3.76850e-06;0.002735821664951795
3.76875e-06;0.00271399239512542
3.76900e-06;0.0026921631252990077
3.76925e-06;0.0026703338554725955
3.76950e-06;0.00264850458564622
3.76975e-06;0.002626675315819808
3.77000e-06;0.002604446800056074
3.77025e-06;0.002575415554552549
3.77050e-06;0.0025463843090489744
3.77075e-06;0.0025173530635454
3.77100e-06;0.002488321818041825
3.77125e-06;0.0024592905725382996
3.77150e-06;0.002430259327034725
3.77175e-06;0.0024012280815311504
3.77200e-06;0.0023727794422060884
3.77225e-06;0.002354257797764939
3.77250e-06;0.00233573615332379
3.77275e-06;0.0023172145088826406
3.77300e-06;0.0022986928644415225
3.77325e-06;0.0022801712200003735
3.77350e-06;0.002261649575559224
3.77375e-06;0.002243127931118106
3.77400e-06;0.002224606286676957
3.77425e-06;0.0022060846422358076
3.77450e-06;0.0021875629977946894
3.77475e-06;0.0021690413533535405
3.77500e-06;0.002150519708912391
3.77525e-06;0.0021319980644712417
3.77550e-06;0.002114781508576305
3.77575e-06;0.0021198022852068183
3.77600e-06;0.0021248230618373318
3.77625e-06;0.0021298438384678366
3.77650e-06;0.00213486461509835
3.77675e-06;0.002139885391728864
3.77700e-06;0.0021449061683593775
3.77725e-06;0.0021499269449898823
3.77750e-06;0.0021549477216203958
3.77775e-06;0.0021599684982509092
3.77800e-06;0.0021649892748814145
3.77825e-06;0.002170010051511928
3.77850e-06;0.0021750308281424414
3.77875e-06;0.0021800516047729463
3.77900e-06;0.0021857542615569083
3.77925e-06;0.002203075437069052
3.77950e-06;0.0022203966125811958
3.77975e-06;0.0022377177880933104
3.78000e-06;0.002255038963605454
3.78025e-06;0.002272360139117598
3.78050e-06;0.0022896813146297125
3.78075e-06;0.002307002490141856
3.78100e-06;0.0023243236656540003
3.78125e-06;0.0023415511052250542
3.78150e-06;0.0023587035196082837
3.78175e-06;0.0023758559339915426
3.78200e-06;0.0023930083483748015
3.78225e-06;0.0024101607627580314
3.78250e-06;0.0024273131771412903
3.78275e-06;0.002444465591524549
3.78300e-06;0.0024616180059077787
3.78325e-06;0.00247814850767104
3.78350e-06;0.0024840822742347745
3.78375e-06;0.002490016040798509
3.78400e-06;0.0024959498073622334
3.78425e-06;0.0025018835739259683
3.78450e-06;0.0025078173404897027
3.78475e-06;0.002513751107053427
3.78500e-06;0.0025196848736171616
3.78525e-06;0.002525618640180896
3.78550e-06;0.002531552406744631
3.78575e-06;0.0025374861733083553
3.78600e-06;0.0025434199398720898
3.78625e-06;0.002549353706435824
3.78650e-06;0.0025552874729995487
3.78675e-06;0.0025534533392456526
3.78700e-06;0.0025454018658742413
3.78725e-06;0.002537350392502844
3.78750e-06;0.0025292989191314326
3.78775e-06;0.0025212474457600217
3.78800e-06;0.0025131959723886104
3.78825e-06;0.002505144499017213
3.78850e-06;0.002497093025645802
3.78875e-06;0.0024890415522743907
3.78900e-06;0.0024809900789029933
3.78925e-06;0.002472938605531582
3.78950e-06;0.002464887132160171
3.78975e-06;0.0024568356587887598
3.79000e-06;0.002448543095431602
3.79025e-06;0.0024361426129608115
3.79050e-06;0.002423742130490021
3.79075e-06;0.0024113416480192515
3.79100e-06;0.002398941165548461
3.79125e-06;0.0023865406830776703
3.79150e-06;0.0023741402006069007
3.79175e-06;0.0023617397181361103
3.79200e-06;0.00234933923566532
3.79225e-06;0.002336938753194529
3.79250e-06;0.0023245382707237595
3.79275e-06;0.002312137788252969
3.79300e-06;0.0022998512798612218
3.79325e-06;0.002289506769584127
3.79350e-06;0.0022791622593070146
3.79375e-06;0.002268817749029902
3.79400e-06;0.00225847323875279
3.79425e-06;0.002248128728475695
3.79450e-06;0.002237784218198583
3.79475e-06;0.0022274397079214705
3.79500e-06;0.0022170951976443758
3.79525e-06;0.0022067506873672633
3.79550e-06;0.002196406177090151
3.79575e-06;0.002186061666813056
3.79600e-06;0.002175472225988889
3.79625e-06;0.0021607094269357995
3.79650e-06;0.00214594662788271
3.79675e-06;0.0021311838288296456
3.79700e-06;0.002116421029776556
3.79725e-06;0.0021016582307234665
3.79750e-06;0.0020868954316704018
3.79775e-06;0.0020721326326173122
3.79800e-06;0.0020573698335642227
3.79825e-06;0.002042607034511133
3.79850e-06;0.0020278442354580684
3.79875e-06;0.002013081436404979
3.79900e-06;0.001996691086440403
3.79925e-06;0.0019789980631216048
3.79950e-06;0.0019613050398027765
3.79975e-06;0.0019436120164839478
3.80000e-06;0.0019259189931651495
3.80025e-06;0.001908225969846321
3.80050e-06;0.0018905329465274926
3.80075e-06;0.001872839923208664
3.80100e-06;0.0018551468998898655
3.80125e-06;0.0018374538765710373
3.80150e-06;0.0018197608532522088
3.80175e-06;0.001802364957724845
3.80200e-06;0.001790031806426857
3.80225e-06;0.0017776986551288692
3.80250e-06;0.0017653655038308812
3.80275e-06;0.0017530323525329142
3.80300e-06;0.0017406992012349261
3.80325e-06;0.0017283660499369383
3.80350e-06;0.0017160328986389713
3.80375e-06;0.0017036997473409833
3.80400e-06;0.0016913665960429953
3.80425e-06;0.0016790334447450283
3.80450e-06;0.0016667002934470404
3.80475e-06;0.0016543671421490524
3.80500e-06;0.0016420339908510646
3.80525e-06;0.0016339599828231845
3.80550e-06;0.0016292949449301494
3.80575e-06;0.0016246299070371143
3.80600e-06;0.0016199648691440872
3.80625e-06;0.001615299831251052
3.80650e-06;0.001610634793358017
3.80675e-06;0.0016059697554649819
3.80700e-06;0.0016013047175719548
3.80725e-06;0.0015966396796789197
3.80750e-06;0.0015919746417858845
3.80775e-06;0.0015873096038928575
3.80800e-06;0.0015826445659998223
3.80825e-06;0.0015779795281067872
3.80850e-06;0.001573530085138037
3.80875e-06;0.0015727541523239009
3.80900e-06;0.0015719782195097647
3.80925e-06;0.0015712022866956282
3.80950e-06;0.0015704263538814933
3.80975e-06;0.001569650421067357
3.81000e-06;0.0015688744882532207
3.81025e-06;0.0015680985554390858
3.81050e-06;0.0015673226226249495
3.81075e-06;0.0015665466898108131
3.81100e-06;0.001565770756996677
3.81125e-06;0.001564994824182542
3.81150e-06;0.0015642188913684056
3.81175e-06;0.0015634429585542693
3.81200e-06;0.0015626670257401344
3.81225e-06;0.001561891092925998
3.81250e-06;0.0015611151601118618
3.81275e-06;0.0015616075080568982
3.81300e-06;0.0015631149735869734
3.81325e-06;0.0015646224391170486
3.81350e-06;0.0015661299046471238
3.81375e-06;0.0015676373701771964
3.81400e-06;0.0015691448357072716
3.81425e-06;0.0015706523012373466
3.81450e-06;0.0015721597667674194
3.81475e-06;0.0015736672322974943
3.81500e-06;0.0015751746978275671
3.81525e-06;0.0015766821633576447
3.81550e-06;0.0015781896288877173
3.81575e-06;0.00157969709441779
3.81600e-06;0.0015812045599478677
3.81625e-06;0.0015827120254779403
3.81650e-06;0.001584219491008018
3.81675e-06;0.0015859640250943136
3.81700e-06;0.0015917479573778336
3.81725e-06;0.0015975318896613731
3.81750e-06;0.001603315821944893
3.81775e-06;0.001609099754228413
3.81800e-06;0.0016148836865119524
3.81825e-06;0.0016206676187954722
3.81850e-06;0.0016264515510789922
3.81875e-06;0.0016322354833625318
3.81900e-06;0.0016380194156460515
3.81925e-06;0.0016438033479295715
3.81950e-06;0.001649587280213111
3.81975e-06;0.0016553712124966309
3.82000e-06;0.0016616980455196491
3.82025e-06;0.0016684594101584783
3.82050e-06;0.0016752207747972845
3.82075e-06;0.0016819821394361137
3.82100e-06;0.0016887435040749202
3.82125e-06;0.0016955048687137264
3.82150e-06;0.0017022662333525556
3.82175e-06;0.0017090275979913618
3.82200e-06;0.0017157889626301683
3.82225e-06;0.0017225503272689975
3.82250e-06;0.0017293116919078037
3.82275e-06;0.0017360730565466101
3.82300e-06;0.0017425571464793944
3.82325e-06;0.0017443167678241414
3.82350e-06;0.0017460763891688881
3.82375e-06;0.001747836010513641
3.82400e-06;0.001749595631858388
3.82425e-06;0.001751355253203135
3.82450e-06;0.0017531148745478877
3.82475e-06;0.0017548744958926345
3.82500e-06;0.0017566341172373873
3.82525e-06;0.0017583937385821343
3.82550e-06;0.0017601533599268812
3.82575e-06;0.001761912981271634
3.82600e-06;0.0017636726026163808
3.82625e-06;0.0017654322239611278
3.82650e-06;0.0017671918453058806
3.82675e-06;0.0017689514666506276
3.82700e-06;0.0017670637323747365
3.82725e-06;0.0017622566958845102
3.82750e-06;0.0017574496593943
3.82775e-06;0.0017526426229040899
3.82800e-06;0.0017478355864138633
3.82825e-06;0.0017430285499236533
3.82850e-06;0.001738221513433443
3.82875e-06;0.0017334144769432167
3.82900e-06;0.0017286074404530064
3.82925e-06;0.00172380040396278
3.82950e-06;0.0017189933674725698
3.82975e-06;0.0017141863309823597
3.83000e-06;0.0017093792944921332
3.83025e-06;0.001704572258001923
3.83050e-06;0.0016997652215117128
3.83075e-06;0.0016948682091032605
3.83100e-06;0.001688438101934407
3.83125e-06;0.001682007994765554
3.83150e-06;0.0016755778875966788
3.83175e-06;0.0016691477804278256
3.83200e-06;0.0016627760100748846
3.83225e-06;0.0016573982375445917
3.83250e-06;0.001652020465014317
3.83275e-06;0.0016466426924840421
3.83300e-06;0.0016412649199537494
3.83325e-06;0.0016358871474234746
3.83350e-06;0.0016305093748931816
3.83375e-06;0.0016250046526436466
3.83400e-06;0.0016173368410561937
3.83425e-06;0.001609669029468715
3.83450e-06;0.0016020012178812621
3.83475e-06;0.0015943334062938092
3.83500e-06;0.0015866655947063303
3.83525e-06;0.0015789977831188774
3.83550e-06;0.0015708865083464564
3.83575e-06;0.001555219088569255
3.83600e-06;0.0015395516687921067
3.83625e-06;0.0015238842490149585
3.83650e-06;0.001508216829237757
3.83675e-06;0.0014925494094606088
3.83700e-06;0.0014768819896834604
3.83725e-06;0.001461214569906259
3.83750e-06;0.0014455471501291107
3.83775e-06;0.001429427743455135
3.83800e-06;0.0014056069567182294
3.83825e-06;0.0013817861699813238
3.83850e-06;0.0013579653832443376
3.83875e-06;0.001334144596507432
3.83900e-06;0.0013103238097705264
3.83925e-06;0.0012865030230335402
3.83950e-06;0.0012626822362966346
3.83975e-06;0.001238861449559729
3.84000e-06;0.0012149059072216323
3.84025e-06;0.001188654271552212
3.84050e-06;0.0011624026358827918
3.84075e-06;0.0011361510002132827
3.84100e-06;0.0011098993645438627
3.84125e-06;0.0010836477288744424
3.84150e-06;0.0010575532071464891
3.84175e-06;0.001034135741292053
3.84200e-06;0.0010107182754375374
3.84225e-06;0.0009873008095831013
3.84250e-06;0.0009638833437286651
3.84275e-06;0.0009404658778741496
3.84300e-06;0.0009173344518513076
3.84325e-06;0.000899076842903653
3.84350e-06;0.0008808192339559366
3.84375e-06;0.0008628822306169332
3.84400e-06;0.0008504080087410422
3.84425e-06;0.0008383133785019986
3.84450e-06;0.0008326865894406459
3.84475e-06;0.0008274350439336697
3.84500e-06;0.0008285772528637785
3.84525e-06;0.0008300837504390925
3.84550e-06;0.0008377973423518538
3.84575e-06;0.0008459082602700349
3.84600e-06;0.0008607891943017152
3.84625e-06;0.0008760947189943024
3.84650e-06;0.0008986348207757898
3.84675e-06;0.0009215599674480021
3.84700e-06;0.0009510458729910717
3.84725e-06;0.0009808731328591158
3.84750e-06;0.0010165167104347994
3.84775e-06;0.0010524855213559267
3.84800e-06;0.0010939959654904005
3.84825e-06;0.0011358755938292485
3.84850e-06;0.0011840457316694244
3.84875e-06;0.0012322158695094372
3.84900e-06;0.0012807909270376994
3.84925e-06;0.001336265389025485
3.84950e-06;0.0013917398510130824
3.84975e-06;0.00144721431300068
3.85000e-06;0.0015026887749884654
3.85025e-06;0.001558163236976063
3.85050e-06;0.0016151654788979094
3.85075e-06;0.0016733905386104022
3.85100e-06;0.0017316155983228953
3.85125e-06;0.0017898406580355854
3.85150e-06;0.0018480657177480783
3.85175e-06;0.001905653932007441
3.85200e-06;0.001952390971365851
3.85225e-06;0.001999128010724103
3.85250e-06;0.002045865050082354
3.85275e-06;0.002092602089440764
3.85300e-06;0.002139339128799016
3.85325e-06;0.0021860761681572675
3.85350e-06;0.0022328132075156775
3.85375e-06;0.0022795502468739293
3.85400e-06;0.002325195349786902
3.85425e-06;0.0023522350072373785
3.85450e-06;0.002379274664687763
3.85475e-06;0.002406314322138239
3.85500e-06;0.002433353979588624
3.85525e-06;0.0024603936370390083
3.85550e-06;0.0024874332944894843
3.85575e-06;0.002514472951939869
3.85600e-06;0.0025415126093902536
3.85625e-06;0.0025677982773296654
3.85650e-06;0.0025812367591671746
3.85675e-06;0.002594675241004684
3.85700e-06;0.0026081137228422383
3.85725e-06;0.0026215522046797476
3.85750e-06;0.002634990686517257
3.85775e-06;0.0026484291683548117
3.85800e-06;0.002661867650192321
3.85825e-06;0.0026753061320298303
3.85850e-06;0.002688744613867385
3.85875e-06;0.0027021830957048945
3.85900e-06;0.002715621577542449
3.85925e-06;0.002729060059379958
3.85950e-06;0.0027378225938570547
3.85975e-06;0.00274284255291941
3.86000e-06;0.002747862511981749
3.86025e-06;0.0027528824710440873
3.86050e-06;0.0027579024301064427
3.86075e-06;0.0027629223891687815
3.86100e-06;0.00276794234823112
3.86125e-06;0.0027729623072934757
3.86150e-06;0.002777982266355814
3.86175e-06;0.0027830022254181526
3.86200e-06;0.0027880221844805084
3.86225e-06;0.002793042143542847
3.86250e-06;0.002797744884353213
3.86275e-06;0.002797042560695085
3.86300e-06;0.002796340237036959
3.86325e-06;0.002795637913378831
3.86350e-06;0.0027949355897207056
3.86375e-06;0.0027942332660625797
3.86400e-06;0.002793530942404452
3.86425e-06;0.002792828618746326
3.86450e-06;0.0027921262950882006
3.86475e-06;0.0027914239714300726
3.86500e-06;0.0027907216477719467
3.86525e-06;0.002790019324113821
3.86550e-06;0.002789317000455693
3.86575e-06;0.0027886146767975672
3.86600e-06;0.0027879123531394418
3.86625e-06;0.0027872100294813137
3.86650e-06;0.002786507705823188
3.86675e-06;0.0027858053821650623
3.86700e-06;0.002780409201097941
3.86725e-06;0.0027712561096161865
3.86750e-06;0.002762103018134401
3.86775e-06;0.0027529499266526463
3.86800e-06;0.0027437968351708914
3.86825e-06;0.002734643743689106
3.86850e-06;0.002725490652207351
3.86875e-06;0.0027163375607255967
3.86900e-06;0.002707184469243811
3.86925e-06;0.0026980313777620565
3.86950e-06;0.0026888782862803016
3.86975e-06;0.002679725194798516
3.87000e-06;0.0026705721033167614
3.87025e-06;0.002661419011835007
3.87050e-06;0.002652265920353221
3.87075e-06;0.0026431128288714662
3.87100e-06;0.0026339597373897117
3.87125e-06;0.002624767977314093
3.87150e-06;0.0026149173451808644
3.87175e-06;0.002605066713047636
3.87200e-06;0.002595216080914374
3.87225e-06;0.002585365448781146
3.87250e-06;0.002575514816647884
3.87275e-06;0.0025656641845146558
3.87300e-06;0.0025558361490424742
3.87325e-06;0.002546393136843211
3.87350e-06;0.0025369501246439792
3.87375e-06;0.0025275071124447475
3.87400e-06;0.002518064100245484
3.87425e-06;0.0025086210880462525
3.87450e-06;0.002499178075847021
3.87475e-06;0.002489105433271299
3.87500e-06;0.0024683045531148414
3.87525e-06;0.002447503672958384
3.87550e-06;0.0024267027928018565
3.87575e-06;0.0024059019126453987
3.87600e-06;0.0023851010324889414
3.87625e-06;0.0023643001523324133
3.87650e-06;0.002343499272175956
3.87675e-06;0.002322698392019428
3.87700e-06;0.0023018975118629706
3.87725e-06;0.0022802646716934697
3.87750e-06;0.0022444561103235716
3.87775e-06;0.002208647548953795
3.87800e-06;0.0021728389875840183
3.87825e-06;0.0021370304262141203
3.87850e-06;0.002101221864844343
3.87875e-06;0.0020654133034745665
3.87900e-06;0.0020296047421046685
3.87925e-06;0.001993796180734892
3.87950e-06;0.001957987619365115
3.87975e-06;0.001921874627732446
3.88000e-06;0.0018805744654893015
3.88025e-06;0.0018392743032461568
3.88050e-06;0.0017979741410028725
3.88075e-06;0.0017566739787597278
3.88100e-06;0.0017153738165164433
3.88125e-06;0.0016740736542732986
3.88150e-06;0.0016350912086451424
3.88175e-06;0.0015979638371974162
3.88200e-06;0.0015608364657498158
3.88225e-06;0.0015237090943022156
3.88250e-06;0.0014865817228544894
3.88275e-06;0.001449454351406889
3.88300e-06;0.0014127850276282725
3.88325e-06;0.0013839203530475808
3.88350e-06;0.0013550556784669868
3.88375e-06;0.001326497046512001
3.88400e-06;0.0013031530581281122
3.88425e-06;0.0012798090697443024
3.88450e-06;0.0012566798965358494
3.88475e-06;0.0012372109473594124
3.88500e-06;0.0012177419981830413
3.88525e-06;0.0011987127095734317
3.88550e-06;0.0011871747733312463
3.88575e-06;0.001175636837089061
3.88600e-06;0.0011640989008468363
3.88625e-06;0.0011525609646046509
3.88650e-06;0.0011410230283624655
3.88675e-06;0.0011294850921202409
3.88700e-06;0.0011179471558780555
3.88725e-06;0.00110640921963587
3.88750e-06;0.0010993275974492394
3.88775e-06;0.0010958127586607996
3.88800e-06;0.0010922979198723596
3.88825e-06;0.0010887830810839077
3.88850e-06;0.0010852682422954679
3.88875e-06;0.0010817534035070279
3.88900e-06;0.001078238564718576
3.88925e-06;0.001074723725930136
3.88950e-06;0.0010714685829311347
3.88975e-06;0.0010726383822925126
3.89000e-06;0.0010738081816538906
3.89025e-06;0.0010749779810152727
3.89050e-06;0.0010761477803766506
3.89075e-06;0.0010773175797380286
3.89100e-06;0.0010784873790994104
3.89125e-06;0.0010796571784607884
3.89150e-06;0.0010808269778221663
3.89175e-06;0.0010819967771835482
3.89200e-06;0.0010832438597994504
3.89225e-06;0.0010858077675643025
3.89250e-06;0.0010883716753291631
3.89275e-06;0.0010909355830940153
3.89300e-06;0.0010934994908588672
3.89325e-06;0.001096063398623728
3.89350e-06;0.0010986273063885801
3.89375e-06;0.0011011912141534407
3.89400e-06;0.0011037551219182928
3.89425e-06;0.001106319029683145
3.89450e-06;0.001109363631435778
3.89475e-06;0.0011205987517655608
3.89500e-06;0.0011318338720953437
3.89525e-06;0.0011430689924251645
3.89550e-06;0.0011543041127549472
3.89575e-06;0.00116553923308473
3.89600e-06;0.0011767743534145509
3.89625e-06;0.0011880094737443338
3.89650e-06;0.0011992445940741166
3.89675e-06;0.0012132192095612967
3.89700e-06;0.0012357112217640752
3.89725e-06;0.0012582032339668535
3.89750e-06;0.0012806952461697084
3.89775e-06;0.0013031872583724867
3.89800e-06;0.0013256792705753414
