Time(s);Current(A)
1.02500e-05;0.0027304165271492204
1.02503e-05;0.002694863993540194
1.02505e-05;0.002662976905569222
1.02508e-05;0.002631089817598466
1.02510e-05;0.002607458640499812
1.02513e-05;0.002587643821402293
1.02515e-05;0.0025678290023049086
1.02518e-05;0.0025567944280140745
1.02520e-05;0.0025498185890995293
1.02522e-05;0.0025428427501850313
1.02525e-05;0.002544273185341171
1.02528e-05;0.0025495894850379465
1.02530e-05;0.0025549057847346858
1.02533e-05;0.0025679685225396477
1.02535e-05;0.002584612110660424
1.02537e-05;0.0026012556987810875
1.02540e-05;0.0026290918817969623
1.02543e-05;0.0026621019274843203
1.02545e-05;0.002695111973171454
1.02548e-05;0.0027281220188588116
1.02550e-05;0.002761132064546169
1.02553e-05;0.0027941421102335266
1.02555e-05;0.002827152155920661
1.02558e-05;0.0028625737849937087
1.02560e-05;0.00290869924292626
1.02563e-05;0.0029548247008584993
1.02565e-05;0.003000950158791051
1.02568e-05;0.0030470756167236025
1.02570e-05;0.0030932010746558417
1.02573e-05;0.0031393265325883935
1.02575e-05;0.0031854519905209454
1.02578e-05;0.0032299868786234876
1.02580e-05;0.003273786513646366
1.02583e-05;0.003317586148669245
1.02585e-05;0.0033613857836918264
1.02588e-05;0.003405185418714705
1.02590e-05;0.0034489850537375837
1.02593e-05;0.0034927846887601657
1.02595e-05;0.003529200839431687
1.02598e-05;0.003562203917939213
1.02600e-05;0.003595206996446515
1.02603e-05;0.00362821007495404
1.02605e-05;0.003661213153461566
1.02607e-05;0.003694216231968868
1.02610e-05;0.0037272193104763932
1.02613e-05;0.0037627890198568296
1.02615e-05;0.003799545174006351
1.02618e-05;0.003836301328156122
1.02620e-05;0.0038730574823058923
1.02622e-05;0.003909813636455414
1.02625e-05;0.003946569790605185
1.02628e-05;0.003983325944754956
1.02630e-05;0.004020082098904477
1.02633e-05;0.004056838253054248
1.02635e-05;0.004093594407204019
1.02638e-05;0.0041303505613537895
1.02640e-05;0.004167106715503311
1.02643e-05;0.004205548379078734
1.02645e-05;0.004251471187427866
1.02648e-05;0.004297393995776688
1.02650e-05;0.0043433168041258205
1.02653e-05;0.004389239612474953
1.02655e-05;0.004435162420823775
1.02658e-05;0.004481085229172907
1.02660e-05;0.004527008037522039
1.02663e-05;0.0045729308458708606
1.02665e-05;0.004618853654219993
1.02668e-05;0.004664776462569126
1.02670e-05;0.004710699270917947
1.02673e-05;0.00475662207926708
1.02675e-05;0.004800188450710251
1.02678e-05;0.004842665541153847
1.02680e-05;0.00488514263159773
1.02683e-05;0.004927619722041614
1.02685e-05;0.0049700968124852096
1.02688e-05;0.005012573902929094
1.02690e-05;0.005055050993372977
1.02692e-05;0.0050856674141104745
1.02695e-05;0.005110801149477729
1.02698e-05;0.005135934884844983
1.02700e-05;0.005161068620212067
1.02703e-05;0.005186202355579321
1.02705e-05;0.005211336090946575
1.02707e-05;0.0052364698263136595
1.02710e-05;0.005230692036607884
1.02713e-05;0.005210625157794697
1.02715e-05;0.0051905582789816464
1.02718e-05;0.00517049140016846
1.02720e-05;0.005150424521355274
1.02723e-05;0.005130357642542087
1.02725e-05;0.005110290763729037
1.02728e-05;0.005090223884915849
1.02730e-05;0.005060515170628574
1.02733e-05;0.004988011105574703
1.02735e-05;0.004915507040520341
1.02738e-05;0.004843002975465979
1.02740e-05;0.004770498910412107
1.02743e-05;0.004697994845357745
1.02745e-05;0.004625490780303383
1.02748e-05;0.004552986715249512
1.02750e-05;0.0044804826501951495
1.02753e-05;0.004386921992724409
1.02755e-05;0.004283627764211073
1.02758e-05;0.0041803335356970376
1.02760e-05;0.004077039307183002
1.02763e-05;0.003973745078669666
1.02765e-05;0.003870450850155631
1.02768e-05;0.0037627463039703298
1.02770e-05;0.0036530030546788987
1.02773e-05;0.0035432598053867235
1.02775e-05;0.0034335165560945486
1.02777e-05;0.003323773306803117
1.02780e-05;0.0032140300575109423
1.02783e-05;0.0031097087469840264
1.02785e-05;0.0030078937691600284
1.02788e-05;0.0029060787913353404
1.02790e-05;0.0028129070170943966
1.02792e-05;0.0027237306298793468
1.02795e-05;0.002634554242663693
1.02798e-05;0.0025556897296186184
1.02800e-05;0.0024815919593528858
1.02803e-05;0.002415608786149437
1.02805e-05;0.0023533766475604123
1.02808e-05;0.002298131541273808
1.02810e-05;0.0022461162441593115
1.02813e-05;0.0022017471784017972
1.02815e-05;0.0021609126416258506
1.02818e-05;0.0021284323382842404
1.02820e-05;0.0020998138433042032
1.02823e-05;0.0020788500187031433
1.02825e-05;0.0020614246240862407
1.02828e-05;0.0020505188514270017
1.02830e-05;0.0020426268239296837
1.02833e-05;0.00204288009773439
1.02835e-05;0.002046898599423445
1.02838e-05;0.0020509171011125
1.02840e-05;0.0020641133839116527
1.02843e-05;0.0020815521662907233
1.02845e-05;0.002098990948669794
1.02848e-05;0.0021233294539753623
1.02850e-05;0.002150857409025632
1.02853e-05;0.002178385364075902
1.02855e-05;0.0022139489376420234
1.02858e-05;0.002253227037385243
1.02860e-05;0.0022925051371284625
1.02862e-05;0.0023317832368714157
1.02865e-05;0.0023710613366146353
1.02868e-05;0.002410339436357855
1.02870e-05;0.002450567411384764
1.02873e-05;0.0024950114141689796
1.02875e-05;0.002539455416953195
1.02877e-05;0.0025838994197371094
1.02880e-05;0.002628343422521325
1.02883e-05;0.0026727874253055406
1.02885e-05;0.0027172314280894546
1.02888e-05;0.00275162816433251
1.02890e-05;0.0027813804746979888
1.02893e-05;0.002811132785063468
1.02895e-05;0.002840885095428745
1.02898e-05;0.002870637405794224
1.02900e-05;0.0029003897161597025
1.02903e-05;0.00293014202652498
1.02905e-05;0.0029598943368904585
1.02908e-05;0.002989646647255937
1.02910e-05;0.0030193989576212145
1.02913e-05;0.0030251757525234613
1.02915e-05;0.0030198696818529687
1.02918e-05;0.003014563611182512
1.02920e-05;0.0030092575405120192
1.02923e-05;0.0030039514698415267
1.02925e-05;0.0029986453991710698
1.02928e-05;0.0029933393285005772
1.02930e-05;0.0029880332578300847
1.02933e-05;0.0029827271871596278
1.02935e-05;0.0029774211164891352
1.02938e-05;0.0029525943102216247
1.02940e-05;0.002918743894479031
1.02943e-05;0.002884893478736208
1.02945e-05;0.002851043062993385
1.02947e-05;0.002817192647250791
1.02950e-05;0.0027833422315079685
1.02953e-05;0.0027494918157651453
1.02955e-05;0.002706265078227212
1.02958e-05;0.002658704064156105
1.02960e-05;0.002611143050084998
1.02962e-05;0.0025635820360142133
1.02965e-05;0.0025160210219431064
1.02968e-05;0.0024684600078719995
1.02970e-05;0.002420898993801215
1.02973e-05;0.0023718191150478188
1.02975e-05;0.0023220371294668976
1.02978e-05;0.0022722551438859764
1.02980e-05;0.0022224731583053926
1.02983e-05;0.002172691172724471
1.02985e-05;0.0021273763753282184
1.02988e-05;0.002084126569870621
1.02990e-05;0.002040876764412731
1.02993e-05;0.001997626958954841
1.02995e-05;0.001954377153497244
1.02998e-05;0.0019190073774499649
1.03000e-05;0.0018872802053260759
1.03003e-05;0.0018555530332024016
1.03005e-05;0.0018333535033280251
1.03008e-05;0.0018155581990258387
1.03010e-05;0.0018064972423941573
1.03013e-05;0.0018014738048419863
1.03015e-05;0.0018049182488688988
1.03018e-05;0.0018122770359845371
1.03020e-05;0.0018282882883760168
1.03023e-05;0.001848299209083221
1.03025e-05;0.0018779840351474185
1.03028e-05;0.0019121406980250675
1.03030e-05;0.001955513130878092
1.03032e-05;0.002003145623956478
1.03035e-05;0.0020589941415839535
1.03038e-05;0.00211864057945988
1.03040e-05;0.00218764469821824
1.03043e-05;0.0022609744766063826
1.03045e-05;0.002334304254994525
1.03047e-05;0.0024177811874003027
1.03050e-05;0.0025059487194370044
1.03053e-05;0.002594116251473706
1.03055e-05;0.0026913500527651945
1.03058e-05;0.0027927748064311185
1.03060e-05;0.0028941995600970426
1.03063e-05;0.0029956243137629667
1.03065e-05;0.003097049067428204
1.03068e-05;0.0031993468254797037
1.03070e-05;0.0033055194192981733
1.03073e-05;0.0034116920131159233
1.03075e-05;0.003517864606934393
1.03078e-05;0.0036240372007528623
1.03080e-05;0.0037302097945706124
1.03083e-05;0.0038256556491000964
1.03085e-05;0.003916142986269835
1.03088e-05;0.004006630323438961
1.03090e-05;0.0040971176606087
1.03093e-05;0.004187604997778439
1.03095e-05;0.004278092334947564
1.03098e-05;0.00436349166988517
1.03100e-05;0.004426307873098825
1.03103e-05;0.0044891240763120545
1.03105e-05;0.004551940279525709
1.03108e-05;0.004614756482739364
1.03110e-05;0.004677572685952594
1.03113e-05;0.004740388889166248
1.03115e-05;0.004787021516989114
1.03117e-05;0.00482617316318569
1.03120e-05;0.004865324809382533
1.03123e-05;0.004904476455579375
1.03125e-05;0.004943628101775952
1.03128e-05;0.004982779747972794
1.03130e-05;0.0050219313941696365
1.03132e-05;0.005061083040366213
1.03135e-05;0.005100234686563055
1.03138e-05;0.005139386332759897
1.03140e-05;0.0051785379789564745
1.03143e-05;0.0052176896251533164
1.03145e-05;0.005253850507699503
1.03148e-05;0.005276736865901007
1.03150e-05;0.005299623224102355
1.03153e-05;0.005322509582303859
1.03155e-05;0.005345395940505363
1.03158e-05;0.0053682822987067115
1.03160e-05;0.005391168656908215
1.03163e-05;0.005414055015109719
1.03165e-05;0.005436941373311068
1.03168e-05;0.005459827731512571
1.03170e-05;0.005482714089714075
1.03173e-05;0.005505600447915424
1.03175e-05;0.0055284868061169275
1.03178e-05;0.005543224273894885
1.03180e-05;0.005554194854685546
1.03183e-05;0.00556516543547628
1.03185e-05;0.005576136016267015
1.03188e-05;0.0055871065970576755
1.03190e-05;0.00559807717784841
1.03193e-05;0.005609047758639144
1.03195e-05;0.0056200183394298055
1.03198e-05;0.0056309889202205395
1.03200e-05;0.005641959501011274
1.03202e-05;0.005652930081801935
1.03205e-05;0.0056639006625926695
1.03208e-05;0.005674871243383404
1.03210e-05;0.005685841824174065
1.03213e-05;0.005681834005794477
1.03215e-05;0.005670902307721232
1.03217e-05;0.005659970609648062
1.03220e-05;0.005649038911574818
1.03223e-05;0.005638107213501573
1.03225e-05;0.005627175515428403
1.03228e-05;0.005616243817355158
1.03230e-05;0.005605312119281914
1.03232e-05;0.005594380421208744
1.03235e-05;0.005583448723135499
1.03238e-05;0.005572517025062254
1.03240e-05;0.00556158532698901
1.03243e-05;0.0055506536289158396
1.03245e-05;0.005539721930842595
1.03248e-05;0.005517082974323828
1.03250e-05;0.005489032247955704
1.03253e-05;0.005460981521587391
1.03255e-05;0.005432930795219077
1.03258e-05;0.0054048800688509535
1.03260e-05;0.005376829342482639
1.03263e-05;0.005348778616114326
1.03265e-05;0.005320727889746202
1.03268e-05;0.0052926771633778884
1.03270e-05;0.005264626437009575
1.03273e-05;0.005236727654781452
1.03275e-05;0.0052095032776289865
1.03278e-05;0.005182278900476521
1.03280e-05;0.00515505452332424
1.03283e-05;0.005127830146171774
1.03285e-05;0.0051006057690193085
1.03287e-05;0.005073381391867027
1.03290e-05;0.005046157014714561
1.03293e-05;0.005018932637562095
1.03295e-05;0.0049917082604098145
1.03298e-05;0.004964483883257349
1.03300e-05;0.00494134832628022
1.03302e-05;0.0049201028577345205
1.03305e-05;0.004898857389188677
1.03308e-05;0.004877611920642835
1.03310e-05;0.004856366452097136
1.03313e-05;0.0048351209835512925
1.03315e-05;0.004813875515005449
1.03317e-05;0.00479263004645975
1.03320e-05;0.004771384577913908
1.03323e-05;0.0047501391093680645
1.03325e-05;0.004728893640822221
1.03328e-05;0.004707648172276522
1.03330e-05;0.004686402703730679
1.03333e-05;0.004664148393216677
1.03335e-05;0.004637416330916811
1.03338e-05;0.004610684268616765
1.03340e-05;0.004583952206316719
1.03343e-05;0.004557220144016854
1.03345e-05;0.004530488081716808
1.03348e-05;0.004503756019416762
1.03350e-05;0.004477023957116896
1.03353e-05;0.00445029189481685
1.03355e-05;0.004423559832516804
1.03358e-05;0.004396827770216939
1.03360e-05;0.004370095707916893
1.03363e-05;0.004343363645616846
1.03365e-05;0.004316631583316981
1.03368e-05;0.004291362874509616
1.03370e-05;0.004266770612058308
1.03373e-05;0.004242178349607167
1.03375e-05;0.0042175860871558595
1.03378e-05;0.004192993824704551
1.03380e-05;0.00416840156225341
1.03383e-05;0.0041438092998021024
1.03385e-05;0.004119217037350794
1.03387e-05;0.004094624774899653
1.03390e-05;0.004070032512448345
1.03393e-05;0.004045440249997038
1.03395e-05;0.004020847987545896
1.03398e-05;0.003996255725094588
1.03400e-05;0.003974837796053625
1.03402e-05;0.003967509166973875
1.03405e-05;0.003960180537894075
1.03408e-05;0.003952851908814276
1.03410e-05;0.003945523279734476
1.03413e-05;0.003938194650654726
1.03415e-05;0.003930866021574927
1.03418e-05;0.003923537392495127
1.03420e-05;0.003916208763415377
1.03423e-05;0.003908880134335577
1.03425e-05;0.0039015515052557783
1.03428e-05;0.003894222876176028
1.03430e-05;0.0038868942470962286
1.03433e-05;0.003879565618016429
1.03435e-05;0.0038836008212718154
1.03438e-05;0.003892889043031456
1.03440e-05;0.0039021772647910968
1.03443e-05;0.003911465486550674
1.03445e-05;0.003920753708310315
1.03448e-05;0.0039300419300699555
1.03450e-05;0.003939330151829533
1.03453e-05;0.003948618373589174
1.03455e-05;0.003957906595348814
1.03458e-05;0.0039671948171083925
1.03460e-05;0.003976483038868033
1.03463e-05;0.003986726020429936
1.03465e-05;0.004001206709727398
1.03468e-05;0.004015687399024958
1.03470e-05;0.004030168088322518
1.03472e-05;0.00404464877761998
1.03475e-05;0.00405912946691754
1.03478e-05;0.004073610156215101
1.03480e-05;0.004088090845512563
1.03483e-05;0.004102571534810123
1.03485e-05;0.004117052224107683
1.03487e-05;0.004131532913405145
1.03490e-05;0.004146013602702705
1.03493e-05;0.004153456619308763
1.03495e-05;0.004157646417828493
1.03498e-05;0.004161836216348195
1.03500e-05;0.004166026014867925
1.03503e-05;0.0041702158133876555
1.03505e-05;0.004174405611907357
1.03508e-05;0.0041785954104270875
1.03510e-05;0.004182785208946818
1.03513e-05;0.00418697500746652
1.03515e-05;0.004191164805986251
1.03518e-05;0.004190489464539074
1.03520e-05;0.004168220166970625
1.03523e-05;0.004145950869402025
1.03525e-05;0.004123681571833426
1.03528e-05;0.004101412274264977
1.03530e-05;0.004079142976696377
1.03533e-05;0.004056873679127777
1.03535e-05;0.004034604381559328
1.03538e-05;0.004012335083990729
1.03540e-05;0.003990065786422129
1.03543e-05;0.00396779648885368
1.03545e-05;0.003931633282232038
1.03548e-05;0.003889047509769848
1.03550e-05;0.0038464617373079476
1.03553e-05;0.0038038759648457584
1.03555e-05;0.003761290192383569
1.03557e-05;0.0037187044199216684
1.03560e-05;0.003676118647459479
1.03563e-05;0.00363353287499729
1.03565e-05;0.0035874930149292564
1.03568e-05;0.0035398564764181142
1.03570e-05;0.003492219937906972
1.03572e-05;0.0034445833993961526
1.03575e-05;0.0033969468608850105
1.03578e-05;0.0033493103223738684
1.03580e-05;0.0033016737838627262
1.03583e-05;0.0032540372453519067
1.03585e-05;0.0032137510947519033
1.03588e-05;0.0031768627172436923
1.03590e-05;0.003139974339735731
1.03593e-05;0.00310308596222752
1.03595e-05;0.003066197584719309
1.03598e-05;0.003029309207211348
1.03600e-05;0.002992420829703137
1.03603e-05;0.002955532452194926
1.03605e-05;0.002937452763264395
1.03608e-05;0.0029280675346416824
1.03610e-05;0.0029186823060189694
1.03613e-05;0.0029092970773963206
1.03615e-05;0.0028999118487736076
1.03618e-05;0.002890526620150895
1.03620e-05;0.002881141391528246
1.03623e-05;0.0028717561629055333
1.03625e-05;0.0028780806641488625
1.03628e-05;0.00289166710830815
1.03630e-05;0.0029052535524675296
1.03633e-05;0.0029325105616239107
1.03635e-05;0.002966086894122025
1.03638e-05;0.0029996632266203666
1.03640e-05;0.0030332395591187084
1.03642e-05;0.0030668158916168226
1.03645e-05;0.0031003922241151644
1.03648e-05;0.003133968556613506
1.03650e-05;0.0031675448891116207
1.03653e-05;0.003214098685507355
1.03655e-05;0.0032666514139554183
1.03657e-05;0.003319204142403125
1.03660e-05;0.003371756870851188
1.03663e-05;0.0034243095992992512
1.03665e-05;0.0034768623277473144
1.03668e-05;0.0035294150561950214
1.03670e-05;0.0035819677846430846
1.03673e-05;0.0036354227586246593
1.03675e-05;0.0036892948025120686
1.03678e-05;0.0037431668463998426
1.03680e-05;0.0037970388902876166
1.03683e-05;0.003850910934175026
1.03685e-05;0.0039047829780628
1.03688e-05;0.003958655021950574
1.03690e-05;0.004009785508522664
1.03693e-05;0.004048747574696218
1.03695e-05;0.004087709640869771
1.03698e-05;0.0041266717070430605
1.03700e-05;0.004165633773216614
1.03703e-05;0.004204595839390167
1.03705e-05;0.004243557905563457
1.03708e-05;0.0042825199717370106
1.03710e-05;0.004313500419861371
1.03713e-05;0.004340791303927898
1.03715e-05;0.004368082187994609
1.03718e-05;0.0043953730720613215
1.03720e-05;0.004422663956127848
1.03723e-05;0.00444995484019456
1.03725e-05;0.004477245724261272
1.03727e-05;0.004504536608327799
1.03730e-05;0.00453182749239451
1.03733e-05;0.0045591183764612225
1.03735e-05;0.004586409260527749
1.03738e-05;0.004613700144594461
1.03740e-05;0.004640991028661172
1.03742e-05;0.0046682819127277
1.03745e-05;0.004695572796794411
1.03748e-05;0.004722863680861123
1.03750e-05;0.0047490196605269154
1.03753e-05;0.004770138359450649
1.03755e-05;0.004791257058374526
1.03758e-05;0.004812375757298403
1.03760e-05;0.004833494456222136
1.03763e-05;0.004854613155146013
1.03765e-05;0.00487573185406989
1.03768e-05;0.0048968505529936234
1.03770e-05;0.0049179692519175
1.03773e-05;0.004939087950841377
1.03775e-05;0.004960206649765111
1.03778e-05;0.004981325348688987
1.03780e-05;0.005002444047612864
1.03783e-05;0.005023562746536598
1.03785e-05;0.005044681445460475
1.03788e-05;0.005065800144384351
1.03790e-05;0.005086918843308085
1.03793e-05;0.005098574026732714
1.03795e-05;0.005105854627655166
1.03798e-05;0.005113135228577567
1.03800e-05;0.005120415829500018
1.03803e-05;0.0051276964304224695
1.03805e-05;0.005134977031344871
1.03808e-05;0.005142257632267323
1.03810e-05;0.005149538233189773
1.03812e-05;0.005156818834112175
1.03815e-05;0.0051640994350346265
1.03818e-05;0.005171380035957077
1.03820e-05;0.005178660636879479
1.03823e-05;0.00518594123780193
1.03825e-05;0.005193221838724381
1.03827e-05;0.0052005024396467835
1.03830e-05;0.005207783040569234
1.03833e-05;0.005215063641491685
1.03835e-05;0.005220008407674739
1.03838e-05;0.005214585555805734
1.03840e-05;0.005209162703936692
1.03843e-05;0.005203739852067649
1.03845e-05;0.005198317000198643
1.03848e-05;0.005192894148329601
1.03850e-05;0.005187471296460558
1.03853e-05;0.005182048444591553
1.03855e-05;0.005176625592722511
1.03858e-05;0.005171202740853469
1.03860e-05;0.005165779888984463
1.03863e-05;0.00516035703711542
1.03865e-05;0.005154934185246378
1.03868e-05;0.005149511333377372
1.03870e-05;0.0051440884815083295
1.03873e-05;0.0051386656296392875
1.03875e-05;0.005133242777770282
1.03878e-05;0.00512781992590124
1.03880e-05;0.005121404472204332
1.03883e-05;0.005114530180712018
1.03885e-05;0.005107655889219658
1.03888e-05;0.005100781597727298
1.03890e-05;0.005093907306234984
1.03893e-05;0.005087033014742625
1.03895e-05;0.005080158723250265
1.03897e-05;0.005069522038370386
1.03900e-05;0.005057146158337608
1.03903e-05;0.00504477027830483
1.03905e-05;0.005032394398272136
1.03908e-05;0.005020018518239358
1.03910e-05;0.00500764263820658
1.03912e-05;0.0049952667581738865
1.03915e-05;0.004965237031350976
1.03918e-05;0.004927046678669539
1.03920e-05;0.004888856325988103
1.03923e-05;0.004850665973306926
1.03925e-05;0.00481247562062549
1.03928e-05;0.004774285267944054
1.03930e-05;0.0047360949152628765
1.03933e-05;0.004697904562581441
1.03935e-05;0.004659714209900004
1.03938e-05;0.004616116403888821
1.03940e-05;0.004548517580234796
1.03943e-05;0.004480918756580772
1.03945e-05;0.004413319932927207
1.03948e-05;0.004345721109273182
1.03950e-05;0.004278122285619157
1.03953e-05;0.0042105234619655915
1.03955e-05;0.004142924638311568
1.03958e-05;0.004075325814657543
1.03960e-05;0.004007726991003977
1.03963e-05;0.003932843534963283
1.03965e-05;0.0038545927018210206
1.03968e-05;0.0037763418686792886
1.03970e-05;0.003698091035537026
1.03973e-05;0.003619840202394764
1.03975e-05;0.003541589369253032
1.03978e-05;0.003464796748589228
1.03980e-05;0.0033944764137306084
1.03982e-05;0.003324156078872466
1.03985e-05;0.0032538357440138467
1.03988e-05;0.0031835154091552275
1.03990e-05;0.0031131950742970846
1.03993e-05;0.0030428747394384654
1.03995e-05;0.002983508181267769
1.03997e-05;0.0029292050902487454
