Time(s);Current(A)
9.25000e-06;-0.009474355092741594
9.25025e-06;-0.00948707715867988
9.25050e-06;-0.009499799224618249
9.25075e-06;-0.00951252129055662
9.25100e-06;-0.009525243356494904
9.25125e-06;-0.009537965422433275
9.25150e-06;-0.009550687488371646
9.25175e-06;-0.00956340955430993
9.25200e-06;-0.0095761316202483
9.25225e-06;-0.009588853686186671
9.25250e-06;-0.009601575752124955
9.25275e-06;-0.009614297818063326
9.25300e-06;-0.009627019884001697
9.25325e-06;-0.009639741949939981
9.25350e-06;-0.00964607049686347
9.25375e-06;-0.009649371436683114
9.25400e-06;-0.009652672376502733
9.25425e-06;-0.009655973316322376
9.25450e-06;-0.009659274256142018
9.25475e-06;-0.009662575195961639
9.25500e-06;-0.00966587613578128
9.25525e-06;-0.009669177075600922
9.25550e-06;-0.009672478015420543
9.25575e-06;-0.009675778955240185
9.25600e-06;-0.009679079895059828
9.25625e-06;-0.00968238083487947
9.25650e-06;-0.009685681774699091
9.25675e-06;-0.009688982714518733
9.25700e-06;-0.009689848430052177
9.25725e-06;-0.009689560961817481
9.25750e-06;-0.009689273493582782
9.25775e-06;-0.009688986025348085
9.25800e-06;-0.00968869855711339
9.25825e-06;-0.00968841108887869
9.25850e-06;-0.009688123620643993
9.25875e-06;-0.009687665924567108
9.25900e-06;-0.009686425527074063
9.25925e-06;-0.009685185129581018
9.25950e-06;-0.00968394473208798
9.25975e-06;-0.009682704334594935
9.26000e-06;-0.009681463937101889
9.26025e-06;-0.009680223539608852
9.26050e-06;-0.009678983142115806
9.26075e-06;-0.009677787323762364
9.26100e-06;-0.009676612615554919
9.26125e-06;-0.009675437907347467
9.26150e-06;-0.009676306508021051
9.26175e-06;-0.009678142703609153
9.26200e-06;-0.009679978899197266
9.26225e-06;-0.009681815094785379
9.26250e-06;-0.00968365129037348
9.26275e-06;-0.009685487485961593
9.26300e-06;-0.009687323681549707
9.26325e-06;-0.009690037302508824
9.26350e-06;-0.009696785293355464
9.26375e-06;-0.009703533284202103
9.26400e-06;-0.009710281275048699
9.26425e-06;-0.009717029265895339
9.26450e-06;-0.009723777256741978
9.26475e-06;-0.009730525247588618
9.26500e-06;-0.009737273238435212
9.26525e-06;-0.009746931898428596
9.26550e-06;-0.009757968885845042
9.26575e-06;-0.009769005873261412
9.26600e-06;-0.009780042860677858
9.26625e-06;-0.009791079848094304
9.26650e-06;-0.009802116835510676
9.26675e-06;-0.009813153822927122
9.26700e-06;-0.009824190810343568
9.26725e-06;-0.00983618168811602
9.26750e-06;-0.009848624274128205
9.26775e-06;-0.00986106686014039
9.26800e-06;-0.009873509446152489
9.26825e-06;-0.009885952032164674
9.26850e-06;-0.009898394618176858
9.26875e-06;-0.00991083720418896
9.26900e-06;-0.009923279790201144
9.26925e-06;-0.009934584503857629
9.26950e-06;-0.00994535038585954
9.26975e-06;-0.009956116267861522
9.27000e-06;-0.009966882149863505
9.27025e-06;-0.009976994390077407
9.27050e-06;-0.009984101209164022
9.27075e-06;-0.009991208028250638
9.27100e-06;-0.009998314847337205
9.27125e-06;-0.010005421666423821
9.27150e-06;-0.01000773756228735
9.27175e-06;-0.010007784749297796
9.27200e-06;-0.010007831936308244
9.27225e-06;-0.010003412150270445
9.27250e-06;-0.009996877059764398
9.27275e-06;-0.009990341969258305
9.27300e-06;-0.00997914292321094
9.27325e-06;-0.009965735292985917
9.27350e-06;-0.009952327662760985
9.27375e-06;-0.00993277481078231
9.27400e-06;-0.0099103119311643
9.27425e-06;-0.009887849051546443
9.27450e-06;-0.009865386171928434
9.27475e-06;-0.009841301388168015
9.27500e-06;-0.00980975914825058
9.27525e-06;-0.00977821690833293
9.27550e-06;-0.009746674668415282
9.27575e-06;-0.009715132428497846
9.27600e-06;-0.00967944000270722
9.27625e-06;-0.009641782284843501
9.27650e-06;-0.009604124566980038
9.27675e-06;-0.009564709280722552
9.27700e-06;-0.009524461709999257
9.27725e-06;-0.009483428210730489
9.27750e-06;-0.00944160666504742
9.27775e-06;-0.009399322732104936
9.27800e-06;-0.009356811339293261
9.27825e-06;-0.009314313699158647
9.27850e-06;-0.009272071656277591
9.27875e-06;-0.00923032482640222
9.27900e-06;-0.009189283186788544
9.27925e-06;-0.009149117965324513
9.27950e-06;-0.009110013699346229
9.27975e-06;-0.009072204819679762
9.28000e-06;-0.009035951931125167
9.28025e-06;-0.009001518265235086
9.28050e-06;-0.008969167719033864
9.28075e-06;-0.008939147723339423
9.28100e-06;-0.008911454928768093
9.28125e-06;-0.008885676531657059
9.28150e-06;-0.008861394247950327
9.28175e-06;-0.0088385193281199
9.28200e-06;-0.00881715538815479
9.28225e-06;-0.00879805433051206
9.28250e-06;-0.008779788300856127
9.28275e-06;-0.008764079146095043
9.28300e-06;-0.008749580781914717
9.28325e-06;-0.008737506987810274
9.28350e-06;-0.008726581332246675
9.28375e-06;-0.008715655676683004
9.28400e-06;-0.00871000894125582
9.28425e-06;-0.008706862002276211
9.28450e-06;-0.00870371506329658
9.28475e-06;-0.008700568124316951
9.28500e-06;-0.008697421185337343
9.28525e-06;-0.008694274246357712
9.28550e-06;-0.008691127307378083
9.28575e-06;-0.008687980368398475
9.28600e-06;-0.008684833429418844
9.28625e-06;-0.008681686490439215
9.28650e-06;-0.008682511224142346
9.28675e-06;-0.008685216716221616
9.28700e-06;-0.008687922208300886
9.28725e-06;-0.00869170215034205
9.28750e-06;-0.008695990890798155
9.28775e-06;-0.008700279631254259
9.28800e-06;-0.008705126242984675
9.28825e-06;-0.008710237030833306
9.28850e-06;-0.008715347818681937
9.28875e-06;-0.008720749550726098
9.28900e-06;-0.008726289057399911
9.28925e-06;-0.008731828564073724
9.28950e-06;-0.008737084163145807
9.28975e-06;-0.008742205319719101
9.29000e-06;-0.008747175214414024
9.29025e-06;-0.008751449612502479
9.29050e-06;-0.008755724010590906
9.29075e-06;-0.008759425410834985
9.29100e-06;-0.008762855471877294
9.29125e-06;-0.008766722897256999
9.29150e-06;-0.008770797433520942
9.29175e-06;-0.008775828862280335
9.29200e-06;-0.008781313420922207
9.29225e-06;-0.008787706416473045
9.29250e-06;-0.008794529596095536
9.29275e-06;-0.008801352775717981
9.29300e-06;-0.008810305999720713
9.29325e-06;-0.008820267891640088
9.29350e-06;-0.008830229783559395
9.29375e-06;-0.008840191675478769
9.29400e-06;-0.008850153567398144
9.29425e-06;-0.008860115459317452
9.29450e-06;-0.008873027032396726
9.29475e-06;-0.008887335406771831
9.29500e-06;-0.008901643781146839
9.29525e-06;-0.008915952155521944
9.29550e-06;-0.008930260529897049
9.29575e-06;-0.008944568904272057
9.29600e-06;-0.008958976964064684
9.29625e-06;-0.008973432229203528
9.29650e-06;-0.008987887494342274
9.29675e-06;-0.009002342759481117
9.29700e-06;-0.009016798024619962
9.29725e-06;-0.010516379181115604
9.29750e-06;-0.017907363036465073
9.29775e-06;-0.02242401916069138
9.29800e-06;-0.02057368305945972
9.29825e-06;-0.018145286192157453
9.29850e-06;-0.012896415198337499
9.29875e-06;-0.008163175720999458
9.29900e-06;-0.008556937667264352
9.29925e-06;-0.0100090776952977
9.29950e-06;-0.013503163619565203
9.29975e-06;-0.01719241223834548
9.30000e-06;-0.016613851949205623
9.30025e-06;-0.014472383775585199
9.30050e-06;-0.011856110003210504
9.30075e-06;-0.008736930672503957
9.30100e-06;-0.007873957301452017
9.30125e-06;-0.009239893172250265
9.30150e-06;-0.010285804543818751
9.30175e-06;-0.012268864919452617
9.30200e-06;-0.012864753225474326
9.30225e-06;-0.011889600912296835
9.30250e-06;-0.010622424430045402
9.30275e-06;-0.009032268929253554
9.30300e-06;-0.008349916113172607
9.30325e-06;-0.008737993857014252
9.30350e-06;-0.009554210238468497
9.30375e-06;-0.010805867511311051
9.30400e-06;-0.011187811278342832
9.30425e-06;-0.010585032604134622
9.30450e-06;-0.009798829743352472
9.30475e-06;-0.008809893794150118
9.30500e-06;-0.008389223047300763
9.30525e-06;-0.008638677516335508
9.30550e-06;-0.009155925793626805
9.30575e-06;-0.009945554662787667
9.30600e-06;-0.010190061128883373
9.30625e-06;-0.009817484458832277
9.30650e-06;-0.009329814974823016
9.30675e-06;-0.008714989329305584
9.30700e-06;-0.008455966981960914
9.30725e-06;-0.008616534345171628
9.30750e-06;-0.008944658030943041
9.30775e-06;-0.009443206908754066
9.30800e-06;-0.0096001163929672
9.30825e-06;-0.009370352002631427
9.30850e-06;-0.009068388664324354
9.30875e-06;-0.008686682297124925
9.30900e-06;-0.008527757435064169
9.30925e-06;-0.008631551357511511
9.30950e-06;-0.008840176788480677
9.30975e-06;-0.009155423950714284
9.31000e-06;-0.009256543842660411
9.31025e-06;-0.009115349361848563
9.31050e-06;-0.008928841805692696
9.31075e-06;-0.008692274034739446
9.31100e-06;-0.008594933469984354
9.31125e-06;-0.008661286506890553
9.31150e-06;-0.008791888458257948
9.31175e-06;-0.008987713813149044
9.31200e-06;-0.009047929039260128
9.31225e-06;-0.008954976370357144
9.31250e-06;-0.008832351281582074
9.31275e-06;-0.00867716858013519
9.31300e-06;-0.008608080088486507
9.31325e-06;-0.008640488530498647
9.31350e-06;-0.00871218067096592
9.31375e-06;-0.008823846567919083
9.31400e-06;-0.008849772664987215
9.31425e-06;-0.008779054728983597
9.31450e-06;-0.008689137990073672
9.31475e-06;-0.008578303165676204
9.31500e-06;-0.008520956441997424
9.31525e-06;-0.00852682521064891
9.31550e-06;-0.008557018657858196
9.31575e-06;-0.008612052728812913
9.31600e-06;-0.008613265904240575
9.31625e-06;-0.00855391714497509
9.31650e-06;-0.008482605753217928
9.31675e-06;-0.008398340822443418
9.31700e-06;-0.008347813936682005
9.31725e-06;-0.008337198339765208
9.31750e-06;-0.00834221558037645
9.31775e-06;-0.008363270911531547
9.31800e-06;-0.008351177185652658
9.31825e-06;-0.008301798132767574
9.31850e-06;-0.008245662696434118
9.31875e-06;-0.008182236364094844
9.31900e-06;-0.008140849391145342
9.31925e-06;-0.00812545052261011
9.31950e-06;-0.008120915241120415
9.31975e-06;-0.008127580570779993
9.32000e-06;-0.008114719578355425
9.32025e-06;-0.008079828387235472
9.32050e-06;-0.008042115322849654
9.32075e-06;-0.008001303724837225
9.32100e-06;-0.007975626379703452
9.32125e-06;-0.007967043391944711
9.32150e-06;-0.007965503706832116
9.32175e-06;-0.007970994803642273
9.32200e-06;-0.007964263998777027
9.32225e-06;-0.007943742394039313
9.32250e-06;-0.007921460985946548
9.32275e-06;-0.007897245796194519
9.32300e-06;-0.00788251498371627
9.32325e-06;-0.007878495114719995
9.32350e-06;-0.007878886313424448
9.32375e-06;-0.007883680710885894
9.32400e-06;-0.007880816350203167
9.32425e-06;-0.007869309256333994
9.32450e-06;-0.007856694626696244
9.32475e-06;-0.007842862475918597
9.32500e-06;-0.007834963502114498
9.32525e-06;-0.007833763742602522
9.32550e-06;-0.007835315319062583
9.32575e-06;-0.007839610654341172
9.32600e-06;-0.007839093716085698
9.32625e-06;-0.007833146483184469
9.32650e-06;-0.007826487644583296
9.32675e-06;-0.007819047339451305
9.32700e-06;-0.007815302557900531
9.32725e-06;-0.00781589729607842
9.32750e-06;-0.007818401932922407
9.32775e-06;-0.007820906569766412
9.32800e-06;-0.007822428025351137
9.32825e-06;-0.00781967410449801
9.32850e-06;-0.007817314059790177
9.32875e-06;-0.007816666790600816
9.32900e-06;-0.007816019521411461
9.32925e-06;-0.0078153722522221
9.32950e-06;-0.007814990483763329
9.32975e-06;-0.007815763248669613
9.33000e-06;-0.007816536013575903
9.33025e-06;-0.007817308778482192
9.33050e-06;-0.007817865030495592
9.33075e-06;-0.007817479773390559
9.33100e-06;-0.007817094516285525
9.33125e-06;-0.007817126468395453
9.33150e-06;-0.007818972660179203
9.33175e-06;-0.007820818851962954
9.33200e-06;-0.007822265564271388
9.33225e-06;-0.007821975134908505
9.33250e-06;-0.007821684705545619
9.33275e-06;-0.007821394276182734
9.33300e-06;-0.007821103846819851
9.33325e-06;-0.007820813417456966
9.33350e-06;-0.007820522988094082
9.33375e-06;-0.007819995541635285
9.33400e-06;-0.007819360093078603
9.33425e-06;-0.007818724644521921
9.33450e-06;-0.007818089195965244
9.33475e-06;-0.007817453747408562
9.33500e-06;-0.00781681829885188
9.33525e-06;-0.007816119568993926
9.33550e-06;-0.007815145659577943
9.33575e-06;-0.00781417175016196
9.33600e-06;-0.007813197840745982
9.33625e-06;-0.00781222393133
9.33650e-06;-0.007811250021914016
9.33675e-06;-0.007810011996101501
9.33700e-06;-0.007808653619793578
9.33725e-06;-0.007807295243485656
9.33750e-06;-0.007805936867177742
9.33775e-06;-0.00780457849086982
9.33800e-06;-0.007803149513822074
9.33825e-06;-0.007801413528543003
9.33850e-06;-0.007799674365439139
9.33875e-06;-0.007797921383523069
9.33900e-06;-0.00779625890431547
9.33925e-06;-0.0077949899773075565
9.33950e-06;-0.007793771634305044
9.33975e-06;-0.00779275340598315
9.34000e-06;-0.0077916165567797025
9.34025e-06;-0.00779035309099574
9.34050e-06;-0.00778915765796168
9.34075e-06;-0.007788056720913794
9.34100e-06;-0.007787340332702579
9.34125e-06;-0.007787311274873664
9.34150e-06;-0.007788153825336147
9.34175e-06;-0.00778994549399711
9.34200e-06;-0.007792471558085512
9.34225e-06;-0.007795679264448758
9.34250e-06;-0.007799642513573271
9.34275e-06;-0.007804421707514839
9.34300e-06;-0.00781027460423499
9.34325e-06;-0.007816520767654628
9.34350e-06;-0.007824477056409568
9.34375e-06;-0.007832964336951825
9.34400e-06;-0.007843760642157912
9.34425e-06;-0.007854556947364
9.34450e-06;-0.007865353252570014
9.34475e-06;-0.0078761495577761
9.34500e-06;-0.007889339241318322
9.34525e-06;-0.007903619520795662
9.34550e-06;-0.007917899800273099
9.34575e-06;-0.007932180079750537
9.34600e-06;-0.007946869326413166
9.34625e-06;-0.007963336972177517
9.34650e-06;-0.007979804617941868
9.34675e-06;-0.007996463919914704
9.34700e-06;-0.008013956641392848
9.34725e-06;-0.008031449362870993
9.34750e-06;-0.008049035068372689
9.34775e-06;-0.008067025116105679
9.34800e-06;-0.008085015163838668
9.34825e-06;-0.008102949200595979
9.34850e-06;-0.0081206396729008
9.34875e-06;-0.008138210867946798
9.34900e-06;-0.00815526338428789
9.34925e-06;-0.008172144123963661
9.34950e-06;-0.008188277890585013
9.34975e-06;-0.008203599420670896
9.35000e-06;-0.008215388929662587
9.35025e-06;-0.008227178438654358
9.35050e-06;-0.00823896794764613
9.35075e-06;-0.00825075745663782
9.35100e-06;-0.008262546965629593
9.35125e-06;-0.008274336474621363
9.35150e-06;-0.008286125983613054
9.35175e-06;-0.008297915492604826
9.35200e-06;-0.008308610765761016
9.35225e-06;-0.008314547740213578
9.35250e-06;-0.008320484714666178
9.35275e-06;-0.00832642168911878
9.35300e-06;-0.008332358663571342
9.35325e-06;-0.008338295638023943
9.35350e-06;-0.008344232612476545
9.35375e-06;-0.008350169586929105
9.35400e-06;-0.008356106561381707
9.35425e-06;-0.008361240143203672
9.35450e-06;-0.008362880161765274
9.35475e-06;-0.008364520180326889
9.35500e-06;-0.008366160198888502
9.35525e-06;-0.008367800217450105
9.35550e-06;-0.00836944023601172
9.35575e-06;-0.008371080254573334
9.35600e-06;-0.008372720273134937
9.35625e-06;-0.00837436029169655
9.35650e-06;-0.008376000310258164
9.35675e-06;-0.008377640328819767
9.35700e-06;-0.00837928034738138
9.35725e-06;-0.008379294468208143
9.35750e-06;-0.00837856771266166
9.35775e-06;-0.008377840957115173
9.35800e-06;-0.008377114201568685
9.35825e-06;-0.008376387446022196
9.35850e-06;-0.008375660690475713
9.35875e-06;-0.008374933934929225
9.35900e-06;-0.008374207179382738
9.35925e-06;-0.008373480423836255
9.35950e-06;-0.008372753668289767
9.35975e-06;-0.00837202691274328
9.36000e-06;-0.008371241014451919
9.36025e-06;-0.00837019793316835
9.36050e-06;-0.00836917374470606
9.36075e-06;-0.00836823171192184
9.36100e-06;-0.008367527275954549
9.36125e-06;-0.00836785603282339
9.36150e-06;-0.00836866337881011
9.36175e-06;-0.00837155187577529
9.36200e-06;-0.008374889447266599
9.36225e-06;-0.008380179825151683
9.36250e-06;-0.008385986461712338
9.36275e-06;-0.008394038055810748
9.36300e-06;-0.008402089649909102
9.36325e-06;-0.008411262360538027
9.36350e-06;-0.00842531026092215
9.36375e-06;-0.008439358161306178
9.36400e-06;-0.0084534060616903
9.36425e-06;-0.008467453962074423
9.36450e-06;-0.00848150186245845
9.36475e-06;-0.008500090401212997
9.36500e-06;-0.008520747982574853
9.36525e-06;-0.008541405563936571
9.36550e-06;-0.00856206314529843
9.36575e-06;-0.008582720726660286
9.36600e-06;-0.008604279058025804
9.36625e-06;-0.00862975431245144
9.36650e-06;-0.008655229566877075
9.36675e-06;-0.00868070482130271
9.36700e-06;-0.008706180075728175
9.36725e-06;-0.00873165533015381
9.36750e-06;-0.008757130584579446
9.36775e-06;-0.00878312062281358
9.36800e-06;-0.008809345233710792
9.36825e-06;-0.008835569844608003
9.36850e-06;-0.008861794455505036
9.36875e-06;-0.008888019066402247
9.36900e-06;-0.008914243677299458
9.36925e-06;-0.008939948727798012
9.36950e-06;-0.0089633944631731
9.36975e-06;-0.008986840198548186
9.37000e-06;-0.00900866420681452
9.37025e-06;-0.00902343611373962
9.37050e-06;-0.009038208020664717
9.37075e-06;-0.009052979927589718
9.37100e-06;-0.009067751834514816
9.37125e-06;-0.009082523741439915
9.37150e-06;-0.009097295648364914
9.37175e-06;-0.009112067555290013
9.37200e-06;-0.009126839462215113
9.37225e-06;-0.009141611369140112
9.37250e-06;-0.009156383276065211
9.37275e-06;-0.00917115518299031
9.37300e-06;-0.00918592708991531
9.37325e-06;-0.009200698996840409
9.37350e-06;-0.009214195283856055
9.37375e-06;-0.00922214452116859
9.37400e-06;-0.00923009375848118
9.37425e-06;-0.009238042995793769
9.37450e-06;-0.009245992233106305
9.37475e-06;-0.009253941470418895
9.37500e-06;-0.009261890707731483
9.37525e-06;-0.009269839945044073
9.37550e-06;-0.009277789182356609
9.37575e-06;-0.009285738419669199
9.37600e-06;-0.009293687656981787
9.37625e-06;-0.009301636894294323
9.37650e-06;-0.009309586131606913
9.37675e-06;-0.009317535368919501
9.37700e-06;-0.00932501412647554
9.37725e-06;-0.009330446996714559
9.37750e-06;-0.009335879866953578
9.37775e-06;-0.009341312737192561
9.37800e-06;-0.00934674560743158
9.37825e-06;-0.0093521784776706
9.37850e-06;-0.009357611347909581
9.37875e-06;-0.0093630442181486
9.37900e-06;-0.009368114598704002
9.37925e-06;-0.009371608688173293
9.37950e-06;-0.009375102777642606
9.37975e-06;-0.00937859686711192
9.38000e-06;-0.00938209095658121
9.38025e-06;-0.009385585046050523
9.38050e-06;-0.009389079135519836
9.38075e-06;-0.009392573224989126
9.38100e-06;-0.009395243986976899
9.38125e-06;-0.009394334498742642
9.38150e-06;-0.009393425010508393
9.38175e-06;-0.009392515522274138
9.38200e-06;-0.00939160603403988
9.38225e-06;-0.009390696545805632
9.38250e-06;-0.009389787057571377
9.38275e-06;-0.00938887756933712
9.38300e-06;-0.009387968081102871
9.38325e-06;-0.009385889134004016
9.38350e-06;-0.009378724779878347
9.38375e-06;-0.009371560425752677
9.38400e-06;-0.009364396071627057
9.38425e-06;-0.009357231717501387
9.38450e-06;-0.009350067363375717
9.38475e-06;-0.009342903009250097
9.38500e-06;-0.009335738655124427
9.38525e-06;-0.009328574300998758
9.38550e-06;-0.009320563476098196
9.38575e-06;-0.009308871762063835
9.38600e-06;-0.009297180048029473
9.38625e-06;-0.009285488333995192
9.38650e-06;-0.009273796619960832
9.38675e-06;-0.00926210490592647
9.38700e-06;-0.009250413191892189
9.38725e-06;-0.009238721477857828
9.38750e-06;-0.009227029763823466
9.38775e-06;-0.009214756444251527
9.38800e-06;-0.00920221810321316
9.38825e-06;-0.009189679762174791
9.38850e-06;-0.009177141421136509
9.38875e-06;-0.009164603080098142
9.38900e-06;-0.009152064739059775
9.38925e-06;-0.009139526398021493
9.38950e-06;-0.009126988056983126
9.38975e-06;-0.00911495136669781
9.39000e-06;-0.009105096111213296
9.39025e-06;-0.009095240855728715
9.39050e-06;-0.009085385600244134
9.39075e-06;-0.00907553034475962
9.39100e-06;-0.00906567508927504
9.39125e-06;-0.009055819833790458
9.39150e-06;-0.009045964578305943
9.39175e-06;-0.009036109322821362
9.39200e-06;-0.009025749763324601
9.39225e-06;-0.0090151604065165
9.39250e-06;-0.009004571049708471
9.39275e-06;-0.008993981692900369
9.39300e-06;-0.008983392336092268
9.39325e-06;-0.008972802979284237
9.39350e-06;-0.008962213622476137
9.39375e-06;-0.008951624265668034
9.39400e-06;-0.008940473934614177
9.39425e-06;-0.008926884199781732
9.39450e-06;-0.008913294464949286
9.39475e-06;-0.008899704730116932
9.39500e-06;-0.008886114995284487
9.39525e-06;-0.008872525260452041
9.39550e-06;-0.008858935525619687
9.39575e-06;-0.00884534579078724
9.39600e-06;-0.008830494733913966
9.39625e-06;-0.008815068927669856
9.39650e-06;-0.008799643121425641
9.39675e-06;-0.008784217315181427
9.39700e-06;-0.008768791508937317
9.39725e-06;-0.008753365702693102
9.39750e-06;-0.008737939896448887
