Time(s);Current(A)
3.75000e-06;-0.001816468455744617
3.75025e-06;-0.0018018423192810704
3.75050e-06;-0.0017872161828175238
3.75075e-06;-0.001772590046354002
3.75100e-06;-0.0017582964634155081
3.75125e-06;-0.0017474031256582373
3.75150e-06;-0.0017365097879009667
3.75175e-06;-0.0017256164501437143
3.75200e-06;-0.0017147231123864435
3.75225e-06;-0.0017038297746291727
3.75250e-06;-0.0016929364368719203
3.75275e-06;-0.0016820430991146495
3.75300e-06;-0.0016711497613573789
3.75325e-06;-0.0016621349572051428
3.75350e-06;-0.001654430495335207
3.75375e-06;-0.0016467260334652582
3.75400e-06;-0.0016390215715953093
3.75425e-06;-0.0016313171097253737
3.75450e-06;-0.0016236126478554249
3.75475e-06;-0.001615908185985476
3.75500e-06;-0.0016082037241155402
3.75525e-06;-0.001600730094345377
3.75550e-06;-0.0015956166432409625
3.75575e-06;-0.0015905031921365478
3.75600e-06;-0.0015853897410321419
3.75625e-06;-0.0015802762899277273
3.75650e-06;-0.0015751628388233126
3.75675e-06;-0.0015700493877189065
3.75700e-06;-0.0015649359366144918
3.75725e-06;-0.0015598224855100772
3.75750e-06;-0.0015547090344056713
3.75775e-06;-0.0015511541397757618
3.75800e-06;-0.0015486863922921632
3.75825e-06;-0.0015462186448085644
3.75850e-06;-0.0015437508973249697
3.75875e-06;-0.001541283149841371
3.75900e-06;-0.0015388154023577721
3.75925e-06;-0.0015363476548741776
3.75950e-06;-0.0015338799073905788
3.75975e-06;-0.00153141215990698
3.76000e-06;-0.0015291541198240689
3.76025e-06;-0.0015290402656393221
3.76050e-06;-0.0015289264114545754
3.76075e-06;-0.0015288125572698286
3.76100e-06;-0.0015286987030850821
3.76125e-06;-0.0015285848489003352
3.76150e-06;-0.0015284709947155884
3.76175e-06;-0.0015283571405308419
3.76200e-06;-0.0015283782687409426
3.76225e-06;-0.0015297795454178589
3.76250e-06;-0.001531180822094775
3.76275e-06;-0.001532582098771689
3.76300e-06;-0.001533983375448605
3.76325e-06;-0.0015353846521255212
3.76350e-06;-0.001536785928802435
3.76375e-06;-0.0015381872054793513
3.76400e-06;-0.001539636589133991
3.76425e-06;-0.0015415778500562055
3.76450e-06;-0.0015435191109784165
3.76475e-06;-0.001545460371900631
3.76500e-06;-0.0015474016328228452
3.76525e-06;-0.0015493428937450565
3.76550e-06;-0.0015512841546672707
3.76575e-06;-0.0015532254155894852
3.76600e-06;-0.0015551666765116962
3.76625e-06;-0.0015571079374339107
3.76650e-06;-0.0015590491983561252
3.76675e-06;-0.0015609904592783395
3.76700e-06;-0.00156216144622058
3.76725e-06;-0.0015627951403711059
3.76750e-06;-0.0015634288345216317
3.76775e-06;-0.0015640625286721564
3.76800e-06;-0.001564696222822682
3.76825e-06;-0.0015653299169732077
3.76850e-06;-0.0015659636111237335
3.76875e-06;-0.0015665973052742582
3.76900e-06;-0.0015672309994247838
3.76925e-06;-0.0015678646935753096
3.76950e-06;-0.0015684983877258343
3.76975e-06;-0.0015689580631144536
3.77000e-06;-0.0015676384566364378
3.77025e-06;-0.0015663188501584243
3.77050e-06;-0.0015649992436804086
3.77075e-06;-0.001563679637202393
3.77100e-06;-0.001562360030724377
3.77125e-06;-0.0015610404242463636
3.77150e-06;-0.001559720817768348
3.77175e-06;-0.001557667954892683
3.77200e-06;-0.0015551036202716547
3.77225e-06;-0.0015525392856506224
3.77250e-06;-0.0015499749510295901
3.77275e-06;-0.0015474106164085578
3.77300e-06;-0.0015448462817875296
3.77325e-06;-0.0015422819471664973
3.77350e-06;-0.001539665492488411
3.77375e-06;-0.0015365161281895858
3.77400e-06;-0.0015333667638907555
3.77425e-06;-0.001530217399591925
3.77450e-06;-0.0015270680352931
3.77475e-06;-0.0015239186709942695
3.77500e-06;-0.001520776120701213
3.77525e-06;-0.0015177032412688229
3.77550e-06;-0.001514630361836438
3.77575e-06;-0.0015115574824040479
3.77600e-06;-0.0015084846029716577
3.77625e-06;-0.0015054117235392729
3.77650e-06;-0.001502365953201898
3.77675e-06;-0.001499609550406009
3.77700e-06;-0.0014969916572646494
3.77725e-06;-0.0014945329262596619
3.77750e-06;-0.001492294528376931
3.77775e-06;-0.0014906454332477084
3.77800e-06;-0.0014902636321658088
3.77825e-06;-0.0014915722685066198
3.77850e-06;-0.001494594718618223
3.77875e-06;-0.001499249364988603
3.77900e-06;-0.0015054544944332635
3.77925e-06;-0.0015131971013963423
3.77950e-06;-0.0015229114361338517
3.77975e-06;-0.001532951520795766
3.78000e-06;-0.0015463222861688767
3.78025e-06;-0.0015601218671930095
3.78050e-06;-0.001578305940462346
3.78075e-06;-0.0015964900137317131
3.78100e-06;-0.0016150935199977716
3.78125e-06;-0.0016379855841022492
3.78150e-06;-0.001660877648206688
3.78175e-06;-0.001684163116566363
3.78200e-06;-0.0017114710078532725
3.78225e-06;-0.001738778899140136
3.78250e-06;-0.0017663711377471144
3.78275e-06;-0.001796870729704892
3.78300e-06;-0.0018275223662967666
3.78325e-06;-0.0018597286068725272
3.78350e-06;-0.0018920395622265061
3.78375e-06;-0.0019254211900990924
3.78400e-06;-0.001958882304334248
3.78425e-06;-0.0019931561392333157
3.78450e-06;-0.0020274446600261047
3.78475e-06;-0.002061883339020821
3.78500e-06;-0.0020962622684155075
3.78525e-06;-0.0021300302787412373
3.78550e-06;-0.0021636755643632964
3.78575e-06;-0.0021960660321857935
3.78600e-06;-0.0022282846148977313
3.78625e-06;-0.0022587457315916453
3.78650e-06;-0.002288961046250784
3.78675e-06;-0.0023166631198173995
3.78700e-06;-0.0023440394590167344
3.78725e-06;-0.0023680852765706906
3.78750e-06;-0.00239173875466598
3.78775e-06;-0.002411380697010586
3.78800e-06;-0.0024304996479907726
3.78825e-06;-0.002444271192511803
3.78850e-06;-0.0024580427370328563
3.78875e-06;-0.002471155283187424
3.78900e-06;-0.002477529798159587
3.78925e-06;-0.002483904313131761
3.78950e-06;-0.0024895991906636467
3.78975e-06;-0.0024883450095964967
3.79000e-06;-0.0024870908285293484
3.79025e-06;-0.002484998507466514
3.79050e-06;-0.0024743364938016725
3.79075e-06;-0.002463674480136849
3.79100e-06;-0.0024530124664720074
3.79125e-06;-0.0024423504528071657
3.79150e-06;-0.002430796739885894
3.79175e-06;-0.0024101257093793954
3.79200e-06;-0.0023894546788728968
3.79225e-06;-0.002368783648366398
3.79250e-06;-0.0023481126178599345
3.79275e-06;-0.0023269130141048565
3.79300e-06;-0.002300308931048605
3.79325e-06;-0.002273704847992399
3.79350e-06;-0.002246873033326695
3.79375e-06;-0.0022177127414388753
3.79400e-06;-0.0021884600093174974
3.79425e-06;-0.002158221721458559
3.79450e-06;-0.002127545793883905
3.79475e-06;-0.0020966081843318265
3.79500e-06;-0.002065584297248198
3.79525e-06;-0.002034650343944585
3.79550e-06;-0.0020039827960689933
3.79575e-06;-0.0019737664620784823
3.79600e-06;-0.0019442004834944783
3.79625e-06;-0.0019154905581492965
3.79650e-06;-0.0018878409661485505
3.79675e-06;-0.0018614545029829058
3.79700e-06;-0.0018365339848856843
3.79725e-06;-0.001813281465267174
3.79750e-06;-0.0017918689089043175
3.79775e-06;-0.0017722893550354709
3.79800e-06;-0.0017546010946217646
3.79825e-06;-0.0017371363896028919
3.79850e-06;-0.001721957461451191
3.79875e-06;-0.0017070322124077837
3.79900e-06;-0.0016947007448202829
3.79925e-06;-0.0016827108020471798
3.79950e-06;-0.001674212832799779
3.79975e-06;-0.0016657148635523783
3.80000e-06;-0.0016576683299658762
3.80025e-06;-0.001654237570431635
3.80050e-06;-0.0016508068108973936
3.80075e-06;-0.001647376051363152
3.80100e-06;-0.0016439452918289167
3.80125e-06;-0.0016405145322946754
3.80150e-06;-0.0016404354057324689
3.80175e-06;-0.0016426941593058195
3.80200e-06;-0.0016449529128791738
3.80225e-06;-0.0016472116664525281
3.80250e-06;-0.0016494704200258827
3.80275e-06;-0.001652086453818034
3.80300e-06;-0.0016583555547162899
3.80325e-06;-0.0016646246556145457
3.80350e-06;-0.0016708937565127911
3.80375e-06;-0.001677162857411047
3.80400e-06;-0.0016834319583093028
3.80425e-06;-0.0016898692987731717
3.80450e-06;-0.0016980268308144433
3.80475e-06;-0.0017061843628557148
3.80500e-06;-0.0017143418948969862
3.80525e-06;-0.001722499426938244
3.80550e-06;-0.0017306569589795155
3.80575e-06;-0.0017387985778454633
3.80600e-06;-0.0017467774899779314
3.80625e-06;-0.0017547564021104132
3.80650e-06;-0.001762571283734622
3.80675e-06;-0.0017687090099421955
3.80700e-06;-0.0017748467361497586
3.80725e-06;-0.001780984462357332
3.80750e-06;-0.0017871221885649058
3.80775e-06;-0.0017932599147724689
3.80800e-06;-0.0017993976409800424
3.80825e-06;-0.0018055353671876159
3.80850e-06;-0.0018112893615801267
3.80875e-06;-0.0018167756897349296
3.80900e-06;-0.0018222620178897325
3.80925e-06;-0.0018277483460445356
3.80950e-06;-0.0018332346741993292
3.80975e-06;-0.001838721002354132
3.81000e-06;-0.0018442073305089352
3.81025e-06;-0.0018497783744051233
3.81050e-06;-0.0018562156075612637
3.81075e-06;-0.0018626528407174041
3.81100e-06;-0.0018690900738735448
3.81125e-06;-0.0018755273070296741
3.81150e-06;-0.0018819645401858148
3.81175e-06;-0.0018884017733419552
3.81200e-06;-0.0018948390064980848
3.81225e-06;-0.0019012762396542252
3.81250e-06;-0.0019081180811654397
3.81275e-06;-0.0019152421510244281
3.81300e-06;-0.0019223662208834287
3.81325e-06;-0.0019294902907424293
3.81350e-06;-0.0019366143606014297
3.81375e-06;-0.0019437384304604182
3.81400e-06;-0.0019508625003194187
3.81425e-06;-0.0019579865701784193
3.81450e-06;-0.0019650405180673546
3.81475e-06;-0.0019713774929787558
3.81500e-06;-0.0019777144678901465
3.81525e-06;-0.0019840514428015586
3.81550e-06;-0.0019903884177129494
3.81575e-06;-0.0019967253926243397
3.81600e-06;-0.002003062367535752
3.81625e-06;-0.0020093993424471425
3.81650e-06;-0.002015736317358555
3.81675e-06;-0.0020220732922699453
3.81700e-06;-0.0020281097954553524
3.81725e-06;-0.0020310740787950416
3.81750e-06;-0.002034038362134721
3.81775e-06;-0.0020370026454744
3.81800e-06;-0.0020399669288140893
3.81825e-06;-0.0020429312121537685
3.81850e-06;-0.0020458954954934478
3.81875e-06;-0.002048859778833137
3.81900e-06;-0.002051824062172816
3.81925e-06;-0.0020547883455124955
3.81950e-06;-0.0020573822513962553
3.81975e-06;-0.00205618917543803
3.82000e-06;-0.0020549960994798045
3.82025e-06;-0.0020538030235215748
3.82050e-06;-0.0020526099475633493
3.82075e-06;-0.00205141687160512
3.82100e-06;-0.002050223795646894
3.82125e-06;-0.0020490307196886688
3.82150e-06;-0.0020478376437304394
3.82175e-06;-0.0020463846675561137
3.82200e-06;-0.00204227430124312
3.82225e-06;-0.002038163934930112
3.82250e-06;-0.0020340535686171183
3.82275e-06;-0.0020299432023041246
3.82300e-06;-0.0020258328359911166
3.82325e-06;-0.002021722469678123
3.82350e-06;-0.0020176121033651287
3.82375e-06;-0.002013501737052121
3.82400e-06;-0.0020092965264694035
3.82425e-06;-0.002004121565915627
3.82450e-06;-0.0019989466053618333
3.82475e-06;-0.001993771644808057
3.82500e-06;-0.0019885966842542627
3.82525e-06;-0.0019834217237004862
3.82550e-06;-0.00197824676314671
3.82575e-06;-0.001973071802592916
3.82600e-06;-0.001968110709958847
3.82625e-06;-0.001964184557392149
3.82650e-06;-0.0019602584048254382
3.82675e-06;-0.0019563322522587402
3.82700e-06;-0.0019524060996920429
3.82725e-06;-0.0019484799471253319
3.82750e-06;-0.0019445537945586343
3.82775e-06;-0.0019406276419919367
3.82800e-06;-0.0019362115217873026
3.82825e-06;-0.0019342554786045193
3.82850e-06;-0.032398867217842374
3.82875e-06;-0.026087403145373726
3.82900e-06;-0.01973862706854698
3.82925e-06;-0.01506030241587808
3.82950e-06;0.007811090791973892
3.82975e-06;0.006462927850180683
3.83000e-06;0.005345143003755165
3.83025e-06;0.0013103609745907891
3.83050e-06;-0.006743869709136061
3.83075e-06;-0.01123603603125639
3.83100e-06;-0.010132197193200819
3.83125e-06;-0.005967616171501551
3.83150e-06;0.0002495415052307581
3.83175e-06;0.003945541974685667
3.83200e-06;0.003954494225109704
3.83225e-06;0.0011524327223069461
3.83250e-06;-0.00403002933450426
3.83275e-06;-0.006949294230516763
3.83300e-06;-0.006339758924510595
3.83325e-06;-0.003795795377335536
3.83350e-06;4.64875898794747e-05
3.83375e-06;0.002318846420423064
3.83400e-06;0.0022887335808268114
3.83425e-06;0.0005033072853147795
3.83450e-06;-0.0027688528519545226
3.83475e-06;-0.004619958507984721
3.83500e-06;-0.004258105696757808
3.83525e-06;-0.0026826764715452804
3.83550e-06;-0.00029259589895351307
3.83575e-06;0.0011152078037553288
3.83600e-06;0.001081782437181371
3.83625e-06;-5.01571081683199e-05
3.83650e-06;-0.0021123795480611105
3.83675e-06;-0.0032835166622393417
3.83700e-06;-0.0030676712353000413
3.83725e-06;-0.0020909829407593896
3.83750e-06;-0.0006034800691295155
3.83775e-06;0.00026887604206210627
3.83800e-06;0.00023803246300187927
3.83825e-06;-0.00048169556672500013
3.83850e-06;-0.0017849501004491332
3.83875e-06;-0.0025307828587754697
3.83900e-06;-0.0024085761265850696
3.83925e-06;-0.0018105493102649436
3.83950e-06;-0.0008932998417720431
3.83975e-06;-0.00036206849910655145
3.84000e-06;-0.0003971898919348509
3.84025e-06;-0.0008643133743046353
3.84050e-06;-0.0016973479522115467
3.84075e-06;-0.002181545293908175
3.84100e-06;-0.0021223162121497743
3.84125e-06;-0.0017653257389277702
3.84150e-06;-0.00120862950440048
3.84175e-06;-0.0008939274620517401
3.84200e-06;-0.0009340939557661668
3.84225e-06;-0.001244883427951247
3.84250e-06;-0.0017848135133323555
3.84275e-06;-0.00210610617459376
3.84300e-06;-0.0020868365390908365
3.84325e-06;-0.001880852427766467
3.84350e-06;-0.0015495295651759737
3.84375e-06;-0.0013694866646457293
3.84400e-06;-0.0014113503755463187
3.84425e-06;-0.0016222708763869447
3.84450e-06;-0.001976188780978892
3.84475e-06;-0.0021925557791292074
3.84500e-06;-0.0021949533264399084
3.84525e-06;-0.002079705586903587
3.84550e-06;-0.0018852065272356507
3.84575e-06;-0.0017846681647464152
3.84600e-06;-0.0018222593475991575
3.84625e-06;-0.0019648027586505307
3.84650e-06;-0.002195904771897409
3.84675e-06;-0.0023397690233320544
3.84700e-06;-0.002348475979006773
3.84725e-06;-0.002282311588082096
3.84750e-06;-0.0021653020579584675
3.84775e-06;-0.0021060702493019
3.84800e-06;-0.002132560745644563
3.84825e-06;-0.0022242126105101144
3.84850e-06;-0.0023708337172135027
3.84875e-06;-0.002462333894570324
3.84900e-06;-0.0024687278955519633
3.84925e-06;-0.0024278096560719645
3.84950e-06;-0.00235465818082947
3.84975e-06;-0.0023173394657656776
3.85000e-06;-0.0023333786638504543
3.85025e-06;-0.002389917321059094
3.85050e-06;-0.0024805925207545478
3.85075e-06;-0.0025364688474234383
3.85100e-06;-0.0025387924524336164
3.85125e-06;-0.002511266364643748
3.85150e-06;-0.0024633627403176533
3.85175e-06;-0.0024377426958291613
3.85200e-06;-0.002445406569869684
3.85225e-06;-0.0024783216066701615
3.85250e-06;-0.0025325245864277913
3.85275e-06;-0.0025648592644527675
3.85300e-06;-0.0025636054485872585
3.85325e-06;-0.002543637572789148
3.85350e-06;-0.002510915086167199
3.85375e-06;-0.002492185507883211
3.85400e-06;-0.0024943619731189405
3.85425e-06;-0.002512435851100424
3.85450e-06;-0.0025439478764504
3.85475e-06;-0.002561889393981062
3.85500e-06;-0.002558944801889874
3.85525e-06;-0.002544457349478222
3.85550e-06;-0.002522185373848041
3.85575e-06;-0.0025089078574067275
3.85600e-06;-0.002508978576996942
3.85625e-06;-0.002519283296503955
3.85650e-06;-0.0025383050126612824
3.85675e-06;-0.0025491499759780867
3.85700e-06;-0.0025472607293636107
3.85725e-06;-0.0025385151784048945
3.85750e-06;-0.0025252785123822705
3.85775e-06;-0.002518006453656405
3.85800e-06;-0.00251930398959256
3.85825e-06;-0.0025271252180033223
3.85850e-06;-0.002540488673503843
3.85875e-06;-0.0025488048928424788
3.85900e-06;-0.0025492144037389864
3.85925e-06;-0.0025453938748884962
3.85950e-06;-0.002538819373955857
3.85975e-06;-0.002536034604415547
3.86000e-06;-0.0025386652872190925
3.86025e-06;-0.0025454237502562658
3.86050e-06;-0.0025535732282834286
3.86075e-06;-0.0025617779473351473
3.86100e-06;-0.00256502650711751
3.86125e-06;-0.0025645996999124204
3.86150e-06;-0.00256392401771754
3.86175e-06;-0.002563424945232868
3.86200e-06;-0.002566338298777625
3.86225e-06;-0.0025725542567366336
3.86250e-06;-0.0025796241645910005
3.86275e-06;-0.002586721308270882
3.86300e-06;-0.002590691076790194
3.86325e-06;-0.0025923271818735897
3.86350e-06;-0.0025937593501122987
3.86375e-06;-0.002595283343090335
3.86400e-06;-0.00259889872241336
3.86425e-06;-0.0026049380701265493
3.86450e-06;-0.002611664314591066
3.86475e-06;-0.00261709212389721
3.86500e-06;-0.002620706492652134
3.86525e-06;-0.002622942639879587
3.86550e-06;-0.0026247842138555732
3.86575e-06;-0.002627444305516653
3.86600e-06;-0.002631188830969684
3.86625e-06;-0.0026357283976485434
3.86650e-06;-0.0026404945961445675
3.86675e-06;-0.002645260794640591
3.86700e-06;-0.0026485951652919526
3.86725e-06;-0.002650568373985383
3.86750e-06;-0.0026522185611722853
3.86775e-06;-0.0026539162178640134
3.86800e-06;-0.0026553161618178556
3.86825e-06;-0.002655133997344728
3.86850e-06;-0.0026542492408988434
3.86875e-06;-0.0026533644844529587
3.86900e-06;-0.002650022538072234
3.86925e-06;-0.002643734267779483
3.86950e-06;-0.0026365904027504656
3.86975e-06;-0.0026294465377214244
3.87000e-06;-0.002620949467027022
3.87025e-06;-0.0026093669223867188
3.87050e-06;-0.0025965912139310834
3.87075e-06;-0.002583815505475491
3.87100e-06;-0.0025710397970198987
3.87125e-06;-0.0025548794245301813
3.87150e-06;-0.0025370486329574517
3.87175e-06;-0.002519217841384722
3.87200e-06;-0.002499821751334293
3.87225e-06;-0.002479653146073742
3.87250e-06;-0.002457776028372346
3.87275e-06;-0.0024350557156726706
3.87300e-06;-0.002412335402972995
3.87325e-06;-0.0023880557936870037
3.87350e-06;-0.0023630066312792875
3.87375e-06;-0.0023379574688715712
3.87400e-06;-0.0023124087204545
3.87425e-06;-0.002286613413444088
3.87450e-06;-0.0022608181064336756
3.87475e-06;-0.00223476697854491
3.87500e-06;-0.002208589596448262
3.87525e-06;-0.002182688613143305
3.87550e-06;-0.002156924039777768
3.87575e-06;-0.0021320209326970868
3.87600e-06;-0.002107542981468468
3.87625e-06;-0.0020838906410693284
3.87650e-06;-0.0020613273263650833
3.87675e-06;-0.0020397454682064753
3.87700e-06;-0.002019276409017002
3.87725e-06;-0.0020001485009248495
3.87750e-06;-0.0019825669895366816
3.87775e-06;-0.001966842904690404
3.87800e-06;-0.001953954511889614
3.87825e-06;-0.0019421427805063696
3.87850e-06;-0.0019332770424486715
3.87875e-06;-0.001925865228153916
3.87900e-06;-0.0019213411420699372
3.87925e-06;-0.0019182422244105651
3.87950e-06;-0.0019189716170881772
3.87975e-06;-0.001921590379752683
3.88000e-06;-0.00192420914241718
3.88025e-06;-0.0019331827601497267
3.88050e-06;-0.0019452926629218005
3.88075e-06;-0.0019574025656938334
3.88100e-06;-0.001969512468465907
3.88125e-06;-0.00198162237123794
3.88150e-06;-0.0019954629878511537
3.88175e-06;-0.0020177801860410583
3.88200e-06;-0.0020400973842308874
3.88225e-06;-0.002062414582420716
3.88250e-06;-0.0020847317806106207
3.88275e-06;-0.00210704897880045
3.88300e-06;-0.002132838055049699
3.88325e-06;-0.0021603405927547964
3.88350e-06;-0.002189101345151215
3.88375e-06;-0.0022184830589811497
3.88400e-06;-0.0022486037849217873
3.88425e-06;-0.002279436874440249
3.88450e-06;-0.002310666020600065
3.88475e-06;-0.002342084682666743
3.88500e-06;-0.00237350369245914
3.88525e-06;-0.0024047487407998576
3.88550e-06;-0.0024356421617590697
3.88575e-06;-0.002466022370638232
3.88600e-06;-0.00249571605262178
3.88625e-06;-0.002524530071778733
3.88650e-06;-0.002552260286330745
3.88675e-06;-0.002578684978929684
3.88700e-06;-0.0026035932047802635
3.88725e-06;-0.002626783646350302
3.88750e-06;-0.0026472589120087892
3.88775e-06;-0.00266668513676205
3.88800e-06;-0.0026826626123501933
3.88825e-06;-0.0026969380411892697
3.88850e-06;-0.002706570994026662
3.88875e-06;-0.0027139127651027847
3.88900e-06;-0.0027212545361789326
3.88925e-06;-0.002722930365864731
3.88950e-06;-0.0027218099071972504
3.88975e-06;-0.0027206894485297733
3.89000e-06;-0.002711857344055099
3.89025e-06;-0.002699219343283653
3.89050e-06;-0.0026865813425122494
3.89075e-06;-0.0026739433417408464
3.89100e-06;-0.0026613053409694004
3.89125e-06;-0.0026402264671818443
3.89150e-06;-0.0026149818046436735
3.89175e-06;-0.0025897371421054172
3.89200e-06;-0.0025644924795672464
3.89225e-06;-0.0025392478170290756
3.89250e-06;-0.0025086055054413334
3.89275e-06;-0.002475299314697291
3.89300e-06;-0.0024419931239532486
3.89325e-06;-0.0024062887488816563
3.89350e-06;-0.0023694008079309646
3.89375e-06;-0.0023311437342173943
3.89400e-06;-0.0022922109581388125
3.89425e-06;-0.0022525545254380042
