Time(s);Current(A)
4.55000e-06;-0.010803443121041362
4.55025e-06;-0.010784683024759595
4.55050e-06;-0.010763680995039939
4.55075e-06;-0.010736181212497458
4.55100e-06;-0.01070868142995507
4.55125e-06;-0.01067871804905236
4.55150e-06;-0.010641614468120536
4.55175e-06;-0.010604510887188714
4.55200e-06;-0.010564786268862425
4.55225e-06;-0.010517465147964497
4.55250e-06;-0.010470144027066567
4.55275e-06;-0.010418603508201008
4.55300e-06;-0.01035483398887196
4.55325e-06;-0.010291064469542912
4.55350e-06;-0.01022729495021365
4.55375e-06;-0.010163525430884602
4.55400e-06;-0.010087945798621807
4.55425e-06;-0.010008565243336159
4.55450e-06;-0.009929184688050782
4.55475e-06;-0.009849804132765405
4.55500e-06;-0.009767549751024148
4.55525e-06;-0.009676966213008465
4.55550e-06;-0.009586382674992474
4.55575e-06;-0.009494812176597946
4.55600e-06;-0.009400381189806097
4.55625e-06;-0.009305507390798926
4.55650e-06;-0.009209074739031861
4.55675e-06;-0.009111693936876372
4.55700e-06;-0.009013878272791417
4.55725e-06;-0.008916209369876159
4.55750e-06;-0.008819269997156006
4.55775e-06;-0.008723639364368136
4.55800e-06;-0.008629841546681356
4.55825e-06;-0.008538210912859778
4.55850e-06;-0.008448961659222272
4.55875e-06;-0.00836247271699901
4.55900e-06;-0.008279311674759803
4.55925e-06;-0.008200091294155887
4.55950e-06;-0.008125420469848228
4.55975e-06;-0.008055902909362271
4.56000e-06;-0.007991966550461561
4.56025e-06;-0.007933417089688493
4.56050e-06;-0.007879548945284979
4.56075e-06;-0.00782998789054836
4.56100e-06;-0.007784858992241915
4.56125e-06;-0.007744410674586969
4.56150e-06;-0.007708890908294608
4.56175e-06;-0.007679210006575503
4.56200e-06;-0.007655433341245489
4.56225e-06;-0.007634031042896549
4.56250e-06;-0.007619510326974431
4.56275e-06;-0.007607598703148634
4.56300e-06;-0.0076032489610638925
4.56325e-06;-0.007598899218979151
4.56350e-06;-0.007598573250691087
4.56375e-06;-0.007609909309069306
4.56400e-06;-0.007621245367447564
4.56425e-06;-0.007632581425825784
4.56450e-06;-0.007643917484204003
4.56475e-06;-0.007659010768988526
4.56500e-06;-0.007684993551233208
4.56525e-06;-0.00771097633347789
4.56550e-06;-0.0077369591157226605
4.56575e-06;-0.007762941897967343
4.56600e-06;-0.007791006196255358
4.56625e-06;-0.007825103312696008
4.56650e-06;-0.007859200429136542
4.56675e-06;-0.00789399957076943
4.56700e-06;-0.007930833378595598
4.56725e-06;-0.00796766718642164
4.56750e-06;-0.008004702630886222
4.56775e-06;-0.008042322474965368
4.56800e-06;-0.00807978607454011
4.56825e-06;-0.008116796833655454
4.56850e-06;-0.008153263364971373
4.56875e-06;-0.008188152571261618
4.56900e-06;-0.008220703642547102
4.56925e-06;-0.008246478141850514
4.56950e-06;-0.008272252641153924
4.56975e-06;-0.008298027140457425
4.57000e-06;-0.008323801639760835
4.57025e-06;-0.008349576139064247
4.57050e-06;-0.008375350638367746
4.57075e-06;-0.008401125137671158
4.57100e-06;-0.008426899636974568
4.57125e-06;-0.008452674136278069
4.57150e-06;-0.008474100565625111
4.57175e-06;-0.00849412762823569
4.57200e-06;-0.008514154690846338
4.57225e-06;-0.008534181753456917
4.57250e-06;-0.008554208816067565
4.57275e-06;-0.008574235878678144
4.57300e-06;-0.008594262941288724
4.57325e-06;-0.00861429000389937
4.57350e-06;-0.008634317066509951
4.57375e-06;-0.008654213284093035
4.57400e-06;-0.008673730276034658
4.57425e-06;-0.008693247267976214
4.57450e-06;-0.00871276425991777
4.57475e-06;-0.00873228125185939
4.57500e-06;-0.008751798243800946
4.57525e-06;-0.008771315235742504
4.57550e-06;-0.008790832227684125
4.57575e-06;-0.00881034921962568
4.57600e-06;-0.008829866211567236
4.57625e-06;-0.008848145760910312
4.57650e-06;-0.00886602705630897
4.57675e-06;-0.00888390835170769
4.57700e-06;-0.008901789647106348
4.57725e-06;-0.008919670942505007
4.57750e-06;-0.008937552237903726
4.57775e-06;-0.008955433533302385
4.57800e-06;-0.008973314828701045
4.57825e-06;-0.008991196124099763
4.57850e-06;-0.00900812337365568
4.57875e-06;-0.00902228553038657
4.57900e-06;-0.009036447687117508
4.57925e-06;-0.009050609843848399
4.57950e-06;-0.009064034856209194
4.57975e-06;-0.009075323417136147
4.58000e-06;-0.00908661197806306
4.58025e-06;-0.009097900538989975
4.58050e-06;-0.00911004884286726
4.58075e-06;-0.009124688923299356
4.58100e-06;-0.009139329003731503
4.58125e-06;-0.009155800139152228
4.58150e-06;-0.009177578186237037
4.58175e-06;-0.00919935623332192
4.58200e-06;-0.009221134280406728
4.58225e-06;-0.009242912327491536
4.58250e-06;-0.009264690374576418
4.58275e-06;-0.009286468421661226
4.58300e-06;-0.009311297605146542
4.58325e-06;-0.009344969838924043
4.58350e-06;-0.00937864207270143
4.58375e-06;-0.009412314306478816
4.58400e-06;-0.009445986540256317
4.58425e-06;-0.009479658774033704
4.58450e-06;-0.00951333100781109
4.58475e-06;-0.009549397727866199
4.58500e-06;-0.009592404341716803
4.58525e-06;-0.009635410955567551
4.58550e-06;-0.009678417569418155
4.58575e-06;-0.009721424183268759
4.58600e-06;-0.009764430797119507
4.58625e-06;-0.00980743741097011
4.58650e-06;-0.009850444024820713
4.58675e-06;-0.009894101095163326
4.58700e-06;-0.009937967506014795
4.58725e-06;-0.009981833916866262
4.58750e-06;-0.01002570032771788
4.58775e-06;-0.01006956673856935
4.58800e-06;-0.010113433149420818
4.58825e-06;-0.010157299560272436
4.58850e-06;-0.010198125057890979
4.58875e-06;-0.010230137134829839
4.58900e-06;-0.010262149211768807
4.58925e-06;-0.010294161288707667
4.58950e-06;-0.010326173365646635
4.58975e-06;-0.010358185442585495
4.59000e-06;-0.010390197519524354
4.59025e-06;-0.010422209596463323
4.59050e-06;-0.010454221673402183
4.59075e-06;-0.010470769245056808
4.59100e-06;-0.010482339777589143
4.59125e-06;-0.010493910310121441
4.59150e-06;-0.010505480842653738
4.59175e-06;-0.010517051375186073
4.59200e-06;-0.010528621907718371
4.59225e-06;-0.010540192440250668
4.59250e-06;-0.010551762972783003
4.59275e-06;-0.010558573992475387
4.59300e-06;-0.010551590607108835
4.59325e-06;-0.010544607221742261
4.59350e-06;-0.010537623836375711
4.59375e-06;-0.010530640451009137
4.59400e-06;-0.010523657065642586
4.59425e-06;-0.010516673680276036
4.59450e-06;-0.010509690294909462
4.59475e-06;-0.01050270690954291
4.59500e-06;-0.010486489963044235
4.59525e-06;-0.010467301321418874
4.59550e-06;-0.010448112679793578
4.59575e-06;-0.010428924038168282
4.59600e-06;-0.010409735396542922
4.59625e-06;-0.010390546754917625
4.59650e-06;-0.01037135811329233
4.59675e-06;-0.010352169471666967
4.59700e-06;-0.010332139796707631
4.59725e-06;-0.010309680454814616
4.59750e-06;-0.010287243962669479
4.59775e-06;-0.010264807470524417
4.59800e-06;-0.01024237097837928
4.59825e-06;-0.010219934486234218
4.59850e-06;-0.010197497994089156
4.59875e-06;-0.010176103649602723
4.59900e-06;-0.010157729741748563
4.59925e-06;-0.010139355833894404
4.59950e-06;-0.010120981926040181
4.59975e-06;-0.010102608018186023
4.60000e-06;-0.010084234110331863
4.60025e-06;-0.01006721226335431
4.60050e-06;-0.010054109068562616
4.60075e-06;-0.010041005873770922
4.60100e-06;-0.010027902678979184
4.60125e-06;-0.01001479948418749
4.60150e-06;-0.010001696289395796
4.60175e-06;-0.00998859309460406
4.60200e-06;-0.009975489899812366
4.60225e-06;-0.009962386705020627
4.60250e-06;-0.009949283510228933
4.60275e-06;-0.00993618031543724
4.60300e-06;-0.009923077120645501
4.60325e-06;-0.009909973925853808
4.60350e-06;-0.009896870731062114
4.60375e-06;-0.009883767536270377
4.60400e-06;-0.009872389850987246
4.60425e-06;-0.009861567497295354
4.60450e-06;-0.009850745143603425
4.60475e-06;-0.009839922789911535
4.60500e-06;-0.009829100436219642
4.60525e-06;-0.009818278082527714
4.60550e-06;-0.009807455728835823
4.60575e-06;-0.00979663337514393
4.60600e-06;-0.009785811021452004
4.60625e-06;-0.009774988667760111
4.60650e-06;-0.009764166314068182
4.60675e-06;-0.009753343960376292
4.60700e-06;-0.0097425216066844
4.60725e-06;-0.009731699252992472
4.60750e-06;-0.00972134895690199
4.60775e-06;-0.00971236681633111
4.60800e-06;-0.0097033846757602
4.60825e-06;-0.009694402535189321
4.60850e-06;-0.009685420394618442
4.60875e-06;-0.009676438254047534
4.60900e-06;-0.009667456113476655
4.60925e-06;-0.009658473972905776
4.60950e-06;-0.009650683316133873
4.60975e-06;-0.009646345914073245
4.61000e-06;-0.009642008512012617
4.61025e-06;-0.009637671109951975
4.61050e-06;-0.009633333707891347
4.61075e-06;-0.009628996305830704
4.61100e-06;-0.009624658903770076
4.61125e-06;-0.009620321501709448
4.61150e-06;-0.009618591260590961
4.61175e-06;-0.009624417304176897
4.61200e-06;-0.009630243347762834
4.61225e-06;-0.009636069391348789
4.61250e-06;-0.009641895434934726
4.61275e-06;-0.009647721478520662
4.61300e-06;-0.009653547522106619
4.61325e-06;-0.009659373565692554
4.61350e-06;-0.009665199609278492
4.61375e-06;-0.009673586273596485
4.61400e-06;-0.009689394336017437
4.61425e-06;-0.009705202398438388
4.61450e-06;-0.009721010460859393
4.61475e-06;-0.009736818523280344
4.61500e-06;-0.009752626585701349
4.61525e-06;-0.009768434648122298
4.61550e-06;-0.00978424271054325
4.61575e-06;-0.009800050772964254
4.61600e-06;-0.009816916512630848
4.61625e-06;-0.009836847698033214
4.61650e-06;-0.009856778883435646
4.61675e-06;-0.00987671006883801
4.61700e-06;-0.009896641254240375
4.61725e-06;-0.009916572439642807
4.61750e-06;-0.009936503625045171
4.61775e-06;-0.009956434810447536
4.61800e-06;-0.00997636599584997
4.61825e-06;-0.009996297181252334
4.61850e-06;-0.010011830087009333
4.61875e-06;-0.010025947466731225
4.61900e-06;-0.01004006484645307
4.61925e-06;-0.010054182226174962
4.61950e-06;-0.010068299605896808
4.61975e-06;-0.010082416985618653
4.62000e-06;-0.010096534365340545
4.62025e-06;-0.01011065174506239
4.62050e-06;-0.010124769124784234
4.62075e-06;-0.010134926214234412
4.62100e-06;-0.010133605270121523
4.62125e-06;-0.010132284326008633
4.62150e-06;-0.010130963381895739
4.62175e-06;-0.01012964243778285
4.62200e-06;-0.01012832149366996
4.62225e-06;-0.010127000549557065
4.62250e-06;-0.010125679605444176
4.62275e-06;-0.010124358661331287
4.62300e-06;-0.010111121412639265
4.62325e-06;-0.010094049064605582
4.62350e-06;-0.01007697671657184
4.62375e-06;-0.010059904368538156
4.62400e-06;-0.010042832020504471
4.62425e-06;-0.01002575967247073
4.62450e-06;-0.010008687324437045
4.62475e-06;-0.009991614976403362
4.62500e-06;-0.009971926230314855
4.62525e-06;-0.009944654427777712
4.62550e-06;-0.009917382625240568
4.62575e-06;-0.009890110822703333
4.62600e-06;-0.00986283902016619
4.62625e-06;-0.009835567217629047
4.62650e-06;-0.00980829541509181
4.62675e-06;-0.009781023612554667
4.62700e-06;-0.009753418207693524
4.62725e-06;-0.009724845929596156
4.62750e-06;-0.009696273651498884
4.62775e-06;-0.009667701373401612
4.62800e-06;-0.009639129095304243
4.62825e-06;-0.009610556817206971
4.62850e-06;-0.009581984539109602
4.62875e-06;-0.00955341226101233
4.62900e-06;-0.009526025971877178
4.62925e-06;-0.00950207701187086
4.62950e-06;-0.009478128051864623
4.62975e-06;-0.009455037481009003
4.63000e-06;-0.00943443476301329
4.63025e-06;-0.009413832045017646
4.63050e-06;-0.009392160620982349
4.63075e-06;-0.009367391786669508
4.63100e-06;-0.00934262295235675
4.63125e-06;-0.009316718359062044
4.63150e-06;-0.009287522017229467
4.63175e-06;-0.009258325675396988
4.63200e-06;-0.009227097431049042
4.63225e-06;-0.009189980162497448
4.63250e-06;-0.00915286289394598
4.63275e-06;-0.009115745625394385
4.63300e-06;-0.009078628356842918
4.63325e-06;-0.00904151108829145
4.63350e-06;-0.00899593132646231
4.63375e-06;-0.008947628027132799
4.63400e-06;-0.008899324727803287
4.63425e-06;-0.00885102142847361
4.63450e-06;-0.008802718129144098
4.63475e-06;-0.00875230235565729
4.63500e-06;-0.008695764038718507
4.63525e-06;-0.008639225721779917
4.63550e-06;-0.008582687404841326
4.63575e-06;-0.008526149087902543
4.63600e-06;-0.008467171402548133
4.63625e-06;-0.008407408639895607
4.63650e-06;-0.00834764587724288
4.63675e-06;-0.008287883114590354
4.63700e-06;-0.008228020555604879
4.63725e-06;-0.008167868758816902
4.63750e-06;-0.008107981311484894
4.63775e-06;-0.008049156983246427
4.63800e-06;-0.00799154595405945
4.63825e-06;-0.00793532580259858
4.63850e-06;-0.007880584466113628
4.63875e-06;-0.007827524562198807
4.63900e-06;-0.007776485491189098
4.63925e-06;-0.007728228446702444
4.63950e-06;-0.007683084680373752
4.63975e-06;-0.007639623230160417
4.64000e-06;-0.007601037604571392
4.64025e-06;-0.007563858418428834
4.64050e-06;-0.007530755488836701
4.64075e-06;-0.0074991908747863425
4.64100e-06;-0.007472084731252159
4.64125e-06;-0.007444978587717884
4.64150e-06;-0.007420019492137591
4.64175e-06;-0.007401283144581477
4.64200e-06;-0.007382546797025299
4.64225e-06;-0.007366682062475867
4.64250e-06;-0.007359140068986236
4.64275e-06;-0.00735159807549658
4.64300e-06;-0.0073440560820069506
4.64325e-06;-0.00733651408851732
4.64350e-06;-0.007328972095027664
4.64375e-06;-0.0073214301015380335
4.64400e-06;-0.007323247362706877
4.64425e-06;-0.007328076771737663
4.64450e-06;-0.007332906180768432
4.64475e-06;-0.0073377355897992005
4.64500e-06;-0.007342564998829986
4.64525e-06;-0.007347394407860755
4.64550e-06;-0.007354288876779712
4.64575e-06;-0.007367168469279274
4.64600e-06;-0.0073800480617788366
4.64625e-06;-0.007392927654278444
4.64650e-06;-0.0074058072467780055
4.64675e-06;-0.007418686839277568
4.64700e-06;-0.0074315664317771745
4.64725e-06;-0.007444990149688562
4.64750e-06;-0.007459990895874853
4.64775e-06;-0.007474991642061194
4.64800e-06;-0.0074899923882474845
4.64825e-06;-0.0075049931344337755
4.64850e-06;-0.007519993880620117
4.64875e-06;-0.007534994626806407
4.64900e-06;-0.007549352175550312
4.64925e-06;-0.007561845557447962
4.64950e-06;-0.007574338939345571
4.64975e-06;-0.007586280209546078
4.65000e-06;-0.00759662130497375
4.65025e-06;-0.007606962400401422
4.65050e-06;-0.0076179358799322704
4.65075e-06;-0.007630742186214949
4.65100e-06;-0.007643548492497629
4.65125e-06;-0.007657505964134915
4.65150e-06;-0.007674799836303342
4.65175e-06;-0.007692093708471769
4.65200e-06;-0.007709387580640254
4.65225e-06;-0.00772668145280868
4.65250e-06;-0.007743975324977106
4.65275e-06;-0.007761269197145591
4.65300e-06;-0.007784462356763791
4.65325e-06;-0.0078095541212092855
4.65350e-06;-0.007834645885654865
4.65375e-06;-0.00785973765010036
4.65400e-06;-0.00788482941454594
4.65425e-06;-0.007909921178991435
4.65450e-06;-0.007936771591541684
4.65475e-06;-0.007968719060259678
4.65500e-06;-0.008000666528977565
4.65525e-06;-0.00803261399769545
4.65550e-06;-0.008064561466413444
4.65575e-06;-0.00809650893513133
4.65600e-06;-0.008128456403849215
4.65625e-06;-0.00816040387256721
4.65650e-06;-0.008193432523227377
4.65675e-06;-0.00822680913748011
4.65700e-06;-0.008260185751732957
4.65725e-06;-0.00829356236598569
4.65750e-06;-0.008326938980238424
4.65775e-06;-0.00836031559449127
4.65800e-06;-0.008393692208744006
4.65825e-06;-0.008426166666272019
4.65850e-06;-0.008456026420218482
4.65875e-06;-0.008485886174164946
4.65900e-06;-0.008512835077861203
4.65925e-06;-0.008531347519948336
4.65950e-06;-0.00854985996203547
4.65975e-06;-0.008568372404122667
4.66000e-06;-0.008586884846209801
4.66025e-06;-0.008605397288296934
4.66050e-06;-0.00862390973038413
4.66075e-06;-0.008642422172471265
4.66100e-06;-0.008660934614558398
4.66125e-06;-0.008679447056645594
4.66150e-06;-0.008697959498732729
4.66175e-06;-0.008716471940819863
4.66200e-06;-0.008731217532565162
4.66225e-06;-0.008735045734008118
4.66250e-06;-0.008738873935451088
4.66275e-06;-0.008742702136894044
4.66300e-06;-0.008746530338337001
4.66325e-06;-0.008750358539779972
4.66350e-06;-0.008754186741222929
4.66375e-06;-0.008758014942665886
4.66400e-06;-0.008761843144108855
4.66425e-06;-0.008765671345551812
4.66450e-06;-0.008769499546994769
4.66475e-06;-0.00877332774843774
4.66500e-06;-0.00877520240947479
4.66525e-06;-0.008771415161716627
4.66550e-06;-0.008767627913958452
4.66575e-06;-0.008763840666200291
4.66600e-06;-0.008760053418442128
4.66625e-06;-0.008756266170683953
4.66650e-06;-0.008752478922925792
4.66675e-06;-0.008748691675167617
4.66700e-06;-0.008744904427409455
4.66725e-06;-0.008741117179651293
4.66750e-06;-0.008735968856281402
4.66775e-06;-0.008730382489376992
4.66800e-06;-0.008724796122472582
4.66825e-06;-0.008719209755568152
4.66850e-06;-0.008713623388663742
4.66875e-06;-0.008708037021759332
4.66900e-06;-0.008702450654854903
4.66925e-06;-0.008696864287950492
4.66950e-06;-0.008691277921046082
4.66975e-06;-0.008685423998685746
4.67000e-06;-0.00867879462546491
4.67025e-06;-0.008672165252244075
4.67050e-06;-0.008665535879023219
4.67075e-06;-0.008658906505802384
4.67100e-06;-0.008652277132581526
4.67125e-06;-0.00864564775936069
4.67150e-06;-0.008639018386139856
4.67175e-06;-0.008632389012918998
4.67200e-06;-0.008621028097557121
4.67225e-06;-0.008608144400194612
4.67250e-06;-0.008595260702832059
4.67275e-06;-0.008582377005469549
4.67300e-06;-0.008569493308107039
4.67325e-06;-0.008556609610744486
4.67350e-06;-0.008543725913381976
4.67375e-06;-0.008530842216019466
4.67400e-06;-0.008516463120112314
4.67425e-06;-0.008497749939205244
4.67450e-06;-0.008479036758298173
4.67475e-06;-0.008460323577391038
4.67500e-06;-0.008441610396483968
4.67525e-06;-0.008422897215576835
4.67550e-06;-0.008404184034669764
4.67575e-06;-0.008385470853762693
4.67600e-06;-0.00836619095803071
4.67625e-06;-0.008345268563561329
4.67650e-06;-0.008324346169091949
4.67675e-06;-0.008303423774622497
4.67700e-06;-0.008282501380153117
4.67725e-06;-0.008261578985683736
4.67750e-06;-0.008240656591214285
4.67775e-06;-0.008219734196744904
4.67800e-06;-0.008199705103318487
4.67825e-06;-0.008182265047218813
4.67850e-06;-0.0081648249911192
4.67875e-06;-0.008147384935019585
4.67900e-06;-0.008129944878919911
4.67925e-06;-0.008112504822820296
4.67950e-06;-0.008095064766720622
4.67975e-06;-0.008077624710621008
4.68000e-06;-0.008060184654521393
4.68025e-06;-0.008049252396064707
4.68050e-06;-0.008040414583101054
4.68075e-06;-0.008031576770137402
4.68100e-06;-0.008022738957173719
4.68125e-06;-0.008013901144210068
4.68150e-06;-0.008005063331246415
4.68175e-06;-0.007996225518282732
4.68200e-06;-0.007987387705319081
4.68225e-06;-0.007981024971521868
4.68250e-06;-0.007981835712331561
4.68275e-06;-0.007982646453141253
4.68300e-06;-0.007983457193950945
4.68325e-06;-0.00798426793476064
4.68350e-06;-0.007985078675570332
4.68375e-06;-0.007985889416380025
4.68400e-06;-0.007986700157189717
4.68425e-06;-0.007987510897999409
4.68450e-06;-0.007988321638809104
4.68475e-06;-0.007994348698934676
4.68500e-06;-0.008002054559950999
4.68525e-06;-0.008009760420967347
4.68550e-06;-0.00801746628198367
4.68575e-06;-0.008025172142999991
4.68600e-06;-0.00803287800401634
4.68625e-06;-0.008040583865032662
4.68650e-06;-0.008048289726048985
4.68675e-06;-0.008055995587065334
4.68700e-06;-0.008063942447896112
4.68725e-06;-0.00807258779387941
4.68750e-06;-0.008081233139862734
4.68775e-06;-0.008089878485846032
4.68800e-06;-0.008098523831829359
4.68825e-06;-0.008107169177812654
4.68850e-06;-0.008115814523795952
4.68875e-06;-0.008124459869779277
4.68900e-06;-0.008133105215762574
4.68925e-06;-0.00814175056174587
4.68950e-06;-0.008150395907729197
4.68975e-06;-0.008159041253712493
4.69000e-06;-0.008161145519808854
4.69025e-06;-0.008161144628978564
4.69050e-06;-0.008161143738148276
4.69075e-06;-0.008161142847317986
4.69100e-06;-0.008161141956487698
4.69125e-06;-0.00816114106565741
4.69150e-06;-0.00816114017482712
4.69175e-06;-0.008161139283996833
4.69200e-06;-0.008161138393166543
4.69225e-06;-0.008161137502336255
4.69250e-06;-0.008161136611505965
4.69275e-06;-0.008158239423346125
4.69300e-06;-0.008146947952036127
4.69325e-06;-0.008135656480726167
4.69350e-06;-0.008124365009416207
4.69375e-06;-0.008113073538106209
4.69400e-06;-0.00810178206679625
4.69425e-06;-0.00809049059548629
4.69450e-06;-0.008079199124176291
4.69475e-06;-0.008066259321123532
4.69500e-06;-0.008048542189710012
4.69525e-06;-0.008030825058296432
4.69550e-06;-0.008013107926882913
4.69575e-06;-0.007995390795469393
4.69600e-06;-0.007977673664055815
4.69625e-06;-0.007959956532642296
4.69650e-06;-0.007942239401228715
4.69675e-06;-0.007924238649134569
4.69700e-06;-0.007905415884646922
4.69725e-06;-0.007886593120159213
