Time(s);Current(A)
1.17500e-05;0.0020517576491587745
1.17503e-05;0.002048311988463333
1.17505e-05;0.0020448065435989976
1.17508e-05;0.0020324238338673114
1.17510e-05;0.0020200411241356247
1.17513e-05;0.002007601078388853
1.17515e-05;0.0019866472905876865
1.17518e-05;0.0019656935027865204
1.17520e-05;0.0019446641255354198
1.17523e-05;0.0019124105800413858
1.17525e-05;0.001880157034547352
1.17528e-05;0.001847903489053537
1.17530e-05;0.0018156499435595032
1.17533e-05;0.0017833963980654695
1.17535e-05;0.0017511428525716544
1.17538e-05;0.0017137478965835663
1.17540e-05;0.0016713472871682552
1.17543e-05;0.0016289466777532314
1.17545e-05;0.0015865460683379203
1.17548e-05;0.0015441454589226094
1.17550e-05;0.0015017448495075855
1.17553e-05;0.0014593315671092364
1.17555e-05;0.0014150364917597268
1.17558e-05;0.0013707414164105172
1.17560e-05;0.0013264463410610076
1.17563e-05;0.0012821512657114978
1.17565e-05;0.0012378904432284797
1.17568e-05;0.0011987157793942058
1.17570e-05;0.001159541115559932
1.17572e-05;0.0011203664517259236
1.17575e-05;0.0010811917878916497
1.17578e-05;0.0010420661077430499
1.17580e-05;0.0010102139443688416
1.17583e-05;0.0009783932313721904
1.17585e-05;0.0009512425395748546
1.17588e-05;0.0009240918477775186
1.17590e-05;0.000896957697047421
1.17593e-05;0.0008722797054907964
1.17595e-05;0.0008476017139341718
1.17598e-05;0.000822948168870837
1.17600e-05;0.0008019246482918963
1.17603e-05;0.0007809011277129555
1.17605e-05;0.0007598922447882698
1.17608e-05;0.0007410568860009418
1.17610e-05;0.0007222215272136138
1.17613e-05;0.0007033984808839377
1.17615e-05;0.0006864036936073188
1.17618e-05;0.0006694089063306998
1.17620e-05;0.0006524141190541959
1.17623e-05;0.0006354193317775769
1.17625e-05;0.000619487250367531
1.17628e-05;0.0006045898144640828
1.17630e-05;0.0005896923785605336
1.17633e-05;0.0005747949426569844
1.17635e-05;0.0005599021999350617
1.17638e-05;0.0005457181383888282
1.17640e-05;0.0005332858587706041
1.17643e-05;0.0005208535791524642
1.17645e-05;0.0005084212995342401
1.17648e-05;0.000495989019916016
1.17650e-05;0.00048355674029787606
1.17653e-05;0.00047112446067965193
1.17655e-05;0.0004586921810614278
1.17657e-05;0.00044627921233937346
1.17660e-05;0.00043673369073244945
1.17663e-05;0.00042718816912552544
1.17665e-05;0.0004176426475186661
1.17668e-05;0.0004080971259117421
1.17670e-05;0.00039855160430481807
1.17673e-05;0.00038900608269789406
1.17675e-05;0.0003794605610910347
1.17678e-05;0.0003699303621444601
1.17680e-05;0.00036267540294395123
1.17683e-05;0.00035543216024598394
1.17685e-05;0.0003499286841142765
1.17688e-05;0.0003444435539494996
1.17690e-05;0.0003416825899694005
1.17693e-05;0.0003389404968387038
1.17695e-05;0.00033900050893710573
1.17698e-05;0.0003390786663750617
1.17700e-05;0.00034185119912778615
1.17703e-05;0.00034464278972907276
1.17705e-05;0.00035026425278943276
1.17708e-05;0.00035590707366104404
1.17710e-05;0.00036472128513018767
1.17713e-05;0.00037355532979815506
1.17715e-05;0.0003853343775797566
1.17718e-05;0.0003971309509073633
1.17720e-05;0.00041152986729892153
1.17723e-05;0.0004259450282779806
1.17725e-05;0.0004427723246272006
1.17728e-05;0.0004596188469715133
1.17730e-05;0.000479320209636635
1.17733e-05;0.0004990215723017568
1.17735e-05;0.0005187446922745194
1.17738e-05;0.0005416985235265687
1.17740e-05;0.0005646523547786181
1.17742e-05;0.0005876061860305118
1.17745e-05;0.0006105600172825611
1.17748e-05;0.0006335138485346105
1.17750e-05;0.0006572022322913646
1.17753e-05;0.0006816057729629137
1.17755e-05;0.0007060093136344628
1.17758e-05;0.0007304128543060118
1.17760e-05;0.0007548163949773955
1.17763e-05;0.000779200888487783
1.17765e-05;0.0008007570964755732
1.17768e-05;0.0008223133044632175
1.17770e-05;0.0008438695124510078
1.17773e-05;0.0008654257204387981
1.17775e-05;0.0008869819284264423
1.17778e-05;0.0009085017875233027
1.17780e-05;0.0009246242521571598
1.17783e-05;0.0009407467167909078
1.17785e-05;0.000956869181424765
1.17788e-05;0.0009729916460586223
1.17790e-05;0.0009891141106923701
1.17793e-05;0.0010052330456299602
1.17795e-05;0.001020827861051396
1.17798e-05;0.0010364226764727257
1.17800e-05;0.0010520174918941614
1.17803e-05;0.001067612307315597
1.17805e-05;0.0010832071227369268
1.17808e-05;0.0010988019381583624
1.17810e-05;0.0011143967535797979
1.17813e-05;0.0011299915690011278
1.17815e-05;0.0011455863844225633
1.17818e-05;0.001161181199843999
1.17820e-05;0.001176776015265329
1.17823e-05;0.0011923708306867645
1.17825e-05;0.0012079656461082
1.17827e-05;0.0012244090008190003
1.17830e-05;0.0012416784894500234
1.17833e-05;0.0012589479780810468
1.17835e-05;0.0012762174667119532
1.17838e-05;0.0012934869553429763
1.17840e-05;0.0013107564439739997
1.17843e-05;0.001328025932605023
1.17845e-05;0.0013452954212359292
1.17848e-05;0.0013625649098669525
1.17850e-05;0.0013798343984979759
1.17853e-05;0.001397103887128882
1.17855e-05;0.0014143733757599054
1.17858e-05;0.0014316428643909287
1.17860e-05;0.0014488673827875043
1.17863e-05;0.0014594143357815454
1.17865e-05;0.0014699612887755864
1.17868e-05;0.001480508241769556
1.17870e-05;0.001491055194763597
1.17873e-05;0.001501602147757638
1.17875e-05;0.0015121491007516075
1.17878e-05;0.0015226960537456486
1.17880e-05;0.0015332430067396894
1.17883e-05;0.001543789959733659
1.17885e-05;0.0015543369127277
1.17888e-05;0.001564883865721741
1.17890e-05;0.0015754308187157105
1.17893e-05;0.0015859777717097516
1.17895e-05;0.0015965247247037926
1.17898e-05;0.0016070716776977621
1.17900e-05;0.0016176186306918032
1.17903e-05;0.0016205882384400486
1.17905e-05;0.0016161805779688558
1.17908e-05;0.0016117729174976332
1.17910e-05;0.0016073652570264105
1.17912e-05;0.0016029575965552179
1.17915e-05;0.0015985499360839951
1.17918e-05;0.0015941422756127726
1.17920e-05;0.0015897346151415798
1.17923e-05;0.0015853269546703573
1.17925e-05;0.0015809192941991345
1.17928e-05;0.001576511633727912
1.17930e-05;0.0015721039732567192
1.17933e-05;0.0015676963127854967
1.17935e-05;0.001563288652314274
1.17938e-05;0.001558880991843081
1.17940e-05;0.0015544733313718586
1.17943e-05;0.0015500217243421255
1.17945e-05;0.0015390445560198062
1.17948e-05;0.0015280673876974125
1.17950e-05;0.0015170902193750186
1.17953e-05;0.0015061130510526993
1.17955e-05;0.0014951358827303054
1.17958e-05;0.0014841587144079117
1.17960e-05;0.0014731815460855924
1.17963e-05;0.0014622043777631985
1.17965e-05;0.0014512272094408048
1.17968e-05;0.0014414213375311155
1.17970e-05;0.0014327558343813613
1.17973e-05;0.0014240903312316073
1.17975e-05;0.0014154248280819118
1.17978e-05;0.0014067593249321576
1.17980e-05;0.0013980938217824036
1.17983e-05;0.0013894283186327082
1.17985e-05;0.001380762815482954
1.17988e-05;0.0013720973123332
1.17990e-05;0.0013634650347413878
1.17993e-05;0.0013597663725075351
1.17995e-05;0.0013560677102736826
1.17997e-05;0.0013523690480398548
1.18000e-05;0.0013486703858060021
1.18003e-05;0.0013449717235721494
1.18005e-05;0.0013412730613383218
1.18008e-05;0.001337574399104469
1.18010e-05;0.0013338757368706164
1.18013e-05;0.0013301770746367637
1.18015e-05;0.001326478412402936
1.18018e-05;0.0013227797501690834
1.18020e-05;0.0013190810879352307
1.18023e-05;0.0013153824257014029
1.18025e-05;0.0013116837634675502
1.18028e-05;0.0013080073081233223
1.18030e-05;0.0013076283219236279
1.18033e-05;0.0013072493357239306
1.18035e-05;0.0013068703495242332
1.18038e-05;0.0013064913633245388
1.18040e-05;0.0013061123771248415
1.18043e-05;0.0013057333909251444
1.18045e-05;0.0013053544047254497
1.18048e-05;0.0013049754185257526
1.18050e-05;0.0013045964323260553
1.18053e-05;0.0013042174461263606
1.18055e-05;0.0013038384599266635
1.18058e-05;0.0013034594737269662
1.18060e-05;0.0013030804875272717
1.18063e-05;0.0013027015013275744
1.18065e-05;0.0013023260674036852
1.18068e-05;0.00130247810581399
1.18070e-05;0.001302630144224296
1.18073e-05;0.001302782182634602
1.18075e-05;0.0013029342210449072
1.18078e-05;0.0013030862594552131
1.18080e-05;0.0013041241666201565
1.18082e-05;0.0013060245515000687
1.18085e-05;0.0013079249363799937
1.18088e-05;0.0013098253212599188
1.18090e-05;0.001311725706139831
1.18093e-05;0.0013136950337231733
1.18095e-05;0.0013259015643872895
1.18098e-05;0.0013381080950514055
1.18100e-05;0.001350314625715439
1.18103e-05;0.0013625211563795551
1.18105e-05;0.0013747276870436714
1.18108e-05;0.0013869342177077048
1.18110e-05;0.0013991407483718208
1.18113e-05;0.001411347279035937
1.18115e-05;0.0014235538096999704
1.18118e-05;0.0014358506825268942
1.18120e-05;0.0014615623334870416
1.18123e-05;0.0014872739844470147
1.18125e-05;0.0015129856354071621
1.18128e-05;0.0015386972863673095
1.18130e-05;0.0015644089373272826
1.18133e-05;0.00159012058828743
1.18135e-05;0.0016158322392475773
1.18138e-05;0.0016415438902075506
1.18140e-05;0.001667255541167698
1.18143e-05;0.0016930037365633142
1.18145e-05;0.0017241783627644943
1.18148e-05;0.0017553529889658855
1.18150e-05;0.0017865276151672767
1.18153e-05;0.0018177022413684565
1.18155e-05;0.0018488768675698477
1.18158e-05;0.001880051493771239
1.18160e-05;0.001911226119972419
1.18163e-05;0.0019403275230035866
1.18165e-05;0.0019674104455615765
1.18167e-05;0.0019944933681193826
1.18170e-05;0.0020215762906773726
1.18173e-05;0.002048659213235362
1.18175e-05;0.0020757421357931686
1.18178e-05;0.002102825058351158
1.18180e-05;0.002129780870227179
1.18183e-05;0.0021378621991608423
1.18185e-05;0.0021459435280944505
1.18188e-05;0.0021540248570281135
1.18190e-05;0.002162106185961777
1.18193e-05;0.002170187514895385
1.18195e-05;0.0021782688438290484
1.18198e-05;0.0021863501727627114
1.18200e-05;0.0021944315016963196
1.18203e-05;0.002202512830629983
1.18205e-05;0.0022105941595636463
1.18208e-05;0.0022186754884972546
1.18210e-05;0.0022128824834985465
1.18213e-05;0.002193581491262334
1.18215e-05;0.0021742804990262533
1.18218e-05;0.0021549795067900414
1.18220e-05;0.0021356785145538295
1.18223e-05;0.002116377522317748
1.18225e-05;0.002097076530081536
1.18228e-05;0.0020777755378453243
1.18230e-05;0.002058474545609243
1.18233e-05;0.002039173553373031
1.18235e-05;0.002019872561136819
1.18238e-05;0.0020004797941065157
1.18240e-05;0.0019674595193928802
1.18243e-05;0.001934439244679245
1.18245e-05;0.0019014189699658331
1.18248e-05;0.0018683986952521977
1.18250e-05;0.0018353784205385622
1.18252e-05;0.0018023581458251506
1.18255e-05;0.0017688672411672068
1.18258e-05;0.001734918133375838
1.18260e-05;0.0017009690255846992
1.18263e-05;0.0016670199177933305
1.18265e-05;0.0016330708100019617
1.18268e-05;0.0015991217022105928
1.18270e-05;0.001565261851653987
1.18273e-05;0.0015446556800037727
1.18275e-05;0.0015240495083535582
1.18278e-05;0.0015034433367034834
1.18280e-05;0.001482837165053269
1.18283e-05;0.0014622309934030546
1.18285e-05;0.0014416248217529798
1.18288e-05;0.0014210186501027655
1.18290e-05;0.001400412478452551
1.18293e-05;0.0013798063068024761
1.18295e-05;0.0013592001351522619
1.18298e-05;0.0013385939635020474
1.18300e-05;0.0013181488031800228
1.18303e-05;0.0013216119843813953
1.18305e-05;0.0013250751655827678
1.18308e-05;0.0013285383467841168
1.18310e-05;0.0013320015279854893
1.18313e-05;0.0013354647091868618
1.18315e-05;0.0013389278903882108
1.18318e-05;0.0013423910715895833
1.18320e-05;0.0013458542527909558
1.18323e-05;0.0013493174339923048
1.18325e-05;0.0013527806151936773
1.18328e-05;0.0013562437963950498
1.18330e-05;0.0013598023312611997
1.18333e-05;0.0013775197952899244
1.18335e-05;0.001395237259318649
1.18337e-05;0.0014129547233472535
1.18340e-05;0.001430672187375978
1.18343e-05;0.0014483896514047028
1.18345e-05;0.0014661071154333071
1.18348e-05;0.0014838495741242561
1.18350e-05;0.0015053034544300573
1.18352e-05;0.001526757334735713
1.18355e-05;0.0015482112150415142
1.18358e-05;0.0015696650953473151
1.18360e-05;0.0015911189756531163
1.18363e-05;0.001612572855958772
1.18365e-05;0.0016339993226337337
1.18368e-05;0.0016513551784985167
1.18370e-05;0.0016687110343631822
1.18373e-05;0.0016860668902279655
1.18375e-05;0.0017034227460927486
1.18378e-05;0.001720778601957414
1.18380e-05;0.0017381344578221972
1.18383e-05;0.0017554903136869804
1.18385e-05;0.001772846169551646
1.18388e-05;0.00179016455464133
1.18390e-05;0.0018019189579460524
1.18393e-05;0.0018136733612506954
1.18395e-05;0.001825427764555418
1.18398e-05;0.0018371821678601404
1.18400e-05;0.0018489365711647835
1.18403e-05;0.001860690974469506
1.18405e-05;0.0018724453777742285
1.18408e-05;0.0018841997810788715
1.18410e-05;0.00189593992868907
1.18413e-05;0.0019055632686085734
1.18415e-05;0.0019151866085280115
1.18418e-05;0.001924809948447515
1.18420e-05;0.0019344332883670181
1.18422e-05;0.0019440566282864563
1.18425e-05;0.0019536799682059597
1.18428e-05;0.001963303308125463
1.18430e-05;0.001972926648044901
1.18433e-05;0.0019825499879644044
1.18435e-05;0.001992173327883908
1.18437e-05;0.002001796667803346
1.18440e-05;0.002011420007722849
1.18443e-05;0.0020210433476423526
1.18445e-05;0.002030666687561856
1.18448e-05;0.0020402900274812943
1.18450e-05;0.0020499133674007977
1.18453e-05;0.0020595367073203007
1.18455e-05;0.002069160047239739
1.18458e-05;0.0020787833871592424
1.18460e-05;0.002088406727078746
1.18463e-05;0.0020980300669981838
1.18465e-05;0.002105887663576806
1.18468e-05;0.002112026140618084
1.18470e-05;0.0021181646176593205
1.18473e-05;0.002124303094700598
1.18475e-05;0.002130441571741876
1.18478e-05;0.002136580048783112
1.18480e-05;0.0021427185258243897
1.18483e-05;0.0021488570028656674
1.18485e-05;0.002154995479906904
1.18488e-05;0.0021611339569481817
1.18490e-05;0.0021672724339894594
1.18493e-05;0.0021734109110306955
1.18495e-05;0.0021795493880719732
1.18498e-05;0.002185687865113251
1.18500e-05;0.002191826342154487
1.18503e-05;0.002197964819195765
1.18505e-05;0.002204103296237043
1.18507e-05;0.002210241773278279
1.18510e-05;0.0022163802503195567
1.18513e-05;0.0022225187273608345
1.18515e-05;0.0022286572044020706
1.18518e-05;0.002234800810404354
1.18520e-05;0.002241706008501583
1.18522e-05;0.0022486112065987656
1.18525e-05;0.0022555164046959945
1.18528e-05;0.0022624216027932235
1.18530e-05;0.0022693268008904524
1.18533e-05;0.002276231998987635
1.18535e-05;0.002283137197084864
1.18538e-05;0.0022900423951820927
1.18540e-05;0.002296947593279275
1.18543e-05;0.0023038527913765037
1.18545e-05;0.002310757989473733
1.18548e-05;0.002317663187570915
1.18550e-05;0.002324288771170008
1.18553e-05;0.0023306421233888746
1.18555e-05;0.002336995475607698
1.18558e-05;0.002343348827826564
1.18560e-05;0.0023497021800454303
1.18563e-05;0.0023560555322642536
1.18565e-05;0.0023624088844831203
1.18568e-05;0.0023687622367019865
1.18570e-05;0.00237511558892081
1.18573e-05;0.002381468941139676
1.18575e-05;0.0023878222933585423
1.18578e-05;0.0023941756455773656
1.18580e-05;0.0024004415200789644
1.18583e-05;0.002393717953166842
1.18585e-05;0.0023869943862547655
1.18588e-05;0.002380270819342643
1.18590e-05;0.002373547252430521
1.18592e-05;0.002366823685518444
1.18595e-05;0.002360100118606322
1.18598e-05;0.0023533765516941998
1.18600e-05;0.0023466529847821233
1.18603e-05;0.002339929417870001
1.18605e-05;0.002333205850957879
1.18607e-05;0.002326482284045802
1.18610e-05;0.002319580001088154
1.18613e-05;0.002286140427489091
1.18615e-05;0.0022527008538900275
1.18618e-05;0.0022192612802911906
1.18620e-05;0.0021858217066921272
1.18623e-05;0.002152382133093064
1.18625e-05;0.0021189425594942274
1.18628e-05;0.0020855029858951636
1.18630e-05;0.0020520634122961003
1.18633e-05;0.0020186238386972638
1.18635e-05;0.0019851842650982004
1.18638e-05;0.0019517446914991369
1.18640e-05;0.001918221659580975
1.18643e-05;0.0018723060208634627
1.18645e-05;0.0018263903821459503
1.18648e-05;0.001780474743428749
1.18650e-05;0.001734559104711237
1.18653e-05;0.0016886434659937246
1.18655e-05;0.0016427344625485083
1.18658e-05;0.0015978107211780687
1.18660e-05;0.0015528869798076292
1.18663e-05;0.0015079632384374941
1.18665e-05;0.0014630394970670546
1.18668e-05;0.001418115755696615
1.18670e-05;0.001373232838083242
1.18673e-05;0.0013344117819085067
1.18675e-05;0.0012955907257337714
1.18678e-05;0.001256818941275443
1.18680e-05;0.0012253634437075908
1.18683e-05;0.0011939079461397385
1.18685e-05;0.0011625018608538895
1.18688e-05;0.0011384329348585098
1.18690e-05;0.0011144048270387151
1.18692e-05;0.0010964377519293552
1.18695e-05;0.0010785133437652941
1.18698e-05;0.001066924489515688
1.18700e-05;0.0010553799578496103
1.18703e-05;0.0010504168234341793
1.18705e-05;0.0010454969505453936
1.18708e-05;0.0010470009200880758
1.18710e-05;0.0010485455645149447
1.18713e-05;0.0010561299645243344
1.18715e-05;0.0010637530679938048
1.18718e-05;0.0010771231930826002
1.18720e-05;0.0010905383398195022
1.18723e-05;0.0011106386868963553
1.18725e-05;0.0011307390339730721
1.18728e-05;0.0011508850203822436
1.18730e-05;0.0011778079261998715
1.18733e-05;0.001204730832017317
1.18735e-05;0.0012317016979938207
1.18738e-05;0.0012657940996138213
1.18740e-05;0.001299886501233591
1.18743e-05;0.0013339789028535916
1.18745e-05;0.0013680713044735922
1.18748e-05;0.0014021637060933618
1.18750e-05;0.0014362791742455218
1.18753e-05;0.0014738197588929289
1.18755e-05;0.0015113603435400816
1.18758e-05;0.0015489009281874889
1.18760e-05;0.001586441512834896
1.18763e-05;0.0016239820974820486
1.18765e-05;0.0016614718020634823
1.18768e-05;0.0016914063981268445
1.18770e-05;0.001721340994190004
1.18773e-05;0.0017512755902533662
1.18775e-05;0.0017812101863167284
1.18777e-05;0.0018111447823798879
1.18780e-05;0.00184107937844325
1.18783e-05;0.0018710139745066123
1.18785e-05;0.0019009485705699745
1.18788e-05;0.0019308000486536548
1.18790e-05;0.0019483094563279275
1.18793e-05;0.0019658188640022003
1.18795e-05;0.0019833282716763545
1.18798e-05;0.0020008376793506275
1.18800e-05;0.0020183470870249005
1.18803e-05;0.0020358564946990547
1.18805e-05;0.0020533659023733277
1.18808e-05;0.0020708753100476002
1.18810e-05;0.002088326566640518
1.18813e-05;0.0020971430519637706
1.18815e-05;0.0021059595372870227
1.18818e-05;0.002114776022610215
1.18820e-05;0.0021235925079334675
1.18823e-05;0.0021324089932567196
1.18825e-05;0.002141225478579912
1.18828e-05;0.0021500419639031644
1.18830e-05;0.0021588584492264165
1.18833e-05;0.002167674934549609
1.18835e-05;0.0021764914198728613
1.18838e-05;0.0021853079051961134
1.18840e-05;0.0021941243905193057
1.18843e-05;0.0022029408758425582
1.18845e-05;0.0022117573611658103
1.18848e-05;0.0022205738464890026
1.18850e-05;0.00222662879321223
1.18853e-05;0.002229995118743505
1.18855e-05;0.002233361444274757
1.18858e-05;0.0022367277698060323
1.18860e-05;0.0022400940953373073
1.18862e-05;0.0022434604208685593
1.18865e-05;0.0022468267463998342
1.18868e-05;0.0022501930719311092
1.18870e-05;0.0022535593974623847
1.18873e-05;0.0022569257229936367
1.18875e-05;0.0022602920485249116
1.18878e-05;0.0022636583740561866
1.18880e-05;0.002267024699587439
1.18883e-05;0.002270391025118714
1.18885e-05;0.002273757350649989
1.18888e-05;0.002277100625823969
1.18890e-05;0.002277021186225789
1.18893e-05;0.0022769417466276085
1.18895e-05;0.002276862307029429
1.18898e-05;0.002276782867431249
1.18900e-05;0.002276703427833069
1.18903e-05;0.0022766239882348895
1.18905e-05;0.0022765445486367096
1.18908e-05;0.0022764651090385296
1.18910e-05;0.00227638566944035
1.18913e-05;0.00227630622984217
1.18915e-05;0.00227622679024399
1.18918e-05;0.0022761473506458106
1.18920e-05;0.0022760679110476307
1.18923e-05;0.0022759884714494507
1.18925e-05;0.002275909031851271
1.18928e-05;0.002275829592253091
1.18930e-05;0.002275750152654911
1.18933e-05;0.0022756707130567313
1.18935e-05;0.0022755912734585514
1.18938e-05;0.0022755118338603714
1.18940e-05;0.00227542224905711
1.18943e-05;0.002273826217169209
1.18945e-05;0.0022722301852813073
1.18947e-05;0.002270634153393417
1.18950e-05;0.002269038121505516
1.18953e-05;0.0022674420896176143
1.18955e-05;0.002265846057729713
1.18958e-05;0.0022642500258418224
1.18960e-05;0.0022626539939539212
1.18963e-05;0.00226105796206602
1.18965e-05;0.0022594619301781293
1.18968e-05;0.002257865898290228
1.18970e-05;0.002256269866402327
1.18973e-05;0.0022546738345144363
1.18975e-05;0.002253077802626535
1.18978e-05;0.002251481770738634
