Time(s);Current(A)
1.25000e-06;-0.012863523974935462
1.25025e-06;-0.012862617195449871
1.25050e-06;-0.01286171041596428
1.25075e-06;-0.01286080363647869
1.25100e-06;-0.012859896856993099
1.25125e-06;-0.012858990077507508
1.25150e-06;-0.012858083298021919
1.25175e-06;-0.012857176518536328
1.25200e-06;-0.012856269739050737
1.25225e-06;-0.012855362959565146
1.25250e-06;-0.012854456180079556
1.25275e-06;-0.012853549400593965
1.25300e-06;-0.012852642621108374
1.25325e-06;-0.012851735841622783
1.25350e-06;-0.012850537695833917
1.25375e-06;-0.012848947928199048
1.25400e-06;-0.012847485696131436
1.25425e-06;-0.012846194883043017
1.25450e-06;-0.012846221805047221
1.25475e-06;-0.012848019878497948
1.25500e-06;-0.012849817951948672
1.25525e-06;-0.012853366957626495
1.25550e-06;-0.01285926936966355
1.25575e-06;-0.012865171781700605
1.25600e-06;-0.012874015498675269
1.25625e-06;-0.012886812587252466
1.25650e-06;-0.012899609675829676
1.25675e-06;-0.012912406764406874
1.25700e-06;-0.012925203852984072
1.25725e-06;-0.01293800094156128
1.25750e-06;-0.012950798030138478
1.25775e-06;-0.01297233048265167
1.25800e-06;-0.012994554848170312
1.25825e-06;-0.013016779213688953
1.25850e-06;-0.013039003579207615
1.25875e-06;-0.013061227944726255
1.25900e-06;-0.013083452310244915
1.25925e-06;-0.013108392121095507
1.25950e-06;-0.013136981728444994
1.25975e-06;-0.013165571335794459
1.26000e-06;-0.013194160943143922
1.26025e-06;-0.013222750550493411
1.26050e-06;-0.013251340157842875
1.26075e-06;-0.013279929765192364
1.26100e-06;-0.013308709342076145
1.26125e-06;-0.013337744254662358
1.26150e-06;-0.013366779167248594
1.26175e-06;-0.013395814079834806
1.26200e-06;-0.013424848992421043
1.26225e-06;-0.013453883905007255
1.26250e-06;-0.013482918817593467
1.26275e-06;-0.013508761235491903
1.26300e-06;-0.013530312660750223
1.26325e-06;-0.013551864086008562
1.26350e-06;-0.013573415511266881
1.26375e-06;-0.01359496693652522
1.26400e-06;-0.01361651836178354
1.26425e-06;-0.01363806978704186
1.26450e-06;-0.013659621212300197
1.26475e-06;-0.013672951885989933
1.26500e-06;-0.013685631408226132
1.26525e-06;-0.01369831093046232
1.26550e-06;-0.013710990452698506
1.26575e-06;-0.013723669974934705
1.26600e-06;-0.013736349497170893
1.26625e-06;-0.013749029019407092
1.26650e-06;-0.013758366346328257
1.26675e-06;-0.013763211469847174
1.26700e-06;-0.013768056593366093
1.26725e-06;-0.013772901716885009
1.26750e-06;-0.01377774684040393
1.26775e-06;-0.013782591963922845
1.26800e-06;-0.013787437087441765
1.26825e-06;-0.01379228221096068
1.26850e-06;-0.013797127334479596
1.26875e-06;-0.013801972457998517
1.26900e-06;-0.013806817581517432
1.26925e-06;-0.013811662705036351
1.26950e-06;-0.013816507828555267
1.26975e-06;-0.013821352952074184
1.27000e-06;-0.013826198075593103
1.27025e-06;-0.013831043199112018
1.27050e-06;-0.013835888322630939
1.27075e-06;-0.013838543961712194
1.27100e-06;-0.013838256741830183
1.27125e-06;-0.01383796952194817
1.27150e-06;-0.013837682302066159
1.27175e-06;-0.013837395082184147
1.27200e-06;-0.013837107862302135
1.27225e-06;-0.013836820642420124
1.27250e-06;-0.013836533422538112
1.27275e-06;-0.013836246202656102
1.27300e-06;-0.01383595898277409
1.27325e-06;-0.013835671762892078
1.27350e-06;-0.013835384543010067
1.27375e-06;-0.013835097323128055
1.27400e-06;-0.013834810103246043
1.27425e-06;-0.013834522883364031
1.27450e-06;-0.013834235663482021
1.27475e-06;-0.01383394844360001
1.27500e-06;-0.013833661223717998
1.27525e-06;-0.013829177561341482
1.27550e-06;-0.013824361506043626
1.27575e-06;-0.013819545450745775
1.27600e-06;-0.013814729395447919
1.27625e-06;-0.013809913340150068
1.27650e-06;-0.013805097284852215
1.27675e-06;-0.013800281229554361
1.27700e-06;-0.013795465174256508
1.27725e-06;-0.013790649118958654
1.27750e-06;-0.013785833063660801
1.27775e-06;-0.013781017008362947
1.27800e-06;-0.013776200953065094
1.27825e-06;-0.013771384897767244
1.27850e-06;-0.013766568842469388
1.27875e-06;-0.013761752787171537
1.27900e-06;-0.01375693673187368
1.27925e-06;-0.01375212067657583
1.27950e-06;-0.013746067309963873
1.27975e-06;-0.013738350888512033
1.28000e-06;-0.0137306344670602
1.28025e-06;-0.01372291804560836
1.28050e-06;-0.013715201624156527
1.28075e-06;-0.013707485202704693
1.28100e-06;-0.013699768781252853
1.28125e-06;-0.013692052359801019
1.28150e-06;-0.013684335938349178
1.28175e-06;-0.01367680572147427
1.28200e-06;-0.013669525779869067
1.28225e-06;-0.01366224583826387
1.28250e-06;-0.013654965896658672
1.28275e-06;-0.013647685955053468
1.28300e-06;-0.013640406013448273
1.28325e-06;-0.013633126071843069
1.28350e-06;-0.013625846130237871
1.28375e-06;-0.013618566188632674
1.28400e-06;-0.01361320311857466
1.28425e-06;-0.013610416491864048
1.28450e-06;-0.013607629865153435
1.28475e-06;-0.013604843238442823
1.28500e-06;-0.013602056611732211
1.28525e-06;-0.013599269985021598
1.28550e-06;-0.013596483358310986
1.28575e-06;-0.013593696731600373
1.28600e-06;-0.013590910104889761
1.28625e-06;-0.01359582054671105
1.28650e-06;-0.013601340659961837
1.28675e-06;-0.013606860773212626
1.28700e-06;-0.013612380886463419
1.28725e-06;-0.013617900999714206
1.28750e-06;-0.013623421112964999
1.28775e-06;-0.013628941226215788
1.28800e-06;-0.013634461339466575
1.28825e-06;-0.01364304784266295
1.28850e-06;-0.013655755842673863
1.28875e-06;-0.013668463842684789
1.28900e-06;-0.013681171842695702
1.28925e-06;-0.013693879842706617
1.28950e-06;-0.013706587842717543
1.28975e-06;-0.013719295842728456
1.29000e-06;-0.013732003842739381
1.29025e-06;-0.013744711842750296
1.29050e-06;-0.01375836578673335
1.29075e-06;-0.013773291162314138
1.29100e-06;-0.013788216537894925
1.29125e-06;-0.013803141913475725
1.29150e-06;-0.013818067289056513
1.29175e-06;-0.013832992664637314
1.29200e-06;-0.013847918040218102
1.29225e-06;-0.01386284341579889
1.29250e-06;-0.01387776879137969
1.29275e-06;-0.013891751622170993
1.29300e-06;-0.013904467590163946
1.29325e-06;-0.013917183558156887
1.29350e-06;-0.01392898764022205
1.29375e-06;-0.01393956606768583
1.29400e-06;-0.013948902513270182
1.29425e-06;-0.01395656962636571
1.29450e-06;-0.013960814270201379
1.29475e-06;-0.013960458815418735
1.29500e-06;-0.013960103360636088
1.29525e-06;-0.013955300715459864
1.29550e-06;-0.01394452065665868
1.29575e-06;-0.013933740597857507
1.29600e-06;-0.013918548046812907
1.29625e-06;-0.013897424719498053
1.29650e-06;-0.0138763013921832
1.29675e-06;-0.013848933148304396
1.29700e-06;-0.013813171189281452
1.29725e-06;-0.01377740923025848
1.29750e-06;-0.013741647271235538
1.29775e-06;-0.013705885312212595
1.29800e-06;-0.013656498233560223
1.29825e-06;-0.013606031932847526
1.29850e-06;-0.013555565632134788
1.29875e-06;-0.01350509933142209
1.29900e-06;-0.013450244421034914
1.29925e-06;-0.013389490834643306
1.29950e-06;-0.013328737248251697
1.29975e-06;-0.013266070098608166
1.30000e-06;-0.013200830952256352
1.30025e-06;-0.013134542517950671
1.30050e-06;-0.013066843748679297
1.30075e-06;-0.01299855021073437
1.30100e-06;-0.012929267338792547
1.30125e-06;-0.01285970934208315
1.30150e-06;-0.012790275621282123
1.30175e-06;-0.01272136545317548
1.30200e-06;-0.012653365387904753
1.30225e-06;-0.012586608881699097
1.30250e-06;-0.01252136302763033
1.30275e-06;-0.012457921905721132
1.30300e-06;-0.012396674133791193
1.30325e-06;-0.012338051572098132
1.30350e-06;-0.012282487819654757
1.30375e-06;-0.012230416736072341
1.30400e-06;-0.012182208885248957
1.30425e-06;-0.01213791708785918
1.30450e-06;-0.012097143912770596
1.30475e-06;-0.012059473742215323
1.30500e-06;-0.012024867836489005
1.30525e-06;-0.011994243129139619
1.30550e-06;-0.011966536282544809
1.30575e-06;-0.01194195683849771
1.30600e-06;-0.011921580897548986
1.30625e-06;-0.011904783170229005
1.30650e-06;-0.011892794875607685
1.30675e-06;-0.011880806580986378
1.30700e-06;-0.011873745185306888
1.30725e-06;-0.0118733059735807
1.30750e-06;-0.01187286676185451
1.30775e-06;-0.011872427550128321
1.30800e-06;-0.011871988338402133
1.30825e-06;-0.011876836568534051
1.30850e-06;-0.01188879158389536
1.30875e-06;-0.011900746599256681
1.30900e-06;-0.01191270161461799
1.30925e-06;-0.011924656629979298
1.30950e-06;-0.011940469523411172
1.30975e-06;-0.011961467743060169
1.31000e-06;-0.011982465962709184
1.31025e-06;-0.01200346418235818
1.31050e-06;-0.012024462402007179
1.31075e-06;-0.012045460621656193
1.31100e-06;-0.012068057406273876
1.31125e-06;-0.01209280280230186
1.31150e-06;-0.012117548198329822
1.31175e-06;-0.012142293594357784
1.31200e-06;-0.012167038990385768
1.31225e-06;-0.01219178438641373
1.31250e-06;-0.012215831117971115
1.31275e-06;-0.012238938783251616
1.31300e-06;-0.012262046448532137
1.31325e-06;-0.012283909681872918
1.31350e-06;-0.012304100289629295
1.31375e-06;-0.01232298256522664
1.31400e-06;-0.012340106327744807
1.31425e-06;-0.012357189101417638
1.31450e-06;-0.01237421678249019
1.31475e-06;-0.012391244463562743
1.31500e-06;-0.012409797406450863
1.31525e-06;-0.012430400434887363
1.31550e-06;-0.012451003463323883
1.31575e-06;-0.012473760619345431
1.31600e-06;-0.012499413111621034
1.31625e-06;-0.012525065603896659
1.31650e-06;-0.012550718096172262
1.31675e-06;-0.012576370588447888
1.31700e-06;-0.01260202308072349
1.31725e-06;-0.012627675572999115
1.31750e-06;-0.012661967706106758
1.31775e-06;-0.012696944170158226
1.31800e-06;-0.012731920634209725
1.31825e-06;-0.012766897098261194
1.31850e-06;-0.012801873562312693
1.31875e-06;-0.012836850026364161
1.31900e-06;-0.012874817256444859
1.31925e-06;-0.012916804338168449
1.31950e-06;-0.012958791419892002
1.31975e-06;-0.01300077850161559
1.32000e-06;-0.013042765583339146
1.32025e-06;-0.0130847526650627
1.32050e-06;-0.013126739746786287
1.32075e-06;-0.013168819968637084
1.32100e-06;-0.013211025378981379
1.32125e-06;-0.013253230789325639
1.32150e-06;-0.013295436199669936
1.32175e-06;-0.013337641610014194
1.32200e-06;-0.013379847020358455
1.32225e-06;-0.013422052430702752
1.32250e-06;-0.013462128786011678
1.32275e-06;-0.013499343504770769
1.32300e-06;-0.013536558223529829
1.32325e-06;-0.013571826336332783
1.32350e-06;-0.013604478040137542
1.32375e-06;-0.013634291978243425
1.32400e-06;-0.013660291710558988
1.32425e-06;-0.013686291442874528
1.32450e-06;-0.013707423633923207
1.32475e-06;-0.013722013422936287
1.32500e-06;-0.013736603211949356
1.32525e-06;-0.01374581902562567
1.32550e-06;-0.013747811745494488
1.32575e-06;-0.01374980446536331
1.32600e-06;-0.013746300309577136
1.32625e-06;-0.013735407871185292
1.32650e-06;-0.013724515432793438
1.32675e-06;-0.013706233268436114
1.32700e-06;-0.013678018664773597
1.32725e-06;-0.013649804061111107
1.32750e-06;-0.013621589457448617
1.32775e-06;-0.013593374853786101
1.32800e-06;-0.013557330360906353
1.32825e-06;-0.013510761810736845
1.32850e-06;-0.013464193260567378
1.32875e-06;-0.01341762471039791
1.32900e-06;-0.013371056160228403
1.32925e-06;-0.013319680565414152
1.32950e-06;-0.013261843881326191
1.32975e-06;-0.013204007197238278
1.33000e-06;-0.013144183646745095
1.33025e-06;-0.01308168957368196
1.33050e-06;-0.013018115818674576
1.33075e-06;-0.01295309087651487
1.33100e-06;-0.012887605455468966
1.33125e-06;-0.01282140575675011
1.33150e-06;-0.012755142258052809
1.33175e-06;-0.012689188159130813
1.33200e-06;-0.012623911084620708
1.33225e-06;-0.012559661002485168
1.33250e-06;-0.012496770134284612
1.33275e-06;-0.012435591746035734
1.33300e-06;-0.012376523845693498
1.33325e-06;-0.012321401787115552
1.33350e-06;-0.012269772367987451
1.33375e-06;-0.012218142948859308
1.33400e-06;-0.012170518384928318
1.33425e-06;-0.012128276697352306
1.33450e-06;-0.01208603500977633
1.33475e-06;-0.012045246406566186
1.33500e-06;-0.012006410876086405
1.33525e-06;-0.011967575345606656
1.33550e-06;-0.01193132654897973
1.33575e-06;-0.011898554549342445
1.33600e-06;-0.01186578254970516
1.33625e-06;-0.011833010550067845
1.33650e-06;-0.01180023855043056
1.33675e-06;-0.011767466550793247
1.33700e-06;-0.0117365758663181
1.33725e-06;-0.011708213834292047
1.33750e-06;-0.011679851802265972
1.33775e-06;-0.01165148977023992
1.33800e-06;-0.011623127738213843
1.33825e-06;-0.01159476570618779
1.33850e-06;-0.011567480322124781
1.33875e-06;-0.011541642047277407
1.33900e-06;-0.011515803772430031
1.33925e-06;-0.011489965497582634
1.33950e-06;-0.011464127222735258
1.33975e-06;-0.011438288947887862
1.34000e-06;-0.011414634924387318
1.34025e-06;-0.011391153911641978
1.34050e-06;-0.011367672898896621
1.34075e-06;-0.01134419188615128
1.34100e-06;-0.011320710873405923
1.34125e-06;-0.011297864974060545
1.34150e-06;-0.011275872722783575
1.34175e-06;-0.011254479213250852
1.34200e-06;-0.011233890465093828
1.34225e-06;-0.011213898869452801
1.34250e-06;-0.011194709899125424
1.34275e-06;-0.01117587413477723
1.34300e-06;-0.01115779400631238
1.34325e-06;-0.011140422780904812
1.34350e-06;-0.0111238775446003
1.34375e-06;-0.011108274178705184
1.34400e-06;-0.01109380816264685
1.34425e-06;-0.011081039097223522
1.34450e-06;-0.011070960964161262
1.34475e-06;-0.01106438460386024
1.34500e-06;-0.011061504308298298
1.34525e-06;-0.011062219409202054
1.34550e-06;-0.011066414956587764
1.34575e-06;-0.011073976261070302
1.34600e-06;-0.011085623847474807
1.34625e-06;-0.011100220000525468
1.34650e-06;-0.011118297556717624
1.34675e-06;-0.011141054423828354
1.34700e-06;-0.011169062586684146
1.34725e-06;-0.011204128951224173
1.34750e-06;-0.01123919531576417
1.34775e-06;-0.011274261680304197
1.34800e-06;-0.011309328044844195
1.34825e-06;-0.011357710778115909
1.34850e-06;-0.011407148277824504
1.34875e-06;-0.011456585777533099
1.34900e-06;-0.011506023277241735
1.34925e-06;-0.011559506245758548
1.34950e-06;-0.011618426678882503
1.34975e-06;-0.01167734711200641
1.35000e-06;-0.011738146807539375
1.35025e-06;-0.011801472396441267
1.35050e-06;-0.011864797985343104
1.35075e-06;-0.01192911935818113
1.35100e-06;-0.011994779151895814
1.35125e-06;-0.012060438945610496
1.35150e-06;-0.012125858103680606
1.35175e-06;-0.012190953826355929
1.35200e-06;-0.012255092237662458
1.35225e-06;-0.012317943938594245
1.35250e-06;-0.012379336330682842
1.35275e-06;-0.012438767283798067
1.35300e-06;-0.012495392653086294
1.35325e-06;-0.012548247071840917
1.35350e-06;-0.012601101490595495
1.35375e-06;-0.012645699379842628
1.35400e-06;-0.012679199769862445
1.35425e-06;-0.012712700159882264
1.35450e-06;-0.01274620054990211
1.35475e-06;-0.012779700939921926
1.35500e-06;-0.012813201329941773
1.35525e-06;-0.01284670171996159
1.35550e-06;-0.012880202109981408
1.35575e-06;-0.012913702500001253
1.35600e-06;-0.012941324000306224
1.35625e-06;-0.012952280400497427
1.35650e-06;-0.01296323680068862
1.35675e-06;-0.012974193200879823
1.35700e-06;-0.012985149601071017
1.35725e-06;-0.012996106001262211
1.35750e-06;-0.013007062401453414
1.35775e-06;-0.013018018801644608
1.35800e-06;-0.01302897520183581
1.35825e-06;-0.013038835661353273
1.35850e-06;-0.014535866999339075
1.35875e-06;-0.02035242302558418
1.35900e-06;-0.024332355350202277
1.35925e-06;-0.02362124615571872
1.35950e-06;-0.021402997387580322
1.35975e-06;-0.01722321120654469
1.36000e-06;-0.013546742709834537
1.36025e-06;-0.012773635039184916
1.36050e-06;-0.013964629724229358
1.36075e-06;-0.01677121379001685
1.36100e-06;-0.019548053516648924
1.36125e-06;-0.019790499199898004
1.36150e-06;-0.018082420843955612
1.36175e-06;-0.01566869971133761
1.36200e-06;-0.0133229369569229
1.36225e-06;-0.01249207009451684
1.36250e-06;-0.012969880661863251
1.36275e-06;-0.014725251569154078
1.36300e-06;-0.015945776459441792
1.36325e-06;-0.015993842837700032
1.36350e-06;-0.014983269034732299
1.36375e-06;-0.013613565662363398
1.36400e-06;-0.012592793807070386
1.36425e-06;-0.012315476783210877
1.36450e-06;-0.012832133439256661
1.36475e-06;-0.013727379062782053
1.36500e-06;-0.014383831637172755
1.36525e-06;-0.014391403077384955
1.36550e-06;-0.013759215361528335
1.36575e-06;-0.012901369797284037
1.36600e-06;-0.012261452683343764
1.36625e-06;-0.012086617078598575
1.36650e-06;-0.012408517472768893
1.36675e-06;-0.012966976110209775
1.36700e-06;-0.01337531123695992
1.36725e-06;-0.013376719014962056
1.36750e-06;-0.012976997691030964
1.36775e-06;-0.012435610428448136
1.36800e-06;-0.012030465996656985
1.36825e-06;-0.01191640574095608
1.36850e-06;-0.012113273145312421
1.36875e-06;-0.012458116098076445
1.36900e-06;-0.012708757420416666
1.36925e-06;-0.012704393889429122
1.36950e-06;-0.012448722321532844
1.36975e-06;-0.01210432580540273
1.37000e-06;-0.0118453276690335
1.37025e-06;-0.011768747077030602
1.37050e-06;-0.011887037951078927
1.37075e-06;-0.01209815379984164
1.37100e-06;-0.012250432784015452
1.37125e-06;-0.012243197455246676
1.37150e-06;-0.012078816253646697
1.37175e-06;-0.0118591814455845
1.37200e-06;-0.011693400631333657
1.37225e-06;-0.011642278177081439
1.37250e-06;-0.011713643663356879
1.37275e-06;-0.011843603603464658
1.37300e-06;-0.011937196007551635
1.37325e-06;-0.011931400372132837
1.37350e-06;-0.011827747920076948
1.37375e-06;-0.011690106977812411
1.37400e-06;-0.011586851760863937
1.37425e-06;-0.011555995032283701
1.37450e-06;-0.011602231908446222
1.37475e-06;-0.011685359205924485
1.37500e-06;-0.01174582972503531
1.37525e-06;-0.011744158057497163
1.37550e-06;-0.01168129986097066
1.37575e-06;-0.011597258755980708
1.37600e-06;-0.011534855557054968
1.37625e-06;-0.011517891042056475
1.37650e-06;-0.011549294019335896
1.37675e-06;-0.011603869782800355
1.37700e-06;-0.011627954062674011
1.37725e-06;-0.01164023820743319
1.37750e-06;-0.01160915458469835
1.37775e-06;-0.011559208842056449
1.37800e-06;-0.011534518218062291
1.37825e-06;-0.011518992605082164
1.37850e-06;-0.011537405252280312
1.37875e-06;-0.011574354439301484
1.37900e-06;-0.011592190964292882
1.37925e-06;-0.011602631556015618
1.37950e-06;-0.011585885033807928
1.37975e-06;-0.011557293642971448
1.38000e-06;-0.011544469926609851
1.38025e-06;-0.01153737185160742
1.38050e-06;-0.011551473110095557
1.38075e-06;-0.011577116147306875
1.38100e-06;-0.011590685339742977
1.38125e-06;-0.011599592508846608
1.38150e-06;-0.011591373822349134
1.38175e-06;-0.01157563219250217
1.38200e-06;-0.011574006764870765
1.38225e-06;-0.011577436515472219
1.38250e-06;-0.01158086626607367
1.38275e-06;-0.01159561858345177
1.38300e-06;-0.011602002996807515
1.38325e-06;-0.011604161492094617
1.38350e-06;-0.011606319987381718
1.38375e-06;-0.011601811385166786
1.38400e-06;-0.01159500621111407
1.38425e-06;-0.011597662062656994
1.38450e-06;-0.011603576892328377
1.38475e-06;-0.011610843198126365
1.38500e-06;-0.011618575038140823
1.38525e-06;-0.011614836764266862
1.38550e-06;-0.01160714745464997
1.38575e-06;-0.011599458145033088
1.38600e-06;-0.011593423718279578
1.38625e-06;-0.011587959338293452
1.38650e-06;-0.011582494958307325
1.38675e-06;-0.011574104881497651
1.38700e-06;-0.011564707008877491
1.38725e-06;-0.011555309136257325
1.38750e-06;-0.011545911263637165
1.38775e-06;-0.01153525574604563
1.38800e-06;-0.01152069917420439
1.38825e-06;-0.011506142602363151
1.38850e-06;-0.0114915860305219
1.38875e-06;-0.011477029458680663
1.38900e-06;-0.011458948104100992
1.38925e-06;-0.011439652590471078
1.38950e-06;-0.011420357076841166
1.38975e-06;-0.011401061563211235
1.39000e-06;-0.011381766049581323
1.39025e-06;-0.011361845157864715
1.39050e-06;-0.01134170884621444
1.39075e-06;-0.011321572534564162
1.39100e-06;-0.01130143622291387
1.39125e-06;-0.011281299911263594
1.39150e-06;-0.011259539796313653
1.39175e-06;-0.011237220340372136
1.39200e-06;-0.011214900884430598
1.39225e-06;-0.011194907777707548
1.39250e-06;-0.011175716013412447
1.39275e-06;-0.011157876417953396
1.39300e-06;-0.011140502595323945
1.39325e-06;-0.011125814407211606
1.39350e-06;-0.011112051322203938
1.39375e-06;-0.01109828823719627
1.39400e-06;-0.011084525152188591
1.39425e-06;-0.011070762067180924
1.39450e-06;-0.011056998982173246
1.39475e-06;-0.011043235897165578
1.39500e-06;-0.01102947281215791
1.39525e-06;-0.011021881248770505
1.39550e-06;-0.01101641554941073
1.39575e-06;-0.011010949850050952
1.39600e-06;-0.011005484150691178
1.39625e-06;-0.011000018451331398
1.39650e-06;-0.010994552751971623
1.39675e-06;-0.010989087052611849
1.39700e-06;-0.010983621353252069
1.39725e-06;-0.010982944335041657
1.39750e-06;-0.010983916842770128
