Time(s);Current(A)
1.37500e-05;-0.004317890184041117
1.37503e-05;-0.004306566770235506
1.37505e-05;-0.004296166526697847
1.37508e-05;-0.004286993405251966
1.37510e-05;-0.004279450853254537
1.37513e-05;-0.004273730121608185
1.37515e-05;-0.004269828928365276
1.37518e-05;-0.004268578652955126
1.37520e-05;-0.004267400064236947
1.37523e-05;-0.004269613729456796
1.37525e-05;-0.00427192084830477
1.37528e-05;-0.004278827634789569
1.37530e-05;-0.004285861138093462
1.37533e-05;-0.004292894641397403
1.37535e-05;-0.004307190693537132
1.37538e-05;-0.004321686822543182
1.37540e-05;-0.004336182951549329
1.37543e-05;-0.004350679080555476
1.37545e-05;-0.004365175209561526
1.37548e-05;-0.004387189539466905
1.37550e-05;-0.004409410989229487
1.37553e-05;-0.00443163243899192
1.37555e-05;-0.004453853888754503
1.37558e-05;-0.004476075338517085
1.37560e-05;-0.00450369440939078
1.37563e-05;-0.004531462180004013
1.37565e-05;-0.004559229950617246
1.37568e-05;-0.004586997721230291
1.37570e-05;-0.004614765491843525
1.37573e-05;-0.004642533262456758
1.37575e-05;-0.004671616680462607
1.37578e-05;-0.004700736343402912
1.37580e-05;-0.004729856006343414
1.37583e-05;-0.004758975669283916
1.37585e-05;-0.004788095332224221
1.37588e-05;-0.004817214995164723
1.37590e-05;-0.004844305559580504
1.37593e-05;-0.004871340224106902
1.37595e-05;-0.0048962624056021215
1.37598e-05;-0.004921126390037918
1.37600e-05;-0.004942226742257447
1.37603e-05;-0.004963223409702153
1.37605e-05;-0.004984220077146859
1.37608e-05;-0.00499952983060232
1.37610e-05;-0.0050146829145526015
1.37613e-05;-0.005029835998502883
1.37615e-05;-0.005038866212510738
1.37618e-05;-0.005047727746808204
1.37620e-05;-0.00505658928110567
1.37623e-05;-0.005058980207898642
1.37625e-05;-0.0050611928751155095
1.37628e-05;-0.005063405542332376
1.37630e-05;-0.005056739888147745
1.37633e-05;-0.005049829643975466
1.37635e-05;-0.005042919399803189
1.37638e-05;-0.005036009155630957
1.37640e-05;-0.005029098911458679
1.37643e-05;-0.0050173783132911
1.37645e-05;-0.005000302259888575
1.37648e-05;-0.004983226206485935
1.37650e-05;-0.004966150153083293
1.37653e-05;-0.004949074099680769
1.37655e-05;-0.004931998046278128
1.37658e-05;-0.004909133663441573
1.37660e-05;-0.004886109817192787
1.37663e-05;-0.004863085970944157
1.37665e-05;-0.004837661798951373
1.37668e-05;-0.004812171500084147
1.37670e-05;-0.004785393273130676
1.37673e-05;-0.004758579564884922
1.37675e-05;-0.0047310849586976325
1.37678e-05;-0.004703571594367884
1.37680e-05;-0.004675921144096311
1.37683e-05;-0.0046483738669202785
1.37685e-05;-0.004621087846814871
1.37688e-05;-0.004594227225006344
1.37690e-05;-0.0045679690688759655
1.37693e-05;-0.0045424948739643724
1.37695e-05;-0.0045179821695832635
1.37698e-05;-0.004494607919506615
1.37700e-05;-0.004472549075023753
1.37703e-05;-0.004451983493776878
1.37705e-05;-0.004433111264034563
1.37708e-05;-0.004416240035505061
1.37710e-05;-0.004401713032986755
1.37713e-05;-0.0043896926563278
1.37715e-05;-0.004380196720630069
1.37718e-05;-0.004373226506785327
1.37720e-05;-0.004370011961236047
1.37723e-05;-0.0043668990155304056
1.37725e-05;-0.00436876829409696
1.37728e-05;-0.004370774828583976
1.37730e-05;-0.0043793324849628334
1.37733e-05;-0.004388070619019183
1.37735e-05;-0.004396808753075532
1.37738e-05;-0.0044150592466336396
1.37740e-05;-0.004433571797375074
1.37743e-05;-0.004452084348116507
1.37745e-05;-0.0044705968988579415
1.37748e-05;-0.00448910944959925
1.37750e-05;-0.004517398833745059
1.37753e-05;-0.00454595756109887
1.37755e-05;-0.004574516288452488
1.37758e-05;-0.004603075015806299
1.37760e-05;-0.00463163374316011
1.37763e-05;-0.004665585544751722
1.37765e-05;-0.004699685920821268
1.37768e-05;-0.004733786296890813
1.37770e-05;-0.004770152556292883
1.37773e-05;-0.0048065812387989675
1.37775e-05;-0.004843009921305052
1.37778e-05;-0.0048799457085007564
1.37780e-05;-0.004916895465987338
1.37783e-05;-0.00495384522347392
1.37785e-05;-0.004989390133293963
1.37788e-05;-0.005024896340789891
1.37790e-05;-0.005060402548285819
1.37793e-05;-0.005093362809268876
1.37795e-05;-0.0051262529316527085
1.37798e-05;-0.005155022620725458
1.37800e-05;-0.005183678795464465
1.37803e-05;-0.005212334970203667
1.37805e-05;-0.005234428240458061
1.37808e-05;-0.005256340708434323
1.37810e-05;-0.005278253176410735
1.37813e-05;-0.005293319051309133
1.37815e-05;-0.005308196308556798
1.37818e-05;-0.005323073565804563
1.37820e-05;-0.005326981077603374
1.37823e-05;-0.005330586382510123
1.37825e-05;-0.005334191687416897
1.37828e-05;-0.005337796992323671
1.37830e-05;-0.005341402297230445
1.37833e-05;-0.005345007602137194
1.37835e-05;-0.005335048498590745
1.37838e-05;-0.005324715707456007
1.37840e-05;-0.0053143829163213386
1.37843e-05;-0.0053040501251866
1.37845e-05;-0.0052937173340518616
1.37848e-05;-0.005283384542917193
1.37850e-05;-0.005262783942658407
1.37853e-05;-0.005241900473239362
1.37855e-05;-0.0052210170038204575
1.37858e-05;-0.005200133534401411
1.37860e-05;-0.005179250064982366
1.37863e-05;-0.00515547205008119
1.37865e-05;-0.0051284714846606926
1.37868e-05;-0.005101470919240195
1.37870e-05;-0.005074470353819881
1.37873e-05;-0.005047469788399383
1.37875e-05;-0.005020469222978885
1.37878e-05;-0.004991848447981067
1.37880e-05;-0.004963183037626334
1.37883e-05;-0.00493465108779989
1.37885e-05;-0.004906122814694462
1.37888e-05;-0.004878409353235236
1.37890e-05;-0.004850718339124194
1.37893e-05;-0.0048241280911363
1.37895e-05;-0.0047991289087316
1.37898e-05;-0.0047741727233609164
1.37900e-05;-0.004752703279262529
1.37903e-05;-0.0047313298918363915
1.37905e-05;-0.0047099565044102535
1.37908e-05;-0.004693047058208241
1.37910e-05;-0.0046762605896825135
1.37913e-05;-0.004659474121156785
1.37915e-05;-0.004646520771935262
1.37918e-05;-0.0046336730217980985
1.37920e-05;-0.0046208252716608495
1.37923e-05;-0.00461485702385905
1.37925e-05;-0.004609078300329671
1.37928e-05;-0.0046032995768002525
1.37930e-05;-0.004597520853270835
1.37933e-05;-0.004591742129741456
1.37935e-05;-0.004585963406212037
1.37938e-05;-0.00458018468268262
1.37940e-05;-0.004582267603224182
1.37943e-05;-0.004584567105183953
1.37945e-05;-0.004586866607143724
1.37948e-05;-0.004589166109103479
1.37950e-05;-0.004591465611063251
1.37953e-05;-0.004593765113023022
1.37955e-05;-0.004596064614982778
1.37958e-05;-0.0046036995730037306
1.37960e-05;-0.004611481518172702
1.37963e-05;-0.004619263463341621
1.37965e-05;-0.004627045408510593
1.37968e-05;-0.004634827353679566
1.37970e-05;-0.004642609298848485
1.37973e-05;-0.004650391244017457
1.37975e-05;-0.004659016615002922
1.37978e-05;-0.0046685809874033
1.37980e-05;-0.004678145359803743
1.37983e-05;-0.004687709732204185
1.37985e-05;-0.004697274104604563
1.37988e-05;-0.004706838477005006
1.37990e-05;-0.004716402849405449
1.37993e-05;-0.004725967221805827
1.37995e-05;-0.004732860955447544
1.37998e-05;-0.004739681115327142
1.38000e-05;-0.0047465012752067395
1.38003e-05;-0.004753321435086291
1.38005e-05;-0.004760141594965889
1.38008e-05;-0.004766961754845487
1.38010e-05;-0.004773781914725038
1.38013e-05;-0.004780602074604636
1.38015e-05;-0.004787422234484234
1.38018e-05;-0.004794242394363785
1.38020e-05;-0.004801062554243383
1.38023e-05;-0.004807377133754709
1.38025e-05;-0.004813677784969006
1.38028e-05;-0.0048199784361833455
1.38030e-05;-0.004826279087397686
1.38033e-05;-0.004832579738611982
1.38035e-05;-0.004838880389826322
1.38038e-05;-0.004845181041040661
1.38040e-05;-0.004851481692254958
1.38043e-05;-0.004857782343469298
1.38045e-05;-0.004864082994683637
1.38048e-05;-0.004870383645897934
1.38050e-05;-0.0048776735786060935
1.38053e-05;-0.004884990765154253
1.38055e-05;-0.004892307951702363
1.38058e-05;-0.004899625138250523
1.38060e-05;-0.004906942324798683
1.38063e-05;-0.004914259511346793
1.38065e-05;-0.004921576697894952
1.38068e-05;-0.004928893884443112
1.38070e-05;-0.004936211070991223
1.38073e-05;-0.004943528257539382
1.38075e-05;-0.004950845444087542
1.38078e-05;-0.004958162630635652
1.38080e-05;-0.004965479817183811
1.38083e-05;-0.0049708623576831526
1.38085e-05;-0.00497619160037566
1.38088e-05;-0.004981520843068204
1.38090e-05;-0.0049868500857607485
1.38093e-05;-0.004992179328453292
1.38095e-05;-0.0049975085711458
1.38098e-05;-0.0050028378138383435
1.38100e-05;-0.005008167056530888
1.38103e-05;-0.005013496299223395
1.38105e-05;-0.005018825541915939
1.38108e-05;-0.0050241547846084835
1.38110e-05;-0.005029484027300991
1.38113e-05;-0.005034813269993535
1.38115e-05;-0.005037365048092078
1.38118e-05;-0.005039840309469853
1.38120e-05;-0.005042315570847645
1.38123e-05;-0.0050447908322254365
1.38125e-05;-0.005047266093603211
1.38128e-05;-0.005049741354981003
1.38130e-05;-0.005052216616358794
1.38133e-05;-0.005054691877736569
1.38135e-05;-0.00505716713911436
1.38138e-05;-0.005059642400492152
1.38140e-05;-0.005062117661869927
1.38143e-05;-0.005064592923247718
1.38145e-05;-0.005065583668173247
1.38148e-05;-0.005066533515968634
1.38150e-05;-0.005067483363764027
1.38153e-05;-0.00506843321155942
1.38155e-05;-0.005069383059354807
1.38158e-05;-0.0050703329071502
1.38160e-05;-0.005071282754945593
1.38163e-05;-0.00507223260274098
1.38165e-05;-0.005073182450536373
1.38168e-05;-0.005074132298331766
1.38170e-05;-0.005075082146127153
1.38173e-05;-0.005076031993922546
1.38175e-05;-0.005076981841717939
1.38178e-05;-0.005077931689513333
1.38180e-05;-0.005078881537308719
1.38183e-05;-0.005079831385104113
1.38185e-05;-0.005080781232899506
1.38188e-05;-0.005081731080694892
1.38190e-05;-0.0050826809284902855
1.38193e-05;-0.0050836307762856785
1.38195e-05;-0.0050845806240810655
1.38198e-05;-0.0050855304718764585
1.38200e-05;-0.0050864803196718515
1.38203e-05;-0.00508787030052698
1.38205e-05;-0.005089272406663065
1.38208e-05;-0.005090674512799149
1.38210e-05;-0.005092076618935224
1.38213e-05;-0.00509347872507131
1.38215e-05;-0.005094880831207394
1.38218e-05;-0.00509628293734347
1.38220e-05;-0.005097685043479554
1.38223e-05;-0.005103969165195653
1.38225e-05;-0.005110387782172209
1.38228e-05;-0.005116806399148809
1.38230e-05;-0.005123225016125409
1.38233e-05;-0.0051296436331019655
1.38235e-05;-0.005136062250078565
1.38238e-05;-0.005142480867055165
1.38240e-05;-0.005148899484031721
1.38243e-05;-0.005160514121367552
1.38245e-05;-0.00517227190452103
1.38248e-05;-0.005184029687674428
1.38250e-05;-0.0051957874708279065
1.38253e-05;-0.005207545253981384
1.38255e-05;-0.005219303037134782
1.38258e-05;-0.00523106082028826
1.38260e-05;-0.005242818603441738
1.38263e-05;-0.005255843350302869
1.38265e-05;-0.005270278631074587
1.38268e-05;-0.005284713911846404
1.38270e-05;-0.00529914919261822
1.38273e-05;-0.005313584473389939
1.38275e-05;-0.005328019754161755
1.38278e-05;-0.005342455034933572
1.38280e-05;-0.0053568903157052905
1.38283e-05;-0.005371325596477107
1.38285e-05;-0.005384309042749984
1.38288e-05;-0.005397252492251718
1.38290e-05;-0.005410195941753539
1.38293e-05;-0.005423139391255361
1.38295e-05;-0.005436082840757094
1.38298e-05;-0.005449026290258916
1.38300e-05;-0.005459084088247184
1.38303e-05;-0.005465929237530364
1.38305e-05;-0.0054727743868135895
1.38308e-05;-0.005479619536096815
1.38310e-05;-0.005486464685379995
1.38313e-05;-0.0054933098346632205
1.38315e-05;-0.005500154983946446
1.38318e-05;-0.005495578129091583
1.38320e-05;-0.005490686608009099
1.38323e-05;-0.005485795086926613
1.38325e-05;-0.005480903565844162
1.38328e-05;-0.005476012044761678
1.38330e-05;-0.005471120523679192
1.38333e-05;-0.00546031555943555
1.38335e-05;-0.005442927050565481
1.38338e-05;-0.005425538541695411
1.38340e-05;-0.005408150032825459
1.38343e-05;-0.0053907615239553895
1.38345e-05;-0.00537337301508532
1.38348e-05;-0.0053559845062152505
1.38350e-05;-0.005329381388227603
1.38353e-05;-0.005302524415814973
1.38355e-05;-0.005275667443402344
1.38358e-05;-0.005248810470989896
1.38360e-05;-0.005221953498577267
1.38363e-05;-0.0051927543681320265
1.38365e-05;-0.005160947670232598
1.38368e-05;-0.005129140972332952
1.38370e-05;-0.005097334274433307
1.38373e-05;-0.005065527576533878
1.38375e-05;-0.005033720878634232
1.38378e-05;-0.005000854365303505
1.38380e-05;-0.0049679586549844475
1.38383e-05;-0.004935602904663121
1.38385e-05;-0.004903262029767668
1.38388e-05;-0.004872113915858256
1.38390e-05;-0.004840998661470997
1.38393e-05;-0.004811709255872445
1.38395e-05;-0.004782470150811946
1.38398e-05;-0.0047566689194715695
1.38400e-05;-0.004730962398546604
1.38403e-05;-0.004705255877621812
1.38405e-05;-0.00468775868977231
1.38408e-05;-0.004670487661872031
1.38410e-05;-0.00465321663397187
1.38413e-05;-0.004635945606071591
1.38415e-05;-0.004618674578171313
1.38418e-05;-0.004601403550271151
1.38420e-05;-0.0045841325223708726
1.38423e-05;-0.004566861494470594
1.38425e-05;-0.004559310596239463
1.38428e-05;-0.004552027479082987
1.38430e-05;-0.004544744361926511
1.38433e-05;-0.004537461244770035
1.38435e-05;-0.004530178127613609
1.38438e-05;-0.004522895010457133
1.38440e-05;-0.0045156118933006575
1.38443e-05;-0.004508328776144231
1.38445e-05;-0.0045086038027401494
1.38448e-05;-0.0045090870495890145
1.38450e-05;-0.004509570296437875
1.38453e-05;-0.00451005354328674
1.38455e-05;-0.004510536790135604
1.38458e-05;-0.004511020036984466
1.38460e-05;-0.00451150328383333
1.38463e-05;-0.004511986530682194
1.38465e-05;-0.004514417273448572
1.38468e-05;-0.004519016199105712
1.38470e-05;-0.004523615124762851
1.38473e-05;-0.004528214050419959
1.38475e-05;-0.004532812976077098
1.38478e-05;-0.0045374119017342375
1.38480e-05;-0.004542010827391346
1.38483e-05;-0.004546609753048486
1.38485e-05;-0.004551208678705625
1.38488e-05;-0.004555954121329616
1.38490e-05;-0.004560703600367991
1.38493e-05;-0.004565453079406366
1.38495e-05;-0.004570202558444708
1.38498e-05;-0.004574952037483083
1.38500e-05;-0.004579701516521458
1.38503e-05;-0.0045844509955598
1.38505e-05;-0.004588253141147014
1.38508e-05;-0.004592029188525792
1.38510e-05;-0.004595805235904545
1.38513e-05;-0.004601744597629389
1.38515e-05;-0.004607743556773345
1.38518e-05;-0.004613742515917302
1.38520e-05;-0.004623538340230408
1.38523e-05;-0.004633438764859858
1.38525e-05;-0.004643339189489308
1.38528e-05;-0.004653239614118691
1.38530e-05;-0.004663140038748141
1.38533e-05;-0.0046730404633775905
1.38535e-05;-0.0046829408880069735
1.38538e-05;-0.004698936991974804
1.38540e-05;-0.0047151010265798305
1.38543e-05;-0.0047312650611847475
1.38545e-05;-0.004747429095789774
1.38548e-05;-0.0047635931303948
1.38550e-05;-0.004779757164999716
1.38553e-05;-0.004795921199604742
1.38555e-05;-0.004816691805234407
1.38558e-05;-0.00483758931786886
1.38560e-05;-0.0048584868305034555
1.38563e-05;-0.0048793843431380515
1.38565e-05;-0.004900281855772504
1.38568e-05;-0.0049211793684071
1.38570e-05;-0.0049420768810416954
1.38573e-05;-0.004963167328653563
1.38575e-05;-0.004984472574311324
1.38578e-05;-0.005005777819969086
1.38580e-05;-0.005027083065626704
1.38583e-05;-0.005048388311284466
1.38585e-05;-0.005069693556942228
1.38588e-05;-0.005090998802599845
1.38590e-05;-0.005112304048257607
1.38593e-05;-0.0051308411397788635
1.38595e-05;-0.005149301971073196
1.38598e-05;-0.005167762802367653
1.38600e-05;-0.005183021789456001
1.38603e-05;-0.0051981925685352
1.38605e-05;-0.005213363347614295
1.38608e-05;-0.005223375163524675
1.38610e-05;-0.005233244854509163
1.38613e-05;-0.005243114545493584
1.38615e-05;-0.005246284019467327
1.38618e-05;-0.005249268908318983
1.38620e-05;-0.00525225379717062
1.38623e-05;-0.005248516414413692
1.38625e-05;-0.005244593838949831
1.38628e-05;-0.0052406712634859975
1.38630e-05;-0.005226714216822947
1.38633e-05;-0.00521248072924941
1.38635e-05;-0.00519824724167597
1.38638e-05;-0.005184013754102433
1.38640e-05;-0.005169780266528896
1.38643e-05;-0.005150092053071361
1.38645e-05;-0.0051243309933319565
1.38648e-05;-0.005098569933592552
1.38650e-05;-0.005072808873853322
1.38653e-05;-0.005047047814113917
1.38655e-05;-0.005021286754374512
1.38658e-05;-0.00498886601633734
1.38660e-05;-0.004956261809983914
1.38663e-05;-0.004923657603630488
1.38665e-05;-0.004888136450135473
1.38668e-05;-0.004852534937296076
1.38670e-05;-0.004816933424456679
1.38673e-05;-0.0047798528185083134
1.38675e-05;-0.004742731464837359
1.38678e-05;-0.0047053311809283245
1.38680e-05;-0.004667923212735286
1.38683e-05;-0.0046308274832650405
1.38685e-05;-0.004594222082494928
1.38688e-05;-0.0045582924971630575
1.38690e-05;-0.004523215462589978
1.38693e-05;-0.0044891996399464
1.38695e-05;-0.004456479954705166
1.38698e-05;-0.004427104738142843
1.38700e-05;-0.004397820696767921
1.38703e-05;-0.0043685366553929995
1.38705e-05;-0.004348442331868177
1.38708e-05;-0.0043286011770378545
1.38710e-05;-0.004308760022207531
1.38713e-05;-0.004288918867377342
1.38715e-05;-0.004269077712547018
1.38718e-05;-0.004249236557716696
1.38720e-05;-0.004229395402886507
1.38723e-05;-0.004209554248056183
1.38725e-05;-0.00418971309322586
1.38728e-05;-0.004179517803736424
1.38730e-05;-0.004169588249406446
1.38733e-05;-0.004159658695076468
1.38735e-05;-0.004149729140746557
1.38738e-05;-0.004139799586416579
1.38740e-05;-0.0041298700320866015
1.38743e-05;-0.004119940477756691
1.38745e-05;-0.004110010923426713
1.38748e-05;-0.004100081369096734
1.38750e-05;-0.004096605166305646
1.38753e-05;-0.0040933067477092544
1.38755e-05;-0.004090008329112864
1.38758e-05;-0.004086709910516495
1.38760e-05;-0.004083411491920103
1.38763e-05;-0.0040801130733237115
1.38765e-05;-0.0040768146547273424
1.38768e-05;-0.004073516236130952
1.38770e-05;-0.00407021781753456
1.38773e-05;-0.0040669193989381685
1.38775e-05;-0.0040666673698451315
1.38778e-05;-0.004066499266120413
1.38780e-05;-0.004066331162395695
1.38783e-05;-0.004066163058670978
1.38785e-05;-0.00406599495494626
1.38788e-05;-0.004065826851221541
1.38790e-05;-0.004065658747496824
1.38793e-05;-0.004065490643772106
1.38795e-05;-0.004065322540047388
1.38798e-05;-0.00406515443632267
1.38800e-05;-0.004065158766319447
1.38803e-05;-0.00406516784671455
1.38805e-05;-0.0040653498140078145
1.38808e-05;-0.004065536544184025
1.38810e-05;-0.004067621631415023
1.38813e-05;-0.004069759016723758
1.38815e-05;-0.00407443215206833
1.38818e-05;-0.00407917514511022
1.38820e-05;-0.004086660687806559
1.38823e-05;-0.004094221785349004
1.38825e-05;-0.004101782882891448
1.38828e-05;-0.004115238222742946
1.38830e-05;-0.004128855943818759
1.38833e-05;-0.0041424736648945715
1.38835e-05;-0.004156091385970292
1.38838e-05;-0.004169709107046105
1.38840e-05;-0.0041833268281219185
1.38843e-05;-0.004204378987936209
1.38845e-05;-0.00422563596004052
1.38848e-05;-0.004246892932144831
1.38850e-05;-0.004268149904248998
1.38853e-05;-0.004289406876353309
1.38855e-05;-0.00431066384845762
1.38858e-05;-0.004337136291374297
1.38860e-05;-0.004363752415953656
1.38863e-05;-0.004390368540533196
1.38865e-05;-0.004416984665112735
1.38868e-05;-0.004443600789692095
1.38870e-05;-0.004470216914271635
1.38873e-05;-0.004497278137816712
1.38875e-05;-0.004524834898196427
1.38878e-05;-0.004552391658576328
1.38880e-05;-0.0045799484189562294
1.38883e-05;-0.004607505179335944
1.38885e-05;-0.004635061939715845
1.38888e-05;-0.004662618700095747
1.38890e-05;-0.004687523610063903
1.38893e-05;-0.004712355463870875
1.38895e-05;-0.004737187317677848
1.38898e-05;-0.004758506145968387
1.38900e-05;-0.00477972819347615
1.38903e-05;-0.0048009502409839125
1.38905e-05;-0.004817162873623559
1.38908e-05;-0.004833237501261422
1.38910e-05;-0.004849312128899285
1.38913e-05;-0.004859753015281996
1.38915e-05;-0.004870038697016478
1.38918e-05;-0.00488032437875096
1.38920e-05;-0.004881107491931657
1.38923e-05;-0.004881628817652849
1.38925e-05;-0.00488215014337404
1.38928e-05;-0.004882671469095229
1.38930e-05;-0.00488319279481642
1.38933e-05;-0.004883714120537612
1.38935e-05;-0.004878357258466291
1.38938e-05;-0.004866456102205862
1.38940e-05;-0.004854554945945432
1.38943e-05;-0.004842653789685003
1.38945e-05;-0.004830752633424654
1.38948e-05;-0.004818851477164225
1.38950e-05;-0.004806950320903795
1.38953e-05;-0.004786526350309446
1.38955e-05;-0.004765867583627948
1.38958e-05;-0.0047452088169464505
1.38960e-05;-0.0047245500502650925
1.38963e-05;-0.004703891283583595
1.38965e-05;-0.0046811501668635016
