Time(s);Current(A)
6.00000e-06;-0.005640466005495052
6.00025e-06;-0.005601653214808035
6.00050e-06;-0.005562840424121149
6.00075e-06;-0.005524027633434264
6.00100e-06;-0.0054852148427472465
6.00125e-06;-0.005442601176384502
6.00150e-06;-0.005388950321608198
6.00175e-06;-0.005335299466831714
6.00200e-06;-0.005281648612055411
6.00225e-06;-0.005227997757279108
6.00250e-06;-0.005174346902502623
6.00275e-06;-0.00511873699250363
6.00300e-06;-0.005057438271965014
6.00325e-06;-0.00499613955142619
6.00350e-06;-0.004934211377390977
6.00375e-06;-0.004870455362239022
6.00400e-06;-0.004806699347087283
6.00425e-06;-0.004742788801519616
6.00450e-06;-0.004678429522169951
6.00475e-06;-0.004614398627409509
6.00500e-06;-0.004551321313584021
6.00525e-06;-0.004488902796738013
6.00550e-06;-0.004428397330202325
6.00575e-06;-0.004368769365021176
6.00600e-06;-0.004311689535745375
6.00625e-06;-0.004255853643515362
6.00650e-06;-0.004203629962974443
6.00675e-06;-0.004153065978463709
6.00700e-06;-0.00410732150907439
6.00725e-06;-0.0040635258167366775
6.00750e-06;-0.004025389088628619
6.00775e-06;-0.00398914579051482
6.00800e-06;-0.003958400736850866
6.00825e-06;-0.0039301139553499205
6.00850e-06;-0.003908965637545982
6.00875e-06;-0.0038878173197419703
6.00900e-06;-0.0038698103052987724
6.00925e-06;-0.0038609251774960824
6.00950e-06;-0.0038520400496933624
6.00975e-06;-0.0038474440107010032
6.01000e-06;-0.003855302859831574
6.01025e-06;-0.0038631617089621715
6.01050e-06;-0.0038710205580927423
6.01075e-06;-0.0038788794072233132
6.01100e-06;-0.0038867382563539106
6.01125e-06;-0.0038993703518254543
6.01150e-06;-0.003925863258249361
6.01175e-06;-0.003952356164673357
6.01200e-06;-0.003978849071097264
6.01225e-06;-0.00400534197752126
6.01250e-06;-0.004031834883945166
6.01275e-06;-0.004060649553706605
6.01300e-06;-0.004096206285452326
6.01325e-06;-0.004132587497502888
6.01350e-06;-0.00417136288006636
6.01375e-06;-0.004210670143081334
6.01400e-06;-0.004251521909324911
6.01425e-06;-0.0042926395561529475
6.01450e-06;-0.004334529281406075
6.01475e-06;-0.004376436183332081
6.01500e-06;-0.00441839296381044
6.01525e-06;-0.004460200581583298
6.01550e-06;-0.004501371079629757
6.01575e-06;-0.004541661322029041
6.01600e-06;-0.004580750401617203
6.01625e-06;-0.004618341079675924
6.01650e-06;-0.004654146628134924
6.01675e-06;-0.004687880426737366
6.01700e-06;-0.004718867494501612
6.01725e-06;-0.004746815087982056
6.01750e-06;-0.004772893525446812
6.01775e-06;-0.0047935442065550485
6.01800e-06;-0.00481146093387408
6.01825e-06;-0.004821438658277223
6.01850e-06;-0.0048314163826803655
6.01875e-06;-0.004838106682719083
6.01900e-06;-0.004835250782044024
6.01925e-06;-0.004832394881368966
6.01950e-06;-0.004824936825148496
6.01975e-06;-0.00480411478068653
6.02000e-06;-0.004783292736224565
6.02025e-06;-0.004762470691762529
6.02050e-06;-0.004741648647300563
6.02075e-06;-0.004715675485594501
6.02100e-06;-0.004674744230969181
6.02125e-06;-0.004633812976343861
6.02150e-06;-0.004592881721718401
6.02175e-06;-0.004551950467093081
6.02200e-06;-0.00450764159466543
6.02225e-06;-0.004453524612940349
6.02250e-06;-0.004399407631215451
6.02275e-06;-0.004343534175630684
6.02300e-06;-0.0042825601762295435
6.02325e-06;-0.00422158617682861
6.02350e-06;-0.004159622570448799
6.02375e-06;-0.004094785289787712
6.02400e-06;-0.0040295147752628085
6.02425e-06;-0.003962986212806439
6.02450e-06;-0.003896377731107304
6.02475e-06;-0.003829615961647689
6.02500e-06;-0.003763260944826585
6.02525e-06;-0.00369769319818755
6.02550e-06;-0.003633265432645831
6.02575e-06;-0.003570313155997091
6.02600e-06;-0.003509207205492601
6.02625e-06;-0.003450365286178118
6.02650e-06;-0.0033942199377481426
6.02675e-06;-0.0033412037056319934
6.02700e-06;-0.003291749177696869
6.02725e-06;-0.003246259644201007
6.02750e-06;-0.003204995673728071
6.02775e-06;-0.003168011739527904
6.02800e-06;-0.003135303720572294
6.02825e-06;-0.0031069385871852965
6.02850e-06;-0.0030836150216320803
6.02875e-06;-0.0030653805405283004
6.02900e-06;-0.0030495634077673394
6.02925e-06;-0.003040765901896848
6.02950e-06;-0.0030349074957525222
6.02975e-06;-0.0030375838063911092
6.03000e-06;-0.003040260117029705
6.03025e-06;-0.0030461999160214994
6.03050e-06;-0.0030616164090399678
6.03075e-06;-0.003077032902058488
6.03100e-06;-0.003094990001953096
6.03125e-06;-0.003120324653535039
6.03150e-06;-0.003147478273041657
6.03175e-06;-0.0031799139100090776
6.03200e-06;-0.003213905884763345
6.03225e-06;-0.003252417237377044
6.03250e-06;-0.003292248122290499
6.03275e-06;-0.0033359107364795875
6.03300e-06;-0.0033804165881396006
6.03325e-06;-0.0034278480889078262
6.03350e-06;-0.0034770611938681295
6.03375e-06;-0.003527734669003308
6.03400e-06;-0.003579532654379925
6.03425e-06;-0.003632136544767857
6.03450e-06;-0.003685237547092034
6.03475e-06;-0.003738526814370957
6.03500e-06;-0.003791695488154609
6.03525e-06;-0.0038444297941762503
6.03550e-06;-0.0038963949196964905
6.03575e-06;-0.003947223474025594
6.03600e-06;-0.0039965394024051555
6.03625e-06;-0.004043978245735397
6.03650e-06;-0.004088813671791347
6.03675e-06;-0.004130722023495825
6.03700e-06;-0.004170577583849836
6.03725e-06;-0.004204472137630507
6.03750e-06;-0.0042383666914110624
6.03775e-06;-0.004269817942975136
6.03800e-06;-0.004294174201387338
6.03825e-06;-0.004318530459799541
6.03850e-06;-0.004339219592500414
6.03875e-06;-0.004349259927180275
6.03900e-06;-0.004359300261860135
6.03925e-06;-0.00436934059654003
6.03950e-06;-0.004379380931219891
6.03975e-06;-0.004389421265899751
6.04000e-06;-0.00438623917766828
6.04025e-06;-0.0043787931690185385
6.04050e-06;-0.004371347160368797
6.04075e-06;-0.00436390115171903
6.04100e-06;-0.004356455143069289
6.04125e-06;-0.004345989719649362
6.04150e-06;-0.004326756356279196
6.04175e-06;-0.0043075229929090955
6.04200e-06;-0.004286647348745402
6.04225e-06;-0.004261002760771648
6.04250e-06;-0.004235358172797895
6.04275e-06;-0.004208407084131742
6.04300e-06;-0.004177662108078107
6.04325e-06;-0.004146917132024471
6.04350e-06;-0.004115307358196662
6.04375e-06;-0.004081186337810045
6.04400e-06;-0.004047065317423429
6.04425e-06;-0.004012596827255194
6.04450e-06;-0.00397711933553865
6.04475e-06;-0.003941641843822106
6.04500e-06;-0.003906213894083673
6.04525e-06;-0.003870929807021791
6.04550e-06;-0.003835970048945807
6.04575e-06;-0.003801952094923999
6.04600e-06;-0.003768525781862246
6.04625e-06;-0.0037368175078254925
6.04650e-06;-0.003705941646377352
6.04675e-06;-0.0036774829896341833
6.04700e-06;-0.003650114634139802
6.04725e-06;-0.0036259123543932697
6.04750e-06;-0.0036032487586312
6.04775e-06;-0.003585053276660232
6.04800e-06;-0.0035686669814534366
6.04825e-06;-0.0035575343006424487
6.04850e-06;-0.0035486626485222443
6.04875e-06;-0.0035463566938274964
6.04900e-06;-0.0035440507391327485
6.04925e-06;-0.0035445435682413084
6.04950e-06;-0.0035531636571613056
6.04975e-06;-0.003561783746081303
6.05000e-06;-0.003573279635507605
6.05025e-06;-0.0035931264300135186
6.05050e-06;-0.0036129732245195
6.05075e-06;-0.003635358329715301
6.05100e-06;-0.0036651143188049093
6.05125e-06;-0.003694870307894618
6.05150e-06;-0.003726545581451296
6.05175e-06;-0.0037637941770690075
6.05200e-06;-0.0038024077516012863
6.05225e-06;-0.003844985025744982
6.05250e-06;-0.0038884219685174654
6.05275e-06;-0.003934838834617796
6.05300e-06;-0.003983076096991554
6.05325e-06;-0.004032879961042792
6.05350e-06;-0.004084035935817283
6.05375e-06;-0.004136355187654416
6.05400e-06;-0.0041895999861849345
6.05425e-06;-0.004243468064488224
6.05450e-06;-0.004297636600009362
6.05475e-06;-0.004351782662380225
6.05500e-06;-0.004405583775424725
6.05525e-06;-0.004458722615049783
6.05550e-06;-0.004510906463802164
6.05575e-06;-0.004561858689068556
6.05600e-06;-0.004611272468258139
6.05625e-06;-0.004658478013649775
6.05650e-06;-0.004703145641312195
6.05675e-06;-0.004746341084956669
6.05700e-06;-0.004785261521011269
6.05725e-06;-0.004822763450151003
6.05750e-06;-0.004856146242176808
6.05775e-06;-0.004889012064057372
6.05800e-06;-0.004920376680063985
6.05825e-06;-0.0049511069917536595
6.05850e-06;-0.004979995376254897
6.05875e-06;-0.005008883760756037
6.05900e-06;-0.005036672042966702
6.05925e-06;-0.005061265788635431
6.05950e-06;-0.005085859534304161
6.05975e-06;-0.005110014181388106
6.06000e-06;-0.005132893750248041
6.06025e-06;-0.005155773319107976
6.06050e-06;-0.005178652887967988
6.06075e-06;-0.005200911203999202
6.06100e-06;-0.005221365492459516
6.06125e-06;-0.0052418197809199
6.06150e-06;-0.005262274069380214
6.06175e-06;-0.005282158621777299
6.06200e-06;-0.005300388743774029
6.06225e-06;-0.005318618865770696
6.06250e-06;-0.005336848987767364
6.06275e-06;-0.005355079109764093
6.06300e-06;-0.005373309231760761
6.06325e-06;-0.00539153935375749
6.06350e-06;-0.005409769475754158
6.06375e-06;-0.005427999597750826
6.06400e-06;-0.005445249456559964
6.06425e-06;-0.0054596527740975375
6.06450e-06;-0.00547405609163511
6.06475e-06;-0.0054884594091727315
6.06500e-06;-0.005502862726710304
6.06525e-06;-0.005517266044247877
6.06550e-06;-0.005531669361785498
6.06575e-06;-0.005546072679323071
6.06600e-06;-0.005560475996860643
6.06625e-06;-0.0055736024457092885
6.06650e-06;-0.005583021054186768
6.06675e-06;-0.005592439662664248
6.06700e-06;-0.0056018582711417604
6.06725e-06;-0.00561127687961924
6.06750e-06;-0.0056206954880967525
6.06775e-06;-0.005630114096574232
6.06800e-06;-0.00563423020686393
6.06825e-06;-0.0056366363861957555
6.06850e-06;-0.005639042565527572
6.06875e-06;-0.005641448744859389
6.06900e-06;-0.005643854924191213
6.06925e-06;-0.005646261103523031
6.06950e-06;-0.005647683363879672
6.06975e-06;-0.005645911628763394
6.07000e-06;-0.009231991677776816
6.07025e-06;-0.01816276222661997
6.07050e-06;-0.018879137678150037
6.07075e-06;-0.01666860127214259
6.07100e-06;-0.013481348738110941
6.07125e-06;-0.007067924508275451
6.07150e-06;-0.004447482929582535
6.07175e-06;-0.005362557049457988
6.07200e-06;-0.007271546458356463
6.07225e-06;-0.011773336944117073
6.07250e-06;-0.014068410753712292
6.07275e-06;-0.012072035594947964
6.07300e-06;-0.00986227082089468
6.07325e-06;-0.0066080284439212905
6.07350e-06;-0.0033070120288291724
6.07375e-06;-0.004110754749529429
6.07400e-06;-0.004735936716630492
6.07425e-06;-0.0065834531702174135
6.07450e-06;-0.008893026734794264
6.07475e-06;-0.009522580796892926
6.07500e-06;-0.008581869518354546
6.07525e-06;-0.006819050223521463
6.07550e-06;-0.004921939075020246
6.07575e-06;-0.004156797383725993
6.07600e-06;-0.004492139630159739
6.07625e-06;-0.0056831578184682145
6.07650e-06;-0.007134405302774675
6.07675e-06;-0.007533201073637327
6.07700e-06;-0.006948527598838674
6.07725e-06;-0.005849088814805297
6.07750e-06;-0.004664945291756798
6.07775e-06;-0.00418768798921368
6.07800e-06;-0.004396546376318369
6.07825e-06;-0.005138043311390706
6.07850e-06;-0.006039349343523948
6.07875e-06;-0.00627843161253492
6.07900e-06;-0.005898759648664605
6.07925e-06;-0.005194169266939386
6.07950e-06;-0.0044342614028882845
6.07975e-06;-0.004115059757075432
6.08000e-06;-0.004223701075338411
6.08025e-06;-0.00466419841678915
6.08050e-06;-0.005203176468494094
6.08075e-06;-0.0053259101900353266
6.08100e-06;-0.0050598455220877666
6.08125e-06;-0.004589246687599229
6.08150e-06;-0.004083179257347411
6.08175e-06;-0.0038525170153239034
6.08200e-06;-0.0038893533089284977
6.08225e-06;-0.0041337150322781156
6.08250e-06;-0.0044395765697799695
6.08275e-06;-0.004484698010803466
6.08300e-06;-0.004286466245923299
6.08325e-06;-0.003960493926931119
6.08350e-06;-0.0036128611682317954
6.08375e-06;-0.003438463712021852
6.08400e-06;-0.003432504008250807
6.08425e-06;-0.003557571784114991
6.08450e-06;-0.003722359509490786
6.08475e-06;-0.003725192109564568
6.08500e-06;-0.003577145298325048
6.08525e-06;-0.0033508185352633933
6.08550e-06;-0.003112834325058136
6.08575e-06;-0.002985439864453357
6.08600e-06;-0.002965789495531284
6.08625e-06;-0.003030610070658442
6.08650e-06;-0.0031228707127641388
6.08675e-06;-0.0031164147476361315
6.08700e-06;-0.0030183580017794477
6.08725e-06;-0.0028742843508219556
6.08750e-06;-0.0027256127176565254
6.08775e-06;-0.0026481463382249243
6.08800e-06;-0.0026395066596279562
6.08825e-06;-0.002684913130097908
6.08850e-06;-0.002748564643788057
6.08875e-06;-0.0027513743646870982
6.08900e-06;-0.0026977408572811156
6.08925e-06;-0.0026161570460161783
6.08950e-06;-0.0025325048279783947
6.08975e-06;-0.0024942008216438257
6.09000e-06;-0.0024996863997949776
6.09025e-06;-0.002539635472483139
6.09050e-06;-0.0025915554863130638
6.09075e-06;-0.0026058433190397443
6.09100e-06;-0.002585192745248311
6.09125e-06;-0.0025473899185792953
6.09150e-06;-0.0025085833022087836
6.09175e-06;-0.0024984090960197334
6.09200e-06;-0.002515823753779678
6.09225e-06;-0.0025549186620642786
6.09250e-06;-0.002601538757066687
6.09275e-06;-0.0026245486143136637
6.09300e-06;-0.002625573367137492
6.09325e-06;-0.00261569110943208
6.09350e-06;-0.002604953292056799
6.09375e-06;-0.002611858459829742
6.09400e-06;-0.0026356870912615034
6.09425e-06;-0.0026726717352036546
6.09450e-06;-0.0027138803548203212
6.09475e-06;-0.0027397459704617422
6.09500e-06;-0.0027512229484071894
6.09525e-06;-0.0027551874103397002
6.09550e-06;-0.002757871111935734
6.09575e-06;-0.0027707966303631465
6.09600e-06;-0.002793447403572734
6.09625e-06;-0.002823398430626527
6.09650e-06;-0.002854989518609667
6.09675e-06;-0.002875899738651457
6.09700e-06;-0.002886663554551598
6.09725e-06;-0.002891521277973424
6.09750e-06;-0.0028943064486308795
6.09775e-06;-0.0029021913039402616
6.09800e-06;-0.00291486766981251
6.09825e-06;-0.0029308756178465477
6.09850e-06;-0.0029467384552281
6.09875e-06;-0.0029548089345733312
6.09900e-06;-0.0029554917993585192
6.09925e-06;-0.0029508399012193823
6.09950e-06;-0.0029451728033528276
6.09975e-06;-0.0029415525799538042
6.10000e-06;-0.002940008514688383
6.10025e-06;-0.0029393879450176656
6.10050e-06;-0.002938902609540969
6.10075e-06;-0.002932761071450024
6.10100e-06;-0.0029213960803447015
6.10125e-06;-0.0029061619550825955
6.10150e-06;-0.0028901799940408523
6.10175e-06;-0.002875157806144611
6.10200e-06;-0.002861211678249184
6.10225e-06;-0.0028465294241422708
6.10250e-06;-0.0028316020306959045
6.10275e-06;-0.0028166746372495386
6.10300e-06;-0.0027971161748977765
6.10325e-06;-0.0027750960867794967
6.10350e-06;-0.0027527491568220272
6.10375e-06;-0.0027304022268644823
6.10400e-06;-0.0027095083433569525
6.10425e-06;-0.0026891869141088373
6.10450e-06;-0.0026689164454416193
6.10475e-06;-0.0026486459767744697
6.10500e-06;-0.002626452260415908
6.10525e-06;-0.002603671531387976
6.10550e-06;-0.002580867399656585
6.10575e-06;-0.0025602985436773366
6.10600e-06;-0.002540306540459997
6.10625e-06;-0.002522623470864507
6.10650e-06;-0.002505536262757335
6.10675e-06;-0.002489034523671763
6.10700e-06;-0.002472683875305848
6.10725e-06;-0.0024587788964646235
6.10750e-06;-0.0024455050662494874
6.10775e-06;-0.0024322312360343513
6.10800e-06;-0.002422117970002394
6.10825e-06;-0.0024153692516626184
6.10850e-06;-0.0024092783244144184
6.10875e-06;-0.002403187397166198
6.10900e-06;-0.002399338747486172
6.10925e-06;-0.002396068757511375
6.10950e-06;-0.002396860453090142
6.10975e-06;-0.002398700339043956
6.11000e-06;-0.002400540224997776
6.11025e-06;-0.00240238011095159
6.11050e-06;-0.002408649092724537
6.11075e-06;-0.0024160610816423003
6.11100e-06;-0.0024234730705600385
6.11125e-06;-0.0024308850594777767
6.11150e-06;-0.002443203869433967
6.11175e-06;-0.0024567889720453215
6.11200e-06;-0.002470374074656676
6.11225e-06;-0.002483959177268076
6.11250e-06;-0.002497544279879431
6.11275e-06;-0.002511129382490785
6.11300e-06;-0.0025247144851021854
6.11325e-06;-0.002541826440726188
6.11350e-06;-0.0025598485636521336
6.11375e-06;-0.0025778706865781406
6.11400e-06;-0.002595892809504086
6.11425e-06;-0.002613914932430093
6.11450e-06;-0.0026319370553560388
6.11475e-06;-0.002649959178281984
6.11500e-06;-0.002668162960656035
6.11525e-06;-0.0026864136234894874
6.11550e-06;-0.0027046642863229396
6.11575e-06;-0.0027222326329912226
6.11600e-06;-0.0027396248958076637
6.11625e-06;-0.0027565190550273982
6.11650e-06;-0.0027722220849580328
6.11675e-06;-0.0027879251148886135
6.11700e-06;-0.002802229940786325
6.11725e-06;-0.002815407930373966
6.11750e-06;-0.002828434691333745
6.11775e-06;-0.0028428969988352057
6.11800e-06;-0.002860689837179093
6.11825e-06;-0.002879247370800881
6.11850e-06;-0.0029018314112494305
6.11875e-06;-0.002925454563574981
6.11900e-06;-0.002949077715900532
6.11925e-06;-0.0029760284889514556
6.11950e-06;-0.0030038380138601175
6.11975e-06;-0.003037263488653413
6.12000e-06;-0.0030721382594438695
6.12025e-06;-0.003107013030234208
6.12050e-06;-0.003148183513108128
6.12075e-06;-0.0031909787167344293
6.12100e-06;-0.003233773920360585
6.12125e-06;-0.0032804509677445658
6.12150e-06;-0.0033281297941215233
6.12175e-06;-0.0033794126741498185
6.12200e-06;-0.0034316256444811297
6.12225e-06;-0.0034864495827142085
6.12250e-06;-0.0035433174011554338
6.12275e-06;-0.003601608311132506
6.12300e-06;-0.0036609767680039996
6.12325e-06;-0.0037211183903923827
6.12350e-06;-0.003781918989313555
6.12375e-06;-0.00384344915387913
6.12400e-06;-0.003905622767107659
6.12425e-06;-0.003968129937841319
6.12450e-06;-0.0040305928834957535
6.12475e-06;-0.004092618645669222
6.12500e-06;-0.004153832975911768
6.12525e-06;-0.004213887428186088
6.12550e-06;-0.004272552813258564
6.12575e-06;-0.00432971523492837
6.12600e-06;-0.004385163032545823
6.12625e-06;-0.004438544035126097
6.12650e-06;-0.004489464472355889
6.12675e-06;-0.004537519732355806
6.12700e-06;-0.004582318098424292
6.12725e-06;-0.004623439102384449
6.12750e-06;-0.004660305073891355
6.12775e-06;-0.004692272182558373
6.12800e-06;-0.004716818931170839
6.12825e-06;-0.004739717126482266
6.12850e-06;-0.004751864295636811
6.12875e-06;-0.004761236970807312
6.12900e-06;-0.004770609645977813
6.12925e-06;-0.004766793367562285
6.12950e-06;-0.004759573444523008
6.12975e-06;-0.00475235352148373
6.13000e-06;-0.0047274991888485085
6.13025e-06;-0.004698093982406629
6.13050e-06;-0.00466868877596475
6.13075e-06;-0.004639283569522771
6.13100e-06;-0.004609878363080891
6.13125e-06;-0.004561655902828026
6.13150e-06;-0.0045085773147297385
6.13175e-06;-0.004455498726631451
6.13200e-06;-0.0044024201385329835
6.13225e-06;-0.004349341550434696
6.13250e-06;-0.0042846334334502335
6.13275e-06;-0.004216924109189451
6.13300e-06;-0.004149214784928899
6.13325e-06;-0.0040765920982852215
6.13350e-06;-0.004002701430876266
6.13375e-06;-0.003926115588704771
6.13400e-06;-0.003848834208632534
6.13425e-06;-0.0037703367334308477
6.13450e-06;-0.0036912046968471785
6.13475e-06;-0.00361203671382617
6.13500e-06;-0.0035332972217961183
6.13525e-06;-0.003455446186662283
6.13550e-06;-0.0033789195211791556
6.13575e-06;-0.0033041426367954817
6.13600e-06;-0.0032315815767692112
6.13625e-06;-0.003161746120722625
6.13650e-06;-0.0030983757551306793
6.13675e-06;-0.0030365239065929563
6.13700e-06;-0.0029746720580550233
6.13725e-06;-0.0029213621473305985
6.13750e-06;-0.002870256635955827
6.13775e-06;-0.0028224967896339063
6.13800e-06;-0.0027756003518300022
6.13825e-06;-0.0027287039140260977
6.13850e-06;-0.0026849299159808467
6.13875e-06;-0.002641961719186456
6.13900e-06;-0.0025989935223920653
6.13925e-06;-0.002560033849787371
6.13950e-06;-0.002522108648319201
6.13975e-06;-0.002485300807122205
6.14000e-06;-0.0024487813206650957
6.14025e-06;-0.0024122618342079863
6.14050e-06;-0.0023757423477507532
6.14075e-06;-0.002341199825560007
6.14100e-06;-0.002307167494246069
6.14125e-06;-0.0022731351629320163
6.14150e-06;-0.0022391028316180784
6.14175e-06;-0.0022062832641729447
6.14200e-06;-0.0021737766720667604
6.14225e-06;-0.0021412700799606863
6.14250e-06;-0.0021087634878546122
6.14275e-06;-0.002077584634369799
6.14300e-06;-0.0020467484275089585
6.14325e-06;-0.002015912220648118
6.14350e-06;-0.0019850760137871733
6.14375e-06;-0.0019553784502504465
6.14400e-06;-0.001926105208291674
6.14425e-06;-0.0018971225147633311
6.14450e-06;-0.0018686151177283025
6.14475e-06;-0.001840774589045602
6.14500e-06;-0.0018137923632651238
6.14525e-06;-0.0017878319741372066
6.14550e-06;-0.0017628884789128575
