Time(s);Current(A)
1.07500e-05;-0.0022392943866758747
1.07503e-05;-0.002215007434185267
1.07505e-05;-0.002189215759846707
1.07508e-05;-0.0021626692247647254
1.07510e-05;-0.002135275426029946
1.07513e-05;-0.002107456587895538
1.07515e-05;-0.0020792124511614268
1.07518e-05;-0.0020506154147362948
1.07520e-05;-0.002021919225410373
1.07523e-05;-0.001993289503553432
1.07525e-05;-0.001964892101850131
1.07528e-05;-0.0019368862064065363
1.07530e-05;-0.0019094186656228565
1.07533e-05;-0.0018826389101534234
1.07535e-05;-0.0018567154921262344
1.07538e-05;-0.001831830827653548
1.07540e-05;-0.001808170443867046
1.07543e-05;-0.001785919674216836
1.07545e-05;-0.0017652637354800807
1.07548e-05;-0.0017463314067046284
1.07550e-05;-0.0017291085733198135
1.07553e-05;-0.0017135003050725993
1.07555e-05;-0.0016994730709927383
1.07558e-05;-0.001687067846178236
1.07560e-05;-0.0016763445845199016
1.07563e-05;-0.0016679695191099764
1.07565e-05;-0.0016604872153378547
1.07567e-05;-0.0016554037088545484
1.07570e-05;-0.0016515235861780434
1.07573e-05;-0.0016503142291409523
1.07575e-05;-0.0016504446919116127
1.07578e-05;-0.001650575154682274
1.07580e-05;-0.001654670114661428
1.07582e-05;-0.0016607539095308693
1.07585e-05;-0.0016668377044003519
1.07588e-05;-0.0016729214992698344
1.07590e-05;-0.0016790052941393168
1.07593e-05;-0.0016890734531246777
1.07595e-05;-0.0017011404134594718
1.07598e-05;-0.0017132073737942662
1.07600e-05;-0.0017252743341289786
1.07603e-05;-0.0017373412944637727
1.07605e-05;-0.0017516474113557481
1.07608e-05;-0.0017670768264748346
1.07610e-05;-0.0017825062415940255
1.07613e-05;-0.0017988537517828315
1.07615e-05;-0.0018156618347531977
1.07618e-05;-0.0018324699177236778
1.07620e-05;-0.0018495509122577164
1.07623e-05;-0.0018667688159660178
1.07625e-05;-0.001883986719674436
1.07628e-05;-0.0019009670758449331
1.07630e-05;-0.0019178282636046057
1.07633e-05;-0.0019340891803001211
1.07635e-05;-0.001950048964223002
1.07638e-05;-0.0019647781653305075
1.07640e-05;-0.0019788900306423685
1.07643e-05;-0.0019930018959542295
1.07645e-05;-0.002005532419516188
1.07648e-05;-0.002017269645093423
1.07650e-05;-0.002028863605666558
1.07652e-05;-0.002040385695728979
1.07655e-05;-0.00205293736088046
1.07658e-05;-0.0020660055240270354
1.07660e-05;-0.002079073687173522
1.07663e-05;-0.002092807887877026
1.07665e-05;-0.002106876213858524
1.07667e-05;-0.0021209445398399263
1.07670e-05;-0.0021370066653191035
1.07673e-05;-0.0021540690028801907
1.07675e-05;-0.002171131340441278
1.07678e-05;-0.0021881936780022496
1.07680e-05;-0.0022052560155633367
1.07683e-05;-0.0022229548275878534
1.07685e-05;-0.00224385298650373
1.07688e-05;-0.0022647511454197485
1.07690e-05;-0.0022856493043357665
1.07693e-05;-0.002306547463251643
1.07695e-05;-0.0023274456221676616
1.07698e-05;-0.002350061683155571
1.07700e-05;-0.0023735395491593226
1.07703e-05;-0.002397017415163233
1.07705e-05;-0.002420928590616745
1.07708e-05;-0.0024450571406592903
1.07710e-05;-0.0024691856907019987
1.07713e-05;-0.002493587436564193
1.07715e-05;-0.0025181262342008535
1.07718e-05;-0.0025426650318376804
1.07720e-05;-0.002566816414441809
1.07723e-05;-0.002590773445910197
1.07725e-05;-0.002614730477378747
1.07728e-05;-0.0026375587542696506
1.07730e-05;-0.0026598207786522497
1.07733e-05;-0.002682082803035
1.07735e-05;-0.0027027421923125346
1.07737e-05;-0.002722597601552129
1.07740e-05;-0.0027424530107918585
1.07743e-05;-0.002759872449816058
1.07745e-05;-0.0027760698568132314
1.07748e-05;-0.002792267263810515
1.07750e-05;-0.0028067974837581353
1.07752e-05;-0.00282049134045433
1.07755e-05;-0.002834185197150618
1.07758e-05;-0.0028464628906518115
1.07760e-05;-0.0028580301498591014
1.07763e-05;-0.0028695974090664693
1.07765e-05;-0.002881164668273837
1.07768e-05;-0.002892731927481205
1.07770e-05;-0.0029042991866884945
1.07773e-05;-0.002914490078535263
1.07775e-05;-0.0029239905001189155
1.07778e-05;-0.0029334909217025034
1.07780e-05;-0.002942991343286156
1.07783e-05;-0.0029524917648698083
1.07785e-05;-0.0029619921864533967
1.07788e-05;-0.002970372077782144
1.07790e-05;-0.002978189842427182
1.07793e-05;-0.002986007607072166
1.07795e-05;-0.0029938253717172038
1.07798e-05;-0.003001643136362241
1.07800e-05;-0.0030094609010072257
1.07803e-05;-0.003017278665652263
1.07805e-05;-0.0030250964302973005
1.07808e-05;-0.003032914194942285
1.07810e-05;-0.0030407319595873224
1.07813e-05;-0.0030485497242323596
1.07815e-05;-0.0030560086653673387
1.07818e-05;-0.0030616639192402617
1.07820e-05;-0.003067319173113185
1.07822e-05;-0.00307297442698607
1.07825e-05;-0.003078629680858993
1.07828e-05;-0.0030842849347319165
1.07830e-05;-0.0030899401886048013
1.07833e-05;-0.0030955954424777246
1.07835e-05;-0.003101250696350648
1.07837e-05;-0.0031069059502235328
1.07840e-05;-0.003112561204096456
1.07843e-05;-0.003118216457969379
1.07845e-05;-0.0031225808077778006
1.07848e-05;-0.003126297560952662
1.07850e-05;-0.003130014314127523
1.07853e-05;-0.003134366787668897
1.07855e-05;-0.0031390381775267934
1.07858e-05;-0.0031437095673847214
1.07860e-05;-0.003148380957242649
1.07863e-05;-0.0031530523471005453
1.07865e-05;-0.0031577237369584733
1.07868e-05;-0.0031623951268164013
1.07870e-05;-0.003167419615500578
1.07873e-05;-0.0031742190153533304
1.07875e-05;-0.0031810184152060834
1.07878e-05;-0.00318781781505879
1.07880e-05;-0.0031946172149115424
1.07883e-05;-0.0032014166147642954
1.07885e-05;-0.003208216014617002
1.07888e-05;-0.0032150154144697544
1.07890e-05;-0.0032233493446525868
1.07893e-05;-0.0032324530893424325
1.07895e-05;-0.00324155683403234
1.07898e-05;-0.0032506605787222475
1.07900e-05;-0.003259764323412093
1.07903e-05;-0.0032688680681020005
1.07905e-05;-0.0032779718127919077
1.07907e-05;-0.0032870755574817534
1.07910e-05;-0.0032961793021716607
1.07913e-05;-0.003305283046861568
1.07915e-05;-0.0033143329071793617
1.07918e-05;-0.003323111908557239
1.07920e-05;-0.003331890909935117
1.07922e-05;-0.0033406699113129354
1.07925e-05;-0.0033494489126908128
1.07928e-05;-0.0033582279140686906
1.07930e-05;-0.003367006915446509
1.07933e-05;-0.003375785916824387
1.07935e-05;-0.0033845649182022643
1.07938e-05;-0.003393343919580142
1.07940e-05;-0.0034021229209579605
1.07943e-05;-0.0034080210706236504
1.07945e-05;-0.0034124740084236806
1.07948e-05;-0.0034169269462236804
1.07950e-05;-0.00342137988402371
1.07953e-05;-0.0034258328218237403
1.07955e-05;-0.00343028575962374
1.07958e-05;-0.00343473869742377
1.07960e-05;-0.0034391916352238
1.07963e-05;-0.0034436445730238
1.07965e-05;-0.0034445744596782084
1.07968e-05;-0.003443736967852984
1.07970e-05;-0.0034428994760277655
1.07973e-05;-0.0034420619842025412
1.07975e-05;-0.003441224492377317
1.07978e-05;-0.0034403870005520988
1.07980e-05;-0.0034395495087268745
1.07983e-05;-0.0034387120169016502
1.07985e-05;-0.0034378745250764316
1.07988e-05;-0.0034340353466907176
1.07990e-05;-0.003428690338270044
1.07992e-05;-0.0034233453298494073
1.07995e-05;-0.003418000321428734
1.07998e-05;-0.0034126553130080606
1.08000e-05;-0.0034073103045874236
1.08003e-05;-0.0034019652961667503
1.08005e-05;-0.003396620287746077
1.08007e-05;-0.00339127527932544
1.08010e-05;-0.0033859302709047666
1.08013e-05;-0.0033805852624840932
1.08015e-05;-0.0033743813688060817
1.08018e-05;-0.0033677466056180987
1.08020e-05;-0.003361111842430116
1.08023e-05;-0.003354477079242133
1.08025e-05;-0.003347842316054195
1.08028e-05;-0.0033412075528662126
1.08030e-05;-0.0033345727896782295
1.08033e-05;-0.0033279380264902916
1.08035e-05;-0.003321303263302309
1.08038e-05;-0.003314668500114326
1.08040e-05;-0.003308033736926388
1.08043e-05;-0.0033022753231181463
1.08045e-05;-0.0032969565398945173
1.08048e-05;-0.003291554185418573
1.08050e-05;-0.0032861099064780148
1.08053e-05;-0.0032788111674933998
1.08055e-05;-0.003270582117639475
1.08058e-05;-0.0032598289523817145
1.08060e-05;-0.003247809536064371
1.08063e-05;-0.0032357901197471086
1.08065e-05;-0.003221154514936301
1.08068e-05;-0.003205206469558371
1.08070e-05;-0.003189258424180549
1.08073e-05;-0.0031681592050514977
1.08075e-05;-0.003144475841310403
1.08077e-05;-0.0031207924775694695
1.08080e-05;-0.003097109113828375
1.08083e-05;-0.0030734257500872803
1.08085e-05;-0.0030483566841352752
1.08088e-05;-0.0030163221508676037
1.08090e-05;-0.002984287617599932
1.08092e-05;-0.002952253084332478
1.08095e-05;-0.0029202185510648067
1.08098e-05;-0.002888184017797135
1.08100e-05;-0.0028528435783138264
1.08103e-05;-0.0028158446935614336
1.08105e-05;-0.002778845808809041
1.08108e-05;-0.002740887095044323
1.08110e-05;-0.0027024468721926517
1.08113e-05;-0.0026634126577493814
1.08115e-05;-0.0026240804607016114
1.08118e-05;-0.0025846451562648526
1.08120e-05;-0.0025451581268390528
1.08123e-05;-0.002505986544004891
1.08125e-05;-0.0024673930804187563
1.08128e-05;-0.0024295527657415368
1.08130e-05;-0.002392590695455777
1.08133e-05;-0.0023566139587785392
1.08135e-05;-0.0023217985833947023
1.08138e-05;-0.0022883801630056697
1.08140e-05;-0.002256607516818121
1.08143e-05;-0.0022267298503719276
1.08145e-05;-0.0021989961379224867
1.08148e-05;-0.0021736172107132104
1.08150e-05;-0.002150695923237081
1.08153e-05;-0.0021310758048492637
1.08155e-05;-0.0021126966195006394
1.08158e-05;-0.002097721528484189
1.08160e-05;-0.0020844541399168606
1.08162e-05;-0.0020747500031782044
1.08165e-05;-0.002066833412047981
1.08168e-05;-0.002063439359088197
1.08170e-05;-0.002062314088587423
1.08173e-05;-0.0020611888180866412
1.08175e-05;-0.002067087352618662
1.08177e-05;-0.0020765094584403064
1.08180e-05;-0.002085931564262014
1.08183e-05;-0.002095353670083722
1.08185e-05;-0.0021047757759053657
1.08188e-05;-0.0021160916550801954
1.08190e-05;-0.0021369269073896087
1.08193e-05;-0.002157762159699022
1.08195e-05;-0.002178597412008294
1.08198e-05;-0.0021994326643177066
1.08200e-05;-0.00222026791662712
1.08203e-05;-0.0022449121377250292
1.08205e-05;-0.002271467171125684
1.08208e-05;-0.0022994540017985303
1.08210e-05;-0.0023281591097778125
1.08213e-05;-0.0023576355075434654
1.08215e-05;-0.002387844900270773
1.08218e-05;-0.0024184542733937586
1.08220e-05;-0.002449284191753348
1.08223e-05;-0.0024801552207050154
1.08225e-05;-0.0025108880028710022
1.08228e-05;-0.002541297056707888
1.08230e-05;-0.002571180455205419
1.08233e-05;-0.002600322604914933
1.08235e-05;-0.0026280964015322865
1.08238e-05;-0.002655320240956837
1.08240e-05;-0.0026800234794152646
1.08243e-05;-0.0027034622298710413
1.08245e-05;-0.0027269009803268184
1.08247e-05;-0.0027475782099694313
1.08250e-05;-0.0027668700914413036
1.08253e-05;-0.0027850300656792034
1.08255e-05;-0.0028026222058420685
1.08258e-05;-0.0028202143460050533
1.08260e-05;-0.002835799449584264
1.08262e-05;-0.0028503777005453364
1.08265e-05;-0.0028649559515065075
1.08268e-05;-0.002879534202467679
1.08270e-05;-0.0028936790040329703
1.08273e-05;-0.0029056449986526313
1.08275e-05;-0.002917610993272292
1.08278e-05;-0.002929576987891953
1.08280e-05;-0.0029415429825115328
1.08283e-05;-0.0029520975108164402
1.08285e-05;-0.0029619439610694067
1.08288e-05;-0.0029717904113223067
1.08290e-05;-0.002981636861575273
1.08293e-05;-0.0029914833118282395
1.08295e-05;-0.0030010625735988495
1.08298e-05;-0.0030092987671203057
1.08300e-05;-0.003017534960641762
1.08303e-05;-0.0030257711541631627
1.08305e-05;-0.003034007347684619
1.08308e-05;-0.003042243541206075
1.08310e-05;-0.0030494599631268053
1.08313e-05;-0.003056164805082155
1.08315e-05;-0.0030628696470375054
1.08318e-05;-0.00306957448899281
1.08320e-05;-0.00307627933094816
1.08323e-05;-0.0030829841729035096
1.08325e-05;-0.0030894190744909233
1.08328e-05;-0.003094497075008915
1.08330e-05;-0.003099575075526907
1.08332e-05;-0.0031046530760448646
1.08335e-05;-0.0031097310765628564
1.08338e-05;-0.0031148090770808483
1.08340e-05;-0.003119887077598806
1.08343e-05;-0.003124167608953154
1.08345e-05;-0.0031280480808756114
1.08347e-05;-0.0031306625542753277
1.08350e-05;-0.0031326419251872526
1.08353e-05;-0.0031346212960991775
1.08355e-05;-0.0031326711596006275
1.08358e-05;-0.0031287497412345157
1.08360e-05;-0.0031248283228684035
1.08363e-05;-0.0031209069045022918
1.08365e-05;-0.0031169854861362064
1.08368e-05;-0.003111706518761061
1.08370e-05;-0.003099603600908319
1.08373e-05;-0.0030875006830556593
1.08375e-05;-0.0030753977652029176
1.08378e-05;-0.003063294847350176
1.08380e-05;-0.0030511919294975163
1.08383e-05;-0.0030336955860389456
1.08385e-05;-0.0030134935695810302
1.08388e-05;-0.002993291553123252
1.08390e-05;-0.0029730895366653367
1.08393e-05;-0.0029528875202074214
1.08395e-05;-0.0029326855037496427
1.08398e-05;-0.0029084903629276416
1.08400e-05;-0.0028822920260730646
1.08403e-05;-0.0028560936892186653
1.08405e-05;-0.0028298953523640882
1.08408e-05;-0.002803697015509511
1.08410e-05;-0.0027774986786551115
1.08413e-05;-0.002749089465800053
1.08415e-05;-0.002719571141975954
1.08418e-05;-0.0027005979271845885
1.08420e-05;-0.002683914266452763
1.08423e-05;-0.002646893781052715
1.08425e-05;-0.010902626187949517
1.08428e-05;-0.029708020425067445
1.08430e-05;-0.022277468982050682
1.08432e-05;-0.016864488773178886
1.08435e-05;-0.007494560081250639
1.08438e-05;0.007080892584011328
1.08440e-05;0.005440476536083029
1.08443e-05;0.0018320461235673152
1.08445e-05;-0.004997657242670205
1.08448e-05;-0.010536194911148544
1.08450e-05;-0.01100642359724699
1.08453e-05;-0.007735329853259495
1.08455e-05;-0.0021388433337302688
1.08458e-05;0.002297150259404105
1.08460e-05;0.003318359387645676
1.08463e-05;0.0013721867974423472
1.08465e-05;-0.0030457141927186923
1.08468e-05;-0.006619850101574363
1.08470e-05;-0.006993889465849559
1.08473e-05;-0.0050061935095445
1.08475e-05;-0.0015488721871253627
1.08478e-05;0.001190859822405164
1.08480e-05;0.0017984187792016906
1.08483e-05;0.000552334851623837
1.08485e-05;-0.0022381375677310777
1.08488e-05;-0.0044971260808758075
1.08490e-05;-0.004749460723218193
1.08493e-05;-0.0035209628750397627
1.08495e-05;-0.001370925601277212
1.08498e-05;0.0003303006749367731
1.08500e-05;0.000696521717604602
1.08503e-05;-9.780361728143e-05
1.08505e-05;-0.0018589464203048224
1.08508e-05;-0.003286609199297022
1.08510e-05;-0.0034568529446348016
1.08513e-05;-0.0026991693759417577
1.08515e-05;-0.0013639736356062047
1.08517e-05;-0.00030966258297561217
1.08520e-05;-9.128765733143463e-05
1.08523e-05;-0.0005994837865595307
1.08525e-05;-0.001712822541990215
1.08528e-05;-0.002616762616600666
1.08530e-05;-0.002732575352577538
1.08533e-05;-0.002266695149704478
1.08535e-05;-0.0014386423900746219
1.08538e-05;-0.0007861010769622265
1.08540e-05;-0.0006566991175037717
1.08543e-05;-0.0009818617714859937
1.08545e-05;-0.001685464189796633
1.08548e-05;-0.002257259035298589
1.08550e-05;-0.0023347945446488727
1.08553e-05;-0.002047482629157271
1.08555e-05;-0.0015329038863175412
1.08558e-05;-0.0011278936344092361
1.08560e-05;-0.001050205914827514
1.08563e-05;-0.0012568780205730941
1.08565e-05;-0.0017002219916185425
1.08568e-05;-0.0020606327325668073
1.08570e-05;-0.0021111091552143075
1.08573e-05;-0.0019327596763862452
1.08575e-05;-0.0016118016351134813
1.08578e-05;-0.00135925157699995
1.08580e-05;-0.0013115181729282548
1.08583e-05;-0.001441692249740563
1.08585e-05;-0.0017199072033439794
1.08588e-05;-0.0019459783973946796
1.08590e-05;-0.0019777442280630953
1.08593e-05;-0.001866045929086886
1.08595e-05;-0.00166492063892186
1.08598e-05;-0.0015065710691675213
1.08600e-05;-0.001476455489475819
1.08602e-05;-0.0015577268758627165
1.08605e-05;-0.0017316875145883778
1.08608e-05;-0.0018729590888075147
1.08610e-05;-0.0018925184403985513
1.08613e-05;-0.0018222422826962212
1.08615e-05;-0.0016960056503594668
1.08618e-05;-0.0015966412769080915
1.08620e-05;-0.0015776950031596187
1.08623e-05;-0.0016286267064723567
1.08625e-05;-0.0017377379912595983
1.08628e-05;-0.001826510109562356
1.08630e-05;-0.0018392032740757371
1.08633e-05;-0.0017958104455478884
1.08635e-05;-0.001717574939544568
1.08638e-05;-0.0016564034788351175
1.08640e-05;-0.0016458535312200398
1.08643e-05;-0.0016793382148939328
1.08645e-05;-0.001749545553004208
1.08648e-05;-0.00180736202448946
1.08650e-05;-0.0018180630786239463
1.08653e-05;-0.0017943800582677538
1.08655e-05;-0.0017496967042713392
1.08658e-05;-0.0017165007773273827
1.08660e-05;-0.001715762846849851
1.08663e-05;-0.0017433063664946081
1.08665e-05;-0.0017945011301570028
1.08668e-05;-0.0018385337736058752
1.08670e-05;-0.001853606812701874
1.08673e-05;-0.0018476497120795373
1.08675e-05;-0.0018289996178101457
1.08678e-05;-0.0018179592697878102
1.08680e-05;-0.0018276156155088085
1.08683e-05;-0.0018553025863294133
1.08685e-05;-0.00189807045604631
1.08687e-05;-0.001936569546854134
1.08690e-05;-0.0019570990820695633
1.08693e-05;-0.0019645792077724097
1.08695e-05;-0.0019641856937295116
1.08698e-05;-0.001968588233003387
1.08700e-05;-0.001985935649120942
1.08703e-05;-0.002014508726031798
1.08705e-05;-0.002052411205224879
1.08708e-05;-0.002087473849787372
1.08710e-05;-0.002111067123380551
1.08713e-05;-0.002126226207370228
1.08715e-05;-0.002136145628509536
1.08718e-05;-0.002148713516137454
1.08720e-05;-0.002168986097042785
1.08723e-05;-0.002195837625660297
1.08725e-05;-0.002228031431401509
1.08728e-05;-0.002257896717605759
1.08730e-05;-0.002279980444526594
1.08733e-05;-0.002296136067122327
1.08735e-05;-0.0023083169787089584
1.08738e-05;-0.0023214164751507835
1.08740e-05;-0.002338553281369018
1.08743e-05;-0.0023589737356903523
1.08745e-05;-0.002381854959536359
1.08748e-05;-0.002402352025295511
1.08750e-05;-0.002417041755543659
1.08753e-05;-0.002427117123683001
1.08755e-05;-0.002433849775986201
1.08758e-05;-0.002440351588014548
1.08760e-05;-0.0024486219129237373
1.08763e-05;-0.002458234462742246
1.08765e-05;-0.002468719089264724
1.08768e-05;-0.0024770869835461684
1.08770e-05;-0.002481239970639226
1.08772e-05;-0.002481971160235653
1.08775e-05;-0.002480150206420641
1.08778e-05;-0.002477700944464716
1.08780e-05;-0.0024759735259895325
1.08783e-05;-0.0024747485391170445
1.08785e-05;-0.0024729484734943297
1.08788e-05;-0.002470912253100248
1.08790e-05;-0.002465789810686167
1.08793e-05;-0.0024580673647712904
1.08795e-05;-0.0024486050694299297
1.08798e-05;-0.0024387131431190404
1.08800e-05;-0.002429239595950695
1.08803e-05;-0.0024200912997696736
1.08805e-05;-0.002410691504563283
1.08808e-05;-0.0024011796742780915
1.08810e-05;-0.002389903185135403
1.08813e-05;-0.002377215447104284
1.08815e-05;-0.0023637973695399945
1.08818e-05;-0.0023502183371561353
1.08820e-05;-0.0023374732309526026
1.08823e-05;-0.0023250254062509358
1.08825e-05;-0.0023130871888002963
1.08828e-05;-0.0023013306382797176
1.08830e-05;-0.0022890096406573456
1.08833e-05;-0.0022764874265650313
1.08835e-05;-0.0022643581026707067
1.08838e-05;-0.002252368837921716
1.08840e-05;-0.002241956883995639
1.08843e-05;-0.0022321072164465726
1.08845e-05;-0.0022238008744607553
1.08848e-05;-0.0022160447036440357
1.08850e-05;-0.0022097644027996815
1.08853e-05;-0.00220401022627242
1.08855e-05;-0.0022014779553391883
1.08857e-05;-0.0022000942428239594
1.08860e-05;-0.0021987105303087214
1.08863e-05;-0.002201620346134959
1.08865e-05;-0.002206060736950276
1.08868e-05;-0.0022105011277656237
1.08870e-05;-0.002219089011657183
1.08873e-05;-0.002229155411274057
1.08875e-05;-0.0022392218108908627
1.08878e-05;-0.002250862964686453
1.08880e-05;-0.002267568297276454
1.08883e-05;-0.0022842736298663417
1.08885e-05;-0.002300978962456343
1.08888e-05;-0.002320857049519977
1.08890e-05;-0.002341866173403976
1.08893e-05;-0.0023648893530251415
1.08895e-05;-0.0023886305116819174
1.08898e-05;-0.0024142995614275086
1.08900e-05;-0.002440655873873805
1.08903e-05;-0.002468567441052759
1.08905e-05;-0.00249703343196101
1.08908e-05;-0.00252628151294663
1.08910e-05;-0.0025561614657685296
1.08913e-05;-0.0025864940898872703
1.08915e-05;-0.002617173217054744
1.08918e-05;-0.002648101859332757
1.08920e-05;-0.002679149266116468
1.08923e-05;-0.0027101274374709224
1.08925e-05;-0.0027408477137966687
1.08928e-05;-0.0027710718093290616
1.08930e-05;-0.002800605831639746
1.08933e-05;-0.0028293253370266697
1.08935e-05;-0.0028570784127212707
1.08938e-05;-0.0028832296942344644
1.08940e-05;-0.0029089046278021075
1.08942e-05;-0.002932314649789878
1.08945e-05;-0.0029549172665991864
