Time(s);Current(A)
9.25000e-06;0.010196258811854183
9.25025e-06;0.010195414102279012
9.25050e-06;0.010194569392703834
9.25075e-06;0.010193724683128657
9.25100e-06;0.010192879973553486
9.25125e-06;0.01019203526397831
9.25150e-06;0.010191190554403132
9.25175e-06;0.010189359258520492
9.25200e-06;0.010187006737697011
9.25225e-06;0.010184654216873531
9.25250e-06;0.010182301696050066
9.25275e-06;0.010179949175226586
9.25300e-06;0.010177596654403105
9.25325e-06;0.010175244133579642
9.25350e-06;0.010172891612756162
9.25375e-06;0.010170539091932681
9.25400e-06;0.010168186571109216
9.25425e-06;0.010165867904733183
9.25450e-06;0.010163567124052739
9.25475e-06;0.010161266343372308
9.25500e-06;0.010158965562691864
9.25525e-06;0.010156793585963888
9.25550e-06;0.010155327477270878
9.25575e-06;0.01015386136857786
9.25600e-06;0.01015239525988484
9.25625e-06;0.01015092915119182
9.25650e-06;0.010150172293172775
9.25675e-06;0.010149790140476322
9.25700e-06;0.01014940798777987
9.25725e-06;0.01014846114290004
9.25750e-06;0.010147215964617779
9.25775e-06;0.010145970786335518
9.25800e-06;0.01014326285217164
9.25825e-06;0.010139782127181272
9.25850e-06;0.010136301402190906
9.25875e-06;0.01013282067720056
9.25900e-06;0.010129339952210194
9.25925e-06;0.010123678499758598
9.25950e-06;0.010116864943802756
9.25975e-06;0.01011005138784687
9.26000e-06;0.010103237831890982
9.26025e-06;0.010096424275935142
9.26050e-06;0.010087092326324732
9.26075e-06;0.010076429880260123
9.26100e-06;0.010065767434195587
9.26125e-06;0.010055104988130979
9.26150e-06;0.01004444254206637
9.26175e-06;0.010033780096001834
9.26200e-06;0.010023117649937225
9.26225e-06;0.010010614527892453
9.26250e-06;0.00999713895546827
9.26275e-06;0.009983663383043994
9.26300e-06;0.009970187810619719
9.26325e-06;0.009956712238195534
9.26350e-06;0.009943236665771259
9.26375e-06;0.009929761093346983
9.26400e-06;0.009916078912066412
9.26425e-06;0.009902287576940647
9.26450e-06;0.009888496241814884
9.26475e-06;0.009875340286958705
9.26500e-06;0.009862520010837494
9.26525e-06;0.009849699734716196
9.26550e-06;0.009837904232718948
9.26575e-06;0.009826650130727371
9.26600e-06;0.009815396028735717
9.26625e-06;0.009805771409008296
9.26650e-06;0.009797007663581223
9.26675e-06;0.009788243918154091
9.26700e-06;0.009782878380597708
9.26725e-06;0.009779308155507935
9.26750e-06;0.009775737930418138
9.26775e-06;0.009772167705328343
9.26800e-06;0.00976859748023857
9.26825e-06;0.009765027255148773
9.26850e-06;0.009766436172916325
9.26875e-06;0.009770475629363274
9.26900e-06;0.009774515085810249
9.26925e-06;0.009778554542257222
9.26950e-06;0.00978259399870417
9.26975e-06;0.009786633455151145
9.27000e-06;0.009796303041625288
9.27025e-06;0.009808947090819326
9.27050e-06;0.00982159114001345
9.27075e-06;0.009834235189207575
9.27100e-06;0.009846879238401612
9.27125e-06;0.009859523287595737
9.27150e-06;0.009872167336789861
9.27175e-06;0.0098848113859839
9.27200e-06;0.009897455435178023
9.27225e-06;0.009914151590895091
9.27250e-06;0.009932988521289135
9.27275e-06;0.009951825451683308
9.27300e-06;0.00997066238207748
9.27325e-06;0.009989499312471653
9.27350e-06;0.0100083362428657
9.27375e-06;0.010027173173259872
9.27400e-06;0.010046010103654045
9.27425e-06;0.010064847034048089
9.27450e-06;0.010084196859320957
9.27475e-06;0.010103817652882097
9.27500e-06;0.010123438446443105
9.27525e-06;0.010142386281298068
9.27550e-06;0.010160978584295976
9.27575e-06;0.010179570887293756
9.27600e-06;0.010197147150615158
9.27625e-06;0.010214186628440322
9.27650e-06;0.010230410755753287
9.27675e-06;0.01024553502467446
9.27700e-06;0.010259174181947816
9.27725e-06;0.010269090895733872
9.27750e-06;0.0102773568492449
9.27775e-06;0.010280879997796599
9.27800e-06;0.010281897467709362
9.27825e-06;0.010277393040263918
9.27850e-06;0.010269971330666773
9.27875e-06;0.01026254962106968
9.27900e-06;0.01024539038383956
9.27925e-06;0.010223086698293637
9.27950e-06;0.010200783012747867
9.27975e-06;0.010178479327201947
9.28000e-06;0.010156175641656025
9.28025e-06;0.010125196456035341
9.28050e-06;0.010089633903523649
9.28075e-06;0.010050989716079541
9.28100e-06;0.010008736980133237
9.28125e-06;0.00996334227298898
9.28150e-06;0.009914767903952668
9.28175e-06;0.009863222936597485
9.28200e-06;0.00980904353215853
9.28225e-06;0.009752584524536001
9.28250e-06;0.009694199528871076
9.28275e-06;0.009634234203859294
9.28300e-06;0.009572942594156975
9.28325e-06;0.009510447680871172
9.28350e-06;0.009446913008306124
9.28375e-06;0.009382658099887487
9.28400e-06;0.009318082400882862
9.28425e-06;0.00925359601516804
9.28450e-06;0.009189608115294918
9.28475e-06;0.009126523895593869
9.28500e-06;0.009064689946395109
9.28525e-06;0.009004371120068591
9.28550e-06;0.008945858529316002
9.28575e-06;0.008889540477726894
9.28600e-06;0.008835855054755707
9.28625e-06;0.008785245604453335
9.28650e-06;0.008738157551943303
9.28675e-06;0.008695038541440828
9.28700e-06;0.008656345070425392
9.28725e-06;0.008622486955647124
9.28750e-06;0.008595444155804764
9.28775e-06;0.008571094727091442
9.28800e-06;0.008557266092662216
9.28825e-06;0.008548995715368957
9.28850e-06;0.0085407253380757
9.28875e-06;0.008532454960782499
9.28900e-06;0.008538597488177048
9.28925e-06;0.008552354519588027
9.28950e-06;0.008566111550998913
9.28975e-06;0.008579868582409892
9.29000e-06;0.008605599830315034
9.29025e-06;0.008637657195096732
9.29050e-06;0.008669714559878212
9.29075e-06;0.008710896781585695
9.29100e-06;0.008756899770599685
9.29125e-06;0.008802902759613363
9.29150e-06;0.008856720641564045
9.29175e-06;0.008914667221715763
9.29200e-06;0.008972613801867087
9.29225e-06;0.009035715635710607
9.29250e-06;0.009101541049623142
9.29275e-06;0.00917050233329205
9.29300e-06;0.009241120333173557
9.29325e-06;0.009313995172084286
9.29350e-06;0.00938806232512038
9.29375e-06;0.009463354636755112
9.29400e-06;0.009539294213827971
9.29425e-06;0.009615366331062013
9.29450e-06;0.00969150847079485
9.29475e-06;0.00976669114163301
9.29500e-06;0.00984136691397161
9.29525e-06;0.00991397109881791
9.29550e-06;0.00998548084006461
9.29575e-06;0.010053711507241499
9.29600e-06;0.010120209801714193
9.29625e-06;0.010180796703411968
9.29650e-06;0.010238260548028786
9.29675e-06;0.010295724392645993
9.29700e-06;0.01034147184947087
9.29725e-06;0.010381029403298365
9.29750e-06;0.010420586957126127
9.29775e-06;0.01046014451095389
9.29800e-06;0.010499702064781385
9.29825e-06;0.010523654979820784
9.29850e-06;0.010539363783951358
9.29875e-06;0.010555072588081934
9.29900e-06;0.010570781392212403
9.29925e-06;0.010586490196342979
9.29950e-06;0.010589855276228776
9.29975e-06;0.010586699024023411
9.30000e-06;0.010583542771818026
9.30025e-06;0.010573327156379887
9.30050e-06;0.010559381997808929
9.30075e-06;0.010540095623066742
9.30100e-06;0.010517987422129232
9.30125e-06;0.010491155916395262
9.30150e-06;0.010461829034181908
9.30175e-06;0.01042941594668634
9.30200e-06;0.01039351377213016
9.30225e-06;0.010354916705554018
9.30250e-06;0.010313848551813583
9.30275e-06;0.010270536197169852
9.30300e-06;0.010225243769076192
9.30325e-06;0.010178307405660246
9.30350e-06;0.010130088207148747
9.30375e-06;0.010080918851332481
9.30400e-06;0.010031110537971644
9.30425e-06;0.009980971822276304
9.30450e-06;0.009930811293960501
9.30475e-06;0.009880939048936933
9.30500e-06;0.009831689914767945
9.30525e-06;0.009783442353155942
9.30550e-06;0.009736590635492839
9.30575e-06;0.0096915116485865
9.30600e-06;0.009648568999192902
9.30625e-06;0.009608123431091256
9.30650e-06;0.00957053719425835
9.30675e-06;0.009536172895117708
9.30700e-06;0.009506692625805679
9.30725e-06;0.009479181356951537
9.30750e-06;0.00945842790976639
9.30775e-06;0.009441244697823838
9.30800e-06;0.009424061485881286
9.30825e-06;0.009417519742398824
9.30850e-06;0.009416600009616246
9.30875e-06;0.009415680276833668
9.30900e-06;0.009414760544051095
9.30925e-06;0.009416857244612675
9.30950e-06;0.009435484523947301
9.30975e-06;0.009454111803281802
9.31000e-06;0.009472739082616427
9.31025e-06;0.009491366361951054
9.31050e-06;0.009519635929584104
9.31075e-06;0.00955299962949713
9.31100e-06;0.009586363329410154
9.31125e-06;0.009626370084414939
9.31150e-06;0.009669886442154706
9.31175e-06;0.009713402799894471
9.31200e-06;0.009762190295098328
9.31225e-06;0.009813762593108519
9.31250e-06;0.009865334891118708
9.31275e-06;0.009920670517213391
9.31300e-06;0.009977994353003549
9.31325e-06;0.010035318188793706
9.31350e-06;0.010094734432561106
9.31375e-06;0.010155256119631634
9.31400e-06;0.010215777806702162
9.31425e-06;0.010276474995227738
9.31450e-06;0.010337264903199755
9.31475e-06;0.010398054811171772
9.31500e-06;0.010457545419305632
9.31525e-06;0.010516349592328141
9.31550e-06;0.010573044091604875
9.31575e-06;0.010628624025874065
9.31600e-06;0.010680134215454546
9.31625e-06;0.010729494311909166
9.31650e-06;0.010778854408363786
9.31675e-06;0.010818407446924685
9.31700e-06;0.010852779303524731
9.31725e-06;0.010887151160124777
9.31750e-06;0.010921523016724591
9.31775e-06;0.010955894873324637
9.31800e-06;0.010990266729924683
9.31825e-06;0.011010904480439008
9.31850e-06;0.011024286344072815
9.31875e-06;0.011037668207706621
9.31900e-06;0.011051050071340338
9.31925e-06;0.011064431934974145
9.31950e-06;0.011077813798607951
9.31975e-06;0.011081330611680132
9.32000e-06;0.011079635604594325
9.32025e-06;0.011077940597508516
9.32050e-06;0.011070266353336437
9.32075e-06;0.011059433209148485
9.32100e-06;0.011048600064960534
9.32125e-06;0.011033400712688372
9.32150e-06;0.011015894642253325
9.32175e-06;0.010995526313706351
9.32200e-06;0.010973645821138482
9.32225e-06;0.010949283018922009
9.32250e-06;0.010923608783846296
9.32275e-06;0.010895853211197608
9.32300e-06;0.010866998043868297
9.32325e-06;0.010836685848830773
9.32350e-06;0.010805603889225766
9.32375e-06;0.010773705969728757
9.32400e-06;0.01074137696919613
9.32425e-06;0.010708774966399482
9.32450e-06;0.01067602873335365
9.32475e-06;0.010643565252652469
9.32500e-06;0.010611251153281036
9.32525e-06;0.010579916327655965
9.32550e-06;0.010549098863661939
9.32575e-06;0.010519966640206154
9.32600e-06;0.010491724748792418
9.32625e-06;0.010468727955563653
9.32650e-06;0.010448502208290114
9.32675e-06;0.010428276461016711
9.32700e-06;0.010408050713743172
9.32725e-06;0.010387824966469632
9.32750e-06;0.01036759921919623
9.32775e-06;0.010349169868058922
9.32800e-06;0.010340585079846512
9.32825e-06;0.010332000291634162
9.32850e-06;0.010323415503421753
9.32875e-06;0.010314830715209342
9.32900e-06;0.010306245926996992
9.32925e-06;0.010297661138784582
9.32950e-06;0.010297171444267153
9.32975e-06;0.01030095848125229
9.33000e-06;0.010304745518237452
9.33025e-06;0.010308532555222613
9.33050e-06;0.010312319592207748
9.33075e-06;0.01031610662919291
9.33100e-06;0.010319893666178071
9.33125e-06;0.010323680703163208
9.33150e-06;0.01032746774014837
9.33175e-06;0.010331254777133531
9.33200e-06;0.010341165839904931
9.33225e-06;0.010354312296235964
9.33250e-06;0.010367458752566996
9.33275e-06;0.010380605208898028
9.33300e-06;0.010393751665228972
9.33325e-06;0.010406898121560005
9.33350e-06;0.010420044577891037
9.33375e-06;0.01043319103422198
9.33400e-06;0.010446337490553013
9.33425e-06;0.010459483946884045
9.33450e-06;0.010472844924816323
9.33475e-06;0.01048631923698855
9.33500e-06;0.010499793549160776
9.33525e-06;0.010513267861332913
9.33550e-06;0.01052541620913709
9.33575e-06;0.010388041069613527
9.33600e-06;0.004450710973485127
9.33625e-06;-0.0032350239155761913
9.33650e-06;-0.002186568687051729
9.33675e-06;-0.0002596064523672471
9.33700e-06;0.005156609835128367
9.33725e-06;0.011470892874471748
9.33750e-06;0.011975564469792765
9.33775e-06;0.011623154721570161
9.33800e-06;0.007676762406425824
9.33825e-06;0.0026773035353146383
9.33850e-06;0.0031841714774729886
9.33875e-06;0.004377359865059383
9.33900e-06;0.007249723520735232
9.33925e-06;0.011187641209649133
9.33950e-06;0.012882672857214181
9.33975e-06;0.012460600971915255
9.34000e-06;0.010369783950689415
9.34025e-06;0.007720296719550652
9.34050e-06;0.006778497391058736
9.34075e-06;0.007558566011626368
9.34100e-06;0.009335574280368936
9.34125e-06;0.011468145387774291
9.34150e-06;0.012494764644898688
9.34175e-06;0.012197753793823261
9.34200e-06;0.010857764107655467
9.34225e-06;0.009169955014577388
9.34250e-06;0.008553727977224533
9.34275e-06;0.009017699334149485
9.34300e-06;0.010107559574263186
9.34325e-06;0.011421405371169896
9.34350e-06;0.012043683698376616
9.34375e-06;0.011838049534734343
9.34400e-06;0.010980326023660007
9.34425e-06;0.009905972002715665
9.34450e-06;0.009504064262067981
9.34475e-06;0.009779932143375821
9.34500e-06;0.01044895650399847
9.34525e-06;0.011259375612469168
9.34550e-06;0.011637723996440632
9.34575e-06;0.011498667148904577
9.34600e-06;0.010952416250996636
9.34625e-06;0.010271804247837892
9.34650e-06;0.010013777743900627
9.34675e-06;0.010181667427522623
9.34700e-06;0.01059704241553923
9.34725e-06;0.011101795450976967
9.34750e-06;0.011336297920160483
9.34775e-06;0.011246960210561133
9.34800e-06;0.010902826279979069
9.34825e-06;0.010474795149033411
9.34850e-06;0.010311713502825151
9.34875e-06;0.010415627688633881
9.34900e-06;0.010674735721561314
9.34925e-06;0.010989977210838347
9.34950e-06;0.011136072340757548
9.34975e-06;0.0110794563423876
9.35000e-06;0.010863383992962038
9.35025e-06;0.010594905085988527
9.35050e-06;0.010492518847734897
9.35075e-06;0.010557482645025224
9.35100e-06;0.010719738495748473
9.35125e-06;0.010917220542407038
9.35150e-06;0.011008806067887343
9.35175e-06;0.010973471828208063
9.35200e-06;0.01083831202516002
9.35225e-06;0.010670378168013367
9.35250e-06;0.010606525602949132
9.35275e-06;0.010647522678876867
9.35300e-06;0.01074946848548106
9.35325e-06;0.010873471194673155
9.35350e-06;0.010931123771627006
9.35375e-06;0.010909254906901278
9.35400e-06;0.010824833918969975
9.35425e-06;0.010719857043954615
9.35450e-06;0.010680037963763662
9.35475e-06;0.010705841772832044
9.35500e-06;0.010769756716329293
9.35525e-06;0.010847409389766773
9.35550e-06;0.010883412997958086
9.35575e-06;0.010869513181324557
9.35600e-06;0.010816332940713479
9.35625e-06;0.010750171744342413
9.35650e-06;0.01072471209448507
9.35675e-06;0.010740266948713498
9.35700e-06;0.010779953602945605
9.35725e-06;0.010829437822377429
9.35750e-06;0.010854920522984207
9.35775e-06;0.010851455115447262
9.35800e-06;0.010825573677933012
9.35825e-06;0.010793622492603407
9.35850e-06;0.010789101124675168
9.35875e-06;0.010812072869275395
9.35900e-06;0.010851836480497845
9.35925e-06;0.010899281112360772
9.35950e-06;0.010933109721712114
9.35975e-06;0.010950096782700479
9.36000e-06;0.01095420692206492
9.36025e-06;0.01095555473845224
9.36050e-06;0.01097499381918244
9.36075e-06;0.011012435104897193
9.36100e-06;0.011061047048799698
9.36125e-06;0.01111499342034661
9.36150e-06;0.011160807368352402
9.36175e-06;0.011196340604036311
9.36200e-06;0.011223950466014673
9.36225e-06;0.011249844478184026
9.36250e-06;0.011286957841064685
9.36275e-06;0.011335107819423625
9.36300e-06;0.0113898833553399
9.36325e-06;0.011447503909503413
9.36350e-06;0.011499403972458345
9.36375e-06;0.011544111231546623
9.36400e-06;0.011583330106881801
9.36425e-06;0.011622344606516306
9.36450e-06;0.011662437226357724
9.36475e-06;0.011710763762537013
9.36500e-06;0.01176154439352285
9.36525e-06;0.011810966888589635
9.36550e-06;0.011859319060063173
9.36575e-06;0.011899160393391008
9.36600e-06;0.011933534881817802
9.36625e-06;0.011965068998532995
9.36650e-06;0.011996876557629406
9.36675e-06;0.012030581941227771
9.36700e-06;0.01206356566153013
9.36725e-06;0.012095993073825168
9.36750e-06;0.012123801833109708
9.36775e-06;0.012146853103139527
9.36800e-06;0.012164838804700501
9.36825e-06;0.012182691459014669
9.36850e-06;0.01219962578602816
9.36875e-06;0.012216665165048315
9.36900e-06;0.012231636485876116
9.36925e-06;0.012246607806703816
9.36950e-06;0.012260907571740412
9.36975e-06;0.012269771122270245
9.37000e-06;0.012274745937022949
9.37025e-06;0.012279720751775688
9.37050e-06;0.012284617749968403
9.37075e-06;0.01228873376640307
9.37100e-06;0.012291296145246702
9.37125e-06;0.012293858524090333
9.37150e-06;0.012295979431378175
9.37175e-06;0.012294542893336502
9.37200e-06;0.012290668591426093
9.37225e-06;0.01228679428951571
9.37250e-06;0.012282870683840581
9.37275e-06;0.012278587065658621
9.37300e-06;0.012274038917291693
9.37325e-06;0.012267559188738663
9.37350e-06;0.012261079460185634
9.37375e-06;0.012254599731632647
9.37400e-06;0.012248120003079616
9.37425e-06;0.012240956750726156
9.37450e-06;0.012233375371047692
9.37475e-06;0.012225793991369178
9.37500e-06;0.012218212611690664
9.37525e-06;0.012210662730081529
9.37550e-06;0.01220334284508596
9.37575e-06;0.01219602296009034
9.37600e-06;0.012188835224889557
9.37625e-06;0.012182612437886877
9.37650e-06;0.012176389650884155
9.37675e-06;0.012170263302568715
9.37700e-06;0.01216484114253934
9.37725e-06;0.012158824757159193
9.37750e-06;0.012148469381452044
9.37775e-06;0.012137264904049766
9.37800e-06;0.012119860347775352
9.37825e-06;0.012102455791500938
9.37850e-06;0.012084434685759532
9.37875e-06;0.012061911580615032
9.37900e-06;0.012038487957259291
9.37925e-06;0.012008488815367696
9.37950e-06;0.0119784896734759
9.37975e-06;0.011947285926748322
9.38000e-06;0.011907286243050574
9.38025e-06;0.011867286559352557
9.38050e-06;0.011826424910482004
9.38075e-06;0.011779269254561818
9.38100e-06;0.011732113598641312
9.38125e-06;0.011684174635469467
9.38150e-06;0.011630516019672073
9.38175e-06;0.011576298347420777
9.38200e-06;0.011517998485572422
9.38225e-06;0.011459351646377076
9.38250e-06;0.011398171203805436
9.38275e-06;0.011336781318392681
9.38300e-06;0.01127386209657466
9.38325e-06;0.01121078525976331
9.38350e-06;0.011146478666140332
9.38375e-06;0.011081567385691765
9.38400e-06;0.011016469144097612
9.38425e-06;0.010951625599888706
9.38450e-06;0.01088751735154676
9.38475e-06;0.010824539461928743
9.38500e-06;0.010762989442114628
9.38525e-06;0.010703032709839624
9.38550e-06;0.010644815948289098
9.38575e-06;0.010588854348316242
9.38600e-06;0.010536338465317537
9.38625e-06;0.010484869441283086
9.38650e-06;0.010441044505330264
9.38675e-06;0.010397219569377442
9.38700e-06;0.010354707356286753
9.38725e-06;0.01032178055014151
9.38750e-06;0.010288853743996264
9.38775e-06;0.010255926937851243
9.38800e-06;0.010223000131706
9.38825e-06;0.010197240630546172
9.38850e-06;0.01017586553569546
9.38875e-06;0.0101544904408446
9.38900e-06;0.010133115345993742
9.38925e-06;0.01011305492301638
9.38950e-06;0.010102594138526896
9.38975e-06;0.010092133354037412
9.39000e-06;0.010081672569547999
9.39025e-06;0.010071211785058515
9.39050e-06;0.01006075100056903
9.39075e-06;0.010056384040942161
9.39100e-06;0.010055744814993219
9.39125e-06;0.010055105589044277
9.39150e-06;0.01005446636309534
9.39175e-06;0.0100538271371464
9.39200e-06;0.01005426043629566
9.39225e-06;0.010062525235776514
9.39250e-06;0.01007079003525731
9.39275e-06;0.010079054834738163
9.39300e-06;0.010087319634219015
9.39325e-06;0.010095584433699813
9.39350e-06;0.010103849233180666
9.39375e-06;0.010112114032661518
9.39400e-06;0.010120378832142314
9.39425e-06;0.010128643631623168
9.39450e-06;0.01013690843110402
9.39475e-06;0.010145173230584817
9.39500e-06;0.010154197817946423
9.39525e-06;0.010163687185136036
9.39550e-06;0.010173176552325587
9.39575e-06;0.010182665919515202
9.39600e-06;0.010192155286704816
9.39625e-06;0.010201644653894367
9.39650e-06;0.010211134021083982
9.39675e-06;0.010220623388273595
9.39700e-06;0.010230112755463146
9.39725e-06;0.010239602122652762
9.39750e-06;0.010249091489842375
9.39775e-06;0.010257639707011464
9.39800e-06;0.010259315715116745
9.39825e-06;0.010260991723222024
9.39850e-06;0.010262667731327293
9.39875e-06;0.010264343739432575
9.39900e-06;0.010266019747537854
9.39925e-06;0.010267695755643123
9.39950e-06;0.010269371763748404
9.39975e-06;0.010271047771853684
9.40000e-06;0.010272723779958953
9.40025e-06;0.010273489637203592
9.40050e-06;0.010267609638996495
9.40075e-06;0.0102617296407894
9.40100e-06;0.010255849642582342
9.40125e-06;0.010249969644375247
9.40150e-06;0.01024408964616815
9.40175e-06;0.010238209647961094
