Time(s);Current(A)
5.80000e-06;0.006600670263057089
5.80025e-06;0.006580013613017806
5.80050e-06;0.006559356962978454
5.80075e-06;0.006538700312939171
5.80100e-06;0.006518043662899888
5.80125e-06;0.006497387012860535
5.80150e-06;0.006476730362821252
5.80175e-06;0.006456073712781969
5.80200e-06;0.006435417062742617
5.80225e-06;0.006411697921690284
5.80250e-06;0.006377282631591869
5.80275e-06;0.00634286734149357
5.80300e-06;0.006308452051395272
5.80325e-06;0.0062740367612968565
5.80350e-06;0.0062396214711985575
5.80375e-06;0.0062052061811002585
5.80400e-06;0.006170790891001843
5.80425e-06;0.006136375600903545
5.80450e-06;0.006101960310805246
5.80475e-06;0.006067545020706831
5.80500e-06;0.006034847558860492
5.80525e-06;0.006008149836095376
5.80550e-06;0.005981452113330171
5.80575e-06;0.005954754390565055
5.80600e-06;0.005928056667799939
5.80625e-06;0.005901358945034733
5.80650e-06;0.005874661222269617
5.80675e-06;0.005847963499504411
5.80700e-06;0.005821265776739296
5.80725e-06;0.00579456805397418
5.80750e-06;0.005767870331208974
5.80775e-06;0.005741172608443859
5.80800e-06;0.005714474885678743
5.80825e-06;0.005689570978237638
5.80850e-06;0.005670932204631264
5.80875e-06;0.005652293431024891
5.80900e-06;0.005633654657418454
5.80925e-06;0.00561501588381208
5.80950e-06;0.005596377110205707
5.80975e-06;0.00557773833659927
5.81000e-06;0.005559099562992896
5.81025e-06;0.005540460789386522
5.81050e-06;0.005521822015780086
5.81075e-06;0.005503183242173712
5.81100e-06;0.0054845444685672744
5.81125e-06;0.005465905694960901
5.81150e-06;0.00544749425891008
5.81175e-06;0.005429876828904262
5.81200e-06;0.005412259398898505
5.81225e-06;0.005394641968892748
5.81250e-06;0.00537702453888693
5.81275e-06;0.005359407108881172
5.81300e-06;0.005341789678875415
5.81325e-06;0.005324172248869598
5.81350e-06;0.00530655481886384
5.81375e-06;0.0052889373888580825
5.81400e-06;0.005271319958852265
5.81425e-06;0.005256252507603772
5.81450e-06;0.005242164036228013
5.81475e-06;0.005228075564852208
5.81500e-06;0.0052139870934764495
5.81525e-06;0.005199898622100643
5.81550e-06;0.005185810150724885
5.81575e-06;0.005171721679349127
5.81600e-06;0.005157633207973321
5.81625e-06;0.005143544736597562
5.81650e-06;0.005129456265221804
5.81675e-06;0.00511911340702332
5.81700e-06;0.005121852591066307
5.81725e-06;0.005124591775109293
5.81750e-06;0.005127330959152288
5.81775e-06;0.005130070143195275
5.81800e-06;0.00513280932723826
5.81825e-06;0.005135548511281256
5.81850e-06;0.005138287695324242
5.81875e-06;0.005141026879367228
5.81900e-06;0.005166312683547495
5.81925e-06;0.0052002545156446395
5.81950e-06;0.005234196347741899
5.81975e-06;0.005268138179839043
5.82000e-06;0.005302080011936187
5.82025e-06;0.005336021844033447
5.82050e-06;0.005369963676130591
5.82075e-06;0.005403905508227736
5.82100e-06;0.005443701213773051
5.82125e-06;0.005503942335352682
5.82150e-06;0.005564183456932313
5.82175e-06;0.005624424578512147
5.82200e-06;0.005684665700091779
5.82225e-06;0.00574490682167141
5.82250e-06;0.0058051479432512446
5.82275e-06;0.005865389064830876
5.82300e-06;0.005925630186410507
5.82325e-06;0.005991857101313721
5.82350e-06;0.006060382063276127
5.82375e-06;0.006128907025238765
5.82400e-06;0.00619743198720117
5.82425e-06;0.006265956949163576
5.82450e-06;0.006334481911126215
5.82475e-06;0.00640300687308862
5.82500e-06;0.006471531835051026
5.82525e-06;0.006534809301554772
5.82550e-06;0.006579759206190879
5.82575e-06;0.006624709110826985
5.82600e-06;0.006669659015463243
5.82625e-06;0.0067146089200993495
5.82650e-06;0.006759558824735456
5.82675e-06;0.006804508729371714
5.82700e-06;0.00684945863400782
5.82725e-06;0.006894408538643927
5.82750e-06;0.006939358443280185
5.82775e-06;0.006984308347916291
5.82800e-06;0.007029258252552549
5.82825e-06;0.0070742081571886556
5.82850e-06;0.007119158061824761
5.82875e-06;0.007141461894656286
5.82900e-06;0.007155071518399712
5.82925e-06;0.007168681142143139
5.82950e-06;0.007182290765886611
5.82975e-06;0.007195900389630037
5.83000e-06;0.0072095100133734635
5.83025e-06;0.0072231196371169365
5.83050e-06;0.007236729260860363
5.83075e-06;0.007250338884603789
5.83100e-06;0.007263948508347262
5.83125e-06;0.007277558132090688
5.83150e-06;0.007291167755834114
5.83175e-06;0.007304777379577587
5.83200e-06;0.00731495093642011
5.83225e-06;0.007313123581744146
5.83250e-06;0.007311296227068189
5.83275e-06;0.007309468872392232
5.83300e-06;0.007307641517716268
5.83325e-06;0.007305814163040311
5.83350e-06;0.007303986808364354
5.83375e-06;0.007302159453688391
5.83400e-06;0.007300332099012434
5.83425e-06;0.007298504744336477
5.83450e-06;0.007296677389660514
5.83475e-06;0.007294850034984556
5.83500e-06;0.007293022680308599
5.83525e-06;0.007291195325632636
5.83550e-06;0.00728953408494315
5.83575e-06;0.007288453019003145
5.83600e-06;0.007287371953063135
5.83625e-06;0.00728629088712313
5.83650e-06;0.007285209821183121
5.83675e-06;0.007284128755243115
5.83700e-06;0.00728304768930311
5.83725e-06;0.007281966623363101
5.83750e-06;0.0072808855574230955
5.83775e-06;0.00727980449148309
5.83800e-06;0.007278723425543081
5.83825e-06;0.007277642359603076
5.83850e-06;0.00727656129366307
5.83875e-06;0.007275480227723061
5.83900e-06;0.00727755449602832
5.83925e-06;0.007290649180458559
5.83950e-06;0.0073037438648888425
5.83975e-06;0.0073168385493190815
5.84000e-06;0.0073299332337493205
5.84025e-06;0.007343027918179604
5.84050e-06;0.007356122602609843
5.84075e-06;0.007369217287040082
5.84100e-06;0.007382311971470365
5.84125e-06;0.007395406655900604
5.84150e-06;0.007408501340330887
5.84175e-06;0.007421596024761126
5.84200e-06;0.007434690709191365
5.84225e-06;0.007447785393621649
5.84250e-06;0.007460880078051888
5.84275e-06;0.007478274939130338
5.84300e-06;0.0074973207105832875
5.84325e-06;0.007516366482036172
5.84350e-06;0.007535412253489058
5.84375e-06;0.007554458024942007
5.84400e-06;0.007573503796394892
5.84425e-06;0.007592549567847777
5.84450e-06;0.007611595339300727
5.84475e-06;0.007630641110753612
5.84500e-06;0.007649686882206497
5.84525e-06;0.007668732653659447
5.84550e-06;0.007687778425112332
5.84575e-06;0.0077068241965652816
5.84600e-06;0.007725869968018166
5.84625e-06;0.00774174853460831
5.84650e-06;0.007746565225396875
5.84675e-06;0.007751381916185423
5.84700e-06;0.0077561986069739726
5.84725e-06;0.007761015297762537
5.84750e-06;0.0077658319885510856
5.84775e-06;0.007770648679339635
5.84800e-06;0.007775465370128199
5.84825e-06;0.007780282060916748
5.84850e-06;0.007761989812972513
5.84875e-06;0.007734825653520201
5.84900e-06;0.007707661494067981
5.84925e-06;0.007680497334615762
5.84950e-06;0.007653333175163451
5.84975e-06;0.007626169015711231
5.85000e-06;0.00759900485625892
5.85025e-06;0.007571840696806701
5.85050e-06;0.0075377724695648496
5.85075e-06;0.0074795908856832745
5.85100e-06;0.007421409301801896
5.85125e-06;0.007363227717920518
5.85150e-06;0.007305046134038943
5.85175e-06;0.007246864550157565
5.85200e-06;0.007188682966276187
5.85225e-06;0.007130501382394611
5.85250e-06;0.007072319798513233
5.85275e-06;0.007011093437301597
5.85300e-06;0.006939232794404596
5.85325e-06;0.006867372151507838
5.85350e-06;0.006795511508611079
5.85375e-06;0.006723650865714078
5.85400e-06;0.00665179022281732
5.85425e-06;0.006579929579920318
5.85450e-06;0.00650806893702356
5.85475e-06;0.006436208294126802
5.85500e-06;0.006366289818344617
5.85525e-06;0.006303154614354566
5.85550e-06;0.006240019410364517
5.85575e-06;0.006176884206374253
5.85600e-06;0.006113749002384203
5.85625e-06;0.0060506137983941536
5.85650e-06;0.005998574870654834
5.85675e-06;0.005950795990600519
5.85700e-06;0.005903017110546203
5.85725e-06;0.005855238230491727
5.85750e-06;0.005807459350437412
5.85775e-06;0.005760739495964345
5.85800e-06;0.00571771842636755
5.85825e-06;0.005674697356770901
5.85850e-06;0.005631676287174106
5.85875e-06;0.005588655217577457
5.85900e-06;0.005545634147980807
5.85925e-06;0.005502613078384012
5.85950e-06;0.005459592008787362
5.85975e-06;0.005416570939190713
5.86000e-06;0.005373549869593918
5.86025e-06;0.005330528799997268
5.86050e-06;0.00528750773040062
5.86075e-06;0.005243338325399121
5.86100e-06;0.005198728055059618
5.86125e-06;0.005154117784720115
5.86150e-06;0.005109507514380461
5.86175e-06;0.005064897244040957
5.86200e-06;0.005020286973701454
5.86225e-06;0.0049756767033618
5.86250e-06;0.004931066433022297
5.86275e-06;0.0048864561626826425
5.86300e-06;0.0048418458923431395
5.86325e-06;0.0047972356220036365
5.86350e-06;0.004753342177272772
5.86375e-06;0.004711952339411711
5.86400e-06;0.00467056250155065
5.86425e-06;0.004629172663689449
5.86450e-06;0.004587782825828388
5.86475e-06;0.004546392987967327
5.86500e-06;0.004505003150106125
5.86525e-06;0.004463613312245064
5.86550e-06;0.004422223474384003
5.86575e-06;0.004384447936240578
5.86600e-06;0.0043592958109482235
5.86625e-06;0.004334143685655869
5.86650e-06;0.00430899156036343
5.86675e-06;0.004283839435071076
5.86700e-06;0.0042586873097786365
5.86725e-06;0.004233535184486282
5.86750e-06;0.004208383059193928
5.86775e-06;0.004183230933901489
5.86800e-06;0.0041652983658134815
5.86825e-06;0.0041725810422548115
5.86850e-06;0.004179863718696167
5.86875e-06;0.004187146395137497
5.86900e-06;0.004194429071578827
5.86925e-06;0.004201711748020181
5.86950e-06;0.004208994424461512
5.86975e-06;0.004216277100902842
5.87000e-06;0.004223559777344196
5.87025e-06;0.004230842453785526
5.87050e-06;0.004238125130226856
5.87075e-06;0.004267377655575778
5.87100e-06;0.004305064776623632
5.87125e-06;0.004342751897671614
5.87150e-06;0.004380439018719468
5.87175e-06;0.0044181261397673215
5.87200e-06;0.004455813260815304
5.87225e-06;0.0044935003818631575
5.87250e-06;0.004531187502911011
5.87275e-06;0.0045688746239589935
5.87300e-06;0.004606561745006847
5.87325e-06;0.004646451477472652
5.87350e-06;0.00469403411740193
5.87375e-06;0.004741616757331047
5.87400e-06;0.004789199397260164
5.87425e-06;0.004836782037189442
5.87450e-06;0.004884364677118559
5.87475e-06;0.004931947317047675
5.87500e-06;0.004979529956976953
5.87525e-06;0.00502711259690607
5.87550e-06;0.005066056709019305
5.87575e-06;0.005101684344543866
5.87600e-06;0.005137311980068427
5.87625e-06;0.005172939615593107
5.87650e-06;0.005208567251117668
5.87675e-06;0.005244194886642229
5.87700e-06;0.00527982252216691
5.87725e-06;0.00531545015769147
5.87750e-06;0.005348738229036996
5.87775e-06;0.00537076730342491
5.87800e-06;0.005382011959144735
5.87825e-06;0.00539325661486456
5.87850e-06;0.005404501270584424
5.87875e-06;0.005415745926304248
5.87900e-06;0.0054269905820240735
5.87925e-06;0.005438235237743937
5.87950e-06;0.005449479893463762
5.87975e-06;0.005460724549183626
5.88000e-06;0.005471969204903451
5.88025e-06;0.005483213860623276
5.88050e-06;0.005494458516343139
5.88075e-06;0.005505703172062964
5.88100e-06;0.00551694782778279
5.88125e-06;0.005524529380247419
5.88150e-06;0.00551931706715098
5.88175e-06;0.0055141047540545425
5.88200e-06;0.0055088924409580865
5.88225e-06;0.005503680127861649
5.88250e-06;0.00549846781476521
5.88275e-06;0.005493255501668754
5.88300e-06;0.005488043188572316
5.88325e-06;0.005482830875475879
5.88350e-06;0.005477618562379423
5.88375e-06;0.005472406249282984
5.88400e-06;0.005467193936186529
5.88425e-06;0.00546198162309009
5.88450e-06;0.0054567693099936525
5.88475e-06;0.005450936973499111
5.88500e-06;0.005442939124474279
5.88525e-06;0.005434941275449447
5.88550e-06;0.005426943426424587
5.88575e-06;0.005418945577399754
5.88600e-06;0.005410947728374922
5.88625e-06;0.005402949879350063
5.88650e-06;0.005394952030325231
5.88675e-06;0.005390087042447202
5.88700e-06;0.00539616398045425
5.88725e-06;0.005402240918461277
5.88750e-06;0.0054083178564683036
5.88775e-06;0.00541439479447535
5.88800e-06;0.005420471732482377
5.88825e-06;0.005426548670489425
5.88850e-06;0.005432625608496452
5.88875e-06;0.005446085380360254
5.88900e-06;0.005485330661728882
5.88925e-06;0.005524575943097376
5.88950e-06;0.0055638212244658695
5.88975e-06;0.005603066505834497
5.89000e-06;0.005642311787202991
5.89025e-06;0.005681557068571485
5.89050e-06;0.005720802349940112
5.89075e-06;0.005760047631308606
5.89100e-06;0.0057992929126771
5.89125e-06;0.005844983246446367
5.89150e-06;0.005913183765754815
5.89175e-06;0.005981384285063263
5.89200e-06;0.0060495848043719425
5.89225e-06;0.00611778532368039
5.89250e-06;0.006185985842989069
5.89275e-06;0.006254186362297517
5.89300e-06;0.006322386881605965
5.89325e-06;0.006390587400914644
5.89350e-06;0.006458787920223092
5.89375e-06;0.00652759231987244
5.89400e-06;0.006598505850320569
5.89425e-06;0.0066694193807684595
5.89450e-06;0.006740332911216349
5.89475e-06;0.006811246441664478
5.89500e-06;0.006882159972112369
5.89525e-06;0.006953073502560258
5.89550e-06;0.007023987033008388
5.89575e-06;0.007094900563456278
5.89600e-06;0.00714760870787305
5.89625e-06;0.007193327497412131
5.89650e-06;0.007239046286951056
5.89675e-06;0.007284765076490137
5.89700e-06;0.007330483866029062
5.89725e-06;0.007376202655567987
5.89750e-06;0.007421921445107068
5.89775e-06;0.007467640234645994
5.89800e-06;0.007504057514665385
5.89825e-06;0.0075079880603608476
5.89850e-06;0.007511918606056297
5.89875e-06;0.007515849151751746
5.89900e-06;0.007519779697447209
5.89925e-06;0.007523710243142658
5.89950e-06;0.007527640788838108
5.89975e-06;0.007531571334533571
5.90000e-06;0.00753550188022902
5.90025e-06;0.00753943242592447
5.90050e-06;0.007543362971619933
5.90075e-06;0.0075472935173153816
5.90100e-06;0.007525549504712391
5.90125e-06;0.007493948595971679
5.90150e-06;0.007462347687230968
5.90175e-06;0.0074307467784901484
5.90200e-06;0.007399145869749437
5.90225e-06;0.007367544961008725
5.90250e-06;0.007335944052267907
5.90275e-06;0.007304343143527195
5.90300e-06;0.007272742234786483
5.90325e-06;0.007241141326045664
5.90350e-06;0.007209540417304952
5.90375e-06;0.007175786275997086
5.90400e-06;0.007134511689304494
5.90425e-06;0.007093237102612042
5.90450e-06;0.0070519625159195885
5.90475e-06;0.007010687929226996
5.90500e-06;0.006969413342534544
5.90525e-06;0.006929460483801222
5.90550e-06;0.006894123932234304
5.90575e-06;0.006858787380667385
5.90600e-06;0.0068234508291003465
5.90625e-06;0.006788114277533428
5.90650e-06;0.006752777725966509
5.90675e-06;0.006717769580894883
5.90700e-06;0.006683908438311691
5.90725e-06;0.0066500472957285
5.90750e-06;0.006616186153145194
5.90775e-06;0.006582325010562003
5.90800e-06;0.006548463867978811
5.90825e-06;0.006514602725395505
5.90850e-06;0.006480741582812314
5.90875e-06;0.00644301299833319
5.90900e-06;0.006391776868967155
5.90925e-06;0.006340540739601294
5.90950e-06;0.006289304610235259
5.90975e-06;0.0062380684808693975
5.91000e-06;0.006186832351503536
5.91025e-06;0.0061355962221375
5.91050e-06;0.006084360092771639
5.91075e-06;0.0060290760439363844
5.91100e-06;0.0059596541087670275
5.91125e-06;0.005890232173597905
5.91150e-06;0.005820810238428783
5.91175e-06;0.005751388303259426
5.91200e-06;0.005681966368090304
5.91225e-06;0.005612544432921182
5.91250e-06;0.005543122497751825
5.91275e-06;0.005473700562582702
5.91300e-06;0.005399925755022669
5.91325e-06;0.0053244798063059266
5.91350e-06;0.005249033857589439
5.91375e-06;0.005173587908872696
5.91400e-06;0.0050981419601562085
5.91425e-06;0.005022696011439722
5.91450e-06;0.004947250062722979
5.91475e-06;0.004871804114006491
5.91500e-06;0.004799196136991343
5.91525e-06;0.004736500146029782
5.91550e-06;0.004673804155068435
5.91575e-06;0.0046111081641070865
5.91600e-06;0.0045484121731455265
5.91625e-06;0.004485716182184178
5.91650e-06;0.004423020191222831
5.91675e-06;0.004373318359307819
5.91700e-06;0.004328605204299551
5.91725e-06;0.004283892049291283
5.91750e-06;0.0042391788942828645
5.91775e-06;0.004194465739274596
5.91800e-06;0.004149752584266178
5.91825e-06;0.004108085282515264
5.91850e-06;0.004077056020245728
5.91875e-06;0.004046026757976086
5.91900e-06;0.004014997495706549
5.91925e-06;0.003983968233437012
5.91950e-06;0.00395293897116737
5.91975e-06;0.003921909708897834
5.92000e-06;0.003890880446628297
5.92025e-06;0.003859851184358655
5.92050e-06;0.0038288219220891186
5.92075e-06;0.003797792659819582
5.92100e-06;0.0037667633975499402
5.92125e-06;0.0037357341352804037
5.92150e-06;0.003704704873010867
5.92175e-06;0.0036736756107412253
5.92200e-06;0.003644707729984703
5.92225e-06;0.00362293949283094
5.92250e-06;0.0036011712556772513
5.92275e-06;0.003579403018523562
5.92300e-06;0.003557634781369799
5.92325e-06;0.00353586654421611
5.92350e-06;0.003514098307062421
5.92375e-06;0.0034923300699086584
5.92400e-06;0.003470561832754969
5.92425e-06;0.00344879359560128
5.92450e-06;0.003427025358447517
5.92475e-06;0.0034052571212938284
5.92500e-06;0.003383488884140139
5.92525e-06;0.0033617206469863763
5.92550e-06;0.003339952409832687
5.92575e-06;0.0033198998188243346
5.92600e-06;0.003305839345585403
5.92625e-06;0.0032917788723465184
5.92650e-06;0.0032777183991075866
5.92675e-06;0.003263657925868702
5.92700e-06;0.0032495974526298176
5.92725e-06;0.003248754766320383
5.92750e-06;0.003252986611433746
5.92775e-06;0.003257218456547109
5.92800e-06;0.003261450301660486
5.92825e-06;0.003265682146773849
5.92850e-06;0.0032742862110213436
5.92875e-06;0.0032981608204421214
5.92900e-06;0.003322035429862818
5.92925e-06;0.0033495295157495576
5.92950e-06;0.0033896650949333915
5.92975e-06;0.003429800674117089
5.93000e-06;0.0034732404954631473
5.93025e-06;0.0035282208132149002
5.93050e-06;0.0035832011309664667
5.93075e-06;0.003642676012808142
5.93100e-06;0.003717848745525367
5.93125e-06;0.003793021478242591
5.93150e-06;0.0038681942109600703
5.93175e-06;0.0039433669436772945
5.93200e-06;0.004018539676394519
5.93225e-06;0.004093712409111999
5.93250e-06;0.004172503645959507
5.93275e-06;0.004263932980093371
5.93300e-06;0.004355362314227544
5.93325e-06;0.004446791648361407
5.93350e-06;0.004538220982495271
5.93375e-06;0.004629650316629444
5.93400e-06;0.004721079650763307
5.93425e-06;0.004811915324615397
5.93450e-06;0.004900677562560111
5.93475e-06;0.004989439800504525
5.93500e-06;0.005078202038449239
5.93525e-06;0.005166964276393653
5.93550e-06;0.0052557265143380666
5.93575e-06;0.005331022856736374
5.93600e-06;0.005401149414628372
5.93625e-06;0.005471275972520369
5.93650e-06;0.005541402530412604
5.93675e-06;0.005611529088304602
5.93700e-06;0.005677089548375509
5.93725e-06;0.0057267023166940115
5.93750e-06;0.005776315085012347
5.93775e-06;0.005825927853330681
5.93800e-06;0.005875540621649184
5.93825e-06;0.005925153389967519
5.93850e-06;0.005974766158285854
5.93875e-06;0.006024378926604357
5.93900e-06;0.006073991694922691
5.93925e-06;0.006123604463241195
5.93950e-06;0.006173217231559529
5.93975e-06;0.006222829999877864
5.94000e-06;0.0062666765427099435
5.94025e-06;0.006308309334286128
5.94050e-06;0.006349942125862313
5.94075e-06;0.006391574917438638
5.94100e-06;0.006433207709014822
5.94125e-06;0.006474840500591006
5.94150e-06;0.006516473292167332
5.94175e-06;0.006558106083743516
5.94200e-06;0.0065997388753197
5.94225e-06;0.0066413716668960255
5.94250e-06;0.00668300445847221
5.94275e-06;0.006723436161646485
5.94300e-06;0.006759672907036633
5.94325e-06;0.006795909652426658
5.94350e-06;0.006832146397816806
5.94375e-06;0.006868383143206831
5.94400e-06;0.0069046198885968565
5.94425e-06;0.006940856633987004
5.94450e-06;0.006977093379377029
5.94475e-06;0.007013330124767054
5.94500e-06;0.007049566870157202
5.94525e-06;0.007085803615547227
5.94550e-06;0.0071181961507800024
5.94575e-06;0.007137162281015045
5.94600e-06;0.007156128411250024
5.94625e-06;0.007175094541485003
5.94650e-06;0.0071940606717200446
5.94675e-06;0.007213026801955023
5.94700e-06;0.007231992932190002
5.94725e-06;0.007250959062425045
5.94750e-06;0.0072699251926600225
5.94775e-06;0.007288891322895065
5.94800e-06;0.007307857453130044
5.94825e-06;0.007318716206334548
5.94850e-06;0.007301258888611606
5.94875e-06;0.007283801570888723
5.94900e-06;0.00726634425316584
5.94925e-06;0.007248886935442898
5.94950e-06;0.007231429617720015
5.94975e-06;0.007213972299997132
5.95000e-06;0.00719651498227419
5.95025e-06;0.007179057664551307
5.95050e-06;0.007161600346828425
5.95075e-06;0.007144143029105482
