Time(s);Current(A)
4.50000e-06;-0.0005676736254853674
4.50025e-06;-0.0005800813160048763
4.50050e-06;-0.0005920942344188018
4.50075e-06;-0.000603909138119526
4.50100e-06;-0.000615222029236547
4.50125e-06;-0.0006262831146246114
4.50150e-06;-0.0006366375331348224
4.50175e-06;-0.0006466374928644682
4.50200e-06;-0.0006557129129138646
4.50225e-06;-0.0006643245908268599
4.50250e-06;-0.0006715546374377164
4.50275e-06;-0.000678091668199157
4.50300e-06;-0.0006846286989605976
4.50325e-06;-0.0006894047349859735
4.50350e-06;-0.0006932974693223298
4.50375e-06;-0.000697190203658686
4.50400e-06;-0.0006992266097752349
4.50425e-06;-0.0007003318956457671
4.50450e-06;-0.000701437181516303
4.50475e-06;-0.0007009943255210755
4.50500e-06;-0.0006997749332325993
4.50525e-06;-0.0006973891335741103
4.50550e-06;-0.0006944182727687478
4.50575e-06;-0.0006906123976344603
4.50600e-06;-0.0006858521228195665
4.50625e-06;-0.0006803042031697815
4.50650e-06;-0.0006739995017691412
4.50675e-06;-0.0006669808111856477
4.50700e-06;-0.0006592982645725914
4.50725e-06;-0.000651002154707044
4.50750e-06;-0.0006421419389039647
4.50775e-06;-0.000632766977259868
4.50800e-06;-0.0006229265523432718
4.50825e-06;-0.0006126704505306274
4.50850e-06;-0.0006020524905139085
4.50875e-06;-0.0005911338815059788
4.50900e-06;-0.000579980376868131
4.50925e-06;-0.0005686578878569525
4.50950e-06;-0.0005572318400067316
4.50975e-06;-0.0005457675617567979
4.51000e-06;-0.0005343303233387039
4.51025e-06;-0.0005229856856519258
4.51050e-06;-0.0005118017297468943
4.51075e-06;-0.0005008511727319466
4.51100e-06;-0.0004902096251239695
4.51125e-06;-0.00047995273805581825
4.51150e-06;-0.0004701558323024082
4.51175e-06;-0.0004608941994731002
4.51200e-06;-0.00045224307303141876
4.51225e-06;-0.00044433285714545306
4.51250e-06;-0.0004376118695443782
4.51275e-06;-0.0004328573177300991
4.51300e-06;-0.00043062407973985085
4.51325e-06;-0.00043101660961244727
4.51350e-06;-0.0004339620539811833
4.51375e-06;-0.00043937228644745716
4.51400e-06;-0.00044715916123063467
4.51425e-06;-0.00045726910027507183
4.51450e-06;-0.0004698476722552547
4.51475e-06;-0.0004852464168990929
4.51500e-06;-0.0005036775452479854
4.51525e-06;-0.0005250711117676622
4.51550e-06;-0.0005500877150811781
4.51575e-06;-0.0005764343068481017
4.51600e-06;-0.000605904149137419
4.51625e-06;-0.0006369405903518016
4.51650e-06;-0.000670932182202798
4.51675e-06;-0.0007064060553432087
4.51700e-06;-0.0007448172477013757
4.51725e-06;-0.0007847017772436889
4.51750e-06;-0.000826926564205217
4.51775e-06;-0.0008703252066520628
4.51800e-06;-0.0009153925597826292
4.51825e-06;-0.0009612969256164779
4.51850e-06;-0.001008404485812607
4.51875e-06;-0.0010561155592337104
4.51900e-06;-0.0011046583132836305
4.51925e-06;-0.0011536182320694708
4.51950e-06;-0.0012026757197272154
4.51975e-06;-0.0012517821471955749
4.52000e-06;-0.0013002053212140883
4.52025e-06;-0.0013482857804513499
4.52050e-06;-0.0013950314804669199
4.52075e-06;-0.0014411076753157851
4.52100e-06;-0.0014858367840059597
4.52125e-06;-0.0015287296116533533
4.52150e-06;-0.001569666655242995
4.52175e-06;-0.001608328315581854
4.52200e-06;-0.0016443949939711656
4.52225e-06;-0.0016775434476535508
4.52250e-06;-0.0017074473270758106
4.52275e-06;-0.0017325860406972801
4.52300e-06;-0.0017558965208710365
4.52325e-06;-0.00177417396680987
4.52350e-06;-0.0017899268807058644
4.52375e-06;-0.0017992076227391863
4.52400e-06;-0.0018052419721409784
4.52425e-06;-0.0018112763215427702
4.52450e-06;-0.0018106654697133298
4.52475e-06;-0.001806721435025155
4.52500e-06;-0.0017988120804458521
4.52525e-06;-0.0017863693628919113
4.52550e-06;-0.0017701896635032902
4.52575e-06;-0.0017503987494679504
4.52600e-06;-0.0017271224657489177
4.52625e-06;-0.001700485184278783
4.52650e-06;-0.0016706099179059606
4.52675e-06;-0.0016376385953009462
4.52700e-06;-0.001601757366659464
4.52725e-06;-0.0015631883326617632
4.52750e-06;-0.0015221639348306942
4.52775e-06;-0.0014789174303367386
4.52800e-06;-0.0014336819217883733
4.52825e-06;-0.0013866896584937105
4.52850e-06;-0.0013381721521341424
4.52875e-06;-0.001288372504195928
4.52900e-06;-0.001237561744978557
4.52925e-06;-0.0011860332678811636
4.52950e-06;-0.0011340869966723283
4.52975e-06;-0.0010820232828827174
4.53000e-06;-0.0010301423229864784
4.53025e-06;-0.0009787437705161884
4.53050e-06;-0.0009281269293875483
4.53075e-06;-0.0008785982940445106
4.53100e-06;-0.0008304817173444101
4.53125e-06;-0.0007841151453117957
4.53150e-06;-0.0007398404893763445
4.53175e-06;-0.0006979999910173638
4.53200e-06;-0.0006589358144327154
4.53225e-06;-0.0006229698112615794
4.53250e-06;-0.0005902860725924431
4.53275e-06;-0.0005608660996947604
4.53300e-06;-0.00053465731283893
4.53325e-06;-0.0005117004935538427
4.53350e-06;-0.000492083952057503
4.53375e-06;-0.0004759008206073216
4.53400e-06;-0.00046324421207889695
4.53425e-06;-0.00045419451504892023
4.53450e-06;-0.0004487457317576372
4.53475e-06;-0.00044676505643300785
4.53500e-06;-0.0004480982832456608
4.53525e-06;-0.0004526497266368721
4.53550e-06;-0.00046035346979429807
4.53575e-06;-0.00047114660961850827
4.53600e-06;-0.0004849662139678619
4.53625e-06;-0.0005017414234105328
4.53650e-06;-0.0005221959300650822
4.53675e-06;-0.000544004914521666
4.53700e-06;-0.0005689427121283873
4.53725e-06;-0.000595449898831861
4.53750e-06;-0.0006246357328897515
4.53775e-06;-0.0006551651562737474
4.53800e-06;-0.0006879429665070017
4.53825e-06;-0.0007218485506393005
4.53850e-06;-0.0007574775413943667
4.53875e-06;-0.0007939709799232174
4.53900e-06;-0.0008315223061336511
4.53925e-06;-0.0008696042608327898
4.53950e-06;-0.0009081395599716659
4.53975e-06;-0.0009469022532650586
4.54000e-06;-0.000985635912357175
4.54025e-06;-0.0010241357204258108
4.54050e-06;-0.0010621358801796415
4.54075e-06;-0.0010993594425942478
4.54100e-06;-0.0011355239011384595
4.54125e-06;-0.0011703614488449085
4.54150e-06;-0.0012036114694609456
4.54175e-06;-0.0012350142787969198
4.54200e-06;-0.0012643100769889643
4.54225e-06;-0.0012912376681770063
4.54250e-06;-0.001314580361827726
4.54275e-06;-0.0013365363497320213
4.54300e-06;-0.0013545415929912242
4.54325e-06;-0.0013705651725104662
4.54350e-06;-0.0013814712252961752
4.54375e-06;-0.0013898103652394966
4.54400e-06;-0.0013981495051828181
4.54425e-06;-0.0014001464746422694
4.54450e-06;-0.0013989622591835385
4.54475e-06;-0.0013977780437248078
4.54500e-06;-0.00139236338877289
4.54525e-06;-0.0013827988022452676
4.54550e-06;-0.0013702537595321701
4.54575e-06;-0.0013548257775388979
4.54600e-06;-0.001336612451192658
4.54625e-06;-0.0013157107163098338
4.54650e-06;-0.0012922199886121347
4.54675e-06;-0.0012662589927150826
4.54700e-06;-0.0012379802451569924
4.54725e-06;-0.0012075603356352276
4.54750e-06;-0.0011751826172938919
4.54775e-06;-0.0011410307548702172
4.54800e-06;-0.0011052883353269546
4.54825e-06;-0.0010681385579869751
4.54850e-06;-0.0010297663659337504
4.54875e-06;-0.000990368605871474
4.54900e-06;-0.0009501633457946034
4.54925e-06;-0.0009093836804101686
4.54950e-06;-0.0008682668635270276
4.54975e-06;-0.000827050440609231
4.55000e-06;-0.0007859718795929203
4.55025e-06;-0.000745268376943518
4.55050e-06;-0.0007051781753823995
4.55075e-06;-0.0006659469233980328
4.55100e-06;-0.0006278336151439119
4.55125e-06;-0.0005911066802167107
4.55150e-06;-0.0005560370555876048
4.55175e-06;-0.0005228958530972946
4.55200e-06;-0.0004919541265023048
4.55225e-06;-0.0004634601749951242
4.55250e-06;-0.0004375141445264887
4.55275e-06;-0.0004140140999735623
4.55300e-06;-0.00039285499604030545
4.55325e-06;-0.00037405843402728864
4.55350e-06;-0.0003577047188707407
4.55375e-06;-0.0003438797748001372
4.55400e-06;-0.00033266951632292545
4.55425e-06;-0.0003241455734296057
4.55450e-06;-0.0003182867621487372
4.55475e-06;-0.00031494530440759355
4.55500e-06;-0.0003139715154997217
4.55525e-06;-0.0003152950273895427
4.55550e-06;-0.0003188822758294635
4.55575e-06;-0.0003247031772423537
4.55600e-06;-0.00033272762854567455
4.55625e-06;-0.00034291664005136913
4.55650e-06;-0.0003551730329005047
4.55675e-06;-0.00036987249198577616
4.55700e-06;-0.0003854579278894601
4.55725e-06;-0.0004031085328148252
4.55750e-06;-0.0004217950109574518
4.55775e-06;-0.0004422709010453981
4.55800e-06;-0.00046364434667919694
4.55825e-06;-0.00048650569822543925
4.55850e-06;-0.0005101133721639054
4.55875e-06;-0.0005347376404822181
4.55900e-06;-0.0005598718248799752
4.55925e-06;-0.0005855640551570176
4.55950e-06;-0.000611536197041285
4.55975e-06;-0.0006376704885444724
4.56000e-06;-0.0006638861130743407
4.56025e-06;-0.0006898519039218345
4.56050e-06;-0.0007156923800772032
4.56075e-06;-0.0007410249321455687
4.56100e-06;-0.0007655823847677624
4.56125e-06;-0.0007888607286446004
4.56150e-06;-0.0008116283932764291
4.56175e-06;-0.0008321210725257451
4.56200e-06;-0.0008514726362526729
4.56225e-06;-0.0008708241999795352
4.56250e-06;-0.0008877128442150885
4.56275e-06;-0.0009033661065956521
4.56300e-06;-0.0009171397306979934
4.56325e-06;-0.0009299705424059172
4.56350e-06;-0.0009428013541138845
4.56375e-06;-0.0009530679431978202
4.56400e-06;-0.0009620483375389022
4.56425e-06;-0.0009710287318799538
4.56450e-06;-0.000977827820393516
4.56475e-06;-0.0009835327823434947
4.56500e-06;-0.0009878890494300985
4.56525e-06;-0.000991568821337726
4.56550e-06;-0.0009939052284256543
4.56575e-06;-0.0009955678138443256
4.56600e-06;-0.0009958385019730998
4.56625e-06;-0.0009954110249113498
4.56650e-06;-0.0009939925086061754
4.56675e-06;-0.000991550169880973
4.56700e-06;-0.0009883855951854405
4.56725e-06;-0.0009845506825477838
4.56750e-06;-0.0009800656557665162
4.56775e-06;-0.0009749477830732037
4.56800e-06;-0.0009692144684350333
4.56825e-06;-0.0009628899966061137
4.56850e-06;-0.0009560416911938893
4.56875e-06;-0.0009487898516909532
4.56900e-06;-0.0009412433174131803
4.56925e-06;-0.0009334645988230076
4.56950e-06;-0.000925496385406838
4.56975e-06;-0.000917379577706559
4.57000e-06;-0.0009091550569438939
4.57025e-06;-0.0009008680264596049
4.57050e-06;-0.0008925907149840485
4.57075e-06;-0.0008844284370873443
4.57100e-06;-0.0008764794463764326
4.57125e-06;-0.0008688128763940611
4.57150e-06;-0.0008614854237477592
4.57175e-06;-0.000854552715517626
4.57200e-06;-0.0008480703206995659
4.57225e-06;-0.0008421060188115435
4.57250e-06;-0.0008367952519775973
4.57275e-06;-0.0008323372300817912
4.57300e-06;-0.0008288701040438488
4.57325e-06;-0.0008267609574645708
4.57350e-06;-0.0008251613818388383
4.57375e-06;-0.0008252143717105736
4.57400e-06;-0.0008260962759810765
4.57425e-06;-0.0008269781802515765
4.57450e-06;-0.000829956542515458
4.57475e-06;-0.000833986472308601
4.57500e-06;-0.0008380164021017303
4.57525e-06;-0.0008442029515445881
4.57550e-06;-0.0008514712451501092
4.57575e-06;-0.0008587395387556057
4.57600e-06;-0.0008678635015946617
4.57625e-06;-0.0008779182541357809
4.57650e-06;-0.0008879730066768659
4.57675e-06;-0.0008997152187345969
4.57700e-06;-0.0009123038477680134
4.57725e-06;-0.0009248924768014299
4.57750e-06;-0.0009386362328949397
4.57775e-06;-0.0009529593920159167
4.57800e-06;-0.000967951481306086
4.57825e-06;-0.000983279100927668
4.57850e-06;-0.0009990997398959323
4.57875e-06;-0.0010151676736527904
4.57900e-06;-0.0010315623487765027
4.57925e-06;-0.0010481209149072004
4.57950e-06;-0.0010647524347989989
4.57975e-06;-0.0010814205477475921
4.58000e-06;-0.0010978971667642274
4.58025e-06;-0.0011142777338678518
4.58050e-06;-0.0011302294553503496
4.58075e-06;-0.0011459660711012883
4.58100e-06;-0.0011610425754825665
4.58125e-06;-0.0011757879729758097
4.58150e-06;-0.0011895871423561446
4.58175e-06;-0.0012029116908465352
4.58200e-06;-0.0012150088950308154
4.58225e-06;-0.0012264904725613186
4.58250e-06;-0.0012368656880856835
4.58275e-06;-0.0012466859607660555
4.58300e-06;-0.0012556826415621005
4.58325e-06;-0.0012642662148761802
4.58350e-06;-0.0012728497881902311
4.58375e-06;-0.00128021772391226
4.58400e-06;-0.0012869759049800873
4.58425e-06;-0.0012937340860478918
4.58450e-06;-0.0012994664307629253
4.58475e-06;-0.001304684223694887
4.58500e-06;-0.0013092804107845692
4.58525e-06;-0.0013135648050686733
4.58550e-06;-0.0013178491993527627
4.58575e-06;-0.001321134866209114
4.58600e-06;-0.0013239195789148848
4.58625e-06;-0.001326704291620646
4.58650e-06;-0.0013294890043264072
4.58675e-06;-0.0013313872047901033
4.58700e-06;-0.001332840737394604
4.58725e-06;-0.0013342942699991046
4.58750e-06;-0.0013357478026036103
4.58775e-06;-0.0013364164761489532
4.58800e-06;-0.0013366914703055305
4.58825e-06;-0.0013369664644621087
4.58850e-06;-0.001337241458618686
4.58875e-06;-0.0013375164527752632
4.58900e-06;-0.0013376535952149373
4.58925e-06;-0.0013370979554670683
4.58950e-06;-0.0013365423157191973
4.58975e-06;-0.0013359866759713283
4.59000e-06;-0.0013354310362234591
4.59025e-06;-0.0013348753964755884
4.59050e-06;-0.0013341028007514636
4.59075e-06;-0.0013332213815448045
4.59100e-06;-0.0013323399623381426
4.59125e-06;-0.0013314871767720457
4.59150e-06;-0.001330648753624248
4.59175e-06;-0.001329841651751142
4.59200e-06;-0.001329075146851721
4.59225e-06;-0.001328297711384135
4.59250e-06;-0.0013271619046423214
4.59275e-06;-0.0013249971769781908
4.59300e-06;-0.001321316851341544
4.59325e-06;-0.0013160395421693686
4.59350e-06;-0.001309245585043772
4.59375e-06;-0.0013010293927907118
4.59400e-06;-0.001291485455764152
4.59425e-06;-0.0012806759740678973
4.59450e-06;-0.0012684748973269273
4.59475e-06;-0.0012545538247165423
4.59500e-06;-0.0012386995708823538
4.59525e-06;-0.0012209527816727254
4.59550e-06;-0.0012014554650144336
4.59575e-06;-0.0011803584951645101
4.59600e-06;-0.0011573869631110875
4.59625e-06;-0.0011337347457601873
4.59650e-06;-0.0011082887652097216
4.59675e-06;-0.0010819430465576223
4.59700e-06;-0.0010541371672927072
4.59725e-06;-0.0010247413462827596
4.59750e-06;-0.0009941815899386084
4.59775e-06;-0.000962643968461772
4.59800e-06;-0.0009301272838245037
4.59825e-06;-0.0008972729300483021
4.59850e-06;-0.0008637339854654616
4.59875e-06;-0.0008298516552935829
4.59900e-06;-0.0007955365255772895
4.59925e-06;-0.0007608695633679082
4.59950e-06;-0.0007261388912279757
4.59975e-06;-0.0006915526597531547
4.60000e-06;-0.0006573189420108462
4.60025e-06;-0.0006236379418623677
4.60050e-06;-0.0005906634502471492
4.60075e-06;-0.0005584996113510629
4.60100e-06;-0.0005272788800674693
4.60125e-06;-0.0004971960726818462
4.60150e-06;-0.0004684708894421712
4.60175e-06;-0.0004413251500839721
4.60200e-06;-0.00041598065489934627
4.60225e-06;-0.000392617319727916
4.60250e-06;-0.0003711576495116884
4.60275e-06;-0.00035121275983842953
4.60300e-06;-0.0003324752899566287
4.60325e-06;-0.0003149255976679313
4.60350e-06;-0.00029866541641312955
4.60375e-06;-0.00028380750409148764
4.60400e-06;-0.0002704645605182203
4.60425e-06;-0.0002587230615701579
4.60450e-06;-0.0002485082318324227
4.60475e-06;-0.0002395502614602839
4.60500e-06;-0.0002316303991273365
4.60525e-06;-0.00022471014920672953
4.60550e-06;-0.00021882707017531215
4.60575e-06;-0.00021402558420018916
4.60600e-06;-0.00021035009403563794
4.60625e-06;-0.00020782855196763267
4.60650e-06;-0.00020638791852982708
4.60675e-06;-0.0002058329873308089
4.60700e-06;-0.00020600056683046347
4.60725e-06;-0.00020706351016561687
4.60750e-06;-0.00020846167273267359
4.60775e-06;-0.00021075459457311365
4.60800e-06;-0.00021349632092129955
4.60825e-06;-0.00021708753993577426
4.60850e-06;-0.00022110485806903904
4.60875e-06;-0.00022565864994140766
4.60900e-06;-0.00023048153299788437
4.60925e-06;-0.00023563577517723118
4.60950e-06;-0.00024095622459517185
4.60975e-06;-0.00024653847606630446
4.61000e-06;-0.00025225204547412144
4.61025e-06;-0.0002581294361963575
4.61050e-06;-0.00026408899845515243
4.61075e-06;-0.0002699467278072432
4.61100e-06;-0.00027575337854081843
4.61125e-06;-0.00028126015132752666
4.61150e-06;-0.00028661650759629346
4.61175e-06;-0.0002916770561333263
4.61200e-06;-0.00029635488225873404
4.61225e-06;-0.00030073231188277395
4.61250e-06;-0.00030531309675710513
4.61275e-06;-0.0003111075663665788
4.61300e-06;-0.00031885300752236263
4.61325e-06;-0.0003288565862627174
4.61350e-06;-0.0003389057470826636
4.61375e-06;-0.0018542329569419063
4.61400e-06;-0.00808690251876984
4.61425e-06;-0.012417417529146985
4.61450e-06;-0.011396795695283485
4.61475e-06;-0.009101827964943809
4.61500e-06;-0.004622785637540944
4.61525e-06;-0.0005122258376033815
4.61550e-06;-2.2197681189176983e-05
4.61575e-06;-0.0014338283521363748
4.61600e-06;-0.004426834529265208
4.61625e-06;-0.007570027369322472
4.61650e-06;-0.007832235695714306
4.61675e-06;-0.005868024049973825
4.61700e-06;-0.0034320502107899453
4.61725e-06;-0.0009750358280739165
4.61750e-06;0.00013818933713837932
4.61775e-06;-0.0009621529532123174
4.61800e-06;-0.002050788681140155
4.61825e-06;-0.0033615495066897007
4.61850e-06;-0.0041110624076290915
4.61875e-06;-0.0035414729542518598
4.61900e-06;-0.0024208639915959266
4.61925e-06;-0.0012321450371341892
4.61950e-06;-0.0005586869511205692
4.61975e-06;-0.0008106231286777577
4.62000e-06;-0.0015351903063349852
4.62025e-06;-0.0024449642177964805
4.62050e-06;-0.002937765525841519
4.62075e-06;-0.002602289562036145
4.62100e-06;-0.0019196392277567725
4.62125e-06;-0.00119224407716341
4.62150e-06;-0.0007854270058073084
4.62175e-06;-0.0009559623169144076
4.62200e-06;-0.00142010421033591
4.62225e-06;-0.001997755303244586
4.62250e-06;-0.002311999181557781
4.62275e-06;-0.00210589947328077
4.62300e-06;-0.001681441360742035
4.62325e-06;-0.0012283010383453948
4.62350e-06;-0.0009753636883063994
4.62375e-06;-0.0010834892386398364
4.62400e-06;-0.0013749559509106783
4.62425e-06;-0.001736979298053023
4.62450e-06;-0.0019335023902364537
4.62475e-06;-0.0018036406087869297
4.62500e-06;-0.0015366151550192729
4.62525e-06;-0.0012512820723842729
4.62550e-06;-0.0010910451146888091
4.62575e-06;-0.0011566855096440498
4.62600e-06;-0.0013368971140863897
4.62625e-06;-0.0015610582778912948
4.62650e-06;-0.0016813393151743725
4.62675e-06;-0.0015970093574781458
4.62700e-06;-0.0014266421265599321
4.62725e-06;-0.0012447255891809357
4.62750e-06;-0.0011411166660409238
4.62775e-06;-0.001178966268739282
4.62800e-06;-0.0012885742701256896
4.62825e-06;-0.0014257301316732273
4.62850e-06;-0.0014978664837050173
4.62875e-06;-0.0014419257266966418
4.62900e-06;-0.0013322214055163924
4.62925e-06;-0.0012154463279236685
4.62950e-06;-0.0011479155752021875
4.62975e-06;-0.001169211175487085
4.63000e-06;-0.001235697616712157
4.63025e-06;-0.0013197091311536705
4.63050e-06;-0.0013632931289143024
4.63075e-06;-0.001326986196514843
4.63100e-06;-0.0012573739370185005
4.63125e-06;-0.0011837366715521797
4.63150e-06;-0.0011413790951014123
4.63175e-06;-0.0011551216289011693
4.63200e-06;-0.001197657343542969
4.63225e-06;-0.001251682397699066
4.63250e-06;-0.0012809077155336527
4.63275e-06;-0.0012606003069860806
4.63300e-06;-0.0012199123858263894
4.63325e-06;-0.0011771560788789604
4.63350e-06;-0.001154418922707698
4.63375e-06;-0.001167219583178503
4.63400e-06;-0.0011984243984766811
4.63425e-06;-0.0012371667985215263
4.63450e-06;-0.0012606893772626499
4.63475e-06;-0.001253475429209992
4.63500e-06;-0.0012337615027207896
4.63525e-06;-0.0012129925984825094
4.63550e-06;-0.0012049774462281988
4.63575e-06;-0.0012194090970384318
4.63600e-06;-0.0012455271122805154
4.63625e-06;-0.0012764976467367225
4.63650e-06;-0.0012980394230078928
4.63675e-06;-0.0013004077334874981
4.63700e-06;-0.0012950008435364834
4.63725e-06;-0.001288961850386283
4.63750e-06;-0.0012909139734151706
4.63775e-06;-0.001306901562133095
4.63800e-06;-0.0013301569526260988
4.63825e-06;-0.0013563725871116343
4.63850e-06;-0.0013765764020714681
4.63875e-06;-0.0013846389008733487
4.63900e-06;-0.0013876743142862756
4.63925e-06;-0.001390130983895957
4.63950e-06;-0.0013973838838081695
4.63975e-06;-0.0014131922403573304
4.64000e-06;-0.0014332898283508876
4.64025e-06;-0.0014549516916644608
4.64050e-06;-0.001472531455242157
4.64075e-06;-0.001482163811702265
4.64100e-06;-0.001488279238425257
4.64125e-06;-0.0014936379727045015
4.64150e-06;-0.001501580356897823
4.64175e-06;-0.0015144343673547543
4.64200e-06;-0.0015295010558057196
4.64225e-06;-0.0015450658043680806
4.64250e-06;-0.0015576797323551958
4.64275e-06;-0.0015651219032389284
