Time(s);Current(A)
1.10000e-05;0.0011877648557276725
1.10003e-05;0.001181602209585795
1.10005e-05;0.0011754395634438759
1.10008e-05;0.0011712975425076243
1.10010e-05;0.0011683471866737382
1.10013e-05;0.001165396830839832
1.10015e-05;0.001162446475005926
1.10018e-05;0.0011594961191720397
1.10020e-05;0.0011565457633381337
1.10023e-05;0.0011535954075042275
1.10025e-05;0.0011506450516703415
1.10028e-05;0.0011476946958364352
1.10030e-05;0.0011447443400025292
1.10033e-05;0.001141793984168643
1.10035e-05;0.0011398255049151571
1.10038e-05;0.0011384360880491527
1.10040e-05;0.0011370466711831577
1.10043e-05;0.0011356572543171533
1.10045e-05;0.0011342678374511488
1.10047e-05;0.0011328784205851537
1.10050e-05;0.0011314890037191492
1.10053e-05;0.0011300995868531447
1.10055e-05;0.0011287101699871496
1.10058e-05;0.001127320753121145
1.10060e-05;0.0011259313362551406
1.10062e-05;0.001126015036050579
1.10065e-05;0.0011269675074086641
1.10068e-05;0.001127919978766749
1.10070e-05;0.0011318077723765515
1.10073e-05;0.001137426674299825
1.10075e-05;0.0011430455762231366
1.10078e-05;0.0011513196031130333
1.10080e-05;0.0011611594917750663
1.10083e-05;0.0011709993804371662
1.10085e-05;0.0011841352425302817
1.10088e-05;0.0011992149072174952
1.10090e-05;0.001214294571904811
1.10093e-05;0.0012326541729452845
1.10095e-05;0.0012529481187021983
1.10098e-05;0.0012732420644592497
1.10100e-05;0.0012978671754514612
1.10103e-05;0.0013250465941151706
1.10105e-05;0.0013522260127790638
1.10108e-05;0.0013794054314429573
1.10110e-05;0.0014065848501066665
1.10113e-05;0.00143376426877056
1.10115e-05;0.0014609436874344535
1.10118e-05;0.0014918217500141976
1.10120e-05;0.001524881090383686
1.10123e-05;0.0015579404307531745
1.10125e-05;0.001590999771122439
1.10128e-05;0.0016240591114919276
1.10130e-05;0.001657118451861416
1.10132e-05;0.0016901777922306805
1.10135e-05;0.0017222642284017648
1.10138e-05;0.0017537768936536557
1.10140e-05;0.0017852895589053328
1.10143e-05;0.0018168022241572238
1.10145e-05;0.0018483148894091145
1.10147e-05;0.0018798275546607918
1.10150e-05;0.0019113402199126826
1.10153e-05;0.0019414503158526415
1.10155e-05;0.0019620928323663073
1.10158e-05;0.001982735348879833
1.10160e-05;0.0020033778653934984
1.10163e-05;0.002024020381907164
1.10165e-05;0.0020446628984206894
1.10168e-05;0.002065305414934355
1.10170e-05;0.0020859479314480206
1.10173e-05;0.002095413782289249
1.10175e-05;0.00209828818687336
1.10178e-05;0.0021011625914574704
1.10180e-05;0.002104036996041562
1.10183e-05;0.0021069114006256728
1.10185e-05;0.0021097858052097833
1.10188e-05;0.0021126602097938747
1.10190e-05;0.002115534614377985
1.10193e-05;0.002118409018962096
1.10195e-05;0.0021190734953529166
1.10198e-05;0.002104820583687959
1.10200e-05;0.002090567672023001
1.10203e-05;0.0020763147603581394
1.10205e-05;0.0020620618486931813
1.10208e-05;0.002047808937028223
1.10210e-05;0.0020335560253633618
1.10213e-05;0.002019303113698404
1.10215e-05;0.002005050202033446
1.10217e-05;0.0019907972903685845
1.10220e-05;0.001971319375160519
1.10223e-05;0.0019487600105237799
1.10225e-05;0.0019262006458871936
1.10228e-05;0.0019036412812504545
1.10230e-05;0.0018810819166137154
1.10232e-05;0.0018585225519771292
1.10235e-05;0.00183596318734039
1.10238e-05;0.0018135294023104566
1.10240e-05;0.0017919433008082766
1.10243e-05;0.0017703571993062427
1.10245e-05;0.0017487710978040627
1.10248e-05;0.0017271849963018825
1.10250e-05;0.0017055988947998488
1.10253e-05;0.0016840127932976686
1.10255e-05;0.0016624266917954886
1.10258e-05;0.0016508049154640978
1.10260e-05;0.001645059606747431
1.10263e-05;0.0016393142980307644
1.10265e-05;0.0016335689893141364
1.10268e-05;0.0016278236805974697
1.10270e-05;0.001622078371880803
1.10273e-05;0.0016163330631641752
1.10275e-05;0.0016105877544475085
1.10278e-05;0.0016048424457308418
1.10280e-05;0.001599097137014214
1.10283e-05;0.0015933518282975473
1.10285e-05;0.0015912837347324329
1.10288e-05;0.0016140374636908813
1.10290e-05;0.0016367911926494837
1.10293e-05;0.001659544921608086
1.10295e-05;0.0016822986505665343
1.10298e-05;0.0017050523795251367
1.10300e-05;0.0017278061084837393
1.10302e-05;0.0017505598374421875
1.10305e-05;0.0017733135664007899
1.10308e-05;0.0017960672953593923
1.10310e-05;0.0018188210243178405
1.10313e-05;0.001841574753276443
1.10315e-05;0.001874230386017052
1.10317e-05;0.0019127256733159474
1.10320e-05;0.0019512209606151036
1.10323e-05;0.0019897162479142597
1.10325e-05;0.002028211535213416
1.10328e-05;0.0020667068225123115
1.10330e-05;0.0021052021098114677
1.10333e-05;0.0021443229582191457
1.10335e-05;0.002183812731720121
1.10338e-05;0.0022233025052213642
1.10340e-05;0.002262792278722607
1.10343e-05;0.0023022820522235823
1.10345e-05;0.002341771825724825
1.10348e-05;0.002381261599226068
1.10350e-05;0.0024107863965673764
1.10353e-05;0.0024344343423714928
1.10355e-05;0.0024580822881756087
1.10358e-05;0.002481730233979565
1.10360e-05;0.002505378179783681
1.10363e-05;0.0025290261255877973
1.10365e-05;0.0025526740713917536
1.10368e-05;0.0025763220171958695
1.10370e-05;0.002599969962999986
1.10373e-05;0.002623617908803942
1.10375e-05;0.002647265854608058
1.10378e-05;0.0026709138004121745
1.10380e-05;0.0026945617462161304
1.10383e-05;0.002704387094121586
1.10385e-05;0.002706060555417825
1.10387e-05;0.0027077340167140527
1.10390e-05;0.002709407478010292
1.10393e-05;0.0027110809393065313
1.10395e-05;0.0027127544006027592
1.10398e-05;0.002714427861898998
1.10400e-05;0.0027161013231952373
1.10402e-05;0.0027177747844914653
1.10405e-05;0.0027194482457877046
1.10408e-05;0.0027211217070839434
1.10410e-05;0.0027227951683801827
1.10413e-05;0.0027244686296764107
1.10415e-05;0.002719207553929203
1.10418e-05;0.0027098568301951753
1.10420e-05;0.002700506106461211
1.10423e-05;0.002691155382727184
1.10425e-05;0.0026818046589931564
1.10428e-05;0.002672453935259192
1.10430e-05;0.0026631032115251646
1.10433e-05;0.002653752487791137
1.10435e-05;0.002644401764057173
1.10438e-05;0.0026349633556022466
1.10440e-05;0.0026249330604906154
1.10443e-05;0.0026149027653790523
1.10445e-05;0.002604872470267421
1.10448e-05;0.00259484217515579
1.10450e-05;0.002584811880044227
1.10453e-05;0.002574781584932596
1.10455e-05;0.002564751289820965
1.10458e-05;0.0025547209947094016
1.10460e-05;0.002544690699597771
1.10463e-05;0.002538080725024529
1.10465e-05;0.002533487886839645
1.10468e-05;0.00252889504865473
1.10470e-05;0.0025243022104698156
1.10472e-05;0.0025248154208449072
1.10475e-05;0.0025265790507462004
1.10478e-05;0.0025283426806474935
1.10480e-05;0.0025301063105487745
1.10483e-05;0.0014144903627106608
1.10485e-05;-0.00438609816195165
1.10487e-05;-0.009072904820088476
1.10490e-05;-0.008527649657155021
1.10493e-05;-0.006390969987311381
1.10495e-05;-0.002090856773268762
1.10498e-05;0.002157060760190943
1.10500e-05;0.003114067683777079
1.10503e-05;0.001964926844750515
1.10505e-05;-0.0008142431683448158
1.10508e-05;-0.003940881897499993
1.10510e-05;-0.004433413100855908
1.10513e-05;-0.0026754602010400533
1.10515e-05;-0.00022756668771039428
1.10518e-05;0.002307654006644165
1.10520e-05;0.0035439629347140712
1.10523e-05;0.0027808562220164737
1.10525e-05;0.0013252958030017178
1.10528e-05;1.3027494817021486e-05
1.10530e-05;-0.0004033879712536948
1.10533e-05;0.0004055946560530092
1.10535e-05;0.0017403274221903038
1.10538e-05;0.002937285128137592
1.10540e-05;0.003526063510657801
1.10543e-05;0.003215684064942099
1.10545e-05;0.002418200892715778
1.10548e-05;0.0016405354155917846
1.10550e-05;0.0013822150402670007
1.10553e-05;0.0018905685305636627
1.10555e-05;0.002727156078530436
1.10557e-05;0.0034762092617009266
1.10560e-05;0.003843037346136011
1.10563e-05;0.0036457384766264843
1.10565e-05;0.003143343565984914
1.10568e-05;0.0026542600501177297
1.10570e-05;0.0024916452748141964
1.10572e-05;0.002810330413772629
1.10575e-05;0.0033355756424798535
1.10578e-05;0.003806868997192142
1.10580e-05;0.004039563088017817
1.10583e-05;0.003919676841149785
1.10585e-05;0.0036094279781776492
1.10588e-05;0.003308212217512177
1.10590e-05;0.0032121190498999824
1.10593e-05;0.0034180510160353953
1.10595e-05;0.0037538321005072747
1.10598e-05;0.004056214095182487
1.10600e-05;0.004209484057900708
1.10603e-05;0.004142203658916217
1.10605e-05;0.003955943620010269
1.10608e-05;0.0037755533781169987
1.10610e-05;0.0037238008607815747
1.10613e-05;0.0038613145972960002
1.10615e-05;0.0040801755081663026
1.10618e-05;0.004278067017462422
1.10620e-05;0.004382456576575537
1.10623e-05;0.0043485503356105
1.10625e-05;0.004239926988449268
1.10628e-05;0.004134740684204233
1.10630e-05;0.004109834372661807
1.10633e-05;0.004203122015423548
1.10635e-05;0.004346941235011328
1.10638e-05;0.004477144986335721
1.10640e-05;0.004548248193329629
1.10642e-05;0.0045321448937235415
1.10645e-05;0.004468612288065495
1.10648e-05;0.004406553989208856
1.10650e-05;0.004394048380673212
1.10653e-05;0.004454785301745039
1.10655e-05;0.0045463220900749815
1.10657e-05;0.004628422442049321
1.10660e-05;0.004672461585259306
1.10663e-05;0.004660287445266899
1.10665e-05;0.004615695013064093
1.10668e-05;0.004568338323774918
1.10670e-05;0.004548126958089384
1.10673e-05;0.004570098197743223
1.10675e-05;0.0046046224627512905
1.10678e-05;0.004630703918622842
1.10680e-05;0.004638227334260184
1.10683e-05;0.0046019286894962
1.10685e-05;0.004543890966293842
1.10688e-05;0.0044814860673670145
1.10690e-05;0.004430956848378167
1.10693e-05;0.00440697888658579
1.10695e-05;0.004388897527536785
1.10698e-05;0.0043640794107379565
1.10700e-05;0.004323415929054415
1.10703e-05;0.004254602599491871
1.10705e-05;0.004180346896352847
1.10708e-05;0.004096422625186522
1.10710e-05;0.004021457335635891
1.10713e-05;0.003962407991946014
1.10715e-05;0.003902818695967464
1.10718e-05;0.0038422701557627005
1.10720e-05;0.003772240249600742
1.10723e-05;0.0036853663634252884
1.10725e-05;0.003595844958435566
1.10727e-05;0.003501620143179311
1.10730e-05;0.003414084480598568
1.10733e-05;0.0033384323329552997
1.10735e-05;0.0032638345136430445
1.10738e-05;0.0031911097456824365
1.10740e-05;0.0031141549601333787
1.10742e-05;0.003029685399600189
1.10745e-05;0.0029455832145866556
1.10748e-05;0.0028621336851027412
1.10750e-05;0.0027861838936037637
1.10753e-05;0.002723557650345248
1.10755e-05;0.002660931407086732
1.10758e-05;0.0026008673306563614
1.10760e-05;0.0025453550336895295
1.10763e-05;0.002491304901355561
1.10765e-05;0.0024398523559064234
1.10768e-05;0.0023883998104576344
1.10770e-05;0.0023433026267097685
1.10773e-05;0.002309495966497192
1.10775e-05;0.0022791320786358167
1.10778e-05;0.0022548843969137718
1.10780e-05;0.0022319034102203494
1.10783e-05;0.0022111727517861585
1.10785e-05;0.0021928696564502115
1.10788e-05;0.0021788792123189683
1.10790e-05;0.0021700188739692036
1.10793e-05;0.0021702723489299292
1.10795e-05;0.002170525823890655
1.10798e-05;0.002173546718547443
1.10800e-05;0.002181484031604952
1.10803e-05;0.002191273945365531
1.10805e-05;0.002204355069417848
1.10808e-05;0.0022174361934702534
1.10810e-05;0.002235023897805189
1.10812e-05;0.0022606177004765565
1.10815e-05;0.002286211503148097
1.10818e-05;0.0023118053058196384
1.10820e-05;0.0023373991084910057
1.10823e-05;0.0023629929111625464
1.10825e-05;0.0023946218154844655
1.10827e-05;0.002427231863770184
1.10830e-05;0.0024598419120561233
1.10833e-05;0.002492451960342063
1.10835e-05;0.0025250620086277814
1.10838e-05;0.002557220403533733
1.10840e-05;0.0025885764203285736
1.10843e-05;0.002619932437123414
1.10845e-05;0.002651288453918042
1.10848e-05;0.0026826444707128824
1.10850e-05;0.002714000487507723
1.10853e-05;0.002745356504302351
1.10855e-05;0.0027767125210971916
1.10858e-05;0.0027962551680877305
1.10860e-05;0.0028138772813154555
1.10863e-05;0.0028314993945433
1.10865e-05;0.0028491215077711437
1.10868e-05;0.002866743620998869
1.10870e-05;0.002884365734226713
1.10873e-05;0.002901987847454557
1.10875e-05;0.002911601706611636
1.10878e-05;0.002906988620814671
1.10880e-05;0.002902375535017706
1.10883e-05;0.002897762449220772
1.10885e-05;0.002893149363423807
1.10888e-05;0.002888536277626842
1.10890e-05;0.002883923191829908
1.10893e-05;0.002879310106032943
1.10895e-05;0.0028746970202359777
1.10897e-05;0.0028700839344390438
1.10900e-05;0.002847749866361217
1.10903e-05;0.0028225348468402384
1.10905e-05;0.002797319827319431
1.10908e-05;0.0027721048077984528
1.10910e-05;0.0027468897882774743
1.10912e-05;0.002721674768756667
1.10915e-05;0.0026964597492356887
1.10918e-05;0.0026712447297147102
1.10920e-05;0.0026460297101939026
1.10923e-05;0.00261767910029138
1.10925e-05;0.002583758003817448
1.10928e-05;0.0025498369073435156
1.10930e-05;0.002515915810869813
1.10933e-05;0.002481994714395881
1.10935e-05;0.0024480736179219487
1.10938e-05;0.0024141525214482463
1.10940e-05;0.002381225137002493
1.10943e-05;0.0023500631169173793
1.10945e-05;0.0023189010968324773
1.10948e-05;0.0022877390767473637
1.10950e-05;0.0022565770566622505
1.10953e-05;0.002225415036577348
1.10955e-05;0.002194253016492235
1.10958e-05;0.0021671799093856275
1.10960e-05;0.0021473708999671607
1.10963e-05;0.00212756189054856
1.10965e-05;0.0021077528811299586
1.10968e-05;0.0020879438717114917
1.10970e-05;0.002068134862292891
1.10973e-05;0.0020483258528742896
1.10975e-05;0.0020285168434558227
1.10978e-05;0.0020087078340372214
1.10980e-05;0.0019888988246186206
1.10983e-05;0.0019690898152001537
1.10985e-05;0.001956648521629367
1.10988e-05;0.0019454050189755864
1.10990e-05;0.0019341615163218822
1.10993e-05;0.0019229180136681018
1.10995e-05;0.0019116745110143213
1.10997e-05;0.001900431008360617
1.11000e-05;0.0018891875057068367
1.11003e-05;0.0018779440030530562
1.11005e-05;0.001866700500399352
1.11008e-05;0.0018554569977455716
1.11010e-05;0.0018459273988850411
1.11013e-05;0.0018394426103812047
1.11015e-05;0.0018329578218774121
1.11018e-05;0.0018264730333735755
1.11020e-05;0.001819988244869739
1.11023e-05;0.0018135034563659465
1.11025e-05;0.00180701866786211
1.11028e-05;0.0018005338793582735
1.11030e-05;0.0017940490908544809
1.11033e-05;0.0017875643023506445
1.11035e-05;0.001781079513846808
1.11038e-05;0.001775557177393757
1.11040e-05;0.001771744670852822
1.11043e-05;0.0017679321643118873
1.11045e-05;0.0017641196577709785
1.11048e-05;0.0017603071512300437
1.11050e-05;0.001756494644689109
1.11053e-05;0.0017526821381482
1.11055e-05;0.001748869631607265
1.11058e-05;0.0017450571250663303
1.11060e-05;0.0017412446185254213
1.11063e-05;0.0017374321119844865
1.11065e-05;0.0017383463205870508
1.11068e-05;0.001747657704854421
1.11070e-05;0.0017569690891218546
1.11073e-05;0.001766280473389288
1.11075e-05;0.0017755918576566583
1.11078e-05;0.0017849032419240917
1.11080e-05;0.0017942146261915252
1.11082e-05;0.0018035260104588956
1.11085e-05;0.001812837394726329
1.11088e-05;0.0018221487789937625
1.11090e-05;0.0018314601632611327
1.11093e-05;0.0018482066575235276
1.11095e-05;0.0018781618861448556
1.11098e-05;0.0019081171147661835
1.11100e-05;0.0019380723433873083
1.11103e-05;0.0019680275720086364
1.11105e-05;0.001997982800629964
1.11108e-05;0.002027938029251089
1.11110e-05;0.002057893257872417
1.11113e-05;0.002087848486493745
1.11115e-05;0.00211780371511487
1.11118e-05;0.0021477589437361977
1.11120e-05;0.0021810309611391483
1.11123e-05;0.00222019537044638
1.11125e-05;0.0022593597797538768
1.11128e-05;0.002298524189061374
1.11130e-05;0.002337688598368605
1.11133e-05;0.002376853007676102
1.11135e-05;0.002416017416983599
1.11138e-05;0.0024540399517290652
1.11140e-05;0.002490033906161927
1.11143e-05;0.0025260278605947896
1.11145e-05;0.002562021815027408
1.11148e-05;0.0025980157694602698
1.11150e-05;0.002634009723893132
1.11153e-05;0.0026700036783257504
1.11155e-05;0.0026988432280084964
1.11158e-05;0.0027149727260680563
1.11160e-05;0.002731102224127507
1.11163e-05;0.0027472317221870672
1.11165e-05;0.002763361220246627
1.11167e-05;0.0027794907183060777
1.11170e-05;0.0027956202163656376
1.11173e-05;0.002811749714425198
1.11175e-05;0.0028278792124846485
1.11178e-05;0.0028440087105442084
1.11180e-05;0.0028601382086037687
1.11183e-05;0.0028762677066633286
1.11185e-05;0.0028820155828681196
1.11188e-05;0.0028693201427769125
1.11190e-05;0.002856624702685705
1.11193e-05;0.0028439292625945843
1.11195e-05;0.0028312338225033773
1.11198e-05;0.0028185383824121703
1.11200e-05;0.002805842942321049
1.11203e-05;0.002793147502229842
1.11205e-05;0.002780452062138635
1.11208e-05;0.002767756622047514
1.11210e-05;0.002755061181956307
1.11213e-05;0.0027423657418651
1.11215e-05;0.0027242609481143315
1.11218e-05;0.0026965462473658086
1.11220e-05;0.0026688315466172853
1.11223e-05;0.00264111684586895
1.11225e-05;0.002613402145120427
1.11228e-05;0.002585687444371904
1.11230e-05;0.0025579727436235685
1.11233e-05;0.0025302580428750456
1.11235e-05;0.002501634134557942
1.11238e-05;0.0024728624137315114
1.11240e-05;0.0024440906929048857
1.11243e-05;0.0024153189720782595
1.11245e-05;0.002386547251251829
1.11248e-05;0.002357775530425203
1.11250e-05;0.002329003809598577
1.11252e-05;0.002305352729295208
1.11255e-05;0.0022907986469508355
1.11258e-05;0.0022762445646064625
1.11260e-05;0.002261690482262188
1.11263e-05;0.002247136399917815
1.11265e-05;0.0022325823175734423
1.11268e-05;0.0022180282352290692
1.11270e-05;0.0022034741528847946
1.11273e-05;0.002188920070540422
1.11275e-05;0.002174365988196049
1.11278e-05;0.0021598119058517744
1.11280e-05;0.0021452578235074014
1.11283e-05;0.002130703741163029
1.11285e-05;0.0021242842015854434
1.11288e-05;0.0021323159632890346
1.11290e-05;0.002140347724992626
1.11293e-05;0.0021483794866961627
1.11295e-05;0.0021564112483997543
1.11298e-05;0.0021644430101033455
1.11300e-05;0.0021724747718068825
1.11303e-05;0.0021805065335104737
1.11305e-05;0.002188538295214065
1.11308e-05;0.002196570056917602
1.11310e-05;0.002204601818621193
1.11313e-05;0.002212633580324784
1.11315e-05;0.002220665342028321
1.11318e-05;0.0022326777905771924
1.11320e-05;0.002251762069290447
1.11323e-05;0.002270846348003572
1.11325e-05;0.0022899306267168264
1.11328e-05;0.0023090149054300806
1.11330e-05;0.0023280991841432056
1.11333e-05;0.0023471834628564603
1.11335e-05;0.0023662677415697145
1.11337e-05;0.0023853520202828395
1.11340e-05;0.002403261692721585
1.11343e-05;0.002420980406013889
1.11345e-05;0.002438699119306073
1.11348e-05;0.002456417832598377
1.11350e-05;0.0024741365458906817
1.11353e-05;0.0024918552591829857
1.11355e-05;0.00250957397247517
1.11358e-05;0.002527292685767474
1.11360e-05;0.0025404667625368764
1.11363e-05;0.0025455671327066793
1.11365e-05;0.002550667502876517
1.11368e-05;0.0025557678730463544
1.11370e-05;0.0025608682432161573
1.11373e-05;0.002565968613385995
1.11375e-05;0.002571068983555832
1.11378e-05;0.0025761693537256353
1.11380e-05;0.0025812697238954724
1.11383e-05;0.00258637009406531
1.11385e-05;0.002591470464235113
1.11388e-05;0.0025965708344049504
1.11390e-05;0.002601671204574788
1.11393e-05;0.002601418237473152
1.11395e-05;0.002591654878452611
1.11398e-05;0.0025818915194320705
1.11400e-05;0.002572128160411596
1.11403e-05;0.0025623648013910548
1.11405e-05;0.002552601442370514
1.11408e-05;0.0025428380833500395
1.11410e-05;0.0025330747243294985
1.11413e-05;0.0025233113653089574
1.11415e-05;0.0025135480062884828
1.11418e-05;0.002503784647267942
1.11420e-05;0.002494021288247401
1.11422e-05;0.0024842579292269264
1.11425e-05;0.002472584940246712
1.11428e-05;0.0024575194264885164
1.11430e-05;0.0024424539127304227
1.11433e-05;0.0024273883989722267
1.11435e-05;0.002412322885214031
1.11438e-05;0.002397257371455835
1.11440e-05;0.0023821918576977415
1.11443e-05;0.002367126343939546
1.11445e-05;0.00235206083018135
1.11448e-05;0.0023384704462080567
1.11450e-05;0.0023275006821724476
1.11453e-05;0.0023165309181368385
1.11455e-05;0.002305561154101304
1.11458e-05;0.002294591390065695
1.11460e-05;0.002283621626030086
1.11463e-05;0.0022726518619945514
1.11465e-05;0.0022616820979589423
1.11468e-05;0.002250712333923333
1.11470e-05;0.002244423952205686
1.11473e-05;0.0022464522108040577
1.11475e-05;0.002248480469402429
1.11478e-05;0.002250508728000787
1.11480e-05;0.0022525369865991586
1.11483e-05;0.00225456524519753
1.11485e-05;0.0022565935037958877
