Time(s);Current(A)
8.05000e-06;0.008875807764060939
8.05025e-06;0.008860261163324981
8.05050e-06;0.008843216878142863
8.05075e-06;0.008824503025736936
8.05100e-06;0.00880434046942143
8.05125e-06;0.008782615403921154
8.05150e-06;0.008760638985127953
8.05175e-06;0.008737730097442034
8.05200e-06;0.008713824445948344
8.05225e-06;0.008688155385075627
8.05250e-06;0.008659139295239808
8.05275e-06;0.008629552108367048
8.05300e-06;0.008596550705073251
8.05325e-06;0.008562909005371704
8.05350e-06;0.008526330956683228
8.05375e-06;0.008489202230041891
8.05400e-06;0.008452073503400553
8.05425e-06;0.008410982502858023
8.05450e-06;0.00836914842412887
8.05475e-06;0.008327314345399718
8.05500e-06;0.008282430332672843
8.05525e-06;0.00823697434045101
8.05550e-06;0.008190295316069268
8.05575e-06;0.00814338692629264
8.05600e-06;0.00809582525931839
8.05625e-06;0.00804814107783679
8.05650e-06;0.007999764798964618
8.05675e-06;0.00795125872531092
8.05700e-06;0.007902956163581231
8.05725e-06;0.007854691768135972
8.05750e-06;0.007807741181363577
8.05775e-06;0.007761036984061116
8.05800e-06;0.007716448291248393
8.05825e-06;0.007672256336590958
8.05850e-06;0.007630600438520237
8.05875e-06;0.007589420148238744
8.05900e-06;0.007550753759584694
8.05925e-06;0.007517042098699172
8.05950e-06;0.007484171223648771
8.05975e-06;0.007451300348598147
8.06000e-06;0.00742329402285747
8.06025e-06;0.0073977073079731425
8.06050e-06;0.007373855109649165
8.06075e-06;0.0073502751862131194
8.06100e-06;0.007329023886208051
8.06125e-06;0.007308209292326824
8.06150e-06;0.007290415811390444
8.06175e-06;0.007273188904897138
8.06200e-06;0.007258312972855442
8.06225e-06;0.007244860599268258
8.06250e-06;0.007232553017908095
8.06275e-06;0.0072204255681721785
8.06300e-06;0.007209814066602204
8.06325e-06;0.0071994868634029366
8.06350e-06;0.007191096160467023
8.06375e-06;0.0071830686255351245
8.06400e-06;0.00717653900110353
8.06425e-06;0.007170918081480541
8.06450e-06;0.007166028373082872
8.06475e-06;0.0071612537150734625
8.06500e-06;0.007157725551260062
8.06525e-06;0.007154431152872789
8.06550e-06;0.007151136754485516
8.06575e-06;0.007149383269439242
8.06600e-06;0.007147918764690654
8.06625e-06;0.007147249877849154
8.06650e-06;0.00714673019985252
8.06675e-06;0.0071467063616013305
8.06700e-06;0.007146775512302496
8.06725e-06;0.007147654985529526
8.06750e-06;0.007148686425280915
8.06775e-06;0.007149717865032304
8.06800e-06;0.007151554725769958
8.06825e-06;0.007153542633805482
8.06850e-06;0.007155846985237263
8.06875e-06;0.007158210681931637
8.06900e-06;0.0071605743786259946
8.06925e-06;0.007163199229349997
8.06950e-06;0.007166036179699443
8.06975e-06;0.007169100175613635
8.07000e-06;0.007172622938654161
8.07025e-06;0.007177083186325376
8.07050e-06;0.007182832939416947
8.07075e-06;0.007189934629388449
8.07100e-06;0.007198343015480163
8.07125e-06;0.007208497592421685
8.07150e-06;0.007218941210942779
8.07175e-06;0.007230837841861413
8.07200e-06;0.007244042173444999
8.07225e-06;0.007258688381583996
8.07250e-06;0.007275576062576424
8.07275e-06;0.007292840221972598
8.07300e-06;0.007311967554599708
8.07325e-06;0.007332564991615623
8.07350e-06;0.007354872471693572
8.07375e-06;0.0073774612350795835
8.07400e-06;0.007401955913121666
8.07425e-06;0.007426808023194468
8.07450e-06;0.007453631728554066
8.07475e-06;0.007480825183579619
8.07500e-06;0.007509616736574476
8.07525e-06;0.0075387079941764525
8.07550e-06;0.007568925625577313
8.07575e-06;0.007599354495226875
8.07600e-06;0.0076305697678892255
8.07625e-06;0.007661932521250689
8.07650e-06;0.007693879342070047
8.07675e-06;0.007725935697918955
8.07700e-06;0.007758098123084693
8.07725e-06;0.007790280440311818
8.07750e-06;0.007822030637808059
8.07775e-06;0.00785369979629657
8.07800e-06;0.007884479227317857
8.07825e-06;0.00791509180034526
8.07850e-06;0.007944823664738506
8.07875e-06;0.007973635133294082
8.07900e-06;0.008001403084145445
8.07925e-06;0.008027956496956864
8.07950e-06;0.008052455193326783
8.07975e-06;0.008076605319008974
8.08000e-06;0.008097987839374656
8.08025e-06;0.008118851327691192
8.08050e-06;0.008136266484872048
8.08075e-06;0.008153034947828
8.08100e-06;0.008169803410783952
8.08125e-06;0.008182564218118075
8.08150e-06;0.008194573436453228
8.08175e-06;0.008205041850063155
8.08200e-06;0.008212546819898385
8.08225e-06;0.008220051789733666
8.08250e-06;0.008224357897192676
8.08275e-06;0.008228064095378344
8.08300e-06;0.008229750467127952
8.08325e-06;0.008229746784150406
8.08350e-06;0.008228213378449834
8.08375e-06;0.008225182846316344
8.08400e-06;0.008220715232661751
8.08425e-06;0.00821491258964411
8.08450e-06;0.008207886234743573
8.08475e-06;0.008199729889003415
8.08500e-06;0.008190523695511081
8.08525e-06;0.008180349022348057
8.08550e-06;0.008169287825900966
8.08575e-06;0.008157422062556378
8.08600e-06;0.008144848589381306
8.08625e-06;0.008131693722266464
8.08650e-06;0.00811808877769495
8.08675e-06;0.008104152524208524
8.08700e-06;0.008089996671650808
8.08725e-06;0.008075732831654612
8.08750e-06;0.00806147354717532
8.08775e-06;0.00804733150824427
8.08800e-06;0.008033428031602768
8.08825e-06;0.008019904089496464
8.08850e-06;0.008006901684185233
8.08875e-06;0.007994556886976164
8.08900e-06;0.007983000818410978
8.08925e-06;0.00797236386364996
8.08950e-06;0.007962778760592645
8.08975e-06;0.00795436221919422
8.09000e-06;0.007947026309500558
8.09025e-06;0.007940399833861274
8.09050e-06;0.007934189470683922
8.09075e-06;0.007928363547307636
8.09100e-06;0.007922995489216307
8.09125e-06;0.00791816926251792
8.09150e-06;0.007913970254736793
8.09175e-06;0.007910472383854802
8.09200e-06;0.007907624235035604
8.09225e-06;0.007905194453206183
8.09250e-06;0.007903002261171842
8.09275e-06;0.007901029321825303
8.09300e-06;0.007899463756556669
8.09325e-06;0.007897968052501831
8.09350e-06;0.007897119743796583
8.09375e-06;0.007896392846527094
8.09400e-06;0.007896176885744888
8.09425e-06;0.007896302214235634
8.09450e-06;0.007896473577589361
8.09475e-06;0.007896966743355903
8.09500e-06;0.007897520259406085
8.09525e-06;0.007898073775456262
8.09550e-06;0.007899224364382855
8.09575e-06;0.007900486927353179
8.09600e-06;0.007901749490323493
8.09625e-06;0.007903513186701907
8.09650e-06;0.007905370864797406
8.09675e-06;0.007907228542892893
8.09700e-06;0.007909086220988392
8.09725e-06;0.007911173634301641
8.09750e-06;0.007913702899453708
8.09775e-06;0.007916232164605791
8.09800e-06;0.007918761429757875
8.09825e-06;0.007921290694909941
8.09850e-06;0.007924211996091054
8.09875e-06;0.00792720681905016
8.09900e-06;0.007930201642009244
8.09925e-06;0.00793339278796755
8.09950e-06;0.007936743878685764
8.09975e-06;0.007940265498684554
8.10000e-06;0.007944101018928692
8.10025e-06;0.007948545468405474
8.10050e-06;0.00795417944478751
8.10075e-06;0.0079600169746852
8.10100e-06;0.007967580630766231
8.10125e-06;0.007975468001650598
8.10150e-06;0.007983355372535016
8.10175e-06;0.007993222703999856
8.10200e-06;0.00800346135394425
8.10225e-06;0.008013700003888716
8.10250e-06;0.008026364066331861
8.10275e-06;0.008039482986558754
8.10300e-06;0.008052601906785556
8.10325e-06;0.008068338902694072
8.10350e-06;0.008084566888115888
8.10375e-06;0.008100794873537594
8.10400e-06;0.00811702285895941
8.10425e-06;0.008134338139750587
8.10450e-06;0.008153744625639149
8.10475e-06;0.008173151111527843
8.10500e-06;0.008192557597416536
8.10525e-06;0.008211964083305098
8.10550e-06;0.008232884774589645
8.10575e-06;0.00825408943740935
8.10600e-06;0.008275294100228908
8.10625e-06;0.008297162758278877
8.10650e-06;0.008319155940878422
8.10675e-06;0.008341149123477817
8.10700e-06;0.00836324608800902
8.10725e-06;0.008385362515629272
8.10750e-06;0.008407478943249374
8.10775e-06;0.008429130051377558
8.10800e-06;0.008450693894270205
8.10825e-06;0.008471591127778006
8.10850e-06;0.00849236334648223
8.10875e-06;0.008511863779046626
8.10900e-06;0.00853112570297555
8.10925e-06;0.008550387626904606
8.10950e-06;0.008568268231622397
8.10975e-06;0.008585074169868253
8.11000e-06;0.00860126993321169
8.11025e-06;0.008617765800304173
8.11050e-06;0.008635252381364663
8.11075e-06;0.00865422793829828
8.11100e-06;0.008673450436238343
8.11125e-06;0.008694241688263694
8.11150e-06;0.008715327141793704
8.11175e-06;0.008736412595323857
8.11200e-06;0.008759076867433916
8.11225e-06;0.008782037228527042
8.11250e-06;0.008808025434011685
8.11275e-06;0.00883458147634513
8.11300e-06;0.008861137518678393
8.11325e-06;0.008890901063167728
8.11350e-06;0.008921266137221134
8.11375e-06;0.008951631211274335
8.11400e-06;0.008981996285327741
8.11425e-06;0.009015666957682736
8.11450e-06;0.009049957556387914
8.11475e-06;0.009084248155093325
8.11500e-06;0.009118538753798736
8.11525e-06;0.009155014328146761
8.11550e-06;0.009191899669155266
8.11575e-06;0.009228785010163769
8.11600e-06;0.009266439696826539
8.11625e-06;0.00930423866528074
8.11650e-06;0.009342037633734942
8.11675e-06;0.009380195133471646
8.11700e-06;0.009418419871562876
8.11725e-06;0.009456204255337077
8.11750e-06;0.009493906055802406
8.11775e-06;0.00953052677269538
8.11800e-06;0.009566944744991856
8.11825e-06;0.009601970287920545
8.11850e-06;0.009636734696985791
8.11875e-06;0.00966965926414946
8.11900e-06;0.009702238790454438
8.11925e-06;0.009732286769590735
8.11950e-06;0.009761859986625075
8.11975e-06;0.009789130656420288
8.12000e-06;0.009814808825799805
8.12025e-06;0.00984017678127713
8.12050e-06;0.009866409658884865
8.12075e-06;0.009892807997262162
8.12100e-06;0.009920019206965698
8.12125e-06;0.009947382861191763
8.12150e-06;0.009974869642092212
8.12175e-06;0.010002379513962491
8.12200e-06;0.010030294449064711
8.12225e-06;0.01005828534904459
8.12250e-06;0.010088633954922592
8.12275e-06;0.010119424721002813
8.12300e-06;0.010150215487082824
8.12325e-06;0.010183149140919081
8.12350e-06;0.010216484668324224
8.12375e-06;0.01024982019572914
8.12400e-06;0.010283155723134282
8.12425e-06;0.010318818893661154
8.12450e-06;0.010354918586467511
8.12475e-06;0.010391018279274113
8.12500e-06;0.010427117972080714
8.12525e-06;0.010464762041981879
8.12550e-06;0.010502695741768542
8.12575e-06;0.010540629441555205
8.12600e-06;0.010578821942632093
8.12625e-06;0.010617062978868379
8.12650e-06;0.010655304015104665
8.12675e-06;0.010693561781929168
8.12700e-06;0.010731822686380378
8.12725e-06;0.01077008359083159
8.12750e-06;0.010806931021971819
8.12775e-06;0.010843513372702715
8.12800e-06;0.010880095723433611
8.12825e-06;0.010914436436724254
8.12850e-06;0.01094835675709581
8.12875e-06;0.010982277077467597
8.12900e-06;0.011013615136074411
8.12925e-06;0.011044468921648638
8.12950e-06;0.01107325386539195
8.12975e-06;0.011100020373884566
8.13000e-06;0.011124428738216285
8.13025e-06;0.011144206686495248
8.13050e-06;0.011163188437549773
8.13075e-06;0.011175943664829399
8.13100e-06;0.011187531180302804
8.13125e-06;0.011191488240354376
8.13150e-06;0.01119401429761758
8.13175e-06;0.011196540354880801
8.13200e-06;0.011190367917780424
8.13225e-06;0.011182564179663238
8.13250e-06;0.011171336034587897
8.13275e-06;0.011153521696380604
8.13300e-06;0.011135707358173432
8.13325e-06;0.011112433096983555
8.13350e-06;0.01108527239188995
8.13375e-06;0.0110548723456515
8.13400e-06;0.011021333543990866
8.13425e-06;0.010984650401857787
8.13450e-06;0.010944902519534266
8.13475e-06;0.01090232507607493
8.13500e-06;0.010857208643161649
8.13525e-06;0.010809848597127135
8.13550e-06;0.010760542519965912
8.13575e-06;0.010709582160931489
8.13600e-06;0.010657202411177735
8.13625e-06;0.010603572822200995
8.13650e-06;0.010548914605622323
8.13675e-06;0.010493546074935854
8.13700e-06;0.010437821965350959
8.13725e-06;0.010382100051811774
8.13750e-06;0.01032673874643366
8.13775e-06;0.010272091902930209
8.13800e-06;0.010218478769964057
8.13825e-06;0.010166177765081923
8.13850e-06;0.010115499262546337
8.13875e-06;0.010066815740597979
8.13900e-06;0.010020519383771381
8.13925e-06;0.009977006494254906
8.13950e-06;0.00993667381546473
8.13975e-06;0.009899910248354609
8.14000e-06;0.009866991860136268
8.14025e-06;0.009837985614074358
8.14050e-06;0.009812888668297933
8.14075e-06;0.009793468811775818
8.14100e-06;0.00977499789115347
8.14125e-06;0.009770778425633016
8.14150e-06;0.009769231654057013
8.14175e-06;0.009767684882481
8.14200e-06;0.009766138110904989
8.14225e-06;0.009764591339328986
8.14250e-06;0.009763044567752973
8.14275e-06;0.009776949409586557
8.14300e-06;0.009793752021036837
8.14325e-06;0.009810554632487228
8.14350e-06;0.009836645073279521
8.14375e-06;0.009864477337980857
8.14400e-06;0.009892309602682383
8.14425e-06;0.009927025458879019
8.14450e-06;0.009963032252258558
8.14475e-06;0.010003646884977837
8.14500e-06;0.010045125664144774
8.14525e-06;0.010090502147595142
8.14550e-06;0.010136609599957604
8.14575e-06;0.01018589128936003
8.14600e-06;0.010235768269843562
8.14625e-06;0.010287912114357152
8.14650e-06;0.01034048108274261
8.14675e-06;0.01039431504046591
8.14700e-06;0.010448386232163856
8.14725e-06;0.010502764456302193
8.14750e-06;0.010557200260788468
8.14775e-06;0.010610978474722754
8.14800e-06;0.010664633365230214
8.14825e-06;0.010716550757983214
8.14850e-06;0.010768142303326265
8.14875e-06;0.010816856840990954
8.14900e-06;0.010865031829469376
8.14925e-06;0.010909219317458913
8.14950e-06;0.010952658996306703
8.14975e-06;0.010990913238389745
8.15000e-06;0.011028195012373924
8.15025e-06;0.011058577379229273
8.15050e-06;0.011087665842863526
8.15075e-06;0.011107110821443668
8.15100e-06;0.011124747277039201
8.15125e-06;0.011142383732634735
8.15150e-06;0.011148332565104929
8.15175e-06;0.011152089520370936
8.15200e-06;0.011155846475636942
8.15225e-06;0.01114735873146464
8.15250e-06;0.01113657463693226
8.15275e-06;0.01112579054239988
8.15300e-06;0.011107040335015686
8.15325e-06;0.011083080417077697
8.15350e-06;0.011054872584511459
8.15375e-06;0.011022607709579628
8.15400e-06;0.010986422453336923
8.15425e-06;0.010946405831828952
8.15450e-06;0.01090272293155398
8.15475e-06;0.010855654028376302
8.15500e-06;0.01080551533026111
8.15525e-06;0.010752628633590798
8.15550e-06;0.010697315391730227
8.15575e-06;0.010639894558227895
8.15600e-06;0.010580650922812292
8.15625e-06;0.010519838639297268
8.15650e-06;0.010457760630882756
8.15675e-06;0.010394791777414664
8.15700e-06;0.010331329557210576
8.15725e-06;0.010267773507654138
8.15750e-06;0.01020452473462296
8.15775e-06;0.010141981501161782
8.15800e-06;0.01008052187585075
8.15825e-06;0.010020502996945922
8.15850e-06;0.009962314842357437
8.15875e-06;0.009906391015079011
8.15900e-06;0.00985317752041318
8.15925e-06;0.009803125314427773
8.15950e-06;0.009756684520078109
8.15975e-06;0.009714264185358687
8.16000e-06;0.009675671251577797
8.16025e-06;0.009639869474422826
8.16050e-06;0.009606025750359256
8.16075e-06;0.009574061727961445
8.16100e-06;0.009544202732656833
8.16125e-06;0.009517826644564603
8.16150e-06;0.009492040185118825
8.16175e-06;0.009469806361568522
8.16200e-06;0.009450490364612157
8.16225e-06;0.009433208249758495
8.16250e-06;0.009418010576373542
8.16275e-06;0.009403147133743966
8.16300e-06;0.009391650329920995
8.16325e-06;0.009380784899883888
8.16350e-06;0.009369919469846708
8.16375e-06;0.009362947561445211
8.16400e-06;0.009356705837550182
8.16425e-06;0.009353092907368552
8.16450e-06;0.009349972976743583
8.16475e-06;0.009346853046118635
8.16500e-06;0.009346257081613737
8.16525e-06;0.009346134457474746
8.16550e-06;0.009346011833335756
8.16575e-06;0.009348570808830087
8.16600e-06;0.009351632687014578
8.16625e-06;0.00935469456519905
8.16650e-06;0.009359201547962692
8.16675e-06;0.009363979543211328
8.16700e-06;0.009368757538459931
8.16725e-06;0.009374693604129269
8.16750e-06;0.009380846852379754
8.16775e-06;0.009387000100630196
8.16800e-06;0.0093939496203257
8.16825e-06;0.009401048471430277
8.16850e-06;0.009408147322534807
8.16875e-06;0.0094150260819437
8.16900e-06;0.009421863565725734
8.16925e-06;0.009428701049507724
8.16950e-06;0.009435538533289758
8.16975e-06;0.009442376017071792
8.17000e-06;0.009449213500853782
8.17025e-06;0.009456409809425163
8.17050e-06;0.009464296248987007
8.17075e-06;0.00947218268854885
8.17100e-06;0.009480069128110643
8.17125e-06;0.009487955567672486
8.17150e-06;0.00949584200723433
8.17175e-06;0.00950372844679612
8.17200e-06;0.009513966753976718
8.17225e-06;0.009524646126459549
8.17250e-06;0.009535325498942307
8.17275e-06;0.009546004871425135
8.17300e-06;0.009556684243907964
8.17325e-06;0.009567363616390722
8.17350e-06;0.009578042988873553
8.17375e-06;0.009588722361356381
8.17400e-06;0.00959940173383914
8.17425e-06;0.009612414587721047
8.17450e-06;0.009625865058784502
8.17475e-06;0.009639315529847866
8.17500e-06;0.00965276600091132
8.17525e-06;0.009666216471974775
8.17550e-06;0.009679666943038139
8.17575e-06;0.009693117414101594
8.17600e-06;0.00970656788516505
8.17625e-06;0.009720018356228413
8.17650e-06;0.0097340801473096
8.17675e-06;0.009748256584319968
8.17700e-06;0.009762433021330239
8.17725e-06;0.009776609458340607
8.17750e-06;0.009790785895350974
8.17775e-06;0.009804962332361247
8.17800e-06;0.009818184210874837
8.17825e-06;0.009831227073091468
8.17850e-06;0.009844269935308013
8.17875e-06;0.009857312797524644
8.17900e-06;0.009870355659741275
8.17925e-06;0.009883398521957907
8.17950e-06;0.009895079801830103
8.17975e-06;0.009906505732836773
8.18000e-06;0.009917655609133713
8.18025e-06;0.009928753714594044
8.18050e-06;0.009941267253980417
8.18075e-06;0.009954046241467574
8.18100e-06;0.009966825228954646
8.18125e-06;0.009981443884065454
8.18150e-06;0.009996407547352086
8.18175e-06;0.010011371210638617
8.18200e-06;0.010026334873925251
8.18225e-06;0.010042515107311873
8.18250e-06;0.01006103518106998
8.18275e-06;0.010079555254828211
8.18300e-06;0.01009807532858644
8.18325e-06;0.010116595402344547
8.18350e-06;0.010137478584585377
8.18375e-06;0.010158804940221497
8.18400e-06;0.010180131295857472
8.18425e-06;0.010204388656838153
8.18450e-06;0.010229195693637696
8.18475e-06;0.010254002730437072
8.18500e-06;0.010278809767236614
8.18525e-06;0.010303616804036157
8.18550e-06;0.010328423840835533
8.18575e-06;0.010353230877635075
8.18600e-06;0.010378037914434618
8.18625e-06;0.01040321803306444
8.18650e-06;0.010429115703382539
8.18675e-06;0.010455013373700637
8.18700e-06;0.01048091104401856
8.18725e-06;0.010506808714336659
8.18750e-06;0.010532706384654757
8.18775e-06;0.010558604054972855
8.18800e-06;0.010584501725290778
8.18825e-06;0.010610399395608879
8.18850e-06;0.01063407523455213
8.18875e-06;0.010657334394971277
8.18900e-06;0.010680593555390583
8.18925e-06;0.010701363256529105
8.18950e-06;0.010721666088655586
8.18975e-06;0.010741968920782203
8.19000e-06;0.01075834084886547
8.19025e-06;0.010773975581807151
8.19050e-06;0.010789610314748937
8.19075e-06;0.010798280103712091
8.19100e-06;0.010805643698780515
8.19125e-06;0.01081300729384899
8.19150e-06;0.010820370888917465
8.19175e-06;0.01082773448398589
8.19200e-06;0.0108260099188331
8.19225e-06;0.01082258097537787
8.19250e-06;0.010819152031922666
8.19275e-06;0.010815723088467438
8.19300e-06;0.010812294145012209
8.19325e-06;0.01080186120211091
8.19350e-06;0.010790114740918143
8.19375e-06;0.010778368279725377
8.19400e-06;0.010762097501429733
8.19425e-06;0.010744978240304008
8.19450e-06;0.010727858979178285
8.19475e-06;0.010707408762455206
8.19500e-06;0.010686333863914233
8.19525e-06;0.010663176791355535
8.19550e-06;0.010639629231379117
8.19575e-06;0.010614508865378994
8.19600e-06;0.010589093537979025
8.19625e-06;0.01056251948662023
8.19650e-06;0.010535728130116266
8.19675e-06;0.010508384664192922
8.19700e-06;0.01048078080732956
8.19725e-06;0.010453153024942673
8.19750e-06;0.01042569096381949
8.19775e-06;0.010398585250935517
8.19800e-06;0.010372011122492043
8.19825e-06;0.01034612910946999
8.19850e-06;0.010321117142865587
8.19875e-06;0.01029717800523207
8.19900e-06;0.010274523155658683
8.19925e-06;0.010253365719938935
8.19950e-06;0.010233918970942548
8.19975e-06;0.010217365117884887
8.20000e-06;0.010201302131779206
8.20025e-06;0.010189679940541697
8.20050e-06;0.010178890568514776
8.20075e-06;0.010176165950097545
8.20100e-06;0.010174953782026545
8.20125e-06;0.010173741613955536
8.20150e-06;0.010172529445884527
8.20175e-06;0.010176003239074962
