Time(s);Current(A)
7.00000e-06;-0.0009106543923397365
7.00025e-06;-0.0009065011919635144
7.00050e-06;-0.0008974485522893829
7.00075e-06;-0.000883588183738894
7.00100e-06;-0.0008650118964712455
7.00125e-06;-0.0008418148777424999
7.00150e-06;-0.0008141331759093696
7.00175e-06;-0.0007822249997349595
7.00200e-06;-0.0007464447166715881
7.00225e-06;-0.0007066603043553422
7.00250e-06;-0.0006633547650621275
7.00275e-06;-0.000618395826810362
7.00300e-06;-0.0005693197255333385
7.00325e-06;-0.0005188830797577278
7.00350e-06;-0.0004650585139185231
7.00375e-06;-0.00041028112663561017
7.00400e-06;-0.00035313109892094047
7.00425e-06;-0.0002953873496286351
7.00450e-06;-0.00023616516192725523
7.00475e-06;-0.00017694297422587535
7.00500e-06;-0.00011772078652429481
7.00525e-06;-5.857039586418334e-05
7.00550e-06;1.6426739530601845e-07
7.00575e-06;5.794508633421677e-05
7.00600e-06;0.0001143316790922645
7.00625e-06;0.00016889876017350843
7.00650e-06;0.00022124527143494932
7.00675e-06;0.0002709747096896234
7.00700e-06;0.0003176906515808272
7.00725e-06;0.00036101109828289376
7.00750e-06;0.000400718461701657
7.00775e-06;0.0004370518136351806
7.00800e-06;0.0004705174216212275
7.00825e-06;0.0005013176626297486
7.00850e-06;0.0005293377325441809
7.00875e-06;0.0005544097397053511
7.00900e-06;0.0005763658298971183
7.00925e-06;0.0005950472798537009
7.00950e-06;0.0006099996368538725
7.00975e-06;0.0006216564776513863
7.01000e-06;0.0006318426418606884
7.01025e-06;0.0006383666438073612
7.01050e-06;0.0006434556013622277
7.01075e-06;0.0006449711251256063
7.01100e-06;0.0006450262041530489
7.01125e-06;0.0006414445994655397
7.01150e-06;0.0006365218299246029
7.01175e-06;0.0006282593979770885
7.01200e-06;0.0006189583788142946
7.01225e-06;0.0006070711520948853
7.01250e-06;0.000594259839842743
7.01275e-06;0.0005791474430473892
7.01300e-06;0.0005630038500977753
7.01325e-06;0.0005442924542256393
7.01350e-06;0.00052558105835344
7.01375e-06;0.0005060624051891813
7.01400e-06;0.00048453358390585074
7.01425e-06;0.0004630047626224473
7.01450e-06;0.0004411068592417945
7.01475e-06;0.00041828989687885115
7.01500e-06;0.0003954729345158305
7.01525e-06;0.00037265597215288716
7.01550e-06;0.0003501413061329857
7.01575e-06;0.0003277086889550759
7.01600e-06;0.0003052760717771661
7.01625e-06;0.00028341223849366604
7.01650e-06;0.0002629647457777634
7.01675e-06;0.00024298509137624322
7.01700e-06;0.00022454192633340693
7.01725e-06;0.0002074243770545176
7.01750e-06;0.00019163086468716796
7.01775e-06;0.00017665099945975694
7.01800e-06;0.00016163917324457975
7.01825e-06;0.00014649532415252984
7.01850e-06;0.00013122090269504402
7.01875e-06;0.00011600735012690581
7.01900e-06;0.00010094536844191186
7.01925e-06;8.603948191982696e-05
7.01950e-06;7.15222911991738e-05
7.01975e-06;5.693709660249308e-05
7.02000e-06;4.202478973189877e-05
7.02025e-06;2.658258198927097e-05
7.02050e-06;1.069795912940804e-05
7.02075e-06;-5.504093330523486e-06
7.02100e-06;-2.1898613188206272e-05
7.02125e-06;-3.836682979805658e-05
7.02150e-06;-5.485793198723132e-05
7.02175e-06;-7.15022280386161e-05
7.02200e-06;-8.856438401530889e-05
7.02225e-06;-0.00010607129846143929
7.02250e-06;-0.0001237232822837167
7.02275e-06;-0.0001417365063670871
7.02300e-06;-0.00015974973045039648
7.02325e-06;-0.00017774484703662614
7.02350e-06;-0.00019569487376904575
7.02375e-06;-0.00021364490050140457
7.02400e-06;-0.00023159492723382418
7.02425e-06;-0.000249544953966183
7.02450e-06;-0.0002670329673819638
7.02475e-06;-0.0002843955818029831
7.02500e-06;-0.0003017581962239435
7.02525e-06;-0.00031912081064490395
7.02550e-06;-0.0003360159657089648
7.02575e-06;-0.0003517470905372239
7.02600e-06;-0.00036747821536548306
7.02625e-06;-0.0003826939478098338
7.02650e-06;-0.0003966262909941609
7.02675e-06;-0.000410558634178488
7.02700e-06;-0.00042373767009013793
7.02725e-06;-0.0004350408799450487
7.02750e-06;-0.00044634408979995945
7.02775e-06;-0.00045718542644642037
7.02800e-06;-0.00046687664304127037
7.02825e-06;-0.00047656785963615323
7.02850e-06;-0.00048564850736159017
7.02875e-06;-0.0004932087648875937
7.02900e-06;-0.0005007690224136228
7.02925e-06;-0.0005083292799396263
7.02950e-06;-0.0005158895374656298
7.02975e-06;-0.0005234497949916589
7.03000e-06;-0.0005310100525176625
7.03025e-06;-0.000538570310043666
7.03050e-06;-0.000546130567569695
7.03075e-06;-0.0005520680696933965
7.03100e-06;-0.0005575651258625043
7.03125e-06;-0.0005630621820316307
7.03150e-06;-0.0005685592382007385
7.03175e-06;-0.0005740562943698463
7.03200e-06;-0.0005795533505389726
7.03225e-06;-0.0005850504067080805
7.03250e-06;-0.0005905474628772068
7.03275e-06;-0.000595683867602729
7.03300e-06;-0.0005999222066920001
7.03325e-06;-0.0006041605457812856
7.03350e-06;-0.0006083988848705566
7.03375e-06;-0.0006126372239598278
7.03400e-06;-0.0006168755630491132
7.03425e-06;-0.0006211139021383842
7.03450e-06;-0.0006253522412276554
7.03475e-06;-0.0006295905803169408
7.03500e-06;-0.0006334795984265202
7.03525e-06;-0.0006364987651229229
7.03550e-06;-0.0006395179318193359
7.03575e-06;-0.0006425370985157387
7.03600e-06;-0.0006455562652121415
7.03625e-06;-0.0006485754319085545
7.03650e-06;-0.0006515945986049572
7.03675e-06;-0.0006546137653013702
7.03700e-06;-0.000657632931997773
7.03725e-06;-0.0006605856838453235
7.03750e-06;-0.0006633730547009424
7.03775e-06;-0.0006661604255565521
7.03800e-06;-0.0006700244229919689
7.03825e-06;-0.0006765693505927622
7.03850e-06;-0.0006831142781935334
7.03875e-06;-0.000690756390586546
7.03900e-06;-0.0007011306255758667
7.03925e-06;-0.0007115048605651522
7.03950e-06;-0.0007230713217743722
7.03975e-06;-0.0007376065702092133
7.04000e-06;-0.0007521418186440053
7.04025e-06;-0.0007681539672802196
7.04050e-06;-0.0007878437757247168
7.04075e-06;-0.0008075335841691472
7.04100e-06;-0.0008283739298030761
7.04125e-06;-0.000852079251943283
7.04150e-06;-0.00087578457408349
7.04175e-06;-0.0009006130762030191
7.04200e-06;-0.0009282384320725508
7.04225e-06;-0.0009558637879420824
7.04250e-06;-0.0009846564728023088
7.04275e-06;-0.0010163559477808799
7.04300e-06;-0.001048055422759451
7.04325e-06;-0.0010797548977381295
7.04350e-06;-0.0011114543727167006
7.04375e-06;-0.0011431538476952719
7.04400e-06;-0.001175275875104719
7.04425e-06;-0.0012084501090814707
7.04450e-06;-0.0012416243430582222
7.04475e-06;-0.0012747985770350863
7.04500e-06;-0.001307972811011838
7.04525e-06;-0.0013411470449887018
7.04550e-06;-0.0013733353887078147
7.04575e-06;-0.00140306874665886
7.04600e-06;-0.0014328021046100055
7.04625e-06;-0.0014625354625610507
7.04650e-06;-0.0014922688205120957
7.04675e-06;-0.0015195705099576857
7.04700e-06;-0.0015408170512491608
7.04725e-06;-0.0015620635925406362
7.04750e-06;-0.0015833101338321835
7.04775e-06;-0.0016045566751236588
7.04800e-06;-0.0016224219886496686
7.04825e-06;-0.0016318676368244334
7.04850e-06;-0.0016389891284951017
7.04875e-06;-0.0016403231898755775
7.04900e-06;-0.0016393952530464827
7.04925e-06;-0.0016328346675849258
7.04950e-06;-0.0016238910195027156
7.04975e-06;-0.0016090132577885551
7.05000e-06;-0.001591538957153836
7.05025e-06;-0.0015675989611272985
7.05050e-06;-0.0015412569731364
7.05075e-06;-0.0015089337351622033
7.05100e-06;-0.0014744691464433758
7.05125e-06;-0.0014346723358461945
7.05150e-06;-0.0013928800888910631
7.05175e-06;-0.0013461189644960708
7.05200e-06;-0.0012970432789119744
7.05225e-06;-0.001242204056530462
7.05250e-06;-0.0011873648341487637
7.05275e-06;-0.0011304685563647617
7.05300e-06;-0.001068449962281075
7.05325e-06;-0.0010064313681971784
7.05350e-06;-0.0009430323909308195
7.05375e-06;-0.000876196092886322
7.05400e-06;-0.0008093597948420508
7.05425e-06;-0.0007425234967977797
7.05450e-06;-0.0006744478628832023
7.05475e-06;-0.0006060358501965485
7.05500e-06;-0.0005376238375098948
7.05525e-06;-0.00046978496580249614
7.05550e-06;-0.000403373284329241
7.05575e-06;-0.00033759682827101846
7.05600e-06;-0.0002739580491359218
7.05625e-06;-0.00021238403135379942
7.05650e-06;-0.00015331307958140852
7.05675e-06;-9.719166730149443e-05
7.05700e-06;-4.446619421601651e-05
7.05725e-06;4.438118841517973e-06
7.05750e-06;4.933359202529203e-05
7.05775e-06;9.068309902842337e-05
7.05800e-06;0.00012930167203799826
7.05825e-06;0.00016552280454189497
7.05850e-06;0.0001992018320807519
7.05875e-06;0.00023011550546673794
7.05900e-06;0.00025804065244062823
7.05925e-06;0.00028276739273160414
7.05950e-06;0.00030423463802032853
7.05975e-06;0.000322788839604757
7.06000e-06;0.00033899692096631286
7.06025e-06;0.0003531242081840259
7.06050e-06;0.00036513650235754923
7.06075e-06;0.0003749503131010352
7.06100e-06;0.00038248229947007007
7.06125e-06;0.0003876968860070551
7.06150e-06;0.0003906952259232188
7.06175e-06;0.0003918088028930971
7.06200e-06;-0.0030625848206764696
7.06225e-06;-0.012005604507481425
7.06250e-06;-0.012872210783146803
7.06275e-06;-0.010676599450663038
7.06300e-06;-0.00754343333754786
7.06325e-06;-0.001232610788297389
7.06350e-06;0.0014873897034166587
7.06375e-06;0.0005907026097764291
7.06400e-06;-0.0012647312258332838
7.06425e-06;-0.005742624532396333
7.06450e-06;-0.008136650676870954
7.06475e-06;-0.006279286902035135
7.06500e-06;-0.004112347241248475
7.06525e-06;-0.000943639776879835
7.06550e-06;0.002285788196611346
7.06575e-06;0.0015665648280815954
7.06600e-06;0.0008816624454388821
7.06625e-06;-0.0009145404120997184
7.06650e-06;-0.003184225821263135
7.06675e-06;-0.0038930488869619645
7.06700e-06;-0.003025662249864407
7.06725e-06;-0.0013316530852179654
7.06750e-06;0.0004976161842584084
7.06775e-06;0.001264091031685976
7.06800e-06;0.0009236314104006036
7.06825e-06;-0.00025362402815519436
7.06850e-06;-0.0016909081205656107
7.06875e-06;-0.002151676671793428
7.06900e-06;-0.0016263705814455658
7.06925e-06;-0.0005845527310207009
7.06950e-06;0.0005407370849285794
7.06975e-06;0.000999130403713589
7.07000e-06;0.000763112105905367
7.07025e-06;2.0311927867463055e-06
7.07050e-06;-0.0009227101972152889
7.07075e-06;-0.0012364733926442442
7.07100e-06;-0.00093323269474745
7.07125e-06;-0.0003070665655068894
7.07150e-06;0.000370853575715244
7.07175e-06;0.0006306191402182936
7.07200e-06;0.0004551407146546841
7.07225e-06;-4.935738952807693e-05
7.07250e-06;-0.0006563622236994348
7.07275e-06;-0.0008805406765258006
7.07300e-06;-0.0007180386752283492
7.07325e-06;-0.00035297720818853806
7.07350e-06;4.488896381683096e-05
7.07375e-06;0.00018133862868784204
7.07400e-06;4.5810878324334294e-05
7.07425e-06;-0.0002950134740690239
7.07450e-06;-0.0006991136920281102
7.07475e-06;-0.0008623642722336948
7.07500e-06;-0.0007822508500035291
7.07525e-06;-0.000574000950846158
7.07550e-06;-0.0003438323621833191
7.07575e-06;-0.0002759149244707341
7.07600e-06;-0.00037672499553084997
7.07625e-06;-0.0006043561309716439
7.07650e-06;-0.0008697147703917454
7.07675e-06;-0.0009821777024675246
7.07700e-06;-0.0009400592171800053
7.07725e-06;-0.0008154233596067564
7.07750e-06;-0.0006745162058215153
7.07775e-06;-0.0006320469890445765
7.07800e-06;-0.0006914102567166656
7.07825e-06;-0.0008261593256065851
7.07850e-06;-0.0009806385472172453
7.07875e-06;-0.0010356703004162668
7.07900e-06;-0.0009904324048026858
7.07925e-06;-0.0008902973227668222
7.07950e-06;-0.0007769891768665582
7.07975e-06;-0.0007225841913766521
7.08000e-06;-0.000729427758642236
7.08025e-06;-0.0007811733913068806
7.08050e-06;-0.000843180339432321
7.08075e-06;-0.0008410228083381954
7.08100e-06;-0.0007744160283595174
7.08125e-06;-0.0006720103616595622
7.08150e-06;-0.0005601682431529693
7.08175e-06;-0.0004842612126978313
7.08200e-06;-0.0004459794910460481
7.08225e-06;-0.00043508814060409844
7.08250e-06;-0.00043068688473944843
7.08275e-06;-0.00038595572931052744
7.08300e-06;-0.0003009362394644357
7.08325e-06;-0.00019387719374392573
7.08350e-06;-8.151765514242657e-05
7.08375e-06;7.498113103399288e-06
7.08400e-06;7.188914742188369e-05
7.08425e-06;0.00011770829386200239
7.08450e-06;0.00015818476523538937
7.08475e-06;0.0002221546484877707
7.08500e-06;0.0003093602175958907
7.08525e-06;0.00040819142049333906
7.08550e-06;0.0005079379626899595
7.08575e-06;0.0005904333223764851
7.08600e-06;0.0006546523122022887
7.08625e-06;0.0007041634480276668
7.08650e-06;0.0007470300413066725
7.08675e-06;0.0008010902283534487
7.08700e-06;0.000865957092831573
7.08725e-06;0.0009341329412613332
7.08750e-06;0.000999051483984326
7.08775e-06;0.0010503831074127833
7.08800e-06;0.001088897381666501
7.08825e-06;0.001117587013041981
7.08850e-06;0.0011416567251088111
7.08875e-06;0.0011723071349418058
7.08900e-06;0.0012093219642758937
7.08925e-06;0.00124677058841865
7.08950e-06;0.0012839122565632636
7.08975e-06;0.0013118302806552642
7.09000e-06;0.0013309868703995568
7.09025e-06;0.001342929681530134
7.09050e-06;0.0013530437864827972
7.09075e-06;0.0013668211320810317
7.09100e-06;0.0013841820532644788
7.09125e-06;0.0014023442404533426
7.09150e-06;0.001416359241176333
7.09175e-06;0.0014289397211372217
7.09200e-06;0.0014332080820445578
7.09225e-06;0.0014346012630059727
7.09250e-06;0.001435994443967383
7.09275e-06;0.0014392816882459615
7.09300e-06;0.0014432240931196306
7.09325e-06;0.001446319643263698
7.09350e-06;0.0014491222645264764
7.09375e-06;0.0014519248857892452
7.09400e-06;0.0014489573793732304
7.09425e-06;0.0014439939733220148
7.09450e-06;0.0014390305672708163
7.09475e-06;0.0014359234545621357
7.09500e-06;0.0014334584377326566
7.09525e-06;0.0014309934209031858
7.09550e-06;0.0014272050421904753
7.09575e-06;0.001422958909742145
7.09600e-06;0.0014187127772938295
7.09625e-06;0.0014129499641224858
7.09650e-06;0.001406662527811021
7.09675e-06;0.0014003750914995772
7.09700e-06;0.0013956954595790345
7.09725e-06;0.0013915719706722636
7.09750e-06;0.0013874484817654926
7.09775e-06;0.0013833249928587076
7.09800e-06;0.0013722621576928182
7.09825e-06;0.0013587989876580073
7.09850e-06;0.0013453358176231508
7.09875e-06;0.00133187264758834
7.09900e-06;0.0013138567323804497
7.09925e-06;0.0012942660127773812
7.09950e-06;0.0012709091653877352
7.09975e-06;0.0012462496062570665
7.10000e-06;0.0012157984828242686
7.10025e-06;0.001183344044782373
7.10050e-06;0.0011462510357871422
7.10075e-06;0.0011075535350738414
7.10100e-06;0.0010656686953956686
7.10125e-06;0.0010226813482806917
7.10150e-06;0.0009761225545329259
7.10175e-06;0.0009283283896760301
7.10200e-06;0.0008761835994663171
7.10225e-06;0.0008225339185445092
7.10250e-06;0.0007657453797358356
7.10275e-06;0.000707871103200054
7.10300e-06;0.0006482564597536293
7.10325e-06;0.0005880398196313945
7.10350e-06;0.0005263314348979418
7.10375e-06;0.0004641070524797339
7.10400e-06;0.00040039216883231164
7.10425e-06;0.0003361617175881645
7.10450e-06;0.0002715086354645559
7.10475e-06;0.00020707026948860716
7.10500e-06;0.0001433176254841982
7.10525e-06;8.052201807895664e-05
7.10550e-06;1.891555948174564e-05
7.10575e-06;-4.1449341715522275e-05
7.10600e-06;-0.00010038746855554225
7.10625e-06;-0.0001575656089730599
7.10650e-06;-0.0002125220801918533
7.10675e-06;-0.0002646867764473998
7.10700e-06;-0.0003136592805002846
7.10725e-06;-0.00035910528636335525
7.10750e-06;-0.0004007279158620063
7.10775e-06;-0.0004384136742718426
7.10800e-06;-0.0004720903175971266
7.10825e-06;-0.0005016833474039773
7.10850e-06;-0.0005270642391425879
7.10875e-06;-0.0005480390445500652
7.10900e-06;-0.0005645202006107337
7.10925e-06;-0.000576461571762786
7.10950e-06;-0.0005838404082310263
7.10975e-06;-0.0005867489375668308
7.11000e-06;-0.0005853051213215279
7.11025e-06;-0.0005796255548981594
7.11050e-06;-0.0005697929731621482
7.11075e-06;-0.0005558492087157503
7.11100e-06;-0.0005379026069721936
7.11125e-06;-0.0005160875876415131
7.11150e-06;-0.0004905530968907978
7.11175e-06;-0.0004615201218156898
7.11200e-06;-0.0004292258515117004
7.11225e-06;-0.0003939064721413728
7.11250e-06;-0.000355777032022582
7.11275e-06;-0.0003150269354877149
7.11300e-06;-0.0002718872010676028
7.11325e-06;-0.00022660517718346511
7.11350e-06;-0.00017943734181603388
7.11375e-06;-0.0001306852288715623
7.11400e-06;-8.066050858649058e-05
7.11425e-06;-2.9674245155590667e-05
7.11450e-06;2.1975815360930593e-05
7.11475e-06;7.400525011375667e-05
7.11500e-06;0.00012611359581255475
7.11525e-06;0.00017797753319460086
7.11550e-06;0.00022927330775187162
7.11575e-06;0.000279650037152703
7.11600e-06;0.00032874954771553496
7.11625e-06;0.0003762140854968344
7.11650e-06;0.00042169429096581336
7.11675e-06;0.00046485084139077557
7.11700e-06;0.0005053281118991833
7.11725e-06;0.0005427641656244641
7.11750e-06;0.0005769474774284816
7.11775e-06;0.0006080465441473725
7.11800e-06;0.0006364265329628237
7.11825e-06;0.0006622280894214638
7.11850e-06;0.0006853648954445173
7.11875e-06;0.0007057070174223424
7.11900e-06;0.0007231142574935296
7.11925e-06;0.0007362784918780181
7.11950e-06;0.0007482392639769915
7.11975e-06;0.0007559550873638118
7.12000e-06;0.0007622025738173152
7.12025e-06;0.0007647969180472132
7.12050e-06;0.000766127632487191
7.12075e-06;0.0007638457930102904
7.12100e-06;0.0007603143633265008
7.12125e-06;0.0007531805862685823
7.12150e-06;0.0007448007494690054
7.12175e-06;0.0007332758919332561
7.12200e-06;0.0007206631649281787
7.12225e-06;0.0007055214209665776
7.12250e-06;0.0006895048845742518
7.12275e-06;0.0006712299559771131
7.12300e-06;0.0006521738446357706
7.12325e-06;0.0006307104235939377
7.12350e-06;0.0006084143089244459
7.12375e-06;0.000586118194254954
7.12400e-06;0.0005620935410194303
7.12425e-06;0.000537470982558549
7.12450e-06;0.0005128484240976677
7.12475e-06;0.0004875752438424015
7.12500e-06;0.0004620770121025437
7.12525e-06;0.0004365787803626859
7.12550e-06;0.000411319873071797
7.12575e-06;0.0003868065315853311
7.12600e-06;0.0003622931900988652
7.12625e-06;0.0003377798486123163
7.12650e-06;0.00031464218474908925
7.12675e-06;0.00029282842200807396
7.12700e-06;0.00027227827231489463
7.12725e-06;0.0002531561440230907
7.12750e-06;0.00023548672432482595
7.12775e-06;0.00021818909552350993
7.12800e-06;0.00020057864267339264
7.12825e-06;0.0001822708365759434
7.12850e-06;0.0001633010733753451
7.12875e-06;0.00014384609988928713
7.12900e-06;0.00012408164524142762
7.12925e-06;0.00010418303631257993
7.12950e-06;8.415786424251115e-05
7.12975e-06;6.361422347865037e-05
7.13000e-06;4.2038298905763286e-05
7.13025e-06;1.9258637071093478e-05
7.13050e-06;-4.6024095844625454e-06
7.13075e-06;-2.93617186185905e-05
7.13100e-06;-5.483680125082524e-05
7.13125e-06;-8.084543731064896e-05
7.13150e-06;-0.00010731048166319021
7.13175e-06;-0.00013440502484384975
7.13200e-06;-0.00016237850624652798
7.13225e-06;-0.00019153217189926157
7.13250e-06;-0.00022101021213215022
7.13275e-06;-0.0002514466324355313
7.13300e-06;-0.00028221455847637276
7.13325e-06;-0.00031298248451731847
7.13350e-06;-0.00034375041055815993
7.13375e-06;-0.00037463663817086513
7.13400e-06;-0.0004058914098539105
7.13425e-06;-0.00043714618153684986
7.13450e-06;-0.0004684009532197893
7.13475e-06;-0.0004996557249028346
7.13500e-06;-0.0005299723500011408
7.13525e-06;-0.0005599644681686229
7.13550e-06;-0.0005899565863360034
7.13575e-06;-0.0006182026937200101
7.13600e-06;-0.0006458448522010858
7.13625e-06;-0.0006734870106820677
7.13650e-06;-0.0006986017235525272
7.13675e-06;-0.000722842187524701
7.13700e-06;-0.0007470826514967926
7.13725e-06;-0.0007682767003151302
7.13750e-06;-0.0007884169875487151
7.13775e-06;-0.0008054254014567607
7.13800e-06;-0.0008213504936137371
7.13825e-06;-0.0008338286719332512
7.13850e-06;-0.0008451145553077634
7.13875e-06;-0.0008528730402002552
7.13900e-06;-0.0008594113903353653
7.13925e-06;-0.00086235029071612
7.13950e-06;-0.0008640441336487077
7.13975e-06;-0.0008620506900117924
7.14000e-06;-0.000858781805982553
7.14025e-06;-0.0008519156129780354
7.14050e-06;-0.0008438051030255051
7.14075e-06;-0.0008323342402327123
7.14100e-06;-0.0008197010241309933
7.14125e-06;-0.00080394964433962
7.14150e-06;-0.0007871196849899133
7.14175e-06;-0.0007667503546527177
7.14200e-06;-0.0007451567482427906
7.14225e-06;-0.0007235631418328634
7.14250e-06;-0.0006984825594632601
7.14275e-06;-0.0006721958245743091
7.14300e-06;-0.0006459090896853582
7.14325e-06;-0.0006171185082118414
7.14350e-06;-0.0005874618407943052
7.14375e-06;-0.0005578051733766685
7.14400e-06;-0.0005265792464035225
