Time(s);Current(A)
1.00000e-05;-0.00515119187731563
1.00003e-05;-0.005168077919746627
1.00005e-05;-0.005187620636000932
1.00008e-05;-0.005212472202802401
1.00010e-05;-0.00523732376960387
1.00013e-05;-0.005266107374148753
1.00015e-05;-0.0053027483982018495
1.00018e-05;-0.005339389422254946
1.00020e-05;-0.005381706814783507
1.00023e-05;-0.005435367335559258
1.00025e-05;-0.00548902785633501
1.00028e-05;-0.005542688377110398
1.00030e-05;-0.00559634889788615
1.00033e-05;-0.005650009418661901
1.00035e-05;-0.005718312366250553
1.00038e-05;-0.005789539832091456
1.00040e-05;-0.00586076729793236
1.00042e-05;-0.00593199476377278
1.00045e-05;-0.006003222229613683
1.00048e-05;-0.006077072410934677
1.00050e-05;-0.006156163583599499
1.00053e-05;-0.006236049700579964
1.00055e-05;-0.0063175243605444065
1.00057e-05;-0.006399471622940812
1.00060e-05;-0.006482363290202532
1.00063e-05;-0.00656507169395115
1.00065e-05;-0.0066474138808932885
1.00068e-05;-0.006728913055675736
1.00070e-05;-0.006808727633150926
1.00073e-05;-0.006887246320157229
1.00075e-05;-0.006963175419850609
1.00078e-05;-0.007037310012542772
1.00080e-05;-0.007107858628892469
1.00083e-05;-0.007173985624718233
1.00085e-05;-0.0072312768642182786
1.00088e-05;-0.007288568103718324
1.00090e-05;-0.007345859343217982
1.00093e-05;-0.007403150582718027
1.00095e-05;-0.007446499621154089
1.00098e-05;-0.007487063996772907
1.00100e-05;-0.007527628372392001
1.00103e-05;-0.0075681927480110945
1.00105e-05;-0.007600951226544668
1.00108e-05;-0.007618111124378742
1.00110e-05;-0.0076352710222128166
1.00113e-05;-0.007652430920046775
1.00115e-05;-0.0076695908178808486
1.00118e-05;-0.007686750715714923
1.00120e-05;-0.0077039106135488805
1.00123e-05;-0.007721070511382955
1.00125e-05;-0.007738230409217029
1.00127e-05;-0.007755390307050987
1.00130e-05;-0.007764885286104868
1.00133e-05;-0.007759063402426424
1.00135e-05;-0.0077532415187480195
1.00138e-05;-0.007747419635069575
1.00140e-05;-0.007741597751391131
1.00142e-05;-0.007735775867712726
1.00145e-05;-0.0077299539840342815
1.00148e-05;-0.007724132100355838
1.00150e-05;-0.007718310216677433
1.00153e-05;-0.007712488332998989
1.00155e-05;-0.007703532461314787
1.00157e-05;-0.007688313918692221
1.00160e-05;-0.007673095376069553
1.00163e-05;-0.0076578768334468845
1.00165e-05;-0.0076426582908242155
1.00168e-05;-0.0076274397482016506
1.00170e-05;-0.007612221205578982
1.00173e-05;-0.0075971861705249
1.00175e-05;-0.007582517839974805
1.00178e-05;-0.007567849509424612
1.00180e-05;-0.007553181178874418
1.00183e-05;-0.007538512848324324
1.00185e-05;-0.00752384451777413
1.00188e-05;-0.007509176187223936
1.00190e-05;-0.007496361419565676
1.00193e-05;-0.007487250640064178
1.00195e-05;-0.00747813986056268
1.00198e-05;-0.007469029081061244
1.00200e-05;-0.007459918301559746
1.00203e-05;-0.0074508075220582485
1.00205e-05;-0.007441696742556812
1.00208e-05;-0.0074325859630553145
1.00210e-05;-0.007423475183553817
1.00212e-05;-0.0074143644040523815
1.00215e-05;-0.007405253624550884
1.00218e-05;-0.007396142845049386
1.00220e-05;-0.00738703206554795
1.00223e-05;-0.007377921286046452
1.00225e-05;-0.007368810506544954
1.00227e-05;-0.007359699727043518
1.00230e-05;-0.007351602769449779
1.00233e-05;-0.0073455317395203345
1.00235e-05;-0.007339460709590932
1.00238e-05;-0.007333389679661488
1.00240e-05;-0.0073273186497320435
1.00242e-05;-0.00732124761980264
1.00245e-05;-0.007315176589873196
1.00248e-05;-0.007309105559943752
1.00250e-05;-0.0073030345300143075
1.00253e-05;-0.007296963500084905
1.00255e-05;-0.007290892470155461
1.00258e-05;-0.007284821440226017
1.00260e-05;-0.007278750410296613
1.00263e-05;-0.007272679380367169
1.00265e-05;-0.007266608350437725
1.00268e-05;-0.007260537320508321
1.00270e-05;-0.007255039652351886
1.00273e-05;-0.00725068773718113
1.00275e-05;-0.007246335822010404
1.00278e-05;-0.007241983906839648
1.00280e-05;-0.007237631991668892
1.00283e-05;-0.007233280076498166
1.00285e-05;-0.0072289281613274105
1.00288e-05;-0.007224576246156655
1.00290e-05;-0.0072202243309859295
1.00293e-05;-0.007218409856186484
1.00295e-05;-0.007221665966867917
1.00297e-05;-0.007224922077549327
1.00300e-05;-0.00722817818823076
1.00303e-05;-0.007231434298912193
1.00305e-05;-0.007234690409593603
1.00308e-05;-0.007237946520275036
1.00310e-05;-0.007241202630956469
1.00312e-05;-0.007244458741637879
1.00315e-05;-0.007252214715621149
1.00318e-05;-0.007268962799047821
1.00320e-05;-0.00728571088247438
1.00323e-05;-0.007302458965901051
1.00325e-05;-0.007319207049327724
1.00327e-05;-0.007335955132754281
1.00330e-05;-0.007352703216180954
1.00333e-05;-0.007369451299607625
1.00335e-05;-0.007386199383034297
1.00338e-05;-0.007411058332494888
1.00340e-05;-0.007437537257666908
1.00343e-05;-0.007464016182838928
1.00345e-05;-0.007490495108010769
1.00348e-05;-0.00751697403318279
1.00350e-05;-0.00754345295835481
1.00353e-05;-0.007569931883526651
1.00355e-05;-0.007596410808698672
1.00358e-05;-0.007623679181497997
1.00360e-05;-0.007652525113211581
1.00363e-05;-0.007681371044925361
1.00365e-05;-0.007710216976639141
1.00368e-05;-0.007739062908352725
1.00370e-05;-0.007767908840066505
1.00373e-05;-0.007795337119791753
1.00375e-05;-0.007819932495274821
1.00378e-05;-0.007844527870758056
1.00380e-05;-0.00786912324624129
1.00382e-05;-0.007893718621724359
1.00385e-05;-0.007918313997207594
1.00388e-05;-0.00794040940470407
1.00390e-05;-0.00795750910805561
1.00393e-05;-0.007974608811407265
1.00395e-05;-0.007986914766709662
1.00397e-05;-0.007989641340545367
1.00400e-05;-0.00799236791438109
1.00403e-05;-0.007995094488216814
1.00405e-05;-0.007997821062052518
1.00408e-05;-0.008000547635888242
1.00410e-05;-0.00798624423588196
1.00412e-05;-0.007968539455075842
1.00415e-05;-0.007950834674269602
1.00418e-05;-0.007933129893463365
1.00420e-05;-0.007915425112657127
1.00423e-05;-0.007890617012457295
1.00425e-05;-0.007851614297635368
1.00428e-05;-0.007812611582813442
1.00430e-05;-0.007773608867991781
1.00433e-05;-0.007734606153169856
1.00435e-05;-0.0076956034383479305
1.00438e-05;-0.00765660072352627
1.00440e-05;-0.007603874737778766
1.00443e-05;-0.007548407815921996
1.00445e-05;-0.007492940894065602
1.00448e-05;-0.007437473972208832
1.00450e-05;-0.007382007050352061
1.00453e-05;-0.007326540128495667
1.00455e-05;-0.007269054560238445
1.00458e-05;-0.007207535116249645
1.00460e-05;-0.007146015672261262
1.00463e-05;-0.007084476555917965
1.00465e-05;-0.007022898128166105
1.00467e-05;-0.0069613197004146634
1.00470e-05;-0.006900488873903026
1.00473e-05;-0.006841151984367837
1.00475e-05;-0.006782885477995056
1.00478e-05;-0.006726757926051992
1.00480e-05;-0.006672197121836482
1.00482e-05;-0.006620767160960127
1.00485e-05;-0.006572048102302288
1.00488e-05;-0.006528746259195541
1.00490e-05;-0.006485444416089088
1.00493e-05;-0.0064458111047102406
1.00495e-05;-0.00641350864687099
1.00497e-05;-0.006381206189031958
1.00500e-05;-0.006352627604359887
1.00503e-05;-0.006331490462426844
1.00505e-05;-0.0063103533204938
1.00508e-05;-0.006295690054600164
1.00510e-05;-0.006293963582115947
1.00513e-05;-0.00629223710963173
1.00515e-05;-0.006290510637147524
1.00518e-05;-0.006288784164663307
1.00520e-05;-0.00628705769217909
1.00523e-05;-0.006285331219694885
1.00525e-05;-0.0062913151934336125
1.00528e-05;-0.006312707007742161
1.00530e-05;-0.006334098822050565
1.00533e-05;-0.006355490636359113
1.00535e-05;-0.0063768824506676616
1.00538e-05;-0.006398274264976065
1.00540e-05;-0.006419666079284614
1.00543e-05;-0.006445083234499448
1.00545e-05;-0.006478544257621293
1.00548e-05;-0.006512005280743366
1.00550e-05;-0.006547027771118732
1.00552e-05;-0.0065851705528231375
1.00555e-05;-0.006623313334527802
1.00558e-05;-0.006662224994677047
1.00560e-05;-0.006702673110194468
1.00563e-05;-0.006743121225712165
1.00565e-05;-0.006783604285543763
1.00567e-05;-0.006824157174850828
1.00570e-05;-0.006864710064158168
1.00573e-05;-0.006904482426916324
1.00575e-05;-0.006942695057813825
1.00578e-05;-0.006980907688711586
1.00580e-05;-0.007017806413406662
1.00582e-05;-0.007052079549813566
1.00585e-05;-0.0070848618064816475
1.00588e-05;-0.007114664827361274
1.00590e-05;-0.0071422855370107995
1.00593e-05;-0.007165545318311664
1.00595e-05;-0.007184554680347341
1.00598e-05;-0.007195070398757777
1.00600e-05;-0.007205586117168142
1.00603e-05;-0.0072108372546698125
1.00605e-05;-0.007205568141983485
1.00608e-05;-0.0072002990292971926
1.00610e-05;-0.007187207200140931
1.00613e-05;-0.007158483179963263
1.00615e-05;-0.00712975915978579
1.00618e-05;-0.007101035139608122
1.00620e-05;-0.007072311119430454
1.00623e-05;-0.007043587099252981
1.00625e-05;-0.006991082526300645
1.00628e-05;-0.006933828285706448
1.00630e-05;-0.0068765740451126375
1.00633e-05;-0.0068193198045184405
1.00635e-05;-0.006762065563924243
1.00637e-05;-0.006698790321566644
1.00640e-05;-0.006623483267742377
1.00643e-05;-0.006548176213918112
1.00645e-05;-0.006470001034348405
1.00648e-05;-0.006386094458310998
1.00650e-05;-0.006302187882273591
1.00652e-05;-0.006216690330452073
1.00655e-05;-0.006128013520187486
1.00658e-05;-0.0060386292040475464
1.00660e-05;-0.005947831073789244
1.00663e-05;-0.005856936419569943
1.00665e-05;-0.005766020340921144
1.00667e-05;-0.005675795714140667
1.00670e-05;-0.005586776463990291
1.00673e-05;-0.005499413801009951
1.00675e-05;-0.005414116737690411
1.00678e-05;-0.005331354370762644
1.00680e-05;-0.005251683328921759
1.00683e-05;-0.005175689569375818
1.00685e-05;-0.005103959204377947
1.00688e-05;-0.005037078035826612
1.00690e-05;-0.004975641494721571
1.00693e-05;-0.004920251208085231
1.00695e-05;-0.004871408806630573
1.00698e-05;-0.004829397217152122
1.00700e-05;-0.004794337500280174
1.00703e-05;-0.004766310991694385
1.00705e-05;-0.004746609031658344
1.00708e-05;-0.004734102300803875
1.00710e-05;-0.004726495151027145
1.00713e-05;-0.004728678869633982
1.00715e-05;-0.0047369207674592346
1.00718e-05;-0.004757268768730813
1.00720e-05;-0.004777616770002391
1.00722e-05;-0.004804666210599397
1.00725e-05;-0.004845107185977355
1.00728e-05;-0.004885548161355312
1.00730e-05;-0.0049310584177529315
1.00733e-05;-0.004986698655158828
1.00735e-05;-0.005045956172630758
1.00737e-05;-0.005112442127078887
1.00740e-05;-0.005181998599562077
1.00743e-05;-0.005257690910491376
1.00745e-05;-0.005335326125272474
1.00748e-05;-0.005417947167376563
1.00750e-05;-0.005503734781621445
1.00752e-05;-0.005592261178488351
1.00755e-05;-0.005683073725217108
1.00758e-05;-0.0057756665483509224
1.00760e-05;-0.005869493579878865
1.00763e-05;-0.005963999596237763
1.00765e-05;-0.006058629063513142
1.00768e-05;-0.0061528269137127905
1.00770e-05;-0.006246039631136432
1.00773e-05;-0.006337713699034092
1.00775e-05;-0.006427281469723459
1.00778e-05;-0.006514141147466045
1.00780e-05;-0.006597666260946146
1.00783e-05;-0.006677224131518879
1.00785e-05;-0.0067521822363733296
1.00788e-05;-0.006821908517309773
1.00790e-05;-0.006884531093710529
1.00793e-05;-0.006940489144944633
1.00795e-05;-0.006991326767038345
1.00798e-05;-0.007031932198460936
1.00800e-05;-0.00706583833898722
1.00803e-05;-0.007086357237951194
1.00805e-05;-0.007106876136915169
1.00808e-05;-0.00711915615028249
1.00810e-05;-0.0071149723388364405
1.00813e-05;-0.007110788527390391
1.00815e-05;-0.007096247911566535
1.00818e-05;-0.007061011218475672
1.00820e-05;-0.00702577452538481
1.00822e-05;-0.006990537832294186
1.00825e-05;-0.006955301139203323
1.00828e-05;-0.006892728009599433
1.00830e-05;-0.006824694999004417
1.00833e-05;-0.0067566619884089395
1.00835e-05;-0.006688628977813462
1.00837e-05;-0.006613107443894084
1.00840e-05;-0.006522621539528306
1.00843e-05;-0.006432135635162528
1.00845e-05;-0.0063379369362734994
1.00848e-05;-0.006236318933174031
1.00850e-05;-0.00613298493130007
1.00853e-05;-0.006025290609498453
1.00855e-05;-0.005914984029354354
1.00858e-05;-0.005802634711709003
1.00860e-05;-0.005688882946616942
1.00863e-05;-0.005574389041521455
1.00865e-05;-0.0054598128387279956
1.00868e-05;-0.005345814645679845
1.00870e-05;-0.0052330487135945495
1.00873e-05;-0.0051221543927890785
1.00875e-05;-0.005013775856019541
1.00878e-05;-0.004908604465769031
1.00880e-05;-0.004807375349318396
1.00883e-05;-0.004710835582681262
1.00885e-05;-0.004619732552224345
1.00888e-05;-0.00453481271246418
1.00890e-05;-0.004456591265792683
1.00893e-05;-0.004384699168182211
1.00895e-05;-0.004317916231751001
1.00898e-05;-0.004255384757897623
1.00900e-05;-0.004197137746857392
1.00903e-05;-0.004143539966988446
1.00905e-05;-0.004095894090983038
1.00907e-05;-0.004053625084611826
1.00910e-05;-0.004014926921194522
1.00913e-05;-0.003983364399140803
1.00915e-05;-0.003955081698618511
1.00918e-05;-0.003933353089240373
1.00920e-05;-0.003911624479862233
1.00922e-05;-0.0038950559238871236
1.00925e-05;-0.003888798740037295
1.00928e-05;-0.0038825415561874665
1.00930e-05;-0.003876284372337638
1.00933e-05;-0.003870027188487852
1.00935e-05;-0.003868859589596511
1.00938e-05;-0.003877862545226957
1.00940e-05;-0.003886865500857342
1.00943e-05;-0.0038958684564877884
1.00945e-05;-0.0039048714121182344
1.00948e-05;-0.003916930100454562
1.00950e-05;-0.00393509508161115
1.00953e-05;-0.003953260062767737
1.00955e-05;-0.00397272326401175
1.00958e-05;-0.003994780707868943
1.00960e-05;-0.004016838151726136
1.00963e-05;-0.004039583817373804
1.00965e-05;-0.004063704761615487
1.00968e-05;-0.00408782570585717
1.00970e-05;-0.0041121533910134485
1.00973e-05;-0.004136894208038752
1.00975e-05;-0.004161252190692041
1.00978e-05;-0.004184845152643971
1.00980e-05;-0.004206957908757606
1.00983e-05;-0.004226112758812478
1.00985e-05;-0.004245267608867218
1.00988e-05;-0.00426442245892209
1.00990e-05;-0.0042835773089769606
1.00992e-05;-0.004302732159031702
1.00995e-05;-0.004319396287729237
1.00998e-05;-0.00433556294697061
1.01000e-05;-0.004351729606211873
1.01003e-05;-0.004367896265453246
1.01005e-05;-0.004384062924694619
1.01007e-05;-0.004400395226628207
1.01010e-05;-0.004417058533554959
1.01013e-05;-0.004433721840481711
1.01015e-05;-0.004450385147408463
1.01018e-05;-0.004467048454335103
1.01020e-05;-0.004483711761261854
1.01023e-05;-0.004500375068188607
1.01025e-05;-0.004517038375115246
1.01028e-05;-0.00453423189644997
1.01030e-05;-0.004551757381490169
1.01033e-05;-0.0045692828665302495
1.01035e-05;-0.0045868083515704485
1.01038e-05;-0.0046043338366106475
1.01040e-05;-0.004621859321650728
1.01043e-05;-0.004639384806690927
1.01045e-05;-0.004656910291731126
1.01048e-05;-0.004679487129955545
1.01050e-05;-0.021786779997864155
1.01053e-05;-0.03433111488038289
1.01055e-05;-0.025637127836715762
1.01058e-05;-0.019508566290280378
1.01060e-05;-0.009033519389481047
1.01063e-05;0.008967244414434762
1.01065e-05;0.004533971668297432
1.01068e-05;0.000533362239008333
1.01070e-05;-0.009357818510402738
1.01073e-05;-0.01742470292612607
1.01075e-05;-0.016078003450435065
1.01077e-05;-0.01048490159856629
1.01080e-05;-0.00293472524681964
1.01083e-05;0.0031142897026781584
1.01085e-05;0.0029904884120386206
1.01088e-05;-0.0005643104643359687
1.01090e-05;-0.006898646037175826
1.01092e-05;-0.01205323394798678
1.01095e-05;-0.01128680342483611
1.01098e-05;-0.007845116049454688
1.01100e-05;-0.0031678920437572984
1.01103e-05;0.0005750165390286733
1.01105e-05;0.0004550168897593464
1.01108e-05;-0.0018118532735251745
1.01110e-05;-0.005818497518832144
1.01113e-05;-0.009085544339592506
1.01115e-05;-0.008643760398166752
1.01118e-05;-0.0065268276388060695
1.01120e-05;-0.003636853798372823
1.01123e-05;-0.0013331005788928551
1.01125e-05;-0.0014498896996897543
1.01128e-05;-0.0029120696015139677
1.01130e-05;-0.005464434356444121
1.01133e-05;-0.007553765798825713
1.01135e-05;-0.0073201367701634466
1.01138e-05;-0.006037453768535238
1.01140e-05;-0.004270714283383032
1.01143e-05;-0.002871205957325132
1.01145e-05;-0.0029876972054906233
1.01148e-05;-0.003946441866223437
1.01150e-05;-0.005587342284190009
1.01153e-05;-0.006937277818252846
1.01155e-05;-0.006831103166367539
1.01158e-05;-0.006066717290338542
1.01160e-05;-0.0049979059867347
1.01162e-05;-0.004157746652147269
1.01165e-05;-0.00426560049324739
1.01168e-05;-0.004899193847236883
1.01170e-05;-0.005958025568894453
1.01173e-05;-0.006832350738777583
1.01175e-05;-0.006792200875551477
1.01177e-05;-0.006337266187762862
1.01180e-05;-0.005689013065677605
1.01183e-05;-0.0051811890214883815
1.01185e-05;-0.005264193811472143
1.01188e-05;-0.0056733002800701945
1.01190e-05;-0.006345238086216003
1.01193e-05;-0.0068973750611218375
1.01195e-05;-0.006871572389465632
1.01198e-05;-0.006580388474614873
1.01200e-05;-0.006162675762194423
1.01203e-05;-0.00582780161879865
1.01205e-05;-0.005858181538025529
1.01208e-05;-0.006088271750868497
1.01210e-05;-0.006478729196297784
1.01213e-05;-0.006790176081844185
1.01215e-05;-0.006735961680472521
1.01218e-05;-0.006512202829833669
1.01220e-05;-0.006206193702181405
1.01223e-05;-0.00594938957489861
1.01225e-05;-0.005918988758883327
1.01228e-05;-0.006011584569549037
1.01230e-05;-0.006202828670124704
1.01233e-05;-0.006343078843491435
1.01235e-05;-0.006253096103180589
1.01238e-05;-0.006056049566757483
1.01240e-05;-0.005806932811346967
1.01243e-05;-0.005588396128216963
1.01245e-05;-0.005511734242290185
1.01247e-05;-0.0055124693262460075
1.01250e-05;-0.0055756489970498115
1.01253e-05;-0.00560784162179575
1.01255e-05;-0.005497086192621423
1.01258e-05;-0.0053208501968864085
1.01260e-05;-0.0051138922377797465
1.01262e-05;-0.004928290580102301
1.01265e-05;-0.004834060111313926
1.01268e-05;-0.004791111312560695
1.01270e-05;-0.004790378911651578
1.01273e-05;-0.0047736425767874475
1.01275e-05;-0.004671079907535268
1.01278e-05;-0.004531527628074498
1.01280e-05;-0.004377066534058226
1.01283e-05;-0.004240623471025534
1.01285e-05;-0.004166357856684497
1.01288e-05;-0.004129457896447756
1.01290e-05;-0.004124336746162715
1.01293e-05;-0.004113831390090198
1.01295e-05;-0.004052751757886514
1.01298e-05;-0.003970527882283891
1.01300e-05;-0.0038806016573754753
1.01303e-05;-0.0038035041882880736
1.01305e-05;-0.003766800421748477
1.01308e-05;-0.0037548512156484466
1.01310e-05;-0.0037640605565815244
1.01313e-05;-0.0037710543299325217
1.01315e-05;-0.003747433302981876
1.01318e-05;-0.0037115399183147743
1.01320e-05;-0.0036717004537045014
1.01323e-05;-0.003640681323392553
1.01325e-05;-0.0036356530829010016
1.01328e-05;-0.003646723229632472
1.01330e-05;-0.0036715435730632798
1.01332e-05;-0.0036953774978572265
1.01335e-05;-0.003700342251899675
1.01338e-05;-0.0036978341587087424
1.01340e-05;-0.0036929750137014664
1.01343e-05;-0.0036936671532477594
1.01345e-05;-0.003710570671712464
1.01347e-05;-0.0037373930391799144
1.01350e-05;-0.0037725679345477067
1.01353e-05;-0.0038067696800714278
1.01355e-05;-0.0038287025113278527
1.01358e-05;-0.0038454113282140653
1.01360e-05;-0.00386204860748114
1.01363e-05;-0.0038810165051124325
1.01365e-05;-0.0039040256250225994
1.01368e-05;-0.003935987722267257
1.01370e-05;-0.003972164440459473
1.01373e-05;-0.004006618967751762
1.01375e-05;-0.0040321815387462405
1.01378e-05;-0.0040531710513035096
1.01380e-05;-0.0040724432099128235
1.01383e-05;-0.004091741843473362
1.01385e-05;-0.004112705986282682
1.01388e-05;-0.0041371004828312085
1.01390e-05;-0.004161234371764761
1.01393e-05;-0.004183485996378761
1.01395e-05;-0.004203427637507736
1.01398e-05;-0.004218934079165515
1.01400e-05;-0.0042343791965399336
1.01403e-05;-0.004250634267926518
1.01405e-05;-0.004268338552984389
1.01408e-05;-0.00428916701544929
1.01410e-05;-0.004310608098524708
1.01413e-05;-0.004331469724196095
1.01415e-05;-0.004351182269205151
1.01417e-05;-0.004368825870581673
1.01420e-05;-0.004386969830994624
1.01423e-05;-0.004406027252008337
1.01425e-05;-0.004426181886038026
1.01428e-05;-0.004448893395303883
1.01430e-05;-0.004472657022117772
1.01432e-05;-0.004495779588136003
1.01435e-05;-0.004517510978623906
1.01438e-05;-0.0045388328357034045
1.01440e-05;-0.004560191787629636
1.01443e-05;-0.0045822267673036885
1.01445e-05;-0.004605795002851859
1.01448e-05;-0.004630060641778514
1.01450e-05;-0.004654550544980008
1.01453e-05;-0.004679040448181667
1.01455e-05;-0.004702944127649839
1.01458e-05;-0.004725738520673222
1.01460e-05;-0.004748432174264199
1.01463e-05;-0.004771125827855176
