Time(s);Current(A)
1.37500e-05;-0.00043812820251176233
1.37503e-05;-0.00042518968888249713
1.37505e-05;-0.00041193629198166075
1.37508e-05;-0.0003986828950809142
1.37510e-05;-0.0003854294981800778
1.37513e-05;-0.00037063570258362807
1.37515e-05;-0.0003554531849595813
1.37518e-05;-0.00034027066733543154
1.37520e-05;-0.00032423144674240654
1.37523e-05;-0.00030797603581113315
1.37525e-05;-0.0002917206248797496
1.37528e-05;-0.00027427817918000404
1.37530e-05;-0.00025653618339411806
1.37533e-05;-0.0002387941876081118
1.37535e-05;-0.00022051920131257077
1.37538e-05;-0.0002021097140258025
1.37540e-05;-0.00018370022673890946
1.37543e-05;-0.00016508042725094687
1.37545e-05;-0.00014640755514918534
1.37548e-05;-0.00012773468304729728
1.37550e-05;-0.00010905842090592444
1.37553e-05;-9.038130328289506e-05
1.37555e-05;-7.196936692318842e-05
1.37558e-05;-5.3924375228092156e-05
1.37560e-05;-3.632323287620618e-05
1.37563e-05;-1.9195941534415925e-05
1.37565e-05;-2.5518975172496006e-06
1.37568e-05;1.354560806660852e-05
1.37570e-05;2.898794149713708e-05
1.37573e-05;4.365847881865875e-05
1.37575e-05;5.744057356443947e-05
1.37578e-05;7.021761317400198e-05
1.37580e-05;8.192192940200671e-05
1.37583e-05;9.26185306623588e-05
1.37585e-05;0.00010243932826792933
1.37588e-05;0.00011143310662060978
1.37590e-05;0.00011956762540019213
1.37593e-05;0.0001267958808368622
1.37595e-05;0.00013307081350299478
1.37598e-05;0.00013834540317354154
1.37600e-05;0.00014260326353349924
1.37603e-05;0.00014591114786862162
1.37605e-05;0.00014837769561518605
1.37608e-05;0.00015005948282009006
1.37610e-05;0.00015096230809829466
1.37613e-05;0.00015108272286446168
1.37615e-05;0.00015041728406987775
1.37618e-05;0.0001489625226035288
1.37620e-05;0.00014645885135362516
1.37623e-05;0.00014373065828662018
1.37625e-05;0.00014003889805839904
1.37628e-05;0.00013610398014511489
1.37630e-05;0.00013134527392234807
1.37633e-05;0.00012637868342703362
1.37635e-05;0.00012066441928765559
1.37638e-05;0.00011476147853105425
1.37640e-05;0.00010822580883675203
1.37643e-05;0.00010153046900220163
1.37645e-05;9.437427842731671e-05
1.37648e-05;8.710179144491525e-05
1.37650e-05;7.982930446251379e-05
1.37653e-05;7.231701067679866e-05
1.37655e-05;6.474420126791416e-05
1.37658e-05;5.717988338747856e-05
1.37660e-05;4.9635521517674005e-05
1.37663e-05;4.209115964792056e-05
1.37665e-05;3.474727605657163e-05
1.37668e-05;2.765124920284271e-05
1.37670e-05;2.0843460134410686e-05
1.37673e-05;1.4375459079189387e-05
1.37675e-05;8.298788554435104e-06
1.37678e-05;2.664987449661812e-06
1.37680e-05;-2.6203103389836595e-06
1.37683e-05;-8.016002063017818e-06
1.37685e-05;-1.4091982687846045e-05
1.37688e-05;-2.1081653083517733e-05
1.37690e-05;-2.8940871939072272e-05
1.37693e-05;-3.757664346357419e-05
1.37695e-05;-4.689579973928689e-05
1.37698e-05;-5.6805178305272974e-05
1.37700e-05;-6.730301814492927e-05
1.37703e-05;-7.86158760642129e-05
1.37705e-05;-9.103983345100959e-05
1.37708e-05;-0.00010466014464853839
1.37710e-05;-0.00011938823576370615
1.37713e-05;-0.0001351049013135018
1.37715e-05;-0.00015169087369130217
1.37718e-05;-0.00016902687671268784
1.37720e-05;-0.00018736706136679765
1.37723e-05;-0.00020592373642546146
1.37725e-05;-0.00022588096548306584
1.37728e-05;-0.0002461916265400761
1.37730e-05;-0.00026477170003698006
1.37733e-05;-0.00027852305410319727
1.37735e-05;-0.00029987547298455507
1.37738e-05;-0.019798539105446968
1.37740e-05;-0.020743103823874436
1.37743e-05;-0.016300208141501096
1.37745e-05;-0.012681465657161687
1.37748e-05;0.0025886505577146224
1.37750e-05;0.005009473937695109
1.37753e-05;0.003931057892600856
1.37755e-05;0.0006402489040842322
1.37758e-05;-0.006482513132736728
1.37760e-05;-0.009146567297488167
1.37763e-05;-0.007669328432376122
1.37765e-05;-0.003969426714283104
1.37768e-05;0.0011195096505032891
1.37770e-05;0.0035611484432241532
1.37773e-05;0.0031747659381868893
1.37775e-05;0.00060423703979379
1.37778e-05;-0.0035557466540125328
1.37780e-05;-0.00531805992562628
1.37783e-05;-0.004466550689768052
1.37785e-05;-0.0022078392561593893
1.37788e-05;0.000932337067086297
1.37790e-05;0.0024231326876541573
1.37793e-05;0.002149530847350376
1.37795e-05;0.0005134586307947173
1.37798e-05;-0.00211366442663499
1.37800e-05;-0.003235272155581299
1.37803e-05;-0.0027168452560942767
1.37805e-05;-0.0013148996794637487
1.37808e-05;0.0006407291528050747
1.37810e-05;0.0015643930540140635
1.37813e-05;0.0013838681617213864
1.37815e-05;0.0003507953663742198
1.37818e-05;-0.0013022696978075914
1.37820e-05;-0.0020116281246512747
1.37823e-05;-0.0016932105436920151
1.37825e-05;-0.0008210509338985289
1.37828e-05;0.0003981374295670896
1.37830e-05;0.0009710703830341211
1.37833e-05;0.0008525287556068794
1.37835e-05;0.00020016511274544515
1.37838e-05;-0.0008403304174350232
1.37840e-05;-0.001289487494418688
1.37843e-05;-0.0010947171284098128
1.37845e-05;-0.0005530109756465394
1.37848e-05;0.00020611029497368859
1.37850e-05;0.0005604554275452881
1.37853e-05;0.00048173111464451713
1.37855e-05;6.87204612245086e-05
1.37858e-05;-0.000587294346219396
1.37860e-05;-0.0008727838470232359
1.37863e-05;-0.0007548448932961692
1.37865e-05;-0.0004195435213125397
1.37868e-05;5.197021048823646e-05
1.37870e-05;0.00026995995158262553
1.37873e-05;0.00021672500274310066
1.37875e-05;-4.583667867603233e-05
1.37878e-05;-0.0004605301224048551
1.37880e-05;-0.0006428942890362709
1.37883e-05;-0.0005716648258403803
1.37885e-05;-0.0003625175395592286
1.37888e-05;-6.596294430028158e-05
1.37890e-05;7.377836320390964e-05
1.37893e-05;4.551918990547566e-05
1.37895e-05;-0.0001120683963900191
1.37898e-05;-0.00036326166981499387
1.37900e-05;-0.00046735152900732093
1.37903e-05;-0.0004111462642046709
1.37905e-05;-0.00026723064679008636
1.37908e-05;-6.736523296952056e-05
1.37910e-05;3.535817922440906e-05
1.37913e-05;3.3826919919278425e-05
1.37915e-05;-4.78406868892614e-05
1.37918e-05;-0.00018737588121506843
1.37920e-05;-0.00023411456960541796
1.37923e-05;-0.00017991658241813858
1.37925e-05;-7.03702397934103e-05
1.37928e-05;7.451133343901389e-05
1.37930e-05;0.00015871862024843588
1.37933e-05;0.00017768781174820893
1.37935e-05;0.00014641768736001692
1.37938e-05;7.874717549681085e-05
1.37940e-05;6.8936877721301e-05
1.37943e-05;0.00012196610920069356
1.37945e-05;0.00020915980178428002
1.37948e-05;0.0003178650584162774
1.37950e-05;0.00038782828322439733
1.37953e-05;0.0004160802202207878
1.37955e-05;0.0004119053092320014
1.37958e-05;0.00038386064859001994
1.37960e-05;0.0003908762911296318
1.37963e-05;0.00043595376398176695
1.37965e-05;0.0005010143268814057
1.37968e-05;0.0005780165288445173
1.37970e-05;0.0006291040542460467
1.37973e-05;0.000652305358298096
1.37975e-05;0.0006533243924545574
1.37978e-05;0.0006374092587804111
1.37980e-05;0.0006414281501227047
1.37983e-05;0.0006674801324314987
1.37985e-05;0.0007046433183637029
1.37988e-05;0.0007481157474496663
1.37990e-05;0.000774258152480604
1.37993e-05;0.0007819016750564834
1.37995e-05;0.0007746853256796364
1.37998e-05;0.0007559623591977308
1.38000e-05;0.0007488915085092707
1.38003e-05;0.0007548509491213882
1.38005e-05;0.0007670631929373242
1.38008e-05;0.0007825842563969204
1.38010e-05;0.0007866716198631931
1.38013e-05;0.0007786587857517622
1.38015e-05;0.000760890831722024
1.38018e-05;0.0007355336617663689
1.38020e-05;0.00071715857150026
1.38023e-05;0.000706692859966336
1.38025e-05;0.0006999551081802787
1.38028e-05;0.0006951657939035778
1.38030e-05;0.0006831550113790713
1.38033e-05;0.0006635706460511126
1.38035e-05;0.0006379470381180868
1.38038e-05;0.000607706002472878
1.38040e-05;0.0005820397638319131
1.38043e-05;0.0005615933990332147
1.38045e-05;0.0005438120844593441
1.38048e-05;0.0005276456372123908
1.38050e-05;0.000507414869718873
1.38053e-05;0.0004829643511707875
1.38055e-05;0.0004553203300133024
1.38058e-05;0.00042543841353935005
1.38060e-05;0.0003991412898057203
1.38063e-05;0.00037689748668068355
1.38065e-05;0.00035717108042293387
1.38068e-05;0.000339368867902104
1.38070e-05;0.00031999820722983073
1.38073e-05;0.00029902671183922985
1.38075e-05;0.0002771620489825743
1.38078e-05;0.00025506717459674666
1.38080e-05;0.00023635535401779684
1.38083e-05;0.00022092852745434364
1.38085e-05;0.00020724311552922371
1.38088e-05;0.0001946619887155571
1.38090e-05;0.00018099103303267843
1.38093e-05;0.00016621707040180876
1.38095e-05;0.00015079043946292185
1.38098e-05;0.00013513345664428582
1.38100e-05;0.00012151632527077216
1.38103e-05;0.00010988444377730053
1.38105e-05;9.927779750397642e-05
1.38108e-05;8.93041746123931e-05
1.38110e-05;7.859621569314534e-05
1.38113e-05;6.715218092570956e-05
1.38115e-05;5.517174918926265e-05
1.38118e-05;4.319818716682728e-05
1.38120e-05;3.2387741478987015e-05
1.38123e-05;2.280420837112474e-05
1.38125e-05;1.3853174326205875e-05
1.38128e-05;5.29593337362442e-06
1.38130e-05;-3.7169883449124855e-06
1.38133e-05;-1.3179283026303142e-05
1.38135e-05;-2.2902749679313086e-05
1.38138e-05;-3.271023562863055e-05
1.38140e-05;-4.169958392281901e-05
1.38143e-05;-4.988093907496543e-05
1.38145e-05;-5.76203213991639e-05
1.38148e-05;-6.51700842122543e-05
1.38150e-05;-7.2721779908243e-05
1.38153e-05;-8.05991417766276e-05
1.38155e-05;-8.855285848049711e-05
1.38158e-05;-9.650294725413444e-05
1.38160e-05;-0.00010383793982205915
1.38163e-05;-0.00011038418437111415
1.38165e-05;-0.00011692764991078642
1.38168e-05;-0.00012300354017991688
1.38170e-05;-0.00012907943044900618
1.38173e-05;-0.00013515343474321557
1.38175e-05;-0.000140910119050535
1.38178e-05;-0.0001466668033578544
1.38180e-05;-0.00015242050709567332
1.38183e-05;-0.00015767272258309015
1.38185e-05;-0.00016292943469647044
1.38188e-05;-0.00016894271535029012
1.38190e-05;-0.00017496308630058388
1.38193e-05;-0.00018217641732226283
1.38195e-05;-0.0001893897483438929
1.38198e-05;-0.00019660787562329258
1.38200e-05;-0.00020463298523598598
1.38203e-05;-0.000212658094848625
1.38205e-05;-0.00022069072312655666
1.38208e-05;-0.0002299883855993747
1.38210e-05;-0.00023929410896911745
1.38213e-05;-0.00024995609838076704
1.38215e-05;-0.0002606180877924167
1.38218e-05;-0.00027128591957922523
1.38220e-05;-0.0002829367455851112
1.38223e-05;-0.0002945875715909972
1.38225e-05;-0.0003062479342356116
1.38228e-05;-0.00031951286017113217
1.38230e-05;-0.0003327777861066528
1.38233e-05;-0.00034604271204208346
1.38235e-05;-0.000359307637977604
1.38238e-05;-0.00037257256391312463
1.38240e-05;-0.0003858374898485553
1.38243e-05;-0.00039941758815673924
1.38245e-05;-0.00041330549725447955
1.38248e-05;-0.0004271934063521257
1.38250e-05;-0.000441081315449866
1.38253e-05;-0.00045496922454760626
1.38255e-05;-0.00046885713364525246
1.38258e-05;-0.00048273808138319746
1.38260e-05;-0.0004954477629487604
1.38263e-05;-0.0005081574445143232
1.38265e-05;-0.0005208671260798
1.38268e-05;-0.0005335768076453628
1.38270e-05;-0.0005451108045249342
1.38273e-05;-0.0005554965775660459
1.38275e-05;-0.000565882350607228
1.38278e-05;-0.0005762681236484101
1.38280e-05;-0.0005866342560733932
1.38283e-05;-0.0005936958057686019
1.38285e-05;-0.0006007370357014569
1.38288e-05;-0.0006043594148554115
1.38290e-05;-0.0006079618215963413
1.38293e-05;-0.0006082038199465898
1.38295e-05;-0.0006084264080050131
1.38298e-05;-0.0006053831659732945
1.38300e-05;-0.0006023186967721285
1.38303e-05;-0.0005956827032858806
1.38305e-05;-0.0005890238242951429
1.38308e-05;-0.0005785144020133859
1.38310e-05;-0.0005679842842474502
1.38313e-05;-0.0005539720995549035
1.38315e-05;-0.0005399415436952098
1.38318e-05;-0.0005228199930682731
1.38320e-05;-0.0005056809052563342
1.38323e-05;-0.00048559114227249056
1.38325e-05;-0.0004654847753902267
1.38328e-05;-0.00044258476108939603
1.38330e-05;-0.00041967148638498913
1.38333e-05;-0.0003945271156467426
1.38335e-05;-0.000369374982511174
1.38338e-05;-0.00034291266529163614
1.38340e-05;-0.00031574990200746854
1.38343e-05;-0.00028796964902266163
1.38345e-05;-0.00025964228885181777
1.38348e-05;-0.00023089884495787233
1.38350e-05;-0.00020191895843483178
1.38353e-05;-0.0001728794287759652
1.38355e-05;-0.00014395599954765949
1.38358e-05;-0.00011532434800632555
1.38360e-05;-8.714640258962273e-05
1.38363e-05;-5.955744761803067e-05
1.38365e-05;-3.268483364790332e-05
1.38368e-05;-6.6939520257629155e-06
1.38370e-05;1.821940539459768e-05
1.38373e-05;4.1861228463662395e-05
1.38375e-05;6.403820479892651e-05
1.38378e-05;8.455687379299055e-05
1.38380e-05;0.00010320378928055826
1.38383e-05;0.00011970344474942213
1.38385e-05;0.00013380650505957593
1.38388e-05;0.00014540936921882247
1.38390e-05;0.00015449194545978607
1.38393e-05;0.00016103978630991911
1.38395e-05;0.00016503887810282087
1.38398e-05;0.00016647510541738486
1.38400e-05;0.00016532186873162398
1.38403e-05;0.00016151372019282173
1.38405e-05;0.0001550015642748537
1.38408e-05;0.00014582765014823937
1.38410e-05;0.0001340864990581975
1.38413e-05;0.00011987618509878999
1.38415e-05;0.00010329502841430309
1.38418e-05;8.444132493598102e-05
1.38420e-05;6.34055009117633e-05
1.38423e-05;4.025366639036782e-05
1.38425e-05;1.5062181179907597e-05
1.38428e-05;-1.2035399125667538e-05
1.38430e-05;-4.087276942483288e-05
1.38433e-05;-7.128142117773373e-05
1.38435e-05;-0.00010309267790345706
1.38438e-05;-0.00013613792957490394
1.38440e-05;-0.00017025571817588453
1.38443e-05;-0.00020567257691207018
1.38445e-05;-0.00024109686290507123
1.38448e-05;-0.00027777080339041457
1.38450e-05;-0.0003144447438755094
1.38453e-05;-0.000351118862076447
1.38455e-05;-0.00038782288137056736
1.38458e-05;-0.0004245212451472353
1.38460e-05;-0.00046026805400954895
1.38463e-05;-0.0004960043421430868
1.38465e-05;-0.000529970491346336
1.38468e-05;-0.0005639206832886717
1.38470e-05;-0.0005951860261295966
1.38473e-05;-0.0006264297414898328
1.38475e-05;-0.0006540345791588925
1.38478e-05;-0.0006816107762734464
1.38480e-05;-0.0007043681284478623
1.38483e-05;-0.0007271254806224325
1.38485e-05;-0.0007498616497631597
1.38488e-05;-0.0007690337204661886
1.38490e-05;-0.0007882057911693474
1.38493e-05;-0.0008073534272824315
1.38495e-05;-0.0008223898824826938
1.38498e-05;-0.0008374263376830579
1.38500e-05;-0.0008524403973369187
1.38503e-05;-0.000863686350255968
1.38505e-05;-0.0008749323031750936
1.38508e-05;-0.0008861478627678239
1.38510e-05;-0.0008922496691419494
1.38513e-05;-0.0008983514755161163
1.38515e-05;-0.0009044532818902832
1.38518e-05;-0.0009105550882644501
1.38520e-05;-0.0009166568946385756
1.38523e-05;-0.0009227587010127426
1.38525e-05;-0.0009288605073869095
1.38528e-05;-0.0009349623137610351
1.38530e-05;-0.0009382564339639797
1.38533e-05;-0.0009388084480282435
1.38535e-05;-0.0009393604620925036
1.38538e-05;-0.0009399124761567673
1.38540e-05;-0.0009404644902210311
1.38543e-05;-0.0009410165042852912
1.38545e-05;-0.000941568518349555
1.38548e-05;-0.0009421205324138187
1.38550e-05;-0.0009426599567755614
1.38553e-05;-0.0009410811321809445
1.38555e-05;-0.0009395023075863277
1.38558e-05;-0.0009379234829917214
1.38560e-05;-0.0009363446583971045
1.38563e-05;-0.00093476422313349
1.38565e-05;-0.0009329127887797636
1.38568e-05;-0.0009310613544260246
1.38570e-05;-0.0009292099200722856
1.38573e-05;-0.0009273584857185591
1.38575e-05;-0.0009255066468674781
1.38578e-05;-0.0009235867503260486
1.38580e-05;-0.0009216668537846322
1.38583e-05;-0.0009197469572432028
1.38585e-05;-0.0009178270607017734
1.38588e-05;-0.000915907164160357
1.38590e-05;-0.0009139872676189276
1.38593e-05;-0.000912056062819106
1.38595e-05;-0.0009082222152330665
1.38598e-05;-0.000904388367647001
1.38600e-05;-0.0009005545200609354
1.38603e-05;-0.0008967206724748699
1.38605e-05;-0.0008928868248888304
1.38608e-05;-0.0008890529773027648
1.38610e-05;-0.0008852033894359915
1.38613e-05;-0.0008787054599261102
1.38615e-05;-0.000872207530416185
1.38618e-05;-0.0008657096009062599
1.38620e-05;-0.0008592116713963786
1.38623e-05;-0.0008527137418864534
1.38625e-05;-0.0008462158123765282
1.38628e-05;-0.000839717882866647
1.38630e-05;-0.0008332199533567218
1.38633e-05;-0.0008267220238467966
1.38635e-05;-0.0008194247214681574
1.38638e-05;-0.0008113467174306863
1.38640e-05;-0.000803268713393215
1.38643e-05;-0.0007951907093557986
1.38645e-05;-0.0007871127053183274
1.38648e-05;-0.0007790347012808561
1.38650e-05;-0.0007709566972434398
1.38653e-05;-0.0007628786932059686
1.38655e-05;-0.0007548006891684974
1.38658e-05;-0.0007467287057097113
1.38660e-05;-0.0007396696996892845
1.38663e-05;-0.0007326106936688578
1.38665e-05;-0.0007255516876484788
1.38668e-05;-0.0007184926816280521
1.38670e-05;-0.0007114336756076253
1.38673e-05;-0.0007043746695872463
1.38675e-05;-0.0006973156635668197
1.38678e-05;-0.0006919926803846488
1.38680e-05;-0.0006883651711955214
1.38683e-05;-0.0006847376620063694
1.38685e-05;-0.0006811101528172174
1.38688e-05;-0.0006774826436280653
1.38690e-05;-0.0006738551344389379
1.38693e-05;-0.0006702276252497859
1.38695e-05;-0.0006666309943118681
1.38698e-05;-0.0006682297065239553
1.38700e-05;-0.0006698284187360535
1.38703e-05;-0.0006714271309481515
1.38705e-05;-0.0006730258431602387
1.38708e-05;-0.0006746245553723367
1.38710e-05;-0.0006762232675844349
1.38713e-05;-0.000677821979796522
1.38715e-05;-0.0006794206920086201
1.38718e-05;-0.0006810472796315896
1.38720e-05;-0.0006873639749938811
1.38723e-05;-0.0006936806703562153
1.38725e-05;-0.0006999973657185496
1.38728e-05;-0.000706314061080841
1.38730e-05;-0.0007126307564431753
1.38733e-05;-0.0007189474518055094
1.38735e-05;-0.0007252641471678009
1.38738e-05;-0.0007315808425301351
1.38740e-05;-0.0007379093153348614
1.38743e-05;-0.0007462193723427277
1.38745e-05;-0.0007545294293506503
1.38748e-05;-0.0007628394863585728
1.38750e-05;-0.0007711495433664391
1.38753e-05;-0.0007794596003743617
1.38755e-05;-0.0007877696573822843
1.38758e-05;-0.0007958094294352826
1.38760e-05;-0.0008035852296662671
1.38763e-05;-0.0008113610298972516
1.38765e-05;-0.0008191368301281835
1.38768e-05;-0.0008269126303591679
1.38770e-05;-0.0008346884305901524
1.38773e-05;-0.0008424555734907146
1.38775e-05;-0.0008487660988409446
1.38778e-05;-0.0008550684556365395
1.38780e-05;-0.0008599964326248122
1.38783e-05;-0.0008649019106649387
1.38785e-05;-0.0008660218842685772
1.38788e-05;-0.0008671418578722158
1.38790e-05;-0.0008682324890589931
1.38793e-05;-0.0008643861850334747
1.38795e-05;-0.0008605398810079563
1.38798e-05;-0.0008566645020130632
1.38800e-05;-0.0008478971865160622
1.38803e-05;-0.0008391298710190611
1.38805e-05;-0.0008303287896178495
1.38808e-05;-0.0008158465101544888
1.38810e-05;-0.000801364230691128
1.38813e-05;-0.0007868528146986085
1.38815e-05;-0.0007674391045924443
1.38818e-05;-0.00074802539448628
1.38820e-05;-0.0007285900101288044
1.38823e-05;-0.0007055078786088907
1.38825e-05;-0.0006824089285054032
1.38828e-05;-0.000656480209536353
1.38830e-05;-0.0006305410370732264
1.38833e-05;-0.0006028373525197412
1.38835e-05;-0.0005741723418647446
1.38838e-05;-0.0005447088685972069
1.38840e-05;-0.0005145895462213639
1.38843e-05;-0.00048388908053234277
1.38845e-05;-0.00045265753097098314
1.38848e-05;-0.00042102379289484675
1.38850e-05;-0.000389174613331959
1.38853e-05;-0.0003572995741176166
1.38855e-05;-0.00032558817029213914
1.38858e-05;-0.00029422982381471704
1.38860e-05;-0.00026340140765177607
1.38863e-05;-0.00023323714243689075
1.38865e-05;-0.00020385580218771292
1.38868e-05;-0.00017542556031178885
1.38870e-05;-0.00014815080868944985
1.38873e-05;-0.00012223766064818322
1.38875e-05;-9.789222930049271e-05
1.38878e-05;-7.531979277619497e-05
1.38880e-05;-5.458827224806192e-05
1.38883e-05;-3.526701327672111e-05
1.38885e-05;-1.6663946799832335e-05
1.38888e-05;1.4667527539371284e-06
1.38890e-05;1.900678207536362e-05
1.38893e-05;3.581929025878881e-05
1.38895e-05;5.1767455946032314e-05
1.38898e-05;6.67149897364161e-05
1.38900e-05;8.061164966985328e-05
1.38903e-05;9.371948719071033e-05
1.38905e-05;0.0001064642606148256
1.38908e-05;0.00011899105030676518
1.38910e-05;0.00013102677204512227
1.38913e-05;0.00014305676161751812
1.38915e-05;0.0001541222998916424
1.38918e-05;0.0001651802481541169
1.38920e-05;0.0001749611579037299
1.38923e-05;0.00018474206765340916
1.38925e-05;0.0001945193856911716
1.38928e-05;0.0002036923891821237
1.38930e-05;0.00021286539267313795
