Time(s);Current(A)
1.37500e-05;0.0048360977650429475
1.37503e-05;0.004850569910468193
1.37505e-05;0.004865042055893438
1.37508e-05;0.004879514201318585
1.37510e-05;0.00489398634674383
1.37513e-05;0.0049084584921690756
1.37515e-05;0.004922930637594223
1.37518e-05;0.0049567581290410395
1.37520e-05;0.004998230854611266
1.37523e-05;0.005039703580181211
1.37525e-05;0.005081176305751437
1.37528e-05;0.005122649031321663
1.37530e-05;0.005164121756891608
1.37533e-05;0.005205594482461835
1.37535e-05;0.005247067208032061
1.37538e-05;0.0052885399336020066
1.37540e-05;0.005330012659172233
1.37543e-05;0.005371485384742459
1.37545e-05;0.00541440060325775
1.37548e-05;0.0054625253824926645
1.37550e-05;0.005510650161727579
1.37553e-05;0.0055587749409621665
1.37555e-05;0.005606899720197081
1.37558e-05;0.005655024499431996
1.37560e-05;0.005703149278666583
1.37563e-05;0.005751274057901498
1.37565e-05;0.005799398837136412
1.37568e-05;0.005837832749796743
1.37570e-05;0.005872438834024305
1.37573e-05;0.005907044918251867
1.37575e-05;0.005941651002479429
1.37578e-05;0.005976257086706756
1.37580e-05;0.006010863170934318
1.37583e-05;0.00604546925516188
1.37585e-05;0.006080075339389208
1.37588e-05;0.00611069553345036
1.37590e-05;0.006126920692226467
1.37593e-05;0.006143145851002465
1.37595e-05;0.006159371009778572
1.37598e-05;0.00617559616855468
1.37600e-05;0.006191821327330678
1.37603e-05;0.006208046486106785
1.37605e-05;0.006224271644882893
1.37608e-05;0.006240496803658891
1.37610e-05;0.006256721962434999
1.37613e-05;0.006272947121211106
1.37615e-05;0.006289172279987104
1.37618e-05;0.0063053974387632114
1.37620e-05;0.006321622597539319
1.37623e-05;0.0063378477563153165
1.37625e-05;0.006354072915091424
1.37628e-05;0.006370298073867532
1.37630e-05;0.006386523232643529
1.37633e-05;0.006402748391419637
1.37635e-05;0.006416594538469428
1.37638e-05;0.006421848888875952
1.37640e-05;0.0064271032392825105
1.37643e-05;0.00643235758968907
1.37645e-05;0.006437611940095593
1.37648e-05;0.006442866290502151
1.37650e-05;0.0064481206409087105
1.37653e-05;0.0064533749913152335
1.37655e-05;0.006458629341721793
1.37658e-05;0.006463883692128351
1.37660e-05;0.006469138042534911
1.37663e-05;0.0064743923929414336
1.37665e-05;0.006479646743347993
1.37668e-05;0.006484901093754551
1.37670e-05;0.006490155444161075
1.37673e-05;0.006495409794567634
1.37675e-05;0.006500664144974192
1.37678e-05;0.006505918495380716
1.37680e-05;0.006511172845787274
1.37683e-05;0.006515901901722753
1.37685e-05;0.006518733857604229
1.37688e-05;0.006521565813485724
1.37690e-05;0.00652439776936722
1.37693e-05;0.006527229725248695
1.37695e-05;0.006530061681130191
1.37698e-05;0.006532893637011686
1.37700e-05;0.006535725592893162
1.37703e-05;0.006538557548774657
1.37705e-05;0.006541389504656153
1.37708e-05;0.006544221460537628
1.37710e-05;0.006547053416419124
1.37713e-05;0.006549885372300619
1.37715e-05;0.006552717328182095
1.37718e-05;0.00655554928406359
1.37720e-05;0.006558381239945086
1.37723e-05;0.006561213195826561
1.37725e-05;0.006564045151708057
1.37728e-05;0.0065668771075895515
1.37730e-05;0.006569721574151879
1.37733e-05;0.006572611223016024
1.37735e-05;0.0065755008718801685
1.37738e-05;0.006578390520744294
1.37740e-05;0.0065812801696084385
1.37743e-05;0.006584169818472584
1.37745e-05;0.0065870594673367285
1.37748e-05;0.006589949116200854
1.37750e-05;0.0065928387650649985
1.37753e-05;0.006595728413929143
1.37755e-05;0.0065986180627932685
1.37758e-05;0.006601507711657413
1.37760e-05;0.0066043973605215585
1.37763e-05;0.006607287009385683
1.37765e-05;0.0066101766582498285
1.37768e-05;0.006613066307113973
1.37770e-05;0.0066159559559780985
1.37773e-05;0.006618845604842243
1.37775e-05;0.006621735253706388
1.37778e-05;0.006622006325656819
1.37780e-05;0.006612820411706608
1.37783e-05;0.0066036344977563975
1.37785e-05;0.006594448583806248
1.37788e-05;0.0065852626698560375
1.37790e-05;0.006576076755905826
1.37793e-05;0.006566890841955678
1.37795e-05;0.006557704928005466
1.37798e-05;0.006548519014055255
1.37800e-05;0.006539333100105106
1.37803e-05;0.0065244865845780365
1.37805e-05;0.006489196816448402
1.37808e-05;0.006453907048319006
1.37810e-05;0.0064186172801893706
1.37813e-05;0.006383327512059736
1.37815e-05;0.00634803774393034
1.37818e-05;0.006312747975800705
1.37820e-05;0.00627745820767107
1.37823e-05;0.006242168439541674
1.37825e-05;0.006206878671412039
1.37828e-05;0.0061676638517820315
1.37830e-05;0.006114273715586478
1.37833e-05;0.006060883579391286
1.37835e-05;0.006007493443195732
1.37838e-05;0.005954103307000178
1.37840e-05;0.005900713170804987
1.37843e-05;0.005847323034609433
1.37845e-05;0.00579393289841388
1.37848e-05;0.005740542762218687
1.37850e-05;0.0056874075850300125
1.37853e-05;0.0056351931918447685
1.37855e-05;0.0055829787986598775
1.37858e-05;0.005530764405474633
1.37860e-05;0.005478550012289388
1.37863e-05;0.005426335619104497
1.37865e-05;0.005374121225919253
1.37868e-05;0.005321906832734008
1.37870e-05;0.005269692439549117
1.37873e-05;0.005221641370766036
1.37875e-05;0.0051886261407163466
1.37878e-05;0.00515561091066688
1.37880e-05;0.005122595680617191
1.37883e-05;0.0050895804505675015
1.37885e-05;0.005056565220518035
1.37888e-05;0.005023549990468346
1.37890e-05;0.0049905347604186565
1.37893e-05;0.00495751953036919
1.37895e-05;0.004924504300319501
1.37898e-05;0.0048914890702698105
1.37900e-05;0.004858473840220345
1.37903e-05;0.004827539125145705
1.37905e-05;0.004804118186234167
1.37908e-05;0.0047806972473227885
1.37910e-05;0.004757276308411252
1.37913e-05;0.004733855369499714
1.37915e-05;0.0047104344305881765
1.37918e-05;0.0046870134916767985
1.37920e-05;0.004663592552765261
1.37923e-05;0.004640171613853723
1.37925e-05;0.004616750674942345
1.37928e-05;0.004593329736030808
1.37930e-05;0.00456990879711927
1.37933e-05;0.004547369135045403
1.37935e-05;0.0045280122027162965
1.37938e-05;0.00450865527038719
1.37940e-05;0.004489298338058215
1.37943e-05;0.004469941405729108
1.37945e-05;0.004450584473400002
1.37948e-05;0.004431227541071027
1.37950e-05;0.004411870608741921
1.37953e-05;0.0043925136764128144
1.37955e-05;0.004373156744083839
1.37958e-05;0.004353799811754733
1.37960e-05;0.004334442879425626
1.37963e-05;0.00432077045229398
1.37965e-05;0.004309343367257163
1.37968e-05;0.004297916282220347
1.37970e-05;0.004286489197183607
1.37973e-05;0.004275062112146791
1.37975e-05;0.004263635027109973
1.37978e-05;0.004252207942073234
1.37980e-05;0.004240780857036417
1.37983e-05;0.0042293537719996005
1.37985e-05;0.004217926686962861
1.37988e-05;0.004206499601926044
1.37990e-05;0.004199676629041503
1.37993e-05;0.004209481399081457
1.37995e-05;0.004219286169121478
1.37998e-05;0.004229090939161499
1.38000e-05;0.00423889570920152
1.38003e-05;0.004248700479241475
1.38005e-05;0.004258505249281496
1.38008e-05;0.004268310019321517
1.38010e-05;0.004278114789361471
1.38013e-05;0.0042879195594014916
1.38015e-05;0.004297724329441512
1.38018e-05;0.004307529099481467
1.38020e-05;0.00432157238349122
1.38023e-05;0.004350923053235367
1.38025e-05;0.004380273722979315
1.38028e-05;0.004409624392723462
1.38030e-05;0.00443897506246761
1.38033e-05;0.004468325732211558
1.38035e-05;0.004497676401955705
1.38038e-05;0.004527027071699852
1.38040e-05;0.004556377741443801
1.38043e-05;0.004585728411187948
1.38045e-05;0.0046150790809320955
1.38048e-05;0.004644429750676043
1.38050e-05;0.004674229480358616
1.38053e-05;0.004705650989217802
1.38055e-05;0.004737072498076774
1.38058e-05;0.00476849400693596
1.38060e-05;0.004799915515795146
1.38063e-05;0.004831337024654119
1.38065e-05;0.004862758533513304
1.38068e-05;0.00489418004237249
1.38070e-05;0.004925601551231462
1.38073e-05;0.004949829948452514
1.38075e-05;0.004971217113974388
1.38078e-05;0.004992604279496117
1.38080e-05;0.005013991445017991
1.38083e-05;0.005035378610539865
1.38085e-05;0.005056765776061595
1.38088e-05;0.005078152941583469
1.38090e-05;0.0050995401071053425
1.38093e-05;0.005119996900081075
1.38095e-05;0.005136111783699397
1.38098e-05;0.005148680643573031
1.38100e-05;0.005161249503446664
1.38103e-05;0.005173818363320213
1.38105e-05;0.005186387223193847
1.38108e-05;0.00519895608306748
1.38110e-05;0.005211524942941029
1.38113e-05;0.005224093802814662
1.38115e-05;0.005236662662688296
1.38118e-05;0.0052492315225618445
1.38120e-05;0.005261800382435478
1.38123e-05;0.005274369242309111
1.38125e-05;0.00528693810218266
1.38128e-05;0.005299506962056294
1.38130e-05;0.005312075821929927
1.38133e-05;0.0053246446818034756
1.38135e-05;0.00533721354167711
1.38138e-05;0.005349782401550743
1.38140e-05;0.0053623512614242915
1.38143e-05;0.005373804146246045
1.38145e-05;0.005381226689131775
1.38148e-05;0.005388649232017455
1.38150e-05;0.005396071774903186
1.38153e-05;0.005403494317788916
1.38155e-05;0.005410916860674595
1.38158e-05;0.005418339403560325
1.38160e-05;0.0054257619464460555
1.38163e-05;0.0054331844893317355
1.38165e-05;0.005440607032217466
1.38168e-05;0.005448029575103196
1.38170e-05;0.005455452117988876
1.38173e-05;0.005462874660874605
1.38175e-05;0.005470297203760336
1.38178e-05;0.005477719746646066
1.38180e-05;0.005485142289531746
1.38183e-05;0.005492564832417476
1.38185e-05;0.0054999873753032065
1.38188e-05;0.005507409918188886
1.38190e-05;0.0055161359978406176
1.38193e-05;0.005529569798229987
1.38195e-05;0.005543003598619265
1.38198e-05;0.005556437399008634
1.38200e-05;0.005569871199398004
1.38203e-05;0.005583304999787282
1.38205e-05;0.005596738800176651
1.38208e-05;0.005610172600566021
1.38210e-05;0.005623606400955299
1.38213e-05;0.005637040201344669
1.38215e-05;0.005650474001734037
1.38218e-05;0.005663907802123316
1.38220e-05;0.005677341602512685
1.38223e-05;0.005690775402902055
1.38225e-05;0.005704209203291333
1.38228e-05;0.005719228511209318
1.38230e-05;0.005739973876779306
1.38233e-05;0.005760719242349155
1.38235e-05;0.005781464607919143
1.38238e-05;0.005802209973489132
1.38240e-05;0.005822955339058981
1.38243e-05;0.005843700704628969
1.38245e-05;0.005864446070198958
1.38248e-05;0.005885191435768807
1.38250e-05;0.005905936801338795
1.38253e-05;0.0059266821669087845
1.38255e-05;0.005947427532478633
1.38258e-05;0.0059681728980486215
1.38260e-05;0.005988918263618611
1.38263e-05;0.0060096636291886
1.38265e-05;0.006028048209444974
1.38268e-05;0.006037906817690832
1.38270e-05;0.0060477654259366905
1.38273e-05;0.0060576240341824825
1.38275e-05;0.0060674826424283405
1.38278e-05;0.006077341250674199
1.38280e-05;0.006087199858919991
1.38283e-05;0.006097058467165849
1.38285e-05;0.006106917075411708
1.38288e-05;0.0061167756836575
1.38290e-05;0.006126634291903358
1.38293e-05;0.006136492900149217
1.38295e-05;0.006146351508395009
1.38298e-05;0.006156210116640867
1.38300e-05;0.0061660687248867255
1.38303e-05;0.006171503042643086
1.38305e-05;0.006160959043070482
1.38308e-05;0.006150415043497877
1.38310e-05;0.006139871043925344
1.38313e-05;0.00612932704435274
1.38315e-05;0.006118783044780135
1.38318e-05;0.006108239045207602
1.38320e-05;0.006097695045634998
1.38323e-05;0.006087151046062393
1.38325e-05;0.00607660704648986
1.38328e-05;0.006066063046917256
1.38330e-05;0.006055519047344651
1.38333e-05;0.006044975047772118
1.38335e-05;0.006034431048199514
1.38338e-05;0.006023887048626909
1.38340e-05;0.006011686442026863
1.38343e-05;0.005993503002056846
1.38345e-05;0.00597531956208683
1.38348e-05;0.005957136122116813
1.38350e-05;0.00593895268214692
1.38353e-05;0.005920769242176904
1.38355e-05;0.005902585802206887
1.38358e-05;0.005884402362236993
1.38360e-05;0.0058662189222669775
1.38363e-05;0.005848035482296961
1.38365e-05;0.005829852042327067
1.38368e-05;0.005811668602357051
1.38370e-05;0.0057934851623870345
1.38373e-05;0.005779024012678109
1.38375e-05;0.005766033143096409
1.38378e-05;0.00575304227351471
1.38380e-05;0.005740051403933099
1.38383e-05;0.005727060534351399
1.38385e-05;0.0057140696647697
1.38388e-05;0.005701078795188089
1.38390e-05;0.005688087925606389
1.38393e-05;0.00567509705602469
1.38395e-05;0.005662106186443079
1.38398e-05;0.005649115316861379
1.38400e-05;0.00563612444727968
1.38403e-05;0.005623359039717525
1.38405e-05;0.005611407887842768
1.38408e-05;0.00559945673596801
1.38410e-05;0.005587505584093333
1.38413e-05;0.005575554432218576
1.38415e-05;0.005563603280343818
1.38418e-05;0.005551652128469141
1.38420e-05;0.005539700976594384
1.38423e-05;0.005527749824719626
1.38425e-05;0.00551579867284495
1.38428e-05;0.005503847520970192
1.38430e-05;0.005491896369095434
1.38433e-05;0.005479945217220677
1.38435e-05;0.005467994065346001
1.38438e-05;0.005456042913471243
1.38440e-05;0.005444091761596485
1.38443e-05;0.0054332471971625254
1.38445e-05;0.005422839727476525
1.38448e-05;0.005412432257790524
1.38450e-05;0.005402024788104595
1.38453e-05;0.005391617318418594
1.38455e-05;0.005381209848732593
1.38458e-05;0.005370802379046663
1.38460e-05;0.005360394909360662
1.38463e-05;0.005349987439674662
1.38465e-05;0.005339579969988732
1.38468e-05;0.005329172500302732
1.38470e-05;0.005318765030616731
1.38473e-05;0.005308357560930801
1.38475e-05;0.0052979500912448
1.38478e-05;0.005287542621558799
1.38480e-05;0.005275422335176871
1.38483e-05;0.005257116214301535
1.38485e-05;0.005238810093426199
1.38488e-05;0.005220503972550987
1.38490e-05;0.005202197851675651
1.38493e-05;0.005183891730800316
1.38495e-05;0.005165585609925104
1.38498e-05;0.005147279489049768
1.38500e-05;0.005128973368174432
1.38503e-05;0.00511066724729922
1.38505e-05;0.0050923611264238845
1.38508e-05;0.005057877288546736
1.38510e-05;0.005017003359043594
1.38513e-05;0.004976129429540176
1.38515e-05;0.004935255500036758
1.38518e-05;0.00489438157053334
1.38520e-05;0.0048535076410301985
1.38523e-05;0.00481263371152678
1.38525e-05;0.004771759782023362
1.38528e-05;0.004730885852520221
1.38530e-05;0.004690011923016803
1.38533e-05;0.004646364495073881
1.38535e-05;0.0045927005823793434
1.38538e-05;0.004539036669684442
1.38540e-05;0.004485372756989541
1.38543e-05;0.004431708844295003
1.38545e-05;0.004378044931600102
1.38548e-05;0.004324381018905201
1.38550e-05;0.004270717106210664
1.38553e-05;0.004217840029108832
1.38555e-05;0.004167804607372294
1.38558e-05;0.0041177691856360945
1.38560e-05;0.004067733763899556
1.38563e-05;0.004017698342163018
1.38565e-05;0.003967662920426818
1.38568e-05;0.00391762749869028
1.38570e-05;0.0038675920769537415
1.38573e-05;0.0038230309933948887
1.38575e-05;0.0037982404725707196
1.38578e-05;0.0037734499517465504
1.38580e-05;0.003748659430922549
1.38583e-05;0.00372386891009838
1.38585e-05;0.0036990783892742107
1.38588e-05;0.0036742878684502094
1.38590e-05;0.00364949734762604
1.38593e-05;0.003624706826801871
1.38595e-05;0.00359991630597787
1.38598e-05;0.003575125785153701
1.38600e-05;0.003577787474023179
1.38603e-05;0.0035912926048520424
1.38605e-05;0.0036047977356808147
1.38608e-05;0.003618302866509678
1.38610e-05;0.0036318079973385415
1.38613e-05;0.0036453131281673134
1.38615e-05;0.003658818258996177
1.38618e-05;0.0036723233898250406
1.38620e-05;0.0036858285206538125
1.38623e-05;0.003699333651482676
1.38625e-05;0.0037183289870056156
1.38628e-05;0.0037571521871622646
1.38630e-05;0.0037959753873191768
1.38633e-05;0.003834798587476089
1.38635e-05;0.0038736217876327384
1.38638e-05;0.003912444987789651
1.38640e-05;0.003951268187946563
1.38643e-05;0.003990091388103212
1.38645e-05;0.004030287066479694
1.38648e-05;0.004075439447542201
1.38650e-05;0.004120591828604403
1.38653e-05;0.0041657442096669104
1.38655e-05;0.004210896590729418
1.38658e-05;0.0042560489717916195
1.38660e-05;0.004301201352854127
1.38663e-05;0.004346353733916635
1.38665e-05;0.004387871720572083
1.38668e-05;0.0044162640981920565
1.38670e-05;0.00444465647581203
1.38673e-05;0.0044730488534318125
1.38675e-05;0.004501441231051786
1.38678e-05;0.004529833608671761
1.38680e-05;0.004558225986291542
1.38683e-05;0.004586618363911516
1.38685e-05;0.004615010741531491
1.38688e-05;0.004643403119151465
1.38690e-05;0.004671795496771246
1.38693e-05;0.004700187874391221
1.38695e-05;0.004721803168650433
1.38698e-05;0.004718943038218698
1.38700e-05;0.004716082907786944
1.38703e-05;0.0047132227773551885
1.38705e-05;0.004710362646923453
1.38708e-05;0.004707502516491699
1.38710e-05;0.004704642386059944
1.38713e-05;0.0047017822556282085
1.38715e-05;0.004698922125196454
1.38718e-05;0.004696061994764699
1.38720e-05;0.004693201864332964
1.38723e-05;0.0046903417339012096
1.38725e-05;0.004683129149219653
1.38728e-05;0.004660197683634828
1.38730e-05;0.004637266218049847
1.38733e-05;0.004614334752464867
1.38735e-05;0.004591403286880041
1.38738e-05;0.004568471821295061
1.38740e-05;0.004545540355710079
1.38743e-05;0.004522608890125254
1.38745e-05;0.004499677424540273
1.38748e-05;0.004476745958955293
1.38750e-05;0.004451408503865477
1.38753e-05;0.004425120698772514
1.38755e-05;0.004398832893679552
1.38758e-05;0.0043725450885867675
1.38760e-05;0.004346257283493806
1.38763e-05;0.004319969478400844
1.38765e-05;0.004293681673308059
1.38768e-05;0.0042673938682150974
1.38770e-05;0.004241106063122136
1.38773e-05;0.004217894848088366
1.38775e-05;0.0042057947326700025
1.38778e-05;0.004193694617251558
1.38780e-05;0.004181594501833112
1.38783e-05;0.004169494386414749
1.38785e-05;0.004157394270996304
1.38788e-05;0.004145294155577859
1.38790e-05;0.004133194040159496
1.38793e-05;0.004121093924741051
1.38795e-05;0.0041089938093226055
1.38798e-05;0.004096893693904243
1.38800e-05;0.004084793578485797
1.38803e-05;0.004072693463067352
1.38805e-05;0.00406059334764899
1.38808e-05;0.004048493232230544
1.38810e-05;0.004039873643838832
1.38813e-05;0.004043823972715384
1.38815e-05;0.004047774301591963
1.38818e-05;0.004051724630468541
1.38820e-05;0.0040556749593450925
1.38823e-05;0.004059625288221671
1.38825e-05;0.004063575617098249
1.38828e-05;0.004067525945974801
1.38830e-05;0.00407147627485138
1.38833e-05;0.004075426603727958
1.38835e-05;0.004079376932604509
1.38838e-05;0.004083327261481088
1.38840e-05;0.004087277590357667
1.38843e-05;0.004091227919234218
1.38845e-05;0.004095178248110796
1.38848e-05;0.004100000314146063
1.38850e-05;0.004107970657405257
1.38853e-05;0.004115941000664505
1.38855e-05;0.004123911343923752
1.38858e-05;0.004131881687183
1.38860e-05;0.004139852030442194
1.38863e-05;0.004147822373701442
1.38865e-05;0.00415579271696069
1.38868e-05;0.004163763060219884
1.38870e-05;0.004171733403479132
1.38873e-05;0.004179703746738379
1.38875e-05;0.0041880592855203244
1.38878e-05;0.004197805957259274
1.38880e-05;0.004207552628998224
1.38883e-05;0.004217299300737107
1.38885e-05;0.004227045972476057
1.38888e-05;0.0042367926442150065
1.38890e-05;0.00424653931595389
1.38893e-05;0.00425628598769284
1.38895e-05;0.00426603265943179
1.38898e-05;0.004275779331170674
1.38900e-05;0.004285526002909623
1.38903e-05;0.0042980447663281815
1.38905e-05;0.004320574934002053
1.38908e-05;0.004343105101676079
1.38910e-05;0.0043656352693501035
1.38913e-05;0.0043881654370239755
1.38915e-05;0.004410695604698001
1.38918e-05;0.0044332257723720256
1.38920e-05;0.0044557559400458975
1.38923e-05;0.004478286107719923
1.38925e-05;0.004500816275393948
1.38928e-05;0.0045233464430678196
1.38930e-05;0.004545876610741845
1.38933e-05;0.004570001873831039
1.38935e-05;0.004599887821224711
1.38938e-05;0.004629773768618586
1.38940e-05;0.00465965971601246
1.38943e-05;0.004689545663406334
1.38945e-05;0.0047194316108000066
1.38948e-05;0.00474931755819388
1.38950e-05;0.004779203505587755
1.38953e-05;0.004809089452981427
1.38955e-05;0.004838975400375301
1.38958e-05;0.004868861347769175
1.38960e-05;0.0048987472951628475
1.38963e-05;0.004926523754027846
1.38965e-05;0.004946681798755631
1.38968e-05;0.0049668398434832796
1.38970e-05;0.004986997888211065
1.38973e-05;0.00500715593293885
1.38975e-05;0.005027313977666499
1.38978e-05;0.005047472022394284
1.38980e-05;0.005067630067122069
1.38983e-05;0.005087788111849718
1.38985e-05;0.005107946156577503
1.38988e-05;0.005128104201305289
1.38990e-05;0.005148262246032937
1.38993e-05;0.005168420290760723
1.38995e-05;0.005188578335488508
1.38998e-05;0.005206824456947757
1.39000e-05;0.005218165670861657
1.39003e-05;0.005229506884775558
1.39005e-05;0.0052408480986893815
1.39008e-05;0.005252189312603282
