Time(s);Current(A)
4.25000e-06;-0.001398541828304466
4.25025e-06;-0.0013700387882197539
4.25050e-06;-0.0013415357481351385
4.25075e-06;-0.0013125340036978348
4.25100e-06;-0.001282745592940997
4.25125e-06;-0.0012529989093170116
4.25150e-06;-0.0012233180469150891
4.25175e-06;-0.001193637184513066
4.25200e-06;-0.0011639219346779102
4.25225e-06;-0.0011341524414108693
4.25250e-06;-0.0011044918467011
4.25275e-06;-0.0010750030307750847
4.25300e-06;-0.0010457750113106493
4.25325e-06;-0.0010172277105496756
4.25350e-06;-0.0009894194455627398
4.25375e-06;-0.0009624130386788619
4.25400e-06;-0.0009361883300135333
4.25425e-06;-0.0009107776651606613
4.25450e-06;-0.0008865627262353707
4.25475e-06;-0.0008633804193310249
4.25500e-06;-0.0008413044648566638
4.25525e-06;-0.000820973693052739
4.25550e-06;-0.0008015605191909332
4.25575e-06;-0.0007840081547345761
4.25600e-06;-0.0007674106196776922
4.25625e-06;-0.000751290677375808
4.25650e-06;-0.0007356181066973426
4.25675e-06;-0.0007206512290543238
4.25700e-06;-0.0007063155091107435
4.25725e-06;-0.0006929753900710584
4.25750e-06;-0.0006801688220190998
4.25775e-06;-0.0006684381261136497
4.25800e-06;-0.0006572892764707442
4.25825e-06;-0.0006464753990185793
4.25850e-06;-0.0006356615215664144
4.25875e-06;-0.0006252578949250794
4.25900e-06;-0.0006155014061995298
4.25925e-06;-0.0006057449174739802
4.25950e-06;-0.0005970910476274996
4.25975e-06;-0.0005885762680076327
4.26000e-06;-0.0005803041757405776
4.26025e-06;-0.0005724149034058759
4.26050e-06;-0.0005645256310712009
4.26075e-06;-0.0005569917959185758
4.26100e-06;-0.0005500186345564642
4.26125e-06;-0.0005430454731943527
4.26150e-06;-0.0005360723118322175
4.26175e-06;-0.0005294723685447659
4.26200e-06;-0.0005234611469869103
4.26225e-06;-0.0005174499254290343
4.26250e-06;-0.0005114387038711787
4.26275e-06;-0.0005057379374882073
4.26300e-06;-0.000500526889368954
4.26325e-06;-0.0004953158412497182
4.26350e-06;-0.0004901047931304824
4.26375e-06;-0.0004852288277009696
4.26400e-06;-0.00048088142847457977
4.26425e-06;-0.00047653402924818994
4.26450e-06;-0.0004721866300217854
4.26475e-06;-0.0004680179750624002
4.26500e-06;-0.0004642249859453161
4.26525e-06;-0.00046068531820381953
4.26550e-06;-0.000457497062142006
4.26575e-06;-0.000454991814523693
4.26600e-06;-0.0004536831202381942
4.26625e-06;-0.00045391107729802577
4.26650e-06;-0.00045571847065113084
4.26675e-06;-0.00045904034054791633
4.26700e-06;-0.0004638117046551161
4.26725e-06;-0.0004699675788910497
4.26750e-06;-0.000477485410905771
4.26775e-06;-0.0004864888558188372
4.26800e-06;-0.0004975731287388292
4.26825e-06;-0.0005103584996661333
4.26850e-06;-0.0005241682442258853
4.26875e-06;-0.0005402122430669823
4.26900e-06;-0.0005580624159403639
4.26925e-06;-0.0005772229809292804
4.26950e-06;-0.0005974078292158344
4.26975e-06;-0.0006192084026654163
4.27000e-06;-0.0006420772976099071
4.27025e-06;-0.0006666313844590005
4.27050e-06;-0.000691890940642322
4.27075e-06;-0.0007186497253532684
4.27100e-06;-0.0007464717425410365
4.27125e-06;-0.0007750094452877259
4.27150e-06;-0.0008039912563147423
4.27175e-06;-0.000833673612713295
4.27200e-06;-0.0008636972538477155
4.27225e-06;-0.000894259244418096
4.27250e-06;-0.0009249357343008971
4.27275e-06;-0.0009557731221499081
4.27300e-06;-0.0009864877430720506
4.27325e-06;-0.001016894102292064
4.27350e-06;-0.001046816999701254
4.27375e-06;-0.0010761172118201182
4.27400e-06;-0.0011046837171891787
4.27425e-06;-0.0011323787000359078
4.27450e-06;-0.001159018455528693
4.27475e-06;-0.0011844027944814687
4.27500e-06;-0.001207986700829676
4.27525e-06;-0.0012300607920778903
4.27550e-06;-0.0012511113904575095
4.27575e-06;-0.001270060064130227
4.27600e-06;-0.0012878267969110206
4.27625e-06;-0.0013049420029030338
4.27650e-06;-0.0013216317999108584
4.27675e-06;-0.001337303120694449
4.27700e-06;-0.0013518095062235113
4.27725e-06;-0.0013653427873859384
4.27750e-06;-0.0013782193348188508
4.27775e-06;-0.0013897450753842903
4.27800e-06;-0.0014005028938482364
4.27825e-06;-0.0014108328328075667
4.27850e-06;-0.0014208851956228796
4.27875e-06;-0.0014302757643436033
4.27900e-06;-0.0014389187067839777
4.27925e-06;-0.0014469395478348978
4.27950e-06;-0.0014545425228542682
4.27975e-06;-0.0014612859850501902
4.28000e-06;-0.0014675401067238193
4.28025e-06;-0.0014735208856750171
4.28050e-06;-0.0014793259409278253
4.28075e-06;-0.001484713335512477
4.28100e-06;-0.0014896333932795532
4.28125e-06;-0.0014941657910042413
4.28150e-06;-0.0014984391989624406
4.28175e-06;-0.001502181441790535
4.28200e-06;-0.0015056275132515065
4.28225e-06;-0.0015089115312725834
4.28250e-06;-0.0015120518041014898
4.28275e-06;-0.0015149653303608622
4.28300e-06;-0.0015176942349476397
4.28325e-06;-0.0015201319135790348
4.28350e-06;-0.0015223853544605954
4.28375e-06;-0.0015243481749942585
4.28400e-06;-0.0015262276165413538
4.28425e-06;-0.0015279755343909302
4.28450e-06;-0.0015296755973996181
4.28475e-06;-0.0015312606969241308
4.28500e-06;-0.001532738448702044
4.28525e-06;-0.0015340943268986778
4.28550e-06;-0.0015353348918528738
4.28575e-06;-0.0015365410669157594
4.28600e-06;-0.0015378558157856778
4.28625e-06;-0.001539375752266067
4.28650e-06;-0.0015411435218056554
4.28675e-06;-0.0015430866681499296
4.28700e-06;-0.0015451469335148928
4.28725e-06;-0.0015473919447886644
4.28750e-06;-0.0015497560850316026
4.28775e-06;-0.0015523081417167014
4.28800e-06;-0.0015551204227434153
4.28825e-06;-0.0015583431869026574
4.28850e-06;-0.0015615659510619107
4.28875e-06;-0.0015650550070477173
4.28900e-06;-0.001568964117139344
4.28925e-06;-0.0015728732272309838
4.28950e-06;-0.0015769925312611357
4.28975e-06;-0.0015814433994554378
4.29000e-06;-0.0015858942676497548
4.29025e-06;-0.0015905436615423175
4.29050e-06;-0.0015955062138811728
4.29075e-06;-0.0016005795843909549
4.29100e-06;-0.0016058277617218958
4.29125e-06;-0.0016111370053528819
4.29150e-06;-0.0016165425761989329
4.29175e-06;-0.0016219948049502563
4.29200e-06;-0.0016275206328237731
4.29225e-06;-0.001633076203418106
4.29250e-06;-0.0016386786907810272
4.29275e-06;-0.0016442574878522773
4.29300e-06;-0.0016497989153789003
4.29325e-06;-0.0016552622710862934
4.29350e-06;-0.0016606024747291565
4.29375e-06;-0.0016658324247933252
4.29400e-06;-0.0016708884586355908
4.29425e-06;-0.0016758433627102954
4.29450e-06;-0.0016805529697891829
4.29475e-06;-0.0016850269151076533
4.29500e-06;-0.0016892276416841086
4.29525e-06;-0.0016931177089523168
4.29550e-06;-0.0016965855375858842
4.29575e-06;-0.001699264230537398
4.29600e-06;-0.001700588990634301
4.29625e-06;-0.0017001860835536844
4.29650e-06;-0.001698007811480493
4.29675e-06;-0.0016941245153496694
4.29700e-06;-0.0016883114505978824
4.29725e-06;-0.0016810588924633862
4.29750e-06;-0.0016729019478455085
4.29775e-06;-0.0016626034060700362
4.29800e-06;-0.0016499681044313994
4.29825e-06;-0.0016354258516747442
4.29850e-06;-0.0016193878133226032
4.29875e-06;-0.0016009902925606663
4.29900e-06;-0.0015813111473434594
4.29925e-06;-0.0015596103418246833
4.29950e-06;-0.001536756842141709
4.29975e-06;-0.0015120850594021649
4.30000e-06;-0.0014862155732026502
4.30025e-06;-0.001458456805374305
4.30050e-06;-0.0014296903532605377
4.30075e-06;-0.0013993343596022335
4.30100e-06;-0.0013682505387555036
4.30125e-06;-0.001336018628601171
4.30150e-06;-0.0013032854056776533
4.30175e-06;-0.0012697614018664727
4.30200e-06;-0.0012358535430619464
4.30225e-06;-0.0012013401836382196
4.30250e-06;-0.001166697306747517
4.30275e-06;-0.0011318708582165262
4.30300e-06;-0.0010971779260860964
4.30325e-06;-0.0010628251857258833
4.30350e-06;-0.0010290081319765578
4.30375e-06;-0.0009958827428721228
4.30400e-06;-0.0009635746169206481
4.30425e-06;-0.0009322387007950229
4.30450e-06;-0.0009020801560250461
4.30475e-06;-0.0008733223384458275
4.30500e-06;-0.0008461885100611348
4.30525e-06;-0.0008209018972504719
4.30550e-06;-0.0007976865619899288
4.30575e-06;-0.0007767571570895687
4.30600e-06;-0.0007582808582397234
4.30625e-06;-0.0007423506480710917
4.30650e-06;-0.0007290117083340317
4.30675e-06;-0.000718298520547438
4.30700e-06;-0.0007107724341941918
4.30725e-06;-0.0007057184376200582
4.30750e-06;-0.0007027961833756535
4.30775e-06;-0.0007032365825381248
4.30800e-06;-0.0007052770587805155
4.30825e-06;-0.0007108759974691471
4.30850e-06;-0.0007191086757587514
4.30875e-06;-0.0007298912520339374
4.30900e-06;-0.0007431398942227605
4.30925e-06;-0.0007587708189173835
4.30950e-06;-0.0007767005232578044
4.30975e-06;-0.000796841757385755
4.31000e-06;-0.0008190886725313077
4.31025e-06;-0.0008433063705131783
4.31050e-06;-0.0008693411245355896
4.31075e-06;-0.0008970350980056567
4.31100e-06;-0.0009262304222036566
4.31125e-06;-0.0009567691892890487
4.31150e-06;-0.000988493778962415
4.31175e-06;-0.001021244258792074
4.31200e-06;-0.0010548489663018432
4.31225e-06;-0.0010891179650153163
4.31250e-06;-0.0011238497698798523
4.31275e-06;-0.0011588402335881124
4.31300e-06;-0.001193885189746288
4.31325e-06;-0.001228780464966835
4.31350e-06;-0.001263322099605676
4.31375e-06;-0.0012973045531607299
4.31400e-06;-0.0013305150940443066
4.31425e-06;-0.001362729696487781
4.31450e-06;-0.001393716942713328
4.31475e-06;-0.0014232436458376891
4.31500e-06;-0.001451076884882248
4.31525e-06;-0.0014769835512054273
4.31550e-06;-0.001500893790169876
4.31575e-06;-0.0015233172424514666
4.31600e-06;-0.0015452701775306424
4.31625e-06;-0.0015674503057544187
4.31650e-06;-0.0015898991636945621
4.31675e-06;-0.0016124117630562347
4.31700e-06;-0.0016346916846707383
4.31725e-06;-0.0016566640289276758
4.31750e-06;-0.0016783846101991388
4.31775e-06;-0.001699772193134215
4.31800e-06;-0.0017217051241758385
4.31825e-06;-0.0017443387074608295
4.31850e-06;-0.0017673689055243812
4.31875e-06;-0.0017911921220668085
4.31900e-06;-0.0018153851203159994
4.31925e-06;-0.0018397449099929637
4.31950e-06;-0.001864194402089969
4.31975e-06;-0.001888785392596165
4.32000e-06;-0.0019138103964729633
4.32025e-06;-0.001939520021806598
4.32050e-06;-0.001965574500099373
4.32075e-06;-0.001992172956415069
4.32100e-06;-0.0020188163542756406
4.32125e-06;-0.0020455306438365546
4.32150e-06;-0.0020722449333974687
4.32175e-06;-0.0020989274552333484
4.32200e-06;-0.002125559866017911
4.32225e-06;-0.002152192276802473
4.32250e-06;-0.0021787333741971338
4.32275e-06;-0.0022051304320060694
4.32300e-06;-0.0022311575689589287
4.32325e-06;-0.0022566011852821876
4.32350e-06;-0.0022814867134371406
4.32375e-06;-0.00230549190204382
4.32400e-06;-0.002328925090928794
4.32425e-06;-0.002351455995899857
4.32450e-06;-0.0023734519835695044
4.32475e-06;-0.0023941620835522073
4.32500e-06;-0.0024136685726827887
4.32525e-06;-0.0024318061412043845
4.32550e-06;-0.0024483459740212133
4.32575e-06;-0.002462847156662014
4.32600e-06;-0.0024747278141566266
4.32625e-06;-0.002483613525640283
4.32650e-06;-0.002489436572924612
4.32675e-06;-0.002492236537219038
4.32700e-06;-0.002492052999732966
4.32725e-06;-0.002488925361006303
4.32750e-06;-0.0024828532602955535
4.32775e-06;-0.0024737037857116974
4.32800e-06;-0.0024606045691197335
4.32825e-06;-0.002444389893849658
4.32850e-06;-0.0024262878995354067
4.32875e-06;-0.0024040374391659045
4.32900e-06;-0.0023783124862977725
4.32925e-06;-0.0023500214676180345
4.32950e-06;-0.0023197064985643005
4.32975e-06;-0.0022861989093134975
4.33000e-06;-0.0022507321397141496
4.33025e-06;-0.002212174919463651
4.33050e-06;-0.002172326725109571
4.33075e-06;-0.0021293919353388697
4.33100e-06;-0.0020848005597120947
4.33125e-06;-0.0020391220052079747
4.33150e-06;-0.0019917285127849767
4.33175e-06;-0.0019435276082465584
4.33200e-06;-0.0018940530755305821
4.33225e-06;-0.0018441616027141381
4.33250e-06;-0.0017934832614505446
4.33275e-06;-0.0017425878267007574
4.33300e-06;-0.0016917737230955647
4.33325e-06;-0.0016413391806087588
4.33350e-06;-0.0015915727703886954
4.33375e-06;-0.0015427303036728548
4.33400e-06;-0.0014950458593262633
4.33425e-06;-0.0014487855409116605
4.33450e-06;-0.0014042625783461445
4.33475e-06;-0.0013618066598214307
4.33500e-06;-0.0013223154533536698
4.33525e-06;-0.0012853105150044167
4.33550e-06;-0.0012499658392718706
4.33575e-06;-0.0012179452033181984
4.33600e-06;-0.0011873444539944919
4.33625e-06;-0.0011574633027673512
4.33650e-06;-0.0011282749584696561
4.33675e-06;-0.0011000084100393469
4.33700e-06;-0.0010731875216660912
4.33725e-06;-0.0010476218438779826
4.33750e-06;-0.0010229220473807175
4.33775e-06;-0.0009999252388567207
4.33800e-06;-0.0009775871791758571
4.33825e-06;-0.0009554493796427731
4.33850e-06;-0.0009334657476752869
4.33875e-06;-0.0009119139668927301
4.33900e-06;-0.0008910715910669785
4.33925e-06;-0.0008708788005233179
4.33950e-06;-0.0008511592173458544
4.33975e-06;-0.0008323628661571329
4.34000e-06;-0.0008138907613328202
4.34025e-06;-0.0007954902428762839
4.34050e-06;-0.00077722913354344
4.34075e-06;-0.0007591879309777849
4.34100e-06;-0.0007415933623021061
4.34125e-06;-0.0007247033229450598
4.34150e-06;-0.0007078132835880135
4.34175e-06;-0.0006913244811383893
4.34200e-06;-0.000675468597890239
4.34225e-06;-0.0006597648496754641
4.34250e-06;-0.0006443010823350573
4.34275e-06;-0.0006291276735079436
4.34300e-06;-0.0006144122820638514
4.34325e-06;-0.0006002374726638062
4.34350e-06;-0.0005869153882977728
4.34375e-06;-0.0005735933039316941
4.34400e-06;-0.0005607205258591313
4.34425e-06;-0.0005485564926082481
4.34450e-06;-0.0005366730730080212
4.34475e-06;-0.0005254640980507363
4.34500e-06;-0.0005148860807222935
4.34525e-06;-0.0005050253786077659
4.34550e-06;-0.0004959992759085145
4.34575e-06;-0.0004880278045588194
4.34600e-06;-0.00048139803170789837
4.34625e-06;-0.00047629432056614155
4.34650e-06;-0.0004727506946877425
4.34675e-06;-0.0004707489237830126
4.34700e-06;-0.00047056059883866016
4.34725e-06;-0.0004717551073520999
4.34750e-06;-0.00047383144124231463
4.34775e-06;-0.00047827323103033276
4.34800e-06;-0.0004842521327844864
4.34825e-06;-0.0004915427065952813
4.34850e-06;-0.0005009023383990993
4.34875e-06;-0.0005114539317603251
4.34900e-06;-0.0005238857493552407
4.34925e-06;-0.0005373854254803644
4.34950e-06;-0.0005525695632177944
4.34975e-06;-0.000568772722253917
4.35000e-06;-0.0005865833060670329
4.35025e-06;-0.0006053263591837611
4.35050e-06;-0.0006255403082121636
4.35075e-06;-0.0006464993948285519
4.35100e-06;-0.0006686338765249639
4.35125e-06;-0.0006913234427589023
4.35150e-06;-0.0007148886105529863
4.35175e-06;-0.0007388659645806351
4.35200e-06;-0.0007634935094978013
4.35225e-06;-0.0007883667423878674
4.35250e-06;-0.0008136275284481113
4.35275e-06;-0.0008389044053880897
4.35300e-06;-0.0008642066644068201
4.35325e-06;-0.0008892937347271467
4.35350e-06;-0.0009140413620487774
4.35375e-06;-0.0009385000084623005
4.35400e-06;-0.0009622469599211767
4.35425e-06;-0.0009852749461804681
4.35450e-06;-0.0010074253827645648
4.35475e-06;-0.0010285316306835332
4.35500e-06;-0.0010484271804033318
4.35525e-06;-0.0010669455128462322
4.35550e-06;-0.0010840720259262314
4.35575e-06;-0.0011003290230800838
4.35600e-06;-0.0011166995081484507
4.35625e-06;-0.0011338533494156607
4.35650e-06;-0.0011518394540409355
4.35675e-06;-0.0011704748171382404
4.35700e-06;-0.0011896098351005006
4.35725e-06;-0.0012090143483963062
4.35750e-06;-0.0012285429139059225
4.35775e-06;-0.001248568337984327
4.35800e-06;-0.0012698371179067412
4.35825e-06;-0.001292317789666436
4.35850e-06;-0.001315508786254657
4.35875e-06;-0.0013403431889349446
4.35900e-06;-0.001366002464641802
4.35925e-06;-0.001392138933736564
4.35950e-06;-0.001419028137318523
4.35975e-06;-0.0014467322432734843
4.36000e-06;-0.0014757217926893895
4.36025e-06;-0.0015047113421051963
4.36050e-06;-0.001534522267885392
4.36075e-06;-0.0015656288493312808
4.36100e-06;-0.001597046317865413
4.36125e-06;-0.0016289541859713312
4.36150e-06;-0.0016609743853556853
4.36175e-06;-0.001693171778366987
4.36200e-06;-0.0017255357938494391
4.36225e-06;-0.001758162642983071
4.36250e-06;-0.0017907490673099561
4.36275e-06;-0.0018232717247304423
4.36300e-06;-0.0018554379437582204
4.36325e-06;-0.0018870419096665093
4.36350e-06;-0.0019180430265311257
4.36375e-06;-0.0019480931971389906
4.36400e-06;-0.001977452668145636
4.36425e-06;-0.002005722615652219
4.36450e-06;-0.0020330502812413134
4.36475e-06;-0.0020588915723038473
4.36500e-06;-0.0020834707512191225
4.36525e-06;-0.0021060590489438463
4.36550e-06;-0.002127578505747595
4.36575e-06;-0.002146854495471505
4.36600e-06;-0.002164486911019853
4.36625e-06;-0.0021809138114215645
4.36650e-06;-0.0021973407118233315
4.36675e-06;-0.002212423220163977
4.36700e-06;-0.002225385057316617
4.36725e-06;-0.0022383468944693007
4.36750e-06;-0.0022502573554218693
4.36775e-06;-0.0022600831549093653
4.36800e-06;-0.002268799122407256
4.36825e-06;-0.0022768249111093266
4.36850e-06;-0.0022840502692968597
4.36875e-06;-0.0022895127390528676
4.36900e-06;-0.005475247171560104
4.36925e-06;-0.02357573996545264
4.36950e-06;-0.020309083116476733
4.36975e-06;-0.01659453414287794
4.37000e-06;-0.012920479518627502
4.37025e-06;0.004500082292958871
4.37050e-06;0.0021857786886437065
4.37075e-06;0.0017123748756627706
4.37100e-06;-0.004488095920988747
4.37125e-06;-0.01455488971335426
4.37150e-06;-0.009859166619206472
4.37175e-06;-0.007784503987229257
4.37200e-06;-0.0039218359747921015
4.37225e-06;0.00041322912071950144
4.37250e-06;0.0019147815487732542
4.37275e-06;0.0005948663025322336
4.37300e-06;-0.002150227212706479
4.37325e-06;-0.005002814011013256
4.37350e-06;-0.006034250478345982
4.37375e-06;-0.004890341568447519
4.37400e-06;-0.0025750072050706304
4.37425e-06;-0.00029431728041111153
4.37450e-06;0.0006975577142372739
4.37475e-06;9.458760348493231e-05
4.37500e-06;-0.001606353787127817
4.37525e-06;-0.003420407965183754
4.37550e-06;-0.004087043690917375
4.37575e-06;-0.003387849481619462
4.37600e-06;-0.0019512185455126914
4.37625e-06;-0.0005323613106308295
4.37650e-06;8.291253239101937e-05
4.37675e-06;-0.0002974061050991378
4.37700e-06;-0.0013623455624403834
4.37725e-06;-0.0024952607859946253
4.37750e-06;-0.0029068563182582914
4.37775e-06;-0.0024606344998353794
4.37800e-06;-0.001550501760334602
4.37825e-06;-0.0006497460492698197
4.37850e-06;-0.00025076513701153435
4.37875e-06;-0.000473962110409791
4.37900e-06;-0.0011246683127640717
4.37925e-06;-0.0018167614295475573
4.37950e-06;-0.002056006174242631
4.37975e-06;-0.0017571008366961747
4.38000e-06;-0.001166977351524025
4.38025e-06;-0.0005822647371259029
4.38050e-06;-0.0003115323984108746
4.38075e-06;-0.0004303134121382354
4.38100e-06;-0.0008167812048808969
4.38125e-06;-0.001229198314775862
4.38150e-06;-0.0013581296918316367
4.38175e-06;-0.0011503118251147504
4.38200e-06;-0.000760586441997083
4.38225e-06;-0.00037490945472724066
4.38250e-06;-0.0001866986426646429
4.38275e-06;-0.00024338678754911132
4.38300e-06;-0.00046878185514927803
4.38325e-06;-0.0007115900450172773
4.38350e-06;-0.0007781274877421542
4.38375e-06;-0.0006351859484309641
4.38400e-06;-0.00037991109407958866
4.38425e-06;-0.00012892864544151571
4.38450e-06;-3.5274136523411115e-06
4.38475e-06;-3.3544438231685846e-05
4.38500e-06;-0.00017137909611489852
4.38525e-06;-0.00032239357930745403
4.38550e-06;-0.0003652662179358737
4.38575e-06;-0.0002786802921136518
4.38600e-06;-0.00012249714678660363
4.38625e-06;3.097092299556016e-05
4.38650e-06;0.00010595280786240065
4.38675e-06;8.376333013406936e-05
4.38700e-06;-5.781125027306248e-06
4.38725e-06;-0.00010340417497220266
4.38750e-06;-0.00013312086981457301
4.38775e-06;-8.159325466242489e-05
4.38800e-06;1.3667924488063824e-05
4.38825e-06;0.00010735643838768764
4.38850e-06;0.00015200377409265394
4.38875e-06;0.00013590265692177474
4.38900e-06;7.772684301486041e-05
4.38925e-06;1.4601270778957956e-05
4.38950e-06;-5.886736963779389e-06
4.38975e-06;2.4605598397112598e-05
4.39000e-06;8.257021219167596e-05
4.39025e-06;0.00013961835613052962
4.39050e-06;0.00016600950939761673
4.39075e-06;0.000154405657570963
4.39100e-06;0.00011649924202527415
4.39125e-06;7.553890944572884e-05
4.39150e-06;6.132453371825138e-05
4.39175e-06;7.907168963151126e-05
4.39200e-06;0.00011404507341467704
4.39225e-06;0.00014845361483348956
4.39250e-06;0.00016366118561994005
4.39275e-06;0.00015506564271182782
4.39300e-06;0.00012998539157611875
