Time(s);Current(A)
1.35000e-05;0.008834978804597084
1.35003e-05;0.008840419591077956
1.35005e-05;0.008845860377558867
1.35008e-05;0.008851301164039777
1.35010e-05;0.008856741950520688
1.35013e-05;0.008862182737001562
1.35015e-05;0.00886762352348247
1.35018e-05;0.008873064309963381
1.35020e-05;0.008872486230235942
1.35023e-05;0.008850004022300153
1.35025e-05;0.008827521814364364
1.35028e-05;0.008805039606428727
1.35030e-05;0.008782557398492938
1.35033e-05;0.008760075190557149
1.35035e-05;0.00873759298262151
1.35038e-05;0.008715110774685722
1.35040e-05;0.008692628566749933
1.35043e-05;0.008670146358814296
1.35045e-05;0.008647664150878507
1.35048e-05;0.008625181942942716
1.35050e-05;0.008599520263787916
1.35053e-05;0.00857259467535635
1.35055e-05;0.008545669086924786
1.35058e-05;0.008518743498493402
1.35060e-05;0.008491817910061835
1.35063e-05;0.008464892321630271
1.35065e-05;0.008437966733198887
1.35068e-05;0.008411041144767322
1.35070e-05;0.008384115556335756
1.35073e-05;0.008357189967904372
1.35075e-05;0.008330264379472808
1.35078e-05;0.008308023231738685
1.35080e-05;0.008302829910970495
1.35083e-05;0.008297636590202268
1.35085e-05;0.008292443269434041
1.35088e-05;0.008287249948665849
1.35090e-05;0.008282056627897622
1.35093e-05;0.008276863307129395
1.35095e-05;0.008271669986361203
1.35098e-05;0.008266476665592977
1.35100e-05;0.00826128334482475
1.35103e-05;0.008256090024056523
1.35105e-05;0.00827110580953097
1.35108e-05;0.008294155156278854
1.35110e-05;0.008317204503026737
1.35113e-05;0.008340253849774461
1.35115e-05;0.008363303196522344
1.35118e-05;0.008386352543270227
1.35120e-05;0.008409401890017952
1.35123e-05;0.008432451236765835
1.35125e-05;0.008455500583513718
1.35128e-05;0.008478549930261443
1.35130e-05;0.008505065887957342
1.35133e-05;0.008544197691903403
1.35135e-05;0.0085833294958492
1.35138e-05;0.008622461299795261
1.35140e-05;0.008661593103741323
1.35143e-05;0.00870072490768712
1.35145e-05;0.00873985671163318
1.35148e-05;0.008778988515579242
1.35150e-05;0.008818120319525039
1.35153e-05;0.008857252123471101
1.35155e-05;0.008896383927417161
1.35158e-05;0.008933429696446752
1.35160e-05;0.00896288387352292
1.35163e-05;0.008992338050599086
1.35165e-05;0.009021792227675053
1.35168e-05;0.00905124640475122
1.35170e-05;0.009080700581827385
1.35173e-05;0.009110154758903352
1.35175e-05;0.009139608935979518
1.35178e-05;0.009169063113055684
1.35180e-05;0.009198517290131651
1.35183e-05;0.009227971467207817
1.35185e-05;0.00924949625334357
1.35188e-05;0.009242164043845869
1.35190e-05;0.009234831834348218
1.35193e-05;0.009227499624850519
1.35195e-05;0.009220167415352818
1.35198e-05;0.009212835205855167
1.35200e-05;0.009205502996357468
1.35203e-05;0.009198170786859767
1.35205e-05;0.009190838577362116
1.35208e-05;0.009183506367864417
1.35210e-05;0.00916832122897196
1.35213e-05;0.009124557356736182
1.35215e-05;0.00908079348450011
1.35218e-05;0.009037029612264038
1.35220e-05;0.008993265740028261
1.35223e-05;0.00894950186779219
1.35225e-05;0.008905737995556115
1.35228e-05;0.00886197412332034
1.35230e-05;0.008818210251084268
1.35233e-05;0.008774446378848194
1.35235e-05;0.008727065140655963
1.35238e-05;0.008666519421810764
1.35240e-05;0.008605973702965565
1.35243e-05;0.008545427984120776
1.35245e-05;0.008484882265275577
1.35248e-05;0.008424336546430378
1.35250e-05;0.00836379082758559
1.35253e-05;0.00830324510874039
1.35255e-05;0.008242699389895192
1.35258e-05;0.008188180408940746
1.35260e-05;0.008136057187974602
1.35263e-05;0.00808393396700846
1.35265e-05;0.00803181074604267
1.35268e-05;0.007979687525076527
1.35270e-05;0.007927564304110384
1.35273e-05;0.007875441083144242
1.35275e-05;0.007823317862178452
1.35278e-05;0.0077768956246246825
1.35280e-05;0.007751220661953209
1.35283e-05;0.00772554569928191
1.35285e-05;0.007699870736610436
1.35288e-05;0.007674195773938962
1.35290e-05;0.007648520811267662
1.35293e-05;0.007622845848596189
1.35295e-05;0.007597170885924715
1.35298e-05;0.007571495923253416
1.35300e-05;0.007545820960581942
1.35303e-05;0.0075201459979104684
1.35305e-05;0.007494471035239168
1.35308e-05;0.007468796072567695
1.35310e-05;0.007443121109896221
1.35313e-05;0.007417446147224922
1.35315e-05;0.007391771184553448
1.35318e-05;0.0073699706725791295
1.35320e-05;0.007362270235597787
1.35323e-05;0.007354569798616392
1.35325e-05;0.007346869361634997
1.35328e-05;0.007339168924653654
1.35330e-05;0.007331468487672259
1.35333e-05;0.007323768050690864
1.35335e-05;0.0073160676137095215
1.35338e-05;0.0073083671767281266
1.35340e-05;0.007300666739746732
1.35343e-05;0.007292966302765389
1.35345e-05;0.007285265865783994
1.35348e-05;0.007277565428802599
1.35350e-05;0.007269864991821256
1.35353e-05;0.007262164554839861
1.35355e-05;0.0072544641178584664
1.35358e-05;0.007248047133162236
1.35360e-05;0.0072463009456676854
1.35363e-05;0.0072445547581731235
1.35365e-05;0.007242808570678562
1.35368e-05;0.007241062383184012
1.35370e-05;0.00723931619568945
1.35373e-05;0.007237570008194888
1.35375e-05;0.007235823820700338
1.35378e-05;0.007234077633205776
1.35380e-05;0.007232331445711214
1.35383e-05;0.0072305852582166645
1.35385e-05;0.0072323938016739505
1.35388e-05;0.00724713888167088
1.35390e-05;0.007261883961667709
1.35393e-05;0.007276629041664638
1.35395e-05;0.007291374121661567
1.35398e-05;0.007306119201658396
1.35400e-05;0.007320864281655326
1.35403e-05;0.007335609361652255
1.35405e-05;0.0073503544416490835
1.35408e-05;0.007365099521646013
1.35410e-05;0.007379844601642942
1.35413e-05;0.007399318567774973
1.35415e-05;0.007436002108728215
1.35418e-05;0.007472685649681458
1.35420e-05;0.007509369190634451
1.35423e-05;0.007546052731587693
1.35425e-05;0.007582736272540936
1.35428e-05;0.007619419813493929
1.35430e-05;0.007656103354447171
1.35433e-05;0.007692786895400414
1.35435e-05;0.007729470436353408
1.35438e-05;0.00776615397730665
1.35440e-05;0.0078028375182598924
1.35443e-05;0.007842632179941758
1.35445e-05;0.007883663580088173
1.35448e-05;0.007924694980234863
1.35450e-05;0.007965726380381555
1.35453e-05;0.008006757780527968
1.35455e-05;0.00804778918067466
1.35458e-05;0.008088820580821353
1.35460e-05;0.008129851980967766
1.35463e-05;0.008170883381114458
1.35465e-05;0.00821191478126115
1.35468e-05;0.008252946181407563
1.35470e-05;0.008289478173844686
1.35473e-05;0.008309635719649692
1.35475e-05;0.00832979326545456
1.35478e-05;0.008349950811259565
1.35480e-05;0.008370108357064568
1.35483e-05;0.008390265902869436
1.35485e-05;0.008410423448674442
1.35488e-05;0.008430580994479447
1.35490e-05;0.008450738540284315
1.35493e-05;0.00847089608608932
1.35495e-05;0.008484723421854518
1.35498e-05;0.008475513572914196
1.35500e-05;0.008466303723973811
1.35503e-05;0.008457093875033427
1.35505e-05;0.008447884026093103
1.35508e-05;0.008438674177152718
1.35510e-05;0.008429464328212333
1.35513e-05;0.008420254479272011
1.35515e-05;0.008411044630331627
1.35518e-05;0.00840183478139124
1.35520e-05;0.008389509111247055
1.35523e-05;0.008363843068179581
1.35525e-05;0.00833089439947208
1.35528e-05;0.00829794573076458
1.35530e-05;0.008264997062057302
1.35533e-05;0.008232048393349801
1.35535e-05;0.0081990997246423
1.35538e-05;0.008166151055935024
1.35540e-05;0.008133202387227522
1.35543e-05;0.008100253718520021
1.35545e-05;0.008067305049812745
1.35548e-05;0.008034356381105244
1.35550e-05;0.008001373375238149
1.35553e-05;0.007968265408037769
1.35555e-05;0.007935157440837165
1.35558e-05;0.00790204947363656
1.35560e-05;0.00786894150643618
1.35563e-05;0.007835833539235577
1.35565e-05;0.007802725572034971
1.35568e-05;0.007769617604834592
1.35570e-05;0.007736509637633987
1.35573e-05;0.007703401670433383
1.35575e-05;0.007670293703233003
1.35578e-05;0.0076422449607771465
1.35580e-05;0.0076326079762599605
1.35583e-05;0.00762297099174284
1.35585e-05;0.007613334007225654
1.35588e-05;0.007603697022708469
1.35590e-05;0.007594060038191349
1.35593e-05;0.007584423053674163
1.35595e-05;0.007574786069156977
1.35598e-05;0.007565149084639857
1.35600e-05;0.007555512100122672
1.35603e-05;0.007545875115605486
1.35605e-05;0.007536238131088366
1.35608e-05;0.00752660114657118
1.35610e-05;0.0075169641620539945
1.35613e-05;0.0075073271775368084
1.35615e-05;0.007502408263529197
1.35618e-05;0.007514659563645588
1.35620e-05;0.007526910863761979
1.35623e-05;0.007539162163878287
1.35625e-05;0.0075514134639946785
1.35628e-05;0.00756366476411107
1.35630e-05;0.007575916064227378
1.35633e-05;0.0075881673643437685
1.35635e-05;0.00760041866446016
1.35638e-05;0.007612669964576468
1.35640e-05;0.007624921264692859
1.35643e-05;0.00763717256480925
1.35645e-05;0.007649423864925558
1.35648e-05;0.0076616751650419495
1.35650e-05;0.007673926465158341
1.35653e-05;0.007686497431569763
1.35655e-05;0.007700231741921333
1.35658e-05;0.007713966052272901
1.35660e-05;0.007727700362624377
1.35663e-05;0.007741434672975947
1.35665e-05;0.0077551689833275156
1.35668e-05;0.0077689032936789915
1.35670e-05;0.007782637604030561
1.35673e-05;0.00779637191438213
1.35675e-05;0.007810106224733606
1.35678e-05;0.007823840535085174
1.35680e-05;0.007837574845436745
1.35683e-05;0.00785130915578822
1.35685e-05;0.007865043466139789
1.35688e-05;0.007878777776491359
1.35690e-05;0.007894569915049552
1.35693e-05;0.00791118008528239
1.35695e-05;0.00792779025551523
1.35698e-05;0.007944400425748068
1.35700e-05;0.007961010595980793
1.35703e-05;0.007977620766213632
1.35705e-05;0.00799423093644647
1.35708e-05;0.008010841106679196
1.35710e-05;0.008027451276912036
1.35713e-05;0.008044061447144875
1.35715e-05;0.0080606716173776
1.35718e-05;0.008077281787610439
1.35720e-05;0.008093891957843278
1.35723e-05;0.008110502128076003
1.35725e-05;0.008128492425132854
1.35728e-05;0.00815150534172247
1.35730e-05;0.00817451825831193
1.35733e-05;0.008197531174901546
1.35735e-05;0.008220544091491162
1.35738e-05;0.008243557008080622
1.35740e-05;0.008266569924670238
1.35743e-05;0.008289582841259854
1.35745e-05;0.008312595757849314
1.35748e-05;0.00833560867443893
1.35750e-05;0.008358621591028546
1.35753e-05;0.008381634507618007
1.35755e-05;0.008404647424207623
1.35758e-05;0.00842766034079724
1.35760e-05;0.0084506732573867
1.35763e-05;0.008465508311830225
1.35765e-05;0.008477092487388156
1.35768e-05;0.00848867666294601
1.35770e-05;0.00850026083850394
1.35773e-05;0.008511845014061872
1.35775e-05;0.008523429189619725
1.35778e-05;0.008535013365177656
1.35780e-05;0.008546597540735588
1.35783e-05;0.008558181716293519
1.35785e-05;0.00856976589185137
1.35788e-05;0.008581350067409302
1.35790e-05;0.008592934242967233
1.35793e-05;0.008604518418525086
1.35795e-05;0.008616102594083018
1.35798e-05;0.008622583409823114
1.35800e-05;0.008610491849267835
1.35803e-05;0.008598400288712473
1.35805e-05;0.00858630872815711
1.35808e-05;0.00857421716760183
1.35810e-05;0.008562125607046469
1.35813e-05;0.008550034046491108
1.35815e-05;0.008537942485935828
1.35818e-05;0.008525850925380466
1.35820e-05;0.008513759364825103
1.35823e-05;0.008501667804269825
1.35825e-05;0.008489576243714462
1.35828e-05;0.008477484683159101
1.35830e-05;0.008465393122603821
1.35833e-05;0.008450920380863529
1.35835e-05;0.008427781937589371
1.35838e-05;0.008404643494315371
1.35840e-05;0.008381505051041214
1.35843e-05;0.008358366607767056
1.35845e-05;0.008335228164493056
1.35848e-05;0.008312089721218899
1.35850e-05;0.008288951277944741
1.35853e-05;0.008265812834670741
1.35855e-05;0.008242674391396584
1.35858e-05;0.008219535948122426
1.35860e-05;0.008196397504848425
1.35863e-05;0.008173259061574269
1.35865e-05;0.008150120618300111
1.35868e-05;0.008129619112973732
1.35870e-05;0.008118714070683108
1.35873e-05;0.00810780902839241
1.35875e-05;0.008096903986101713
1.35878e-05;0.00808599894381109
1.35880e-05;0.008075093901520393
1.35883e-05;0.008064188859229696
1.35885e-05;0.008053283816939072
1.35888e-05;0.008042378774648374
1.35890e-05;0.008031473732357677
1.35893e-05;0.008020568690067054
1.35895e-05;0.008009663647776355
1.35898e-05;0.007998758605485658
1.35900e-05;0.007987853563195035
1.35903e-05;0.007976948520904338
1.35905e-05;0.00797001514522697
1.35908e-05;0.007977535637105118
1.35910e-05;0.007985056128983316
1.35913e-05;0.007992576620861514
1.35915e-05;0.00800009711273966
1.35918e-05;0.008007617604617859
1.35920e-05;0.00801513809649606
1.35923e-05;0.008022658588374205
1.35925e-05;0.008030179080252404
1.35928e-05;0.008037699572130602
1.35930e-05;0.00804522006400875
1.35933e-05;0.008052740555886949
1.35935e-05;0.008060261047765147
1.35938e-05;0.008067781539643295
1.35940e-05;0.008075302031521493
1.35943e-05;0.008084029996233501
1.35945e-05;0.008097152250325187
1.35948e-05;0.008110274504416964
1.35950e-05;0.00812339675850874
1.35953e-05;0.008136519012600516
1.35955e-05;0.008149641266692202
1.35958e-05;0.008162763520783978
1.35960e-05;0.008175885774875755
1.35963e-05;0.00818900802896744
1.35965e-05;0.008202130283059217
1.35968e-05;0.008215252537150993
1.35970e-05;0.008228374791242679
1.35973e-05;0.008231152449397674
1.35975e-05;0.008229817904640533
1.35978e-05;0.008228483359883403
1.35980e-05;0.008227148815126263
1.35983e-05;0.008225814270369124
1.35985e-05;0.008224479725611992
1.35988e-05;0.008223145180854853
1.35990e-05;0.008221810636097714
1.35993e-05;0.008220476091340584
1.35995e-05;0.008219141546583443
1.35998e-05;0.008217807001826304
1.36000e-05;0.008209825347299306
1.36003e-05;0.008177653232287658
1.36005e-05;0.008145481117276008
1.36008e-05;0.008113309002264578
1.36010e-05;0.00808113688725293
1.36013e-05;0.00804896477224128
1.36015e-05;0.00801679265722985
1.36018e-05;0.0079846205422182
1.36020e-05;0.007952448427206552
1.36023e-05;0.007920276312195123
1.36025e-05;0.007888104197183473
1.36028e-05;0.007851900499969037
1.36030e-05;0.007801024887688796
1.36033e-05;0.007750149275408211
1.36035e-05;0.007699273663127624
1.36038e-05;0.007648398050847039
1.36040e-05;0.007597522438566798
1.36043e-05;0.007546646826286213
1.36045e-05;0.0074957712140056275
1.36048e-05;0.0074448956017253865
1.36050e-05;0.007394019989444801
1.36053e-05;0.007343144377164215
1.36055e-05;0.007293281315980332
1.36058e-05;0.007247103176234142
1.36060e-05;0.007200925036487954
1.36063e-05;0.007154746896742077
1.36065e-05;0.007108568756995888
1.36068e-05;0.007062390617249699
1.36070e-05;0.007016212477503823
1.36073e-05;0.0069700343377576334
1.36075e-05;0.006934838013283924
1.36078e-05;0.006904007200333203
1.36080e-05;0.006873176387382275
1.36083e-05;0.006842345574431346
1.36085e-05;0.006811514761480625
1.36088e-05;0.006780683948529697
1.36090e-05;0.006749853135578768
1.36093e-05;0.006722661361959585
1.36095e-05;0.006708712943759569
1.36098e-05;0.006694764525559553
1.36100e-05;0.006680816107359632
1.36103e-05;0.006666867689159616
1.36105e-05;0.0066529192709596
1.36108e-05;0.006638970852759678
1.36110e-05;0.006625022434559662
1.36113e-05;0.006611074016359646
1.36115e-05;0.006597125598159725
1.36118e-05;0.0065831771799597085
1.36120e-05;0.0065692287617596925
1.36123e-05;0.0065552803435596765
1.36125e-05;0.006541331925359755
1.36128e-05;0.006527383507159739
1.36130e-05;0.006513435088959723
1.36133e-05;0.0064994866707598015
1.36135e-05;0.0064855382525597855
1.36138e-05;0.006478942183871648
1.36140e-05;0.006475268834763658
1.36143e-05;0.0064715954856556426
1.36145e-05;0.006467922136547628
1.36148e-05;0.006464248787439638
1.36150e-05;0.006460575438331623
1.36153e-05;0.006456902089223609
1.36155e-05;0.006453228740115619
1.36158e-05;0.006449555391007604
1.36160e-05;0.006445882041899589
1.36163e-05;0.006442208692791599
1.36165e-05;0.006438535343683585
1.36168e-05;0.0064348619945755695
1.36170e-05;0.00643118864546758
1.36173e-05;0.006427515296359565
1.36175e-05;0.00642384194725155
1.36178e-05;0.00642016859814356
1.36180e-05;0.006416054173027937
1.36183e-05;0.00641033456428935
1.36185e-05;0.006404614955550801
1.36188e-05;0.006398895346812214
1.36190e-05;0.006393175738073628
1.36193e-05;0.00638745612933508
1.36195e-05;0.006381736520596493
1.36198e-05;0.006376016911857906
1.36200e-05;0.006370297303119358
1.36203e-05;0.006364577694380771
1.36205e-05;0.0063588580856421845
1.36208e-05;0.006353138476903598
1.36210e-05;0.00634741886816505
1.36213e-05;0.006341699259426463
1.36215e-05;0.006335979650687876
1.36218e-05;0.006324621164036946
1.36220e-05;0.005682229244764584
1.36223e-05;-0.026064561960378787
1.36225e-05;-0.01618970246954636
1.36228e-05;-0.010332288645978708
1.36230e-05;-0.0050650298375245414
1.36233e-05;0.01757443730748242
1.36235e-05;0.014194559529858387
1.36238e-05;0.013245680228660803
1.36240e-05;0.008465059832478677
1.36243e-05;-6.933208102067462e-06
1.36245e-05;-0.0034410700070939965
1.36248e-05;-0.0017683979226186686
1.36250e-05;0.0026714920766386313
1.36253e-05;0.009079890671018352
1.36255e-05;0.012068875648320253
1.36258e-05;0.01169163612954589
1.36260e-05;0.008505330351400352
1.36263e-05;0.0030734004983093656
1.36265e-05;0.0008271448704605313
1.36268e-05;0.001801916143565105
1.36270e-05;0.0045264010571045375
1.36273e-05;0.008496044023190027
1.36275e-05;0.01033286883094011
1.36278e-05;0.010068228045586318
1.36280e-05;0.00804985032779625
1.36283e-05;0.0046297758268969025
1.36285e-05;0.0032092550590547323
1.36288e-05;0.0038095241112656645
1.36290e-05;0.005508250651176263
1.36293e-05;0.007988864456865408
1.36295e-05;0.009135094609802767
1.36298e-05;0.008966438710573508
1.36300e-05;0.007700610828037642
1.36303e-05;0.0055580459319001805
1.36305e-05;0.004669120776512856
1.36308e-05;0.005046899940124262
1.36310e-05;0.006113438211305115
1.36313e-05;0.007670286336567136
1.36315e-05;0.008391745260846378
1.36318e-05;0.008290020689443725
1.36320e-05;0.007501481497561056
1.36323e-05;0.006164192845099639
1.36325e-05;0.005612538095436867
1.36328e-05;0.005854559870792585
1.36330e-05;0.00652811180989181
1.36333e-05;0.007508785542536956
1.36335e-05;0.007966109408656193
1.36338e-05;0.007907713806119248
1.36340e-05;0.007418998075468632
1.36343e-05;0.006586417461366498
1.36345e-05;0.006245757928518138
1.36348e-05;0.006401949598538876
1.36350e-05;0.006828045620717394
1.36353e-05;0.007446033763747441
1.36355e-05;0.007735650462802313
1.36358e-05;0.0077016418089275365
1.36360e-05;0.0073974673838521215
1.36363e-05;0.006877242257891405
1.36365e-05;0.006664434476110554
1.36368e-05;0.006762041066309205
1.36370e-05;0.00702781973249829
1.36373e-05;0.007412826945124941
1.36375e-05;0.007591112329484666
1.36378e-05;0.007565503060086593
1.36380e-05;0.007369171650673963
1.36383e-05;0.0070357562892682315
1.36385e-05;0.006893116743671392
1.36388e-05;0.0069431997514111535
1.36390e-05;0.007096995970827077
1.36393e-05;0.007323942634218728
1.36395e-05;0.007419971376355248
1.36398e-05;0.007386969503788873
1.36400e-05;0.00724583048863911
1.36403e-05;0.007017738453553239
1.36405e-05;0.006908167168614696
1.36408e-05;0.006918428970193307
1.36410e-05;0.006992864040835771
1.36413e-05;0.007112427723052556
1.36415e-05;0.007149397716861253
1.36418e-05;0.007105067339033827
1.36420e-05;0.006992635431346612
1.36423e-05;0.0068254818657027694
1.36425e-05;0.006732418434013052
1.36428e-05;0.006714364720113391
1.36430e-05;0.006736554505201739
1.36433e-05;0.006787159370842873
1.36435e-05;0.0067862796355762905
1.36438e-05;0.0067348345260579276
1.36440e-05;0.00664120093787484
1.36443e-05;0.0065138676696923315
1.36445e-05;0.006433625628431535
1.36448e-05;0.006401151961380033
1.36450e-05;0.006394769210893364
1.36453e-05;0.006407170868183199
1.36455e-05;0.006388413691871685
1.36458e-05;0.0063391807447170335
1.36460e-05;0.006264825892256124
1.36463e-05;0.00617077343595366
1.36465e-05;0.006107734547523414
1.36468e-05;0.006076235556851078
1.36470e-05;0.0060628003571746945
1.36473e-05;0.0060629554384597755
1.36475e-05;0.0060455207178661576
1.36478e-05;0.006011028320362011
1.36480e-05;0.005958841061483984
1.36483e-05;0.005903727021332559
1.36485e-05;0.005867547565000685
1.36488e-05;0.005852227196047742
1.36490e-05;0.0058518379803848925
1.36493e-05;0.005853693174953531
1.36495e-05;0.005855548369522156
1.36498e-05;0.005845696044272953
1.36500e-05;0.005830151902708921
1.36503e-05;0.005813944872045106
1.36505e-05;0.005797737841381182
1.36508e-05;0.005802002712122175
1.36510e-05;0.0058188609414267
1.36513e-05;0.005837388983167
