Time(s);Current(A)
5.50000e-07;-0.0004058551607417033
5.50250e-07;-0.00040404305718205237
5.50500e-07;-0.00040132967796474063
5.50750e-07;-0.00039700398105718275
5.51000e-07;-0.0003919514687784046
5.51250e-07;-0.000385581310268992
5.51500e-07;-0.000378617171094322
5.51750e-07;-0.0003701430705511963
5.52000e-07;-0.0003609882957593248
5.52250e-07;-0.0003518335209674572
5.52500e-07;-0.00034129277323847725
5.52750e-07;-0.0003301272439041805
5.53000e-07;-0.0003189617145698837
5.53250e-07;-0.0003070738984591343
5.53500e-07;-0.0002948604832839236
5.53750e-07;-0.0002826470681087181
5.54000e-07;-0.00027043365293350744
5.54250e-07;-0.0002582166042660153
5.54500e-07;-0.0002459979176595131
5.54750e-07;-0.00023377923105301097
5.55000e-07;-0.0002215605444465088
5.55250e-07;-0.00021010745146454138
5.55500e-07;-0.0001989994798056112
5.55750e-07;-0.00018874770336515213
5.56000e-07;-0.00017888189046607296
5.56250e-07;-0.0001700016341379947
5.56500e-07;-0.00016156565604947035
5.56750e-07;-0.00015312967796094244
5.57000e-07;-0.0001444198681251467
5.57250e-07;-0.00013558661790024598
5.57500e-07;-0.00012675336767534523
5.57750e-07;-0.00011769865580333821
5.58000e-07;-0.00010854411141679503
5.58250e-07;-9.938720989929935e-05
5.58500e-07;-9.022924581267362e-05
5.58750e-07;-8.078102863317149e-05
5.59000e-07;-7.084197943687468e-05
5.59250e-07;-6.041741820031371e-05
5.59500e-07;-4.958222813468306e-05
5.59750e-07;-3.842100542196026e-05
5.60000e-07;-2.7018341475764983e-05
5.60250e-07;-1.5448557387279966e-05
5.60500e-07;-3.7002546872129445e-06
5.60750e-07;8.34861420138225e-06
5.61000e-07;2.0785912263297047e-05
5.61250e-07;3.358467981702228e-05
5.61500e-07;4.672576527448751e-05
5.61750e-07;5.997336141811598e-05
5.62000e-07;7.336305297390808e-05
5.62250e-07;8.681679960417958e-05
5.62500e-07;0.0001002705462344568
5.62750e-07;0.00011374557837281217
5.63000e-07;0.0001273117801251308
5.63250e-07;0.0001408779818774494
5.63500e-07;0.0001544441836297623
5.63750e-07;0.00016769203275682917
5.64000e-07;0.0001807963719646622
5.64250e-07;0.00019390071117249519
5.64500e-07;0.00020630976027599925
5.64750e-07;0.0002184053801227555
5.65000e-07;0.00023050099996950663
5.65250e-07;0.0002416444525902569
5.65500e-07;0.0002523586785269379
5.65750e-07;0.00026307290446361895
5.66000e-07;0.00027262347001785986
5.66250e-07;0.00028164947006123714
5.66500e-07;0.00028961662682180136
5.66750e-07;0.0002971064684860113
5.67000e-07;0.00030364290584839886
5.67250e-07;0.0003097495588663221
5.67500e-07;0.000314589105215919
5.67750e-07;0.0003188574535881481
5.68000e-07;0.000323125801960379
5.68250e-07;0.0003257753664136467
5.68500e-07;0.00032769520058972514
5.68750e-07;0.0003296150347658036
5.69000e-07;0.0003301051302684462
5.69250e-07;0.00032995071504531964
5.69500e-07;0.00032979629982219304
5.69750e-07;0.0003282980524825021
5.70000e-07;0.000326194020163463
5.70250e-07;0.0003240899878444239
5.70500e-07;0.0003207753464439674
5.70750e-07;0.0003169149755670806
5.71000e-07;0.0003130546046901921
5.71250e-07;0.00030825530664199013
5.71500e-07;0.00030303275038312793
5.71750e-07;0.0002978101941242657
5.72000e-07;0.0002916242986593709
5.72250e-07;0.0002850041403026721
5.72500e-07;0.00027838398194597326
5.72750e-07;0.0002717638235892744
5.73000e-07;0.0002651436652325756
5.73250e-07;0.0002584025317015243
5.73500e-07;0.00025114323999898434
5.73750e-07;0.00024388394829644126
5.74000e-07;0.00023662465659389818
5.74250e-07;0.0002293653648913551
5.74500e-07;0.00022210607318881202
5.74750e-07;0.00021515614800841595
5.75000e-07;0.00020834568190919884
5.75250e-07;0.0002015352158099788
5.75500e-07;0.00019536306411509102
5.75750e-07;0.00018947865764781222
5.76000e-07;0.0001835942511805334
5.76250e-07;0.00017851076437511336
5.76500e-07;0.00017378832348818125
5.76750e-07;0.00016906588260124912
5.77000e-07;0.0001647467785823817
5.77250e-07;0.00016060949445997427
5.77500e-07;0.00015647221033756684
5.77750e-07;0.00015278494764980066
5.78000e-07;0.00014930054975602914
5.78250e-07;0.0001458161518622576
5.78500e-07;0.00014275796336537242
5.78750e-07;0.00013989190545348466
5.79000e-07;0.0001370258475415981
5.79250e-07;0.0001346255905662494
5.79500e-07;0.00013243531161363683
5.79750e-07;0.0001302450326610243
5.80000e-07;0.00012805475370841177
5.80250e-07;0.0001258644747557992
5.80500e-07;0.0001236741958031876
5.80750e-07;0.00012148391685057506
5.81000e-07;0.00011929363789796252
5.81250e-07;0.00011725258303756673
5.81500e-07;0.0001158506814842913
5.81750e-07;0.00011444877993101589
5.82000e-07;0.00011304687837774105
5.82250e-07;0.00011164497682446562
5.82500e-07;0.0001102430752711902
5.82750e-07;0.00010884117371791477
5.83000e-07;0.00010743927216463934
5.83250e-07;0.0001060373706113645
5.83500e-07;0.00010489983268464387
5.83750e-07;0.00010388146702065013
5.84000e-07;0.00010286310135665639
5.84250e-07;0.00010184473569266266
5.84500e-07;0.00010086799401667233
5.84750e-07;0.00010006953527873062
5.85000e-07;9.927107654078858e-05
5.85250e-07;9.847261780284653e-05
5.85500e-07;9.767415906490449e-05
5.85750e-07;9.694375287068986e-05
5.86000e-07;9.627650729747445e-05
5.86250e-07;9.563801251067176e-05
5.86500e-07;9.482911756786766e-05
5.86750e-07;9.342469567406492e-05
5.87000e-07;9.109462433026093e-05
5.87250e-07;8.777126594275337e-05
5.87500e-07;8.350218982701743e-05
5.87750e-07;7.834837302942724e-05
5.88000e-07;7.237079308996344e-05
5.88250e-07;6.561648763058813e-05
5.88500e-07;5.801817495728297e-05
5.88750e-07;4.9367034306943764e-05
5.89000e-07;3.951377107932968e-05
5.89250e-07;2.8473524392492167e-05
5.89500e-07;1.6333593211554166e-05
5.89750e-07;3.1896729092446333e-06
5.90000e-07;-1.0862549047799469e-05
5.90250e-07;-2.5736124559398402e-05
5.90500e-07;-4.141571154775386e-05
5.90750e-07;-5.7974629669396936e-05
5.91000e-07;-7.544889686817696e-05
5.91250e-07;-9.377152825205799e-05
5.91500e-07;-0.00011303103056877395
5.91750e-07;-0.00013259840889974143
5.92000e-07;-0.00015280937425278364
5.92250e-07;-0.00017331046167247234
5.92500e-07;-0.00019442269798023703
5.92750e-07;-0.00021581043359479013
5.93000e-07;-0.00023719816920934322
5.93250e-07;-0.00025858590482388723
5.93500e-07;-0.0002799740366370466
5.93750e-07;-0.0003013623470522512
5.94000e-07;-0.0003227506574674558
5.94250e-07;-0.00034413896788266043
5.94500e-07;-0.0003645215540476154
5.94750e-07;-0.0003844507706013744
5.95000e-07;-0.000404379987155142
5.95250e-07;-0.00042275279515872677
5.95500e-07;-0.0004404239910265086
5.95750e-07;-0.0004580951868942904
5.96000e-07;-0.000473853572669008
5.96250e-07;-0.0004887496843482714
5.96500e-07;-0.0005020445418072631
5.96750e-07;-0.0005146175711875548
5.97000e-07;-0.0005271906005678465
5.97250e-07;-0.0005375647778351598
5.97500e-07;-0.0005469477363590849
5.97750e-07;-0.000556330694883014
5.98000e-07;-0.0005657136534069432
5.98250e-07;-0.0005750966119308723
5.98500e-07;-0.0005844795704548014
5.98750e-07;-0.0005938625289787266
5.99000e-07;-0.0006032454875026557
5.99250e-07;-0.0006100410835663875
5.99500e-07;-0.0006156703246254561
5.99750e-07;-0.0006212995656845247
6.00000e-07;-0.0006269288067435933
6.00250e-07;-0.0006325580478026595
6.00500e-07;-0.0006381872888617281
6.00750e-07;-0.0006438165299207967
6.01000e-07;-0.0006494457709798653
6.01250e-07;-0.000652912470415883
6.01500e-07;-0.0006554043194845308
6.01750e-07;-0.0006578961685531775
6.02000e-07;-0.0006603880176218254
6.02250e-07;-0.0006628798666904732
6.02500e-07;-0.0006653717157591209
6.02750e-07;-0.0006678635648277687
6.03000e-07;-0.0006703554138964155
6.03250e-07;-0.0006728472629650633
6.03500e-07;-0.0006753391120337111
6.03750e-07;-0.000677830961102359
6.04000e-07;-0.0006803228101710067
6.04250e-07;-0.0006828146592396545
6.04500e-07;-0.0006853065083083013
6.04750e-07;-0.0006877983573769491
6.05000e-07;-0.0006902902064455969
6.05250e-07;-0.0006927820555142446
6.05500e-07;-0.0006952739045828925
6.05750e-07;-0.0006977657536515403
6.06000e-07;-0.0006996491679880345
6.06250e-07;-0.0006989265482353721
6.06500e-07;-0.0006982039284827099
6.06750e-07;-0.0006974813087300475
6.07000e-07;-0.0006967586889773852
6.07250e-07;-0.0006960360692247233
6.07500e-07;-0.0006953134494720609
6.07750e-07;-0.0006945908297193987
6.08000e-07;-0.0006938682099667364
6.08250e-07;-0.0006931455902140741
6.08500e-07;-0.0006924229704614118
6.08750e-07;-0.0006917003507087498
6.09000e-07;-0.0006909777309560875
6.09250e-07;-0.0006902551112034252
6.09500e-07;-0.0006895324914507629
6.09750e-07;-0.0006888098716981006
6.10000e-07;-0.0006880872519454383
6.10250e-07;-0.0006873646321927763
6.10500e-07;-0.000686642012440114
6.10750e-07;-0.0006859193926874518
6.11000e-07;-0.0006834659733180393
6.11250e-07;-0.0006802323282067169
6.11500e-07;-0.0006769986830953958
6.11750e-07;-0.0006737650379840735
6.12000e-07;-0.0006705313928727511
6.12250e-07;-0.0006672977477614287
6.12500e-07;-0.0006640641026501063
6.12750e-07;-0.0006608304575387838
6.13000e-07;-0.0006575968124274629
6.13250e-07;-0.0006543631673161405
6.13500e-07;-0.0006510706400706882
6.13750e-07;-0.0006477515693962092
6.14000e-07;-0.0006444324987217303
6.14250e-07;-0.0006411134280472512
6.14500e-07;-0.0006377943573727736
6.14750e-07;-0.0006344752866982946
6.15000e-07;-0.0006311562160238156
6.15250e-07;-0.0006278371453493366
6.15500e-07;-0.0006245180746748576
6.15750e-07;-0.00062119900400038
6.16000e-07;-0.0006204440039219903
6.16250e-07;-0.0006208448591279434
6.16500e-07;-0.0006212457143338965
6.16750e-07;-0.0006216465695398496
6.17000e-07;-0.0006220474247458028
6.17250e-07;-0.0006224482799517557
6.17500e-07;-0.0006228491351577089
6.17750e-07;-0.000623249990363662
6.18000e-07;-0.0006236508455696151
6.18250e-07;-0.0006240517007755682
6.18500e-07;-0.0006244525559815212
6.18750e-07;-0.0006248534111874743
6.19000e-07;-0.0006267025556099444
6.19250e-07;-0.000634754980137649
6.19500e-07;-0.0006428074046653535
6.19750e-07;-0.0006508598291930581
6.20000e-07;-0.0006589122537207592
6.20250e-07;-0.0006669646782484638
6.20500e-07;-0.0006750171027761684
6.20750e-07;-0.000683069527303873
6.21000e-07;-0.0006911219518315776
6.21250e-07;-0.0006991743763592822
6.21500e-07;-0.0007072268008869833
6.21750e-07;-0.0007152792254146879
6.22000e-07;-0.0007233316499423925
6.22250e-07;-0.000733850540758597
6.22500e-07;-0.0007454812878932612
6.22750e-07;-0.0007571120350279206
6.23000e-07;-0.0007687427821625847
6.23250e-07;-0.0007803735292972489
6.23500e-07;-0.0007920042764319132
6.23750e-07;-0.0008036350235665774
6.24000e-07;-0.0008147675720892538
6.24250e-07;-0.0008256755380675906
6.24500e-07;-0.0008365835040459321
6.24750e-07;-0.0008474914700242735
6.25000e-07;-0.000858399436002615
6.25250e-07;-0.0008693074019809564
6.25500e-07;-0.0008802153679592979
6.25750e-07;-0.0008894710916553998
6.26000e-07;-0.000897982002406077
6.26250e-07;-0.0009064929131567542
6.26500e-07;-0.0009121536413464999
6.26750e-07;-0.0009165295380735453
6.27000e-07;-0.0009209054348005887
6.27250e-07;-0.0009212480765243136
6.27500e-07;-0.0009197725705278181
6.27750e-07;-0.0009151855714364702
6.28000e-07;-0.0009091959449208135
6.28250e-07;-0.0009001810260906103
6.28500e-07;-0.0008898023382152692
6.28750e-07;-0.0008758184035085897
6.29000e-07;-0.0008602092625350515
6.29250e-07;-0.000840932445866248
6.29500e-07;-0.0008200022806741356
6.29750e-07;-0.0007958552435882555
6.30000e-07;-0.0007702580754556036
6.30250e-07;-0.0007418354796521466
6.30500e-07;-0.0007121392116226356
6.30750e-07;-0.0006795915975122408
6.31000e-07;-0.0006457586274369315
6.31250e-07;-0.000609372673907119
6.31500e-07;-0.0005718358630563944
6.31750e-07;-0.0005323658136444216
6.32000e-07;-0.000492024281204497
6.32250e-07;-0.0004500599894857986
6.32500e-07;-0.00040736417544065247
6.32750e-07;-0.0003646683613955244
6.33000e-07;-0.0003208553675842091
6.33250e-07;-0.0002765387612209275
6.33500e-07;-0.00023222215485764589
6.33750e-07;-0.00018790554849436428
6.34000e-07;-0.00014358894213108267
6.34250e-07;-9.996213258681044e-05
6.34500e-07;-5.725655474138151e-05
6.34750e-07;-1.554612477161768e-05
6.35000e-07;2.4971011658899417e-05
6.35250e-07;6.403588144946883e-05
6.35500e-07;0.00010136331828222726
6.35750e-07;0.00013666519821112425
6.36000e-07;0.00016965342517283907
6.36250e-07;0.00020006585612676115
6.36500e-07;0.00022786744196799994
6.36750e-07;0.00025334585463141553
6.37000e-07;0.00027676649920712964
6.37250e-07;0.0002981459805555845
6.37500e-07;0.00031738123121335027
6.37750e-07;0.00033435451911749365
6.38000e-07;0.00034894810825626985
6.38250e-07;0.0003610605137503633
6.38500e-07;0.0003707325530233365
6.38750e-07;0.0003782071330656815
6.39000e-07;0.00038371323888267215
6.39250e-07;0.00038732399089667837
6.39500e-07;0.00038837868038947673
6.39750e-07;0.00038854579458395924
6.40000e-07;0.0003860674154569616
6.40250e-07;0.00038239647656187765
6.40500e-07;0.00037629858549044926
6.40750e-07;0.0003691066506347944
6.41000e-07;0.00036001080594510516
6.41250e-07;0.00035005669930038204
6.41500e-07;0.0003384158397792214
6.41750e-07;0.00032601461031011577
6.42000e-07;0.0003120835727643719
6.42250e-07;0.00029746291428846624
6.42500e-07;0.00028142760277724815
6.42750e-07;0.0002647545809826409
6.43000e-07;0.0002480815591880337
6.43250e-07;0.0002304651283298919
6.43500e-07;0.000212423418872523
6.43750e-07;0.0001943817094151541
6.44000e-07;0.00017633999995779283
6.44250e-07;0.00015829829050042392
6.44500e-07;0.00014025658104305504
6.44750e-07;0.0001226113644153678
6.45000e-07;0.00010514488246569941
6.45250e-07;8.83139582473411e-05
6.45500e-07;7.23085321834276e-05
6.45750e-07;5.7170297933896524e-05
6.46000e-07;4.302287077063151e-05
6.46250e-07;2.994113477094491e-05
6.46500e-07;1.7594350309980437e-05
6.46750e-07;5.133107754524014e-06
6.47000e-07;-8.11879600364826e-06
6.47250e-07;-2.2284949651979757e-05
6.47500e-07;-3.7242257834046004e-05
6.47750e-07;-5.28385874610701e-05
6.48000e-07;-6.892182296499953e-05
6.48250e-07;-8.537038610968343e-05
6.48500e-07;-0.00010231677877817038
6.48750e-07;-0.00012021836021338112
6.49000e-07;-0.00013942395316699977
6.49250e-07;-0.00015993620693134414
6.49500e-07;-0.00018160324807390483
6.49750e-07;-0.00020425502842208706
6.50000e-07;-0.00022793507494074823
6.50250e-07;-0.000251948121581651
6.50500e-07;-0.0002769881250402804
6.50750e-07;-0.0003024910695218395
6.51000e-07;-0.00032936794049673795
6.51250e-07;-0.00035686416267053305
6.51500e-07;-0.0003855112331333987
6.51750e-07;-0.0004146770935541125
6.52000e-07;-0.00044384295397482634
6.52250e-07;-0.0004737415323958572
6.52500e-07;-0.0005039704121642458
6.52750e-07;-0.0005341992919326472
6.53000e-07;-0.0005644281717010485
6.53250e-07;-0.00059465705146945
6.53500e-07;-0.0006243985929096906
6.53750e-07;-0.0006539204475040404
6.54000e-07;-0.0006834423020983778
6.54250e-07;-0.0007129641566927278
6.54500e-07;-0.0007424860112870776
6.54750e-07;-0.0007700073364139624
6.55000e-07;-0.0007966268445003556
6.55250e-07;-0.0008232463525867376
6.55500e-07;-0.0008473358600812502
6.55750e-07;-0.0008702848706806548
6.56000e-07;-0.0008932338812800593
6.56250e-07;-0.0009131239778503186
6.56500e-07;-0.000931635149070189
6.56750e-07;-0.0009466847882342107
6.57000e-07;-0.0009601740061972804
6.57250e-07;-0.00096982258520523
6.57500e-07;-0.0009777398457235277
6.57750e-07;-0.000981812856362699
6.58000e-07;-0.0009841529207467413
6.58250e-07;-0.0009826112017026845
6.58500e-07;-0.0009793196166856888
6.58750e-07;-0.0009719129424284114
6.59000e-07;-0.000962651230462165
6.59250e-07;-0.0009493750336105889
6.59500e-07;-0.0009342891504048388
6.59750e-07;-0.0009155245982463363
6.60000e-07;-0.0008951017419229153
6.60250e-07;-0.0008713148083704485
6.60500e-07;-0.0008460113851985855
6.60750e-07;-0.0008175357652872311
6.61000e-07;-0.0007876301534052576
6.61250e-07;-0.0007543747073833633
6.61500e-07;-0.0007196091923725594
6.61750e-07;-0.0006848436773617554
6.62000e-07;-0.0006471465735144118
6.62250e-07;-0.0006081279411359991
6.62500e-07;-0.0005691093087575699
6.62750e-07;-0.0005281988502443871
6.63000e-07;-0.000486435576977043
6.63250e-07;-0.00044467230370969895
6.63500e-07;-0.00040284655465291057
6.63750e-07;-0.00036075321068668956
6.64000e-07;-0.0003186598667204507
6.64250e-07;-0.0002765665227542119
6.64500e-07;-0.00023566429293960642
6.64750e-07;-0.0001952990044980713
6.65000e-07;-0.00015609810363889978
6.65250e-07;-0.0001184433255955709
6.65500e-07;-8.24615001761007e-05
6.65750e-07;-4.843022851174273e-05
6.66000e-07;-1.662707923872554e-05
6.66250e-07;1.2725480626314827e-05
6.66500e-07;3.987047132186532e-05
6.66750e-07;6.566618697026303e-05
6.67000e-07;9.081846339602691e-05
6.67250e-07;0.00011543653447497895
6.67500e-07;0.00013935798010536395
6.67750e-07;0.00016238800658275105
6.68000e-07;0.00018433188441273633
6.68250e-07;0.00020467251363789291
6.68500e-07;0.00022445102570691706
6.68750e-07;0.0002435699222634462
6.69000e-07;0.0002623914712832225
6.69250e-07;0.00028084347232199377
6.69500e-07;0.0002991288851290036
6.69750e-07;0.00031741429793602114
6.70000e-07;0.0003345814878210633
6.70250e-07;0.0003512445949107616
6.70500e-07;0.00036790770200045993
6.70750e-07;0.0003840203638467788
6.71000e-07;0.0003998848909325748
6.71250e-07;0.00041574941801837077
6.71500e-07;0.00043061298398919343
6.71750e-07;0.0004450253275186303
6.72000e-07;0.0004594376710480672
6.72250e-07;0.00047385001457749795
6.72500e-07;0.00048826235810693483
6.72750e-07;0.0005026747016363718
6.73000e-07;0.0005170870451658087
6.73250e-07;0.0005314993886952454
6.73500e-07;0.00054534583793807
6.73750e-07;0.0005567684613800078
6.74000e-07;0.0005681910848219456
6.74250e-07;0.0005796137082638834
6.74500e-07;0.0005910363317058212
6.74750e-07;0.000602458955147759
6.75000e-07;0.0006138815785896919
6.75250e-07;0.0006253042020316298
6.75500e-07;0.0006367268254735675
6.75750e-07;0.0006461594883630163
6.76000e-07;0.0006546950985644745
6.76250e-07;0.0006632307087659326
6.76500e-07;0.0006696877239976856
6.76750e-07;0.0006752077311050924
6.77000e-07;0.0006774912469650316
6.77250e-07;0.0006783157875857013
6.77500e-07;0.0006758797039501283
6.77750e-07;0.0006719737661760231
6.78000e-07;0.0006650063666653077
6.78250e-07;0.0006566588933251987
6.78500e-07;0.000645009932105512
6.78750e-07;0.0006318726958679861
6.79000e-07;0.000614903105739901
6.79250e-07;0.0005962059319395895
6.79500e-07;0.0005740046773622564
6.79750e-07;0.0005502238210807374
6.80000e-07;0.0005234069701072001
6.80250e-07;0.0004952215255724439
6.80500e-07;0.0004641930200213905
6.80750e-07;0.0004318828933228282
6.81000e-07;0.0003967404882282532
6.81250e-07;0.0003603213226747281
6.81500e-07;0.00032161880938656024
6.81750e-07;0.0002818869876427888
6.82000e-07;0.00024084296614552
6.82250e-07;0.0001982485032197718
6.82500e-07;0.00015522177134637505
6.82750e-07;0.0001113671097652476
6.83000e-07;6.670496768081587e-05
6.83250e-07;2.158793250165882e-05
6.83500e-07;-2.366249670813616e-05
6.83750e-07;-6.892040098392229e-05
6.84000e-07;-0.00011382281571596367
6.84250e-07;-0.00015808504636638006
6.84500e-07;-0.00020150862626766014
6.84750e-07;-0.00024391830020977298
6.85000e-07;-0.0002851130195731937
6.85250e-07;-0.0003248293746860416
6.85500e-07;-0.00036277709169169937
6.85750e-07;-0.0003986627839184742
6.86000e-07;-0.00043219315595497635
6.86250e-07;-0.0004631137950992668
6.86500e-07;-0.0004908872870513821
6.86750e-07;-0.0005176179329650128
6.87000e-07;-0.0005422261379298608
6.87250e-07;-0.0005658775694773387
6.87500e-07;-0.0005872345797898936
6.87750e-07;-0.0006075572898327044
6.88000e-07;-0.0006251744749424956
6.88250e-07;-0.0006415720386831067
6.88500e-07;-0.0006554194876477791
6.88750e-07;-0.0006681173724607302
6.89000e-07;-0.0006790472686374868
6.89250e-07;-0.0006891801746646208
6.89500e-07;-0.0006970345608962589
6.89750e-07;-0.000703861815055014
6.90000e-07;-0.0007106890692137692
6.90250e-07;-0.0007146752349906502
6.90500e-07;-0.0007173806688622461
6.90750e-07;-0.0007200861027338431
6.91000e-07;-0.0007208676095473505
6.91250e-07;-0.0007207818308577177
6.91500e-07;-0.0007206960521680849
6.91750e-07;-0.000718097464382641
6.92000e-07;-0.0007143661294424705
6.92250e-07;-0.0007106347945022985
6.92500e-07;-0.0007069034595621265
6.92750e-07;-0.0007031721246219544
6.93000e-07;-0.0006994407896817824
6.93250e-07;-0.0006952466041857478
