Time(s);Current(A)
1.05500e-05;0.0055111748926099284
1.05503e-05;0.005521755433459552
1.05505e-05;0.005532335974309103
1.05508e-05;0.005542916515158727
1.05510e-05;0.00555349705600835
1.05512e-05;0.005564077596857901
1.05515e-05;0.005574658137707525
1.05518e-05;0.005585238678557148
1.05520e-05;0.0055958081565043545
1.05523e-05;0.005605986041735574
1.05525e-05;0.005616163926966792
1.05527e-05;0.005626341812197942
1.05530e-05;0.005636519697429161
1.05533e-05;0.00564669758266038
1.05535e-05;0.00565687546789153
1.05538e-05;0.005667053353122748
1.05540e-05;0.005677231238353967
1.05543e-05;0.005687409123585186
1.05545e-05;0.00570229059096025
1.05548e-05;0.005721385644758524
1.05550e-05;0.0057404806985567975
1.05553e-05;0.0057595757523549425
1.05555e-05;0.005778670806153217
1.05558e-05;0.00579776585995149
1.05560e-05;0.005816860913749635
1.05563e-05;0.005835955967547909
1.05565e-05;0.005855051021346183
1.05568e-05;0.005874619814499114
1.05570e-05;0.005910957523722796
1.05573e-05;0.005947295232946478
1.05575e-05;0.005983632942169914
1.05578e-05;0.0060199706513935965
1.05580e-05;0.006056308360617279
1.05583e-05;0.006092646069840715
1.05585e-05;0.006128983779064397
1.05588e-05;0.006165321488288079
1.05590e-05;0.006201659197511515
1.05593e-05;0.006237996906735197
1.05595e-05;0.006274507053134535
1.05597e-05;0.006317120945188263
1.05600e-05;0.006359734837242279
1.05603e-05;0.006402348729296295
1.05605e-05;0.006444962621350022
1.05608e-05;0.006487576513404037
1.05610e-05;0.006530190405458053
1.05612e-05;0.006572804297511781
1.05615e-05;0.006615418189565797
1.05618e-05;0.006658032081619813
1.05620e-05;0.00670064597367354
1.05623e-05;0.006742832521361877
1.05625e-05;0.006769892392869234
1.05628e-05;0.006796952264376591
1.05630e-05;0.006824012135883765
1.05633e-05;0.006851072007391122
1.05635e-05;0.006878131878898479
1.05638e-05;0.006905191750405652
1.05640e-05;0.006932251621913009
1.05643e-05;0.006959311493420366
1.05645e-05;0.00698637136492754
1.05648e-05;0.006995237640052371
1.05650e-05;0.006987805636889951
1.05653e-05;0.0069803736337275815
1.05655e-05;0.0069729416305651624
1.05658e-05;0.0069655096274027425
1.05660e-05;0.006958077624240373
1.05663e-05;0.006950645621077953
1.05665e-05;0.006943213617915533
1.05668e-05;0.006935781614753164
1.05670e-05;0.00692742347874051
1.05673e-05;0.006886283088278513
1.05675e-05;0.006845142697816795
1.05678e-05;0.006804002307354798
1.05680e-05;0.006762861916892801
1.05682e-05;0.006721721526431083
1.05685e-05;0.0066805811359690855
1.05688e-05;0.006639440745507088
1.05690e-05;0.00659830035504537
1.05693e-05;0.006557159964583373
1.05695e-05;0.0065078236236055425
1.05697e-05;0.006451145145343
1.05700e-05;0.006394466667080074
1.05703e-05;0.006337788188817147
1.05705e-05;0.006281109710554605
1.05708e-05;0.006224431232291679
1.05710e-05;0.006167752754028752
1.05713e-05;0.006111074275765826
1.05715e-05;0.006054395797503284
1.05718e-05;0.0059980314341848305
1.05720e-05;0.005952785773813928
1.05723e-05;0.005907540113443333
1.05725e-05;0.005862294453072431
1.05728e-05;0.0058170487927015286
1.05730e-05;0.005771803132330933
1.05733e-05;0.005726557471960031
1.05735e-05;0.005681311811589129
1.05738e-05;0.005636066151218534
1.05740e-05;0.0055908204908476315
1.05743e-05;0.0055605411262290875
1.05745e-05;0.005543668943348613
1.05748e-05;0.005526796760468023
1.05750e-05;0.005509924577587434
1.05753e-05;0.005493052394706959
1.05755e-05;0.00547618021182637
1.05758e-05;0.00545930802894578
1.05760e-05;0.005442435846065305
1.05763e-05;0.005425563663184716
1.05765e-05;0.005409443541592712
1.05767e-05;0.005419944076622911
1.05770e-05;0.00543044461165318
1.05773e-05;0.00544094514668345
1.05775e-05;0.005451445681713648
1.05778e-05;0.005461946216743918
1.05780e-05;0.005472446751774187
1.05782e-05;0.005482947286804386
1.05785e-05;0.005493447821834655
1.05788e-05;0.005503948356864925
1.05790e-05;0.005514448891895123
1.05793e-05;0.005525345310847437
1.05795e-05;0.005550254803090873
1.05798e-05;0.005575164295334308
1.05800e-05;0.005600073787577574
1.05803e-05;0.005624983279821009
1.05805e-05;0.005649892772064445
1.05808e-05;0.005674802264307712
1.05810e-05;0.005699711756551147
1.05813e-05;0.005724621248794582
1.05815e-05;0.005749530741037848
1.05818e-05;0.005774440233281284
1.05820e-05;0.005799173878691405
1.05823e-05;0.0058176830870195016
1.05825e-05;0.005836192295347723
1.05828e-05;0.005854701503675945
1.05830e-05;0.005873210712004042
1.05833e-05;0.005891719920332264
1.05835e-05;0.005910229128660485
1.05838e-05;0.005928738336988582
1.05840e-05;0.005947247545316804
1.05843e-05;0.005964922923481339
1.05845e-05;0.0059530832782910305
1.05848e-05;0.005941243633100641
1.05850e-05;0.005929403987910252
1.05853e-05;0.005917564342719943
1.05855e-05;0.005905724697529553
1.05858e-05;0.005893885052339164
1.05860e-05;0.005882045407148855
1.05863e-05;0.005870205761958466
1.05865e-05;0.00585735276976344
1.05867e-05;0.005808630410138038
1.05870e-05;0.0057599080505123055
1.05873e-05;0.005711185690886573
1.05875e-05;0.005662463331261172
1.05878e-05;0.0056137409716354395
1.05880e-05;0.005565018612009707
1.05883e-05;0.005516296252383975
1.05885e-05;0.005467573892758573
1.05888e-05;0.0054070065893902525
1.05890e-05;0.005335828289412754
1.05893e-05;0.005264649989435737
1.05895e-05;0.005193471689458239
1.05898e-05;0.005122293389480739
1.05900e-05;0.005051115089503723
1.05903e-05;0.004979936789526224
1.05905e-05;0.004908758489548725
1.05908e-05;0.004837557788506799
1.05910e-05;0.0047655641586595455
1.05913e-05;0.004693570528812291
1.05915e-05;0.004621576898965525
1.05918e-05;0.004549583269118271
1.05920e-05;0.004477589639271017
1.05923e-05;0.004405596009424251
1.05925e-05;0.004334167218883714
1.05928e-05;0.004282732002686768
1.05930e-05;0.0042312967864901714
1.05933e-05;0.004179861570293226
1.05935e-05;0.004128426354096279
1.05938e-05;0.004076991137899682
1.05940e-05;0.004025555921702737
1.05943e-05;0.00397479466156566
1.05945e-05;0.003947889373266918
1.05948e-05;0.0039209840849679925
1.05950e-05;0.00389452822336855
1.05952e-05;0.003883980684770196
1.05955e-05;0.0038734331461717695
1.05958e-05;0.0038633388937882656
1.05960e-05;0.0038692895793787443
1.05963e-05;0.0038752402649692634
1.05965e-05;0.0038819228314106316
1.05968e-05;0.003914511729149237
1.05970e-05;0.003947100626887623
1.05973e-05;0.0039796895246262285
1.05975e-05;0.004012278422364834
1.05978e-05;0.004044867320103219
1.05980e-05;0.004077456217841825
1.05983e-05;0.00411004511558043
1.05985e-05;0.0041433659101615915
1.05988e-05;0.004202593602124957
1.05990e-05;0.004261821294088322
1.05993e-05;0.004321048986051286
1.05995e-05;0.004380276678014651
1.05998e-05;0.004439504369978016
1.06000e-05;0.00449873206194098
1.06003e-05;0.0045579597539043455
1.06005e-05;0.004617336603554178
1.06008e-05;0.004681993176591046
1.06010e-05;0.004746649749628353
1.06013e-05;0.0048113063226656585
1.06015e-05;0.004875962895702527
1.06018e-05;0.004940619468739834
1.06020e-05;0.00500527604177714
1.06023e-05;0.005069932614814009
1.06025e-05;0.005125331825282885
1.06028e-05;0.0051724380590187635
1.06030e-05;0.005219544292754324
1.06033e-05;0.005266650526490203
1.06035e-05;0.005313756760226083
1.06037e-05;0.005360862993961642
1.06040e-05;0.005407969227697522
1.06043e-05;0.005454143168520567
1.06045e-05;0.005467316807323001
1.06048e-05;0.005480490446125525
1.06050e-05;0.005493664084928048
1.06053e-05;0.005506837723730571
1.06055e-05;0.0055200113625330045
1.06058e-05;0.0055331850013355275
1.06060e-05;0.005546358640138051
1.06063e-05;0.005559532278940485
1.06065e-05;0.005572705917743008
1.06068e-05;0.005585879556545531
1.06070e-05;0.005599053195347965
1.06073e-05;0.0055950640810155565
1.06075e-05;0.005575700143520986
1.06078e-05;0.005556336206026548
1.06080e-05;0.005536972268531977
1.06083e-05;0.005517608331037407
1.06085e-05;0.0054982443935429675
1.06088e-05;0.005478880456048397
1.06090e-05;0.005459516518553827
1.06093e-05;0.005440152581059388
1.06095e-05;0.005420788643564818
1.06098e-05;0.0054014247060702476
1.06100e-05;0.005381741939420727
1.06103e-05;0.005350773601169613
1.06105e-05;0.005319805262918499
1.06108e-05;0.005288836924667595
1.06110e-05;0.005257868586416481
1.06113e-05;0.005226900248165367
1.06115e-05;0.005195931909914463
1.06118e-05;0.005164963571663349
1.06120e-05;0.005134147636822736
1.06122e-05;0.005108726314033866
1.06125e-05;0.005083304991244823
1.06128e-05;0.0050578836684557794
1.06130e-05;0.005032462345666909
1.06133e-05;0.005007041022877866
1.06135e-05;0.0049816197000888225
1.06138e-05;0.004956198377299779
1.06140e-05;0.004930887373638428
1.06143e-05;0.004909481327834007
1.06145e-05;0.004888075282029585
1.06148e-05;0.004866669236225309
1.06150e-05;0.004845263190420888
1.06153e-05;0.004823857144616467
1.06155e-05;0.004802451098812191
1.06158e-05;0.0047810450530077694
1.06160e-05;0.0047596390072033486
1.06163e-05;0.0047382329613990725
1.06165e-05;0.004716826915594652
1.06168e-05;0.004695420869790231
1.06170e-05;0.004674014823985955
1.06173e-05;0.004652608778181533
1.06175e-05;0.004631202732377112
1.06178e-05;0.004609731356280078
1.06180e-05;0.0045859474887222345
1.06183e-05;0.004562163621164391
1.06185e-05;0.004538379753606709
1.06188e-05;0.004514595886048865
1.06190e-05;0.0044908120184910215
1.06193e-05;0.004467028150933339
1.06195e-05;0.004443244283375496
1.06198e-05;0.004419460415817652
1.06200e-05;0.00439567654825997
1.06203e-05;0.004371892680702126
1.06205e-05;0.004348108813144283
1.06207e-05;0.0043243249455866
1.06210e-05;0.004300541078028757
1.06213e-05;0.004276757210470913
1.06215e-05;0.004253190491516718
1.06218e-05;0.004237310165362647
1.06220e-05;0.0042214298392085755
1.06222e-05;0.004205549513054612
1.06225e-05;0.004189669186900541
1.06228e-05;0.004173788860746469
1.06230e-05;0.004157908534592398
1.06233e-05;0.004142028208438434
1.06235e-05;0.004126147882284363
1.06238e-05;0.004110267556130292
1.06240e-05;0.004094387229976328
1.06243e-05;0.004078506903822257
1.06245e-05;0.004062626577668186
1.06248e-05;0.004046746251514221
1.06250e-05;0.004041588495169047
1.06253e-05;0.004046036284824843
1.06255e-05;0.004050484074480608
1.06258e-05;0.004054931864136404
1.06260e-05;0.0040593796537922
1.06263e-05;0.004063827443447966
1.06265e-05;0.004068275233103762
1.06268e-05;0.004072723022759558
1.06270e-05;0.004077170812415323
1.06273e-05;0.004081618602071119
1.06275e-05;0.004086066391726915
1.06278e-05;0.0040905141813826805
1.06280e-05;0.0040949619710384765
1.06283e-05;0.0040998041265967325
1.06285e-05;0.004118605622384248
1.06288e-05;0.004137407118171892
1.06290e-05;0.004156208613959535
1.06292e-05;0.004175010109747051
1.06295e-05;0.004193811605534694
1.06298e-05;0.004212613101322337
1.06300e-05;0.004231414597109853
1.06303e-05;0.004250216092897496
1.06305e-05;0.00426901758868514
1.06307e-05;0.0042878190844726554
1.06310e-05;0.004306557910893734
1.06313e-05;0.004325240596530072
1.06315e-05;0.004343923282166411
1.06318e-05;0.004362605967802623
1.06320e-05;0.0043812886534389615
1.06323e-05;0.004399971339075301
1.06325e-05;0.0044186540247115125
1.06328e-05;0.004437336710347852
1.06330e-05;0.00445601939598419
1.06333e-05;0.004474702081620402
1.06335e-05;0.004493086632342326
1.06338e-05;0.004500918123872268
1.06340e-05;0.004508749615402157
1.06343e-05;0.004516581106932098
1.06345e-05;0.00452441259846204
1.06348e-05;0.004532244089991928
1.06350e-05;0.00454007558152187
1.06353e-05;0.0045479070730518115
1.06355e-05;0.004555738564581699
1.06358e-05;0.004563570056111641
1.06360e-05;0.004571401547641582
1.06363e-05;0.004579233039171471
1.06365e-05;0.004587064530701413
1.06368e-05;0.004594896022231354
1.06370e-05;0.004602727513761243
1.06373e-05;0.004610559005291184
1.06375e-05;0.004618390496821126
1.06377e-05;0.0046262219883510146
1.06380e-05;0.004634053479880956
1.06383e-05;0.004641884971410898
1.06385e-05;0.004649543715514637
1.06388e-05;0.004651087731928028
1.06390e-05;0.004652631748341418
1.06392e-05;0.0046541757647547985
1.06395e-05;0.004655719781168189
1.06398e-05;0.00465726379758158
1.06400e-05;0.0046588078139949704
1.06403e-05;0.004660351830408351
1.06405e-05;0.004661895846821741
1.06408e-05;0.004663439863235132
1.06410e-05;0.004664983879648512
1.06413e-05;0.004666527896061903
1.06415e-05;0.0046680719124752934
1.06418e-05;0.004669615928888674
1.06420e-05;0.004671159945302064
1.06423e-05;0.004672703961715455
1.06425e-05;0.004674247978128835
1.06428e-05;0.004675791994542226
1.06430e-05;0.0046773360109556164
1.06433e-05;0.004678880027368997
1.06435e-05;0.004680632638758358
1.06438e-05;0.004689768870882492
1.06440e-05;0.004698905103006564
1.06443e-05;0.004708041335130697
1.06445e-05;0.00471717756725483
1.06448e-05;0.004726313799378903
1.06450e-05;0.004735450031503036
1.06453e-05;0.004744586263627169
1.06455e-05;0.004753722495751241
1.06458e-05;0.004762858727875375
1.06460e-05;0.004771994959999508
1.06462e-05;0.004781685246767364
1.06465e-05;0.0048109873642668026
1.06468e-05;0.004840289481766241
1.06470e-05;0.0048695915992654805
1.06473e-05;0.004898893716764919
1.06475e-05;0.004928195834264356
1.06477e-05;0.004957497951763596
1.06480e-05;0.004986800069263034
1.06483e-05;0.005016102186762472
1.06485e-05;0.005045404304261911
1.06488e-05;0.00507470642176115
1.06490e-05;0.005104311770873888
1.06493e-05;0.005144650586701007
1.06495e-05;0.005184989402527852
1.06498e-05;0.005225328218354972
1.06500e-05;0.00526566703418209
1.06503e-05;0.0053060058500089356
1.06505e-05;0.005346344665836054
1.06508e-05;0.005386683481663173
1.06510e-05;0.005427022297490018
1.06513e-05;0.005467361113317137
1.06515e-05;0.005504202234599384
1.06518e-05;0.005537910033695012
1.06520e-05;0.0055716178327908684
1.06523e-05;0.005605325631886725
1.06525e-05;0.005639033430982353
1.06528e-05;0.00567274123007821
1.06530e-05;0.0057064490291740665
1.06533e-05;0.005740156828269695
1.06535e-05;0.005773864627365551
1.06538e-05;0.005806986422219127
1.06540e-05;0.005819365468748581
1.06543e-05;0.005831744515278118
1.06545e-05;0.005844123561807655
1.06547e-05;0.005856502608337108
1.06550e-05;0.005868881654866645
1.06553e-05;0.005881260701396182
1.06555e-05;0.005893639747925635
1.06558e-05;0.005906018794455172
1.06560e-05;0.0059183978409847095
1.06562e-05;0.0059307768875141624
1.06565e-05;0.0059431559340436995
1.06568e-05;0.0059555349805732365
1.06570e-05;0.0059679140271027735
1.06573e-05;0.005980293073632226
1.06575e-05;0.00599221133753917
1.06578e-05;0.005987819313409537
1.06580e-05;0.005983427289279934
1.06583e-05;0.005979035265150301
1.06585e-05;0.005974643241020668
1.06588e-05;0.005970251216891064
1.06590e-05;0.005965859192761431
1.06593e-05;0.005961467168631798
1.06595e-05;0.005957075144502195
1.06598e-05;0.005952683120372561
1.06600e-05;0.005948291096242928
1.06603e-05;0.005943899072113325
1.06605e-05;0.005939507047983692
1.06608e-05;0.005935115023854059
1.06610e-05;0.005930722999724455
1.06613e-05;0.005926254491752909
1.06615e-05;0.005919078690946245
1.06618e-05;0.005911902890139629
1.06620e-05;0.005904727089332965
1.06623e-05;0.0058975512885263
1.06625e-05;0.005890375487719685
1.06628e-05;0.00588319968691302
1.06630e-05;0.005876023886106356
1.06632e-05;0.00586884808529974
1.06635e-05;0.005861672284493076
1.06638e-05;0.005854496483686411
1.06640e-05;0.005847320682879796
1.06643e-05;0.005840144882073131
1.06645e-05;0.005832969081266466
1.06647e-05;0.005825793280459851
1.06650e-05;0.005818617479653186
1.06653e-05;0.005811441678846522
1.06655e-05;0.005804265878039857
1.06658e-05;0.005797090077233242
1.06660e-05;0.005789914276426577
1.06663e-05;0.005782738475619913
1.06665e-05;0.005775562674813297
1.06668e-05;0.005768386874006633
1.06670e-05;0.005761211073199968
1.06673e-05;0.005753414166128153
1.06675e-05;0.005745060856541192
1.06678e-05;0.005736707546954231
1.06680e-05;0.005728354237367326
1.06683e-05;0.005720000927780365
1.06685e-05;0.005711647618193404
1.06688e-05;0.005703294308606499
1.06690e-05;0.005694940999019538
1.06693e-05;0.005686587689432577
1.06695e-05;0.005678234379845672
1.06698e-05;0.00566988107025871
1.06700e-05;0.005661527760671749
1.06703e-05;0.005653174451084845
1.06705e-05;0.005644821141497883
1.06708e-05;0.005636467831910922
1.06710e-05;0.005628114522324017
1.06713e-05;0.005619761212737056
1.06715e-05;0.005611407903150095
1.06717e-05;0.0056030545935631905
1.06720e-05;0.005594701283976229
1.06723e-05;0.005586347974389268
1.06725e-05;0.0055779946648023635
1.06728e-05;0.005569641355215402
1.06730e-05;0.0055615188688088076
1.06732e-05;0.005561566813294948
1.06735e-05;0.005561614757781089
1.06738e-05;0.005561662702267231
1.06740e-05;0.005561710646753372
1.06743e-05;0.005561758591239513
1.06745e-05;0.005561806535725654
1.06748e-05;0.005561854480211795
1.06750e-05;0.005561902424697936
1.06753e-05;0.005561950369184078
1.06755e-05;0.0055619983136702186
1.06758e-05;0.00556204625815636
1.06760e-05;0.005562094202642501
1.06763e-05;0.005571791657575587
1.06765e-05;0.005590133385130282
1.06768e-05;0.005608475112685099
1.06770e-05;0.005626816840239917
1.06773e-05;0.005645158567794611
1.06775e-05;0.005663500295349429
1.06778e-05;0.005681842022904247
1.06780e-05;0.005700183750458941
1.06783e-05;0.005718525478013759
1.06785e-05;0.005736867205568577
1.06788e-05;0.005755208933123271
1.06790e-05;0.005773550660678088
1.06793e-05;0.005792139947142585
1.06795e-05;0.005819492057870256
1.06798e-05;0.005846844168598112
1.06800e-05;0.005874196279325969
1.06802e-05;0.005901548390053641
1.06805e-05;0.005928900500781498
1.06808e-05;0.005956252611509354
1.06810e-05;0.005983604722237025
1.06813e-05;0.006010956832964882
1.06815e-05;0.0060383089436927394
1.06817e-05;0.006062482568457934
1.06820e-05;0.006083808826060098
1.06823e-05;0.006105135083662263
1.06825e-05;0.006126461341264427
1.06828e-05;0.006147787598866448
1.06830e-05;0.006169113856468612
1.06833e-05;0.0061904401140707764
1.06835e-05;0.006211766371672797
1.06838e-05;0.006233092629274961
1.06840e-05;0.006253527725370553
1.06843e-05;0.006242418444039319
1.06845e-05;0.006231309162708009
1.06848e-05;0.0062201998813767
1.06850e-05;0.006209090600045467
1.06853e-05;0.0061979813187141575
1.06855e-05;0.006186872037382848
1.06858e-05;0.006175762756051614
1.06860e-05;0.006164653474720306
1.06863e-05;0.006152370481400189
1.06865e-05;0.006098541692272275
1.06868e-05;0.006044712903143996
1.06870e-05;0.005990884114015718
1.06873e-05;0.005937055324887803
1.06875e-05;0.005883226535759525
1.06878e-05;0.0058293977466312465
1.06880e-05;0.005775568957503333
1.06883e-05;0.005721740168375054
1.06885e-05;0.0056671569864788105
1.06887e-05;0.005585870619982594
1.06890e-05;0.005504584253485827
1.06893e-05;0.005423297886989059
1.06895e-05;0.005342011520492843
1.06898e-05;0.005260725153996075
1.06900e-05;0.005179438787499309
1.06902e-05;0.005098016607495132
1.06905e-05;0.00501178704686447
1.06908e-05;0.004925557486233807
1.06910e-05;0.004839327925603145
1.06913e-05;0.004753098364973067
1.06915e-05;0.004666868804342405
1.06918e-05;0.0045806392437117436
1.06920e-05;0.004494941024096545
1.06923e-05;0.004428050642819937
1.06925e-05;0.00436116026154333
1.06928e-05;0.004294269880267175
1.06930e-05;0.0042273794989905675
1.06933e-05;0.00416048911771396
1.06935e-05;0.004093598736437806
1.06938e-05;0.0040267083551611986
1.06940e-05;0.00396082268299465
1.06943e-05;0.003930500624402863
1.06945e-05;0.0039001785658108715
1.06948e-05;0.00386985650721888
1.06950e-05;0.0038395344486270937
1.06953e-05;0.003809212390035102
1.06955e-05;0.0037788903314431104
1.06958e-05;0.003748568272851324
1.06960e-05;0.0037192305194274394
1.06963e-05;0.0037247341427902978
1.06965e-05;0.003730237766153119
1.06968e-05;0.0037357413895159775
1.06970e-05;0.003741245012878836
1.06972e-05;0.0037467486362416573
1.06975e-05;0.0037522522596045156
1.06978e-05;0.0037577558829673743
1.06980e-05;0.0037632595063301954
1.06983e-05;0.0037823222442727334
1.06985e-05;0.003813531575935999
1.06987e-05;0.0038447409075990533
1.06990e-05;0.0038759502392623187
1.06993e-05;0.003907159570925584
1.06995e-05;0.00393836890258885
1.06998e-05;0.003969578234251904
1.07000e-05;0.00400078756591517
1.07003e-05;0.004032235416156682
1.07005e-05;0.004072126090764507
1.07008e-05;0.004112016765372601
