Time(s);Current(A)
8.00000e-07;0.003489885850630252
8.00250e-07;0.003498878012232034
8.00500e-07;0.003507870173833812
8.00750e-07;0.003516862335435594
8.01000e-07;0.0035258544970373762
8.01250e-07;0.003534846658639158
8.01500e-07;0.00354383882024094
8.01750e-07;0.003552830981842722
8.02000e-07;0.0035618231434445
8.02250e-07;0.0035708153050462823
8.02500e-07;0.0035811599312633867
8.02750e-07;0.0035935204817265864
8.03000e-07;0.0036058810321897864
8.03250e-07;0.003618241582652986
8.03500e-07;0.0036306021331161805
8.03750e-07;0.0036429626835793806
8.04000e-07;0.0036553232340425803
8.04250e-07;0.00366768378450578
8.04500e-07;0.00368004433496898
8.04750e-07;0.0036924048854321745
8.05000e-07;0.0037047654358953745
8.05250e-07;0.003717125986358574
8.05500e-07;0.003729486536821774
8.05750e-07;0.003741740944683931
8.06000e-07;0.003753983757347247
8.06250e-07;0.003766226570010559
8.06500e-07;0.0037784693826738752
8.06750e-07;0.0037907121953371916
8.07000e-07;0.003802955008000508
8.07250e-07;0.003815197820663825
8.07500e-07;0.003827440633327136
8.07750e-07;0.0038396834459904525
8.08000e-07;0.0038519262586537693
8.08250e-07;0.0038641690713170857
8.08500e-07;0.003876411883980402
8.08750e-07;0.003887765023853968
8.09000e-07;0.0038977920566134186
8.09250e-07;0.003907819089372873
8.09500e-07;0.003917846122132328
8.09750e-07;0.003927873154891783
8.10000e-07;0.003937900187651237
8.10250e-07;0.003947927220410692
8.10500e-07;0.0039579542531701425
8.10750e-07;0.003967981285929597
8.11000e-07;0.003978008318689052
8.11250e-07;0.003988035351448507
8.11500e-07;0.003998062384207961
8.11750e-07;0.004008089416967411
8.12000e-07;0.004018116449726866
8.12250e-07;0.004027825148594334
8.12500e-07;0.004037499072124295
8.12750e-07;0.004047172995654255
8.13000e-07;0.004056846919184216
8.13250e-07;0.0040665208427141716
8.13500e-07;0.004076194766244132
8.13750e-07;0.004085868689774092
8.14000e-07;0.004095542613304053
8.14250e-07;0.004105216536834013
8.14500e-07;0.004114890460363974
8.14750e-07;0.0041245643838939295
8.15000e-07;0.00413423830742389
8.15250e-07;0.00414391223095385
8.15500e-07;0.004153473895191423
8.15750e-07;0.004162868230667258
8.16000e-07;0.0041722625661430885
8.16250e-07;0.004181656901618923
8.16500e-07;0.004191051237094757
8.16750e-07;0.004200445572570592
8.17000e-07;0.004209346908477795
8.17250e-07;0.004218194388270954
8.17500e-07;0.004227041868064109
8.17750e-07;0.004235889347857268
8.18000e-07;0.004244736827650426
8.18250e-07;0.004253389704818891
8.18500e-07;0.004261752515877651
8.18750e-07;0.004270973398334337
8.19000e-07;0.004281473284260977
8.19250e-07;0.00429197317018762
8.19500e-07;0.004304991902017081
8.19750e-07;0.004321765114718163
8.20000e-07;0.004338538327419246
8.20250e-07;0.004355311540120321
8.20500e-07;0.0043720847528214025
8.20750e-07;0.004392272613533878
8.21000e-07;0.004417550198325061
8.21250e-07;0.004442827783116245
8.21500e-07;0.0044681053679074285
8.21750e-07;0.004493382952698601
8.22000e-07;0.0045222379826903416
8.22250e-07;0.004556425395087768
8.22500e-07;0.004590612807485195
8.22750e-07;0.004624800219882622
8.23000e-07;0.0046589876322800485
8.23250e-07;0.0046931750446774605
8.23500e-07;0.0047337675587626514
8.23750e-07;0.004775059777084757
8.24000e-07;0.004816351995406862
8.24250e-07;0.004857644213728967
8.24500e-07;0.004898936432051055
8.24750e-07;0.004941287678570624
8.25000e-07;0.004985217465923305
8.25250e-07;0.005029451080851877
8.25500e-07;0.005074137567796433
8.25750e-07;0.005118777125066191
8.26000e-07;0.0051633467310276135
8.26250e-07;0.005207499392069525
8.26500e-07;0.005251030573360271
8.26750e-07;0.0052938719258256335
8.27000e-07;0.005335685049796857
8.27250e-07;0.005376565376367376
8.27500e-07;0.005416055316176222
8.27750e-07;0.005454608158255614
8.28000e-07;0.0054910069718879465
8.28250e-07;0.005525420388832606
8.28500e-07;0.005556967687587407
8.28750e-07;0.005586146256680741
8.29000e-07;0.00561251446743981
8.29250e-07;0.005634693681723634
8.29500e-07;0.005651527119923729
8.29750e-07;0.005660392379511494
8.30000e-07;0.005669257639099258
8.30250e-07;0.00567812289868702
8.30500e-07;0.005686988158274784
8.30750e-07;0.005687954200042724
8.31000e-07;0.005677146015299796
8.31250e-07;0.0056663378305568685
8.31500e-07;0.005655529645813945
8.31750e-07;0.005644721461071018
8.32000e-07;0.005627931095213465
8.32250e-07;0.005602223953406783
8.32500e-07;0.0055765168116001015
8.32750e-07;0.005546937940460707
8.33000e-07;0.0055115880399369006
8.33250e-07;0.005476238139413079
8.33500e-07;0.005437651587094664
8.33750e-07;0.0053942406240262575
8.34000e-07;0.005350829660957852
8.34250e-07;0.005305173988596976
8.34500e-07;0.005256172451333603
8.34750e-07;0.00520717091407021
8.35000e-07;0.00515680816694323
8.35250e-07;0.005104416460287807
8.35500e-07;0.0050520247536323835
8.35750e-07;0.004999322644260735
8.36000e-07;0.004946157862258166
8.36250e-07;0.004893393945684955
8.36500e-07;0.004841227541482375
8.36750e-07;0.004789975050628066
8.37000e-07;0.004740084798797846
8.37250e-07;0.004691635998473068
8.37500e-07;0.0046453357623373465
8.37750e-07;0.004601777827158887
8.38000e-07;0.004562307445124108
8.38250e-07;0.00452283706308933
8.38500e-07;0.004486879862685897
8.38750e-07;0.0044561592562396436
8.39000e-07;0.004425438649793377
8.39250e-07;0.004396583531308003
8.39500e-07;0.0043705090270943275
8.39750e-07;0.004344434522880652
8.40000e-07;0.0043183600186669875
8.40250e-07;0.004297709469254424
8.40500e-07;0.004277651441918849
8.40750e-07;0.0042575934145832744
8.41000e-07;0.0042392416116869055
8.41250e-07;0.004223433031864524
8.41500e-07;0.004207624452042148
8.41750e-07;0.004191815872219766
8.42000e-07;0.004176007292397384
8.42250e-07;0.0041640078977300595
8.42500e-07;0.004152424624948423
8.42750e-07;0.004140841352166786
8.43000e-07;0.004129258079385155
8.43250e-07;0.004119580407965846
8.43500e-07;0.004112743142089414
8.43750e-07;0.0041059058762129815
8.44000e-07;0.0040990686103365495
8.44250e-07;0.00409223134446012
8.44500e-07;0.004085394078583688
8.44750e-07;0.004078556812707255
8.45000e-07;0.004071719546830823
8.45250e-07;0.004064882280954391
8.45500e-07;0.0040580450150779586
8.45750e-07;0.004051207749201529
8.46000e-07;0.004044370483325097
8.46250e-07;0.004039761021463174
8.46500e-07;0.004038472226240335
8.46750e-07;0.004037183431017497
8.47000e-07;0.004035894635794658
8.47250e-07;0.00403460584057182
8.47500e-07;0.004033317045348981
8.47750e-07;0.004032028250126142
8.48000e-07;0.004030739454903304
8.48250e-07;0.004029450659680465
8.48500e-07;0.004028161864457627
8.48750e-07;0.004026873069234788
8.49000e-07;0.004025584274011949
8.49250e-07;0.004026635396292038
8.49500e-07;0.004031174296643988
8.49750e-07;0.0040357131969959385
8.50000e-07;0.004040252097347886
8.50250e-07;0.004044790997699836
8.50500e-07;0.0040493298980517865
8.50750e-07;0.004053868798403737
8.51000e-07;0.004058407698755687
8.51250e-07;0.0040629465991076355
8.51500e-07;0.004067485499459585
8.51750e-07;0.004072024399811535
8.52000e-07;0.004076563300163485
8.52250e-07;0.0040811022005154355
8.52500e-07;0.004085641100867386
8.52750e-07;0.0040919690715367244
8.53000e-07;0.0041009637517008405
8.53250e-07;0.0041099584318649565
8.53500e-07;0.004118953112029072
8.53750e-07;0.004127947792193188
8.54000e-07;0.004136942472357304
8.54250e-07;0.004145937152521415
8.54500e-07;0.004154931832685531
8.54750e-07;0.004163926512849647
8.55000e-07;0.0041729211930137625
8.55250e-07;0.0041819158731778786
8.55500e-07;0.00419091055334199
8.55750e-07;0.004199905233506106
8.56000e-07;0.004208899913670222
8.56250e-07;0.004218233818992194
8.56500e-07;0.004228073358408329
8.56750e-07;0.004237912897824463
8.57000e-07;0.004247752437240593
8.57250e-07;0.004257418935166586
8.57500e-07;0.004266827505061317
8.57750e-07;0.004276236074956048
8.58000e-07;0.0042856446448507795
8.58250e-07;0.004294847593590693
8.58500e-07;0.004303744052484703
8.58750e-07;0.004313241903008151
8.59000e-07;0.00432363616143279
8.59250e-07;0.00433559760923654
8.59500e-07;0.004349895040571393
8.59750e-07;0.004366473526247828
8.60000e-07;0.004386452051157907
8.60250e-07;0.004406430576067985
8.60500e-07;0.004426409100978063
8.60750e-07;0.004446387625888141
8.61000e-07;0.004474613197116311
8.61250e-07;0.004503739689755683
8.61500e-07;0.004532866182395067
8.61750e-07;0.004561992675034451
8.62000e-07;0.004594177698604386
8.62250e-07;0.0046309216338019776
8.62500e-07;0.004667665568999569
8.62750e-07;0.004706492670704605
8.63000e-07;0.00474842484874495
8.63250e-07;0.0047903570267852965
8.63500e-07;0.00483395386832345
8.63750e-07;0.004880031984025125
8.64000e-07;0.004927004942051809
8.64250e-07;0.00497531171267454
8.64500e-07;0.005024059547452043
8.64750e-07;0.005073709370878765
8.65000e-07;0.00512397220565642
8.65250e-07;0.0051747942605946265
8.65500e-07;0.00522597931218465
8.65750e-07;0.005277258201139459
8.66000e-07;0.005328358233383982
8.66250e-07;0.005379005974022913
8.66500e-07;0.005428939202878398
8.66750e-07;0.005477948792321799
8.67000e-07;0.005525897527560149
8.67250e-07;0.0055726332677197375
8.67500e-07;0.005617530086511465
8.67750e-07;0.005660880591222735
8.68000e-07;0.005701455373943457
8.68250e-07;0.005737892787598663
8.68500e-07;0.0057743302012538845
8.68750e-07;0.005810767614909106
8.69000e-07;0.005843927009476796
8.69250e-07;0.005872200333027616
8.69500e-07;0.005900473656578436
8.69750e-07;0.005928746980129245
8.70000e-07;0.0059521298846314215
8.70250e-07;0.00596822334568135
8.70500e-07;0.005984316806731277
8.70750e-07;0.006000410267781205
8.71000e-07;0.006016503728831125
8.71250e-07;0.006032597189881053
8.71500e-07;0.006048690650930981
8.71750e-07;0.006064784111980908
8.72000e-07;0.006080877573030836
8.72250e-07;0.0060918015610893555
8.72500e-07;0.006095020160167082
8.72750e-07;0.00609823875924481
8.73000e-07;0.0061014573583225385
8.73250e-07;0.006104675957400266
8.73500e-07;0.006107894556477995
8.73750e-07;0.006111113155555722
8.74000e-07;0.006114331754633449
8.74250e-07;0.006117550353711177
8.74500e-07;0.006117982785456552
8.74750e-07;0.006114262278769496
8.75000e-07;0.00611054177208244
8.75250e-07;0.006106821265395386
8.75500e-07;0.00610310075870833
8.75750e-07;0.006099380252021274
8.76000e-07;0.006095659745334218
8.76250e-07;0.006091939238647162
8.76500e-07;0.0060882187319601065
8.76750e-07;0.006084498225273052
8.77000e-07;0.006080777718585996
8.77250e-07;0.006078298205193626
8.77500e-07;0.006077668461801808
8.77750e-07;0.006077038718409991
8.78000e-07;0.006076408975018174
8.78250e-07;0.006075779231626357
8.78500e-07;0.00607514948823454
8.78750e-07;0.006074519744842723
8.79000e-07;0.0060738900014509056
8.79250e-07;0.006073260258059088
8.79500e-07;0.006072630514667271
8.79750e-07;0.006072000771275453
8.80000e-07;0.0060751676389669785
8.80250e-07;0.006083993568086015
8.80500e-07;0.0060928194972050525
8.80750e-07;0.006101645426324089
8.81000e-07;0.006110471355443123
8.81250e-07;0.0061192972845621595
8.81500e-07;0.006128123213681197
8.81750e-07;0.00614383182002245
8.82000e-07;0.0061602923017669954
8.82250e-07;0.006176752783511534
8.82500e-07;0.0061932132652560805
8.82750e-07;0.006209673747000626
8.83000e-07;0.006226134228745172
8.83250e-07;0.006244444858625145
8.83500e-07;0.006265513237908096
8.83750e-07;0.006286581617191039
8.84000e-07;0.006308452786833965
8.84250e-07;0.006331520560464187
8.84500e-07;0.006354588334094409
8.84750e-07;0.0063781688440255006
8.85000e-07;0.006402513616125949
8.85250e-07;0.006426858388226388
8.85500e-07;0.006451398233211451
8.85750e-07;0.006476228845254991
8.86000e-07;0.006501059457298531
8.86250e-07;0.006525687081359581
8.86500e-07;0.006550012140465524
8.86750e-07;0.006574337199571476
8.87000e-07;0.006598090127980701
8.87250e-07;0.006620990263547491
8.87500e-07;0.006643890399114283
8.87750e-07;0.006665232911975412
8.88000e-07;0.006684253700967848
8.88250e-07;0.006703274489960293
8.88500e-07;0.006722295278952737
8.88750e-07;0.006741316067945182
8.89000e-07;0.006760336856937627
8.89250e-07;0.006777665747016775
8.89500e-07;0.0067924727670203655
8.89750e-07;0.006807279787023963
8.90000e-07;0.00682208680702756
8.90250e-07;0.006836893827031156
8.90500e-07;0.006851700847034754
8.90750e-07;0.006864559191855525
8.91000e-07;0.0068745129271917055
8.91250e-07;0.006884466662527886
8.91500e-07;0.006894420397864067
8.91750e-07;0.006904374133200248
8.92000e-07;0.006914327868536429
8.92250e-07;0.006924281603872606
8.92500e-07;0.0069342353392087865
8.92750e-07;0.006944189074544967
8.93000e-07;0.006954142809881147
8.93250e-07;0.006964096545217328
8.93500e-07;0.006974050280553509
8.93750e-07;0.006984004015889686
8.94000e-07;0.0069939577512258665
8.94250e-07;0.007003911486562047
8.94500e-07;0.007013865221898228
8.94750e-07;0.0070207873406810985
8.95000e-07;0.007027378280498986
8.95250e-07;0.007033969220316875
8.95500e-07;0.007040560160134765
8.95750e-07;0.007047151099952655
8.96000e-07;0.007053742039770545
8.96250e-07;0.0070603329795884354
8.96500e-07;0.007066923919406322
8.96750e-07;0.007073514859224212
8.97000e-07;0.007080105799042102
8.97250e-07;0.007086696738859992
8.97500e-07;0.007093287678677882
8.97750e-07;0.007099878618495772
8.98000e-07;0.007106469558313659
8.98250e-07;0.007113060498131549
8.98500e-07;0.0071198629407149975
8.98750e-07;0.007126980640014538
8.99000e-07;0.007134098339314077
8.99250e-07;0.007141216038613614
8.99500e-07;0.007148333737913154
8.99750e-07;0.007155451437212694
9.00000e-07;0.0071625691365122335
9.00250e-07;0.007170884677699039
9.00500e-07;0.0071809856692972365
9.00750e-07;0.00719108666089543
9.01000e-07;0.007201187652493626
9.01250e-07;0.007211288644091824
9.01500e-07;0.007221389635690021
9.01750e-07;0.007231490627288219
9.02000e-07;0.0072430057424280325
9.02250e-07;0.007256628687896709
9.02500e-07;0.0072702516333653855
9.02750e-07;0.0072838745788340615
9.03000e-07;0.007297497524302738
9.03250e-07;0.007311120469771414
9.03500e-07;0.007324743415240085
9.03750e-07;0.007338366360708762
9.04000e-07;0.007351989306177438
9.04250e-07;0.007365612251646114
9.04500e-07;0.007380910116559243
9.04750e-07;0.007396390952530324
9.05000e-07;0.0074118717885013966
9.05250e-07;0.007427352624472476
9.05500e-07;0.007442833460443556
9.05750e-07;0.007458314296414636
9.06000e-07;0.007473795132385715
9.06250e-07;0.007489275968356789
9.06500e-07;0.007504756804327869
9.06750e-07;0.007519636772328401
9.07000e-07;0.007533621112970581
9.07250e-07;0.00754760545361276
9.07500e-07;0.00756158979425494
9.07750e-07;0.007575574134897114
9.08000e-07;0.007589558475539293
9.08250e-07;0.0076035428161814736
9.08500e-07;0.00761584652957957
9.08750e-07;0.007625645173956223
9.09000e-07;0.007635443818332875
9.09250e-07;0.0076452424627095235
9.09500e-07;0.007655041107086176
9.09750e-07;0.007664839751462829
9.10000e-07;0.007674638395839481
9.10250e-07;0.007681964633988577
9.10500e-07;0.007685605612202194
9.10750e-07;0.007689246590415813
9.11000e-07;0.0076928875686294316
9.11250e-07;0.00769652854684305
9.11500e-07;0.007700169525056669
9.11750e-07;0.007703810503270288
9.12000e-07;0.0077074514814839045
9.12250e-07;0.007711092459697523
9.12500e-07;0.007709572991428018
9.12750e-07;0.007707489787179646
9.13000e-07;0.007705406582931273
9.13250e-07;0.007703323378682902
9.13500e-07;0.00770124017443453
9.13750e-07;0.0076991569701861575
9.14000e-07;0.007697073765937785
9.14250e-07;0.007694990561689413
9.14500e-07;0.007691784531701738
9.14750e-07;0.007686904867072043
9.15000e-07;0.007682025202442345
9.15250e-07;0.0076771455378126475
9.15500e-07;0.00767226587318295
9.15750e-07;0.007667386208553252
9.16000e-07;0.007662506543923554
9.16250e-07;0.007657626879293858
9.16500e-07;0.00765274721466416
9.16750e-07;0.007648587574646571
9.17000e-07;0.007645501171634295
9.17250e-07;0.0076424147686220195
9.17500e-07;0.007639328365609744
9.17750e-07;0.007636241962597469
9.18000e-07;0.007633155559585193
9.18250e-07;0.0076300691565729176
9.18500e-07;0.007626982753560642
9.18750e-07;0.007623896350548366
9.19000e-07;0.00762298040317298
9.19250e-07;0.007625299641468661
9.19500e-07;0.007627618879764341
9.19750e-07;0.007629938118060022
9.20000e-07;0.007632257356355703
9.20250e-07;0.007634576594651383
9.20500e-07;0.007636895832947062
9.20750e-07;0.007639215071242743
9.21000e-07;0.007641534309538424
9.21250e-07;0.007643853547834104
9.21500e-07;0.007651020609195309
9.21750e-07;0.007658717255019839
9.22000e-07;0.007666413900844372
9.22250e-07;0.007674110546668905
9.22500e-07;0.0076818071924934376
9.22750e-07;0.007689503838317971
9.23000e-07;0.007697200484142503
9.23250e-07;0.007704897129967033
9.23500e-07;0.007712593775791567
9.23750e-07;0.007721582223243279
9.24000e-07;0.007732496173360475
9.24250e-07;0.00774341012347767
9.24500e-07;0.0077543240735948645
9.24750e-07;0.007765238023712056
9.25000e-07;0.00777615197382925
9.25250e-07;0.0077870659239464455
9.25500e-07;0.007797979874063641
9.25750e-07;0.0078088938241808355
9.26000e-07;0.00782014682571214
9.26250e-07;0.007831436865798437
9.26500e-07;0.007842726905884735
9.26750e-07;0.007854016945971033
9.27000e-07;0.00786530698605733
9.27250e-07;0.007876597026143628
9.27500e-07;0.007887887066229922
9.27750e-07;0.00789917710631622
9.28000e-07;0.00791000660428806
9.28250e-07;0.007920149638448197
9.28500e-07;0.007929863387614986
9.28750e-07;0.007938937263459464
9.29000e-07;0.007946713437194256
9.29250e-07;0.00795255531326396
9.29500e-07;0.007958397189333664
9.29750e-07;0.007961986266507091
9.30000e-07;0.00796221742077011
9.30250e-07;0.00796244857503313
9.30500e-07;0.00796267972929615
9.30750e-07;0.007962910883559169
9.31000e-07;0.007960090674106406
9.31250e-07;0.007952722236160562
9.31500e-07;0.00794535379821472
9.31750e-07;0.00793798536026888
9.32000e-07;0.007930616922323037
9.32250e-07;0.007920024071158247
9.32500e-07;0.007904625051525227
9.32750e-07;0.007889226031892207
9.33000e-07;0.007873827012259185
9.33250e-07;0.007858427992626172
9.33500e-07;0.007843028972993151
9.33750e-07;0.00782762995336013
9.34000e-07;0.007809890165952286
9.34250e-07;0.0077886613330943365
9.34500e-07;0.007767432500236396
9.34750e-07;0.007746203667378447
9.35000e-07;0.007724974834520498
9.35250e-07;0.007703746001662548
9.35500e-07;0.007682517168804599
9.35750e-07;0.00766091132265141
9.36000e-07;0.007638743517069134
9.36250e-07;0.007616575711486849
9.36500e-07;0.007594951367742831
9.36750e-07;0.00757413708430232
9.37000e-07;0.00755332280086181
9.37250e-07;0.0075335342393174215
9.37500e-07;0.00751527457369909
9.37750e-07;0.007497014908080749
9.38000e-07;0.0074800707379614
9.38250e-07;0.007465087387550342
9.38500e-07;0.007451971969075704
9.38750e-07;0.007441640807755499
9.39000e-07;0.0074313096464352895
9.39250e-07;0.007424524906002322
9.39500e-07;0.0074230263044994796
9.39750e-07;0.007421527702996637
9.40000e-07;0.007420029101493795
9.40250e-07;0.007418530499990953
9.40500e-07;0.007427091367640765
9.40750e-07;0.007436751148864964
9.41000e-07;0.0074464109300891625
9.41250e-07;0.00745607071131336
9.41500e-07;0.007469456031466436
9.41750e-07;0.007488394476021242
9.42000e-07;0.007507332920576048
9.42250e-07;0.007528487810668136
9.42500e-07;0.007552946436953332
9.42750e-07;0.0075790320832786326
9.43000e-07;0.007607542894085968
9.43250e-07;0.007637184223931753
9.43500e-07;0.007669182254883578
9.43750e-07;0.007702787127452209
9.44000e-07;0.007737835115835332
9.44250e-07;0.0077741627729211
9.44500e-07;0.007811608708276627
9.44750e-07;0.007850021701955265
9.45000e-07;0.007889260002423336
9.45250e-07;0.007929164106514182
9.45500e-07;0.007969543064847966
9.45750e-07;0.008010192162834556
9.46000e-07;0.0080509042799838
9.46250e-07;0.008091474525329264
9.46500e-07;0.008131699503671064
9.46750e-07;0.008171381788749398
9.47000e-07;0.008210328780230631
9.47250e-07;0.008248337414478436
9.47500e-07;0.008285185458150109
9.47750e-07;0.008320288190931913
9.48000e-07;0.008353947585762378
9.48250e-07;0.008386452061862932
9.48500e-07;0.008416404168615768
9.48750e-07;0.00844448581355593
9.49000e-07;0.008471313991323485
9.49250e-07;0.00849735515913743
9.49500e-07;0.008522915307197752
9.49750e-07;0.00854763770135556
9.50000e-07;0.008571111376407876
9.50250e-07;0.0085945850514602
9.50500e-07;0.008617006205466134
9.50750e-07;0.008637858517911774
