Time(s);Current(A)
8.25000e-06;0.01040123762311352
8.25025e-06;0.010415433835206555
8.25050e-06;0.010429630047299493
8.25075e-06;0.01044198697682662
8.25100e-06;0.01045399917539401
8.25125e-06;0.010465415682960865
8.25150e-06;0.010476720542032835
8.25175e-06;0.010489668159235747
8.25200e-06;0.010502923673440159
8.25225e-06;0.01051617918764466
8.25250e-06;0.010531740689642723
8.25275e-06;0.010547734395696772
8.25300e-06;0.01056372810175093
8.25325e-06;0.010579721807805087
8.25350e-06;0.010597206482325587
8.25375e-06;0.010617557743226085
8.25400e-06;0.010637909004126582
8.25425e-06;0.01065826026502694
8.25450e-06;0.010678611525927438
8.25475e-06;0.010703454251032472
8.25500e-06;0.010729138797179372
8.25525e-06;0.010754823343326447
8.25550e-06;0.01078050788947352
8.25575e-06;0.01080619243562042
8.25600e-06;0.010831876981767494
8.25625e-06;0.010857561527914568
8.25650e-06;0.010886749183086054
8.25675e-06;0.010916593414989404
8.25700e-06;0.010946437646892957
8.25725e-06;0.01097628187879651
8.25750e-06;0.011006126110699862
8.25775e-06;0.011035970342603415
8.25800e-06;0.011065814574506968
8.25825e-06;0.011095759199363647
8.25850e-06;0.011125722640556751
8.25875e-06;0.011155686081749855
8.25900e-06;0.011185649522942756
8.25925e-06;0.01121561296413586
8.25950e-06;0.011242728069006286
8.25975e-06;0.011269309319137236
8.26000e-06;0.011295890569268366
8.26025e-06;0.011322471819399495
8.26050e-06;0.011349053069530445
8.26075e-06;0.011372067703130699
8.26100e-06;0.011394413856986023
8.26125e-06;0.01141293645109543
8.26150e-06;0.011430742407399504
8.26175e-06;0.011441744780315989
8.26200e-06;0.011451471978946528
8.26225e-06;0.011452201851295349
8.26250e-06;0.011451245383011215
8.26275e-06;0.011450288914727087
8.26300e-06;0.011438881121697775
8.26325e-06;0.011425514469666005
8.26350e-06;0.011412147817634326
8.26375e-06;0.011386745776002741
8.26400e-06;0.011359087979063529
8.26425e-06;0.011331430182124501
8.26450e-06;0.01129442865092657
8.26475e-06;0.011255675852935533
8.26500e-06;0.011212034780869526
8.26525e-06;0.01116440925529654
8.26550e-06;0.0111130509833373
8.26575e-06;0.011057929873253545
8.26600e-06;0.010999277153345479
8.26625e-06;0.010937467613413087
8.26650e-06;0.010872898193182975
8.26675e-06;0.010805962645795218
8.26700e-06;0.010737054773695355
8.26725e-06;0.010666489310018156
8.26750e-06;0.01059443986512154
8.26775e-06;0.010521103441135913
8.26800e-06;0.010446841940020365
8.26825e-06;0.010372107694212674
8.26850e-06;0.010297363718034032
8.26875e-06;0.010223074447444426
8.26900e-06;0.010149703043769187
8.26925e-06;0.010077662177850239
8.26950e-06;0.010007277464688059
8.26975e-06;0.009938888985861101
8.27000e-06;0.009872938733397185
8.27025e-06;0.009809926780965986
8.27050e-06;0.009750359915051122
8.27075e-06;0.009694744775132356
8.27100e-06;0.009643588000690703
8.27125e-06;0.009597513094879282
8.27150e-06;0.009557287818153504
8.27175e-06;0.009523501293152978
8.27200e-06;0.009499208412115318
8.27225e-06;0.009476501836423542
8.27250e-06;0.00947095618118952
8.27275e-06;0.00946862694343042
8.27300e-06;0.009466297705671301
8.27325e-06;0.009463968467912184
8.27350e-06;0.009485202750424653
8.27375e-06;0.00951085346960527
8.27400e-06;0.00953650418878606
8.27425e-06;0.009562154907966849
8.27450e-06;0.009607201663376308
8.27475e-06;0.009655883756996608
8.27500e-06;0.009704565850616909
8.27525e-06;0.009767813027107247
8.27550e-06;0.009833790091379014
8.27575e-06;0.009899767155650782
8.27600e-06;0.009978123925977857
8.27625e-06;0.010058800985767356
8.27650e-06;0.010139478045556854
8.27675e-06;0.010228016082742356
8.27700e-06;0.010318027478256367
8.27725e-06;0.010412622047385191
8.27750e-06;0.010508075626363321
8.27775e-06;0.010606669230252984
8.27800e-06;0.010705851359159234
8.27825e-06;0.010806351929896997
8.27850e-06;0.010907099612051175
8.27875e-06;0.011007248858085213
8.27900e-06;0.011107285941114282
8.27925e-06;0.01120485516142842
8.27950e-06;0.01130196183797714
8.27975e-06;0.011394734362493945
8.28000e-06;0.011486694550495339
8.28025e-06;0.011572219001165488
8.28050e-06;0.011656537221780302
8.28075e-06;0.011729764112574691
8.28100e-06;0.011800912190221582
8.28125e-06;0.011872060267867992
8.28150e-06;0.011925918448000358
8.28175e-06;0.011976536036891283
8.28200e-06;0.012027153625782206
8.28225e-06;0.012077771214672786
8.28250e-06;0.012119797057948392
8.28275e-06;0.012145304120621961
8.28300e-06;0.012170811183295356
8.28325e-06;0.012196318245968925
8.28350e-06;0.012221825308642494
8.28375e-06;0.012230422694683125
8.28400e-06;0.012235850753088867
8.28425e-06;0.012241278811494609
8.28450e-06;0.01223451409343296
8.28475e-06;0.012225464121534541
8.28500e-06;0.012216414149636125
8.28525e-06;0.012197723186220385
8.28550e-06;0.012177225242014386
8.28575e-06;0.01215046567950574
8.28600e-06;0.012122532521525488
8.28625e-06;0.012090481683819534
8.28650e-06;0.012055126513211185
8.28675e-06;0.012016924103278998
8.28700e-06;0.01197606365950774
8.28725e-06;0.011932811888055127
8.28750e-06;0.011887595931849274
8.28775e-06;0.01184088282542515
8.28800e-06;0.011793039993767454
8.28825e-06;0.011744368692322562
8.28850e-06;0.011695159787738349
8.28875e-06;0.011645703068338472
8.28900e-06;0.01159628895976392
8.28925e-06;0.01154725666249406
8.28950e-06;0.011499044687966113
8.28975e-06;0.011452117080438811
8.29000e-06;0.011406878324242897
8.29025e-06;0.011364720268958557
8.29050e-06;0.011323087821566808
8.29075e-06;0.011286187176419687
8.29100e-06;0.011250173398120594
8.29125e-06;0.011217913767251066
8.29150e-06;0.011187621303891284
8.29175e-06;0.011157825663825945
8.29200e-06;0.01112807875513144
8.29225e-06;0.011099301396612443
8.29250e-06;0.01107070575784059
8.29275e-06;0.011042110119068738
8.29300e-06;0.011015676719672787
8.29325e-06;0.01098964858201872
8.29350e-06;0.01096391181922521
8.29375e-06;0.010938229667907789
8.29400e-06;0.010912547516590192
8.29425e-06;0.010886366537785888
8.29450e-06;0.010860092065311014
8.29475e-06;0.010833817592835962
8.29500e-06;0.0108077334051038
8.29525e-06;0.01078201506525205
8.29550e-06;0.010756296725400124
8.29575e-06;0.0107305783855482
8.29600e-06;0.010704182281215988
8.29625e-06;0.010677659145613513
8.29650e-06;0.01065113601001104
8.29675e-06;0.010625185898562482
8.29700e-06;0.010599343187233021
8.29725e-06;0.010573500475903561
8.29750e-06;0.010547657764574276
8.29775e-06;0.010521815053244815
8.29800e-06;0.010497212822344514
8.29825e-06;0.010472843090799232
8.29850e-06;0.010448473359253783
8.29875e-06;0.010424103627708334
8.29900e-06;0.010399733896162887
8.29925e-06;0.010377783111912023
8.29950e-06;0.010356285703363033
8.29975e-06;0.01033478829481404
8.30000e-06;0.010315550773474222
8.30025e-06;0.010296736815703558
8.30050e-06;0.010277922857932891
8.30075e-06;0.010261844869579553
8.30100e-06;0.010246279675390005
8.30125e-06;0.010234897782360934
8.30150e-06;0.010224299952343573
8.30175e-06;0.010213702122326142
8.30200e-06;0.010212560101131498
8.30225e-06;0.010213190352517445
8.30250e-06;0.010213820603903393
8.30275e-06;0.010214450855289343
8.30300e-06;0.010215081106675288
8.30325e-06;0.010220919399329034
8.30350e-06;0.010236770848211781
8.30375e-06;0.010252622297094423
8.30400e-06;0.010268473745977173
8.30425e-06;0.01028432519485992
8.30450e-06;0.010300176643742562
8.30475e-06;0.010329518110516578
8.30500e-06;0.01036138796901992
8.30525e-06;0.010393257827523046
8.30550e-06;0.010425127686026388
8.30575e-06;0.01045699754452973
8.30600e-06;0.010488867403032854
8.30625e-06;0.010520737261536196
8.30650e-06;0.010556510136286166
8.30675e-06;0.010599787082035792
8.30700e-06;0.01064306402778571
8.30725e-06;0.01068634097353563
8.30750e-06;0.010729617919285547
8.30775e-06;0.010772894865035174
8.30800e-06;0.010816171810785091
8.30825e-06;0.01085944875653501
8.30850e-06;0.010900611774214072
8.30875e-06;0.01094137858498737
8.30900e-06;0.010982145395760666
8.30925e-06;0.01102210815048638
8.30950e-06;0.007408982847086166
8.30975e-06;-0.000617994997950449
8.31000e-06;-0.0023988354487593138
8.31025e-06;-0.0004898296107631412
8.31050e-06;0.003264023446508716
8.31075e-06;0.009916306589296391
8.31100e-06;0.01243498476699304
8.31125e-06;0.01217912251666222
8.31150e-06;0.010005355397374276
8.31175e-06;0.004880801716114326
8.31200e-06;0.0035488860613637884
8.31225e-06;0.0047293696828093704
8.31250e-06;0.006420219759744724
8.31275e-06;0.009709993388668327
8.31300e-06;0.012566569882344189
8.31325e-06;0.0130388735146426
8.31350e-06;0.01168721993324021
8.31375e-06;0.00918905505261216
8.31400e-06;0.007861182669026495
8.31425e-06;0.008083672254847154
8.31450e-06;0.009445247890256027
8.31475e-06;0.011492892212437048
8.31500e-06;0.012782187059585896
8.31525e-06;0.013002700474115985
8.31550e-06;0.012136396315678104
8.31575e-06;0.010553784903121697
8.31600e-06;0.009705885500609145
8.31625e-06;0.009830507582714726
8.31650e-06;0.010669791280921492
8.31675e-06;0.011939779950582475
8.31700e-06;0.012735578983137342
8.31725e-06;0.012862693252777786
8.31750e-06;0.01230980640214915
8.31775e-06;0.011308992490082161
8.31800e-06;0.0107691141453152
8.31825e-06;0.010839041669780532
8.31850e-06;0.01135717017385882
8.31875e-06;0.012145570006580952
8.31900e-06;0.012637399421229798
8.31925e-06;0.012710843177712292
8.31950e-06;0.012358843422318725
8.31975e-06;0.01172679771236125
8.32000e-06;0.011384014838783294
8.32025e-06;0.011423719371222558
8.32050e-06;0.011744655355656566
8.32075e-06;0.012235355310738672
8.32100e-06;0.012540761914864525
8.32125e-06;0.012584752515473504
8.32150e-06;0.012363354072122192
8.32175e-06;0.011968052262694992
8.32200e-06;0.011755556047593436
8.32225e-06;0.01178417389826628
8.32250e-06;0.011990370811510814
8.32275e-06;0.012304218924793919
8.32300e-06;0.0125032230215015
8.32325e-06;0.012539623142460722
8.32350e-06;0.01241085773391501
8.32375e-06;0.012174157326432723
8.32400e-06;0.012052876750869659
8.32425e-06;0.012083440775411207
8.32450e-06;0.012225952507480708
8.32475e-06;0.0124365137153911
8.32500e-06;0.012575666733906065
8.32525e-06;0.012613417891316201
8.32550e-06;0.01254808408904111
8.32575e-06;0.012415438285895228
8.32600e-06;0.01235530171692562
8.32625e-06;0.012390397881517624
8.32650e-06;0.012495642581262128
8.32675e-06;0.01264344596281209
8.32700e-06;0.012746367460439114
8.32725e-06;0.012785536830532402
8.32750e-06;0.012759822442152787
8.32775e-06;0.012691549727589664
8.32800e-06;0.012668218573581021
8.32825e-06;0.012703971139087259
8.32850e-06;0.01278300562866393
8.32875e-06;0.012887950777985109
8.32900e-06;0.012963949244337867
8.32925e-06;0.012999098605975652
8.32950e-06;0.012992607360963105
8.32975e-06;0.012958378736603009
8.33000e-06;0.01295113602135795
8.33025e-06;0.012979651133306607
8.33050e-06;0.013033937187847927
8.33075e-06;0.013103025639484865
8.33100e-06;0.01315246876604582
8.33125e-06;0.013174741034972555
8.33150e-06;0.013169325649000167
8.33175e-06;0.013144977779690223
8.33200e-06;0.013136051615390708
8.33225e-06;0.013148123561603603
8.33250e-06;0.013175018249352704
8.33275e-06;0.013209946918909171
8.33300e-06;0.013231415431274825
8.33325e-06;0.01323479298211829
8.33350e-06;0.013215187161989229
8.33375e-06;0.013191051006145413
8.33400e-06;0.01317325482008113
8.33425e-06;0.013166798026704092
8.33450e-06;0.013170466152578744
8.33475e-06;0.013175947917252913
8.33500e-06;0.013173311464837885
8.33525e-06;0.013159282851374883
8.33550e-06;0.013130443271509916
8.33575e-06;0.01309868703436057
8.33600e-06;0.013070698321605397
8.33625e-06;0.013049717505996615
8.33650e-06;0.013035130333918569
8.33675e-06;0.013021693677473304
8.33700e-06;0.013003368920968587
8.33725e-06;0.01297817494400549
8.33750e-06;0.012944223002578541
8.33775e-06;0.012908552416648435
8.33800e-06;0.012875844567729007
8.33825e-06;0.012848156781057047
8.33850e-06;0.012825459226044523
8.33875e-06;0.012803683972927438
8.33900e-06;0.012779851368605443
8.33925e-06;0.012752708765525006
8.33950e-06;0.012721531903791317
8.33975e-06;0.012689573569643387
8.34000e-06;0.012660882036912534
8.34025e-06;0.012636690161605594
8.34050e-06;0.012617540603709761
8.34075e-06;0.012599356996101804
8.34100e-06;0.012581693399138335
8.34125e-06;0.012563238638961386
8.34150e-06;0.012541791865898787
8.34175e-06;0.012519701825751631
8.34200e-06;0.012497611785604327
8.34225e-06;0.012476786411344705
8.34250e-06;0.012456780738788533
8.34275e-06;0.012436897001820492
8.34300e-06;0.012417013264852452
8.34325e-06;0.012394820302432974
8.34350e-06;0.012368736174986296
8.34375e-06;0.012341875590170954
8.34400e-06;0.012315015005355793
8.34425e-06;0.012287574529882236
8.34450e-06;0.012259297002764718
8.34475e-06;0.012230856894863019
8.34500e-06;0.012202416786961129
8.34525e-06;0.012171740318129539
8.34550e-06;0.012137993568161247
8.34575e-06;0.01210365632571689
8.34600e-06;0.012069319083272533
8.34625e-06;0.012034388713535623
8.34650e-06;0.011999321158972339
8.34675e-06;0.01196383721770383
8.34700e-06;0.011928256970063462
8.34725e-06;0.011891447606353855
8.34750e-06;0.011854353959529496
8.34775e-06;0.011816603775629767
8.34800e-06;0.011778701740810641
8.34825e-06;0.011742098913192231
8.34850e-06;0.011705796580115682
8.34875e-06;0.011669494247038888
8.34900e-06;0.011634606090788943
8.34925e-06;0.011600045020486054
8.34950e-06;0.011565483950182932
8.34975e-06;0.011533362706792505
8.35000e-06;0.011501805772674447
8.35025e-06;0.011470248838556176
8.35050e-06;0.011443226397258456
8.35075e-06;0.011417252741975005
8.35100e-06;0.011391279086691729
8.35125e-06;0.011373699474748438
8.35150e-06;0.011358061326957176
8.35175e-06;0.01134242317916602
8.35200e-06;0.011326785031374758
8.35225e-06;0.011311146883583496
8.35250e-06;0.01129550873579234
8.35275e-06;0.011292918758125851
8.35300e-06;0.011293346700848889
8.35325e-06;0.011293774643571921
8.35350e-06;0.011294202586294958
8.35375e-06;0.011294630529017994
8.35400e-06;0.011295058471741027
8.35425e-06;0.011310053497677086
8.35450e-06;0.0113284177544728
8.35475e-06;0.01134678201126839
8.35500e-06;0.011365146268064105
8.35525e-06;0.01138351052485982
8.35550e-06;0.011401874781655412
8.35575e-06;0.011420239038451126
8.35600e-06;0.011438603295246841
8.35625e-06;0.011461151357868253
8.35650e-06;0.011492918551753663
8.35675e-06;0.011524685745639075
8.35700e-06;0.01155645293952427
8.35725e-06;0.01158822013340968
8.35750e-06;0.01161998732729509
8.35775e-06;0.011651754521180285
8.35800e-06;0.011683521715065696
8.35825e-06;0.011715288908951106
8.35850e-06;0.011749427025094142
8.35875e-06;0.011784113513503978
8.35900e-06;0.011818800001913815
8.35925e-06;0.01185233553343044
8.35950e-06;0.011885604859322345
8.35975e-06;0.011918874185214475
8.36000e-06;0.01194981910764772
8.36025e-06;0.01198022641717968
8.36050e-06;0.012009360498894875
8.36075e-06;0.012035688988079255
8.36100e-06;0.012062017477263456
8.36125e-06;0.012086236803273701
8.36150e-06;0.012109968299458766
8.36175e-06;0.012137466185468133
8.36200e-06;0.012165835202413496
8.36225e-06;0.012194204219358858
8.36250e-06;0.012227353930527408
8.36275e-06;0.012261609371805628
8.36300e-06;0.012295864813083847
8.36325e-06;0.012330120254361834
8.36350e-06;0.012371554868050598
8.36375e-06;0.01241464995754578
8.36400e-06;0.012457745047040671
8.36425e-06;0.012500840136535853
8.36450e-06;0.012552699088334288
8.36475e-06;0.012606585039972144
8.36500e-06;0.012660470991610367
8.36525e-06;0.012714356943248588
8.36550e-06;0.012768242894886445
8.36575e-06;0.012830103956682219
8.36600e-06;0.012893809587282671
8.36625e-06;0.012957515217882692
8.36650e-06;0.013021220848483145
8.36675e-06;0.013084926479083598
8.36700e-06;0.013152724485560386
8.36725e-06;0.013221469020515693
8.36750e-06;0.013290213555470998
8.36775e-06;0.013358958090426303
8.36800e-06;0.013427702625381142
8.36825e-06;0.013496447160336447
8.36850e-06;0.013565191695291752
8.36875e-06;0.013633936230246592
8.36900e-06;0.013699421236870438
8.36925e-06;0.013757723783119156
8.36950e-06;0.013816026329367476
8.36975e-06;0.013874328875616192
8.37000e-06;0.01393263142186491
8.37025e-06;0.01399093396811323
8.37050e-06;0.014049236514361947
8.37075e-06;0.014107539060610665
8.37100e-06;0.014165841606858985
8.37125e-06;0.014202754730460137
8.37150e-06;0.014234720679539731
8.37175e-06;0.014266686628619109
8.37200e-06;0.014298652577698705
8.37225e-06;0.0143306185267783
8.37250e-06;0.014362584475857677
8.37275e-06;0.014394550424937274
8.37300e-06;0.014426516374016868
8.37325e-06;0.014450907618683307
8.37350e-06;0.014458607793730234
8.37375e-06;0.01446630796877716
8.37400e-06;0.014474008143824036
8.37425e-06;0.014481708318870962
8.37450e-06;0.01448940849391789
8.37475e-06;0.014497108668964764
8.37500e-06;0.014504808844011691
8.37525e-06;0.014512509019058619
8.37550e-06;0.014504835752490081
8.37575e-06;0.014493606751859248
8.37600e-06;0.014482377751228416
8.37625e-06;0.014471148750597582
8.37650e-06;0.014459919749966826
8.37675e-06;0.014448690749335993
8.37700e-06;0.014437461748705159
8.37725e-06;0.014426232748074403
8.37750e-06;0.01441500374744357
8.37775e-06;0.014403774746812738
8.37800e-06;0.014390598850393168
8.37825e-06;0.014373132915526205
8.37850e-06;0.014355666980659244
8.37875e-06;0.0143382010457924
8.37900e-06;0.014320735110925438
8.37925e-06;0.014303269176058475
8.37950e-06;0.014285803241191632
8.37975e-06;0.014268337306324671
8.38000e-06;0.014250871371457708
8.38025e-06;0.014233405436590865
8.38050e-06;0.014215939501723904
8.38075e-06;0.014201750507354559
8.38100e-06;0.014188319438844833
8.38125e-06;0.014175772577525295
8.38150e-06;0.014163430225105203
8.38175e-06;0.014147878682145884
8.38200e-06;0.014131584883262127
8.38225e-06;0.014115291084378371
8.38250e-06;0.01409450456161134
8.38275e-06;0.01407267891359494
8.38300e-06;0.01405085326557854
8.38325e-06;0.014029027617562287
8.38350e-06;0.014004491381085993
8.38375e-06;0.013973982288344452
8.38400e-06;0.013943473195603117
8.38425e-06;0.013912964102861573
8.38450e-06;0.013882455010120032
8.38475e-06;0.013844761290635511
8.38500e-06;0.013805405833806707
8.38525e-06;0.013766050376977635
8.38550e-06;0.013726694920148564
8.38575e-06;0.01368733946331976
8.38600e-06;0.013641833887873244
8.38625e-06;0.013594905847189975
8.38650e-06;0.013547977806507024
8.38675e-06;0.013501049765823754
8.38700e-06;0.013454121725140485
8.38725e-06;0.013404801459004941
8.38750e-06;0.01335492789337085
8.38775e-06;0.013305054327736758
8.38800e-06;0.013254552463181416
8.38825e-06;0.013203905278928677
8.38850e-06;0.013153258094675938
8.38875e-06;0.013103692154374267
8.38900e-06;0.01305437629574194
8.38925e-06;0.013006937770083172
8.38950e-06;0.012959933454081361
8.38975e-06;0.012916038738700928
8.39000e-06;0.01287286324502347
8.39025e-06;0.012829687751346306
8.39050e-06;0.012792226954039776
8.39075e-06;0.012756087912854397
8.39100e-06;0.012719948871669263
8.39125e-06;0.012688708141658924
8.39150e-06;0.012658600345466755
8.39175e-06;0.012628368250972891
8.39200e-06;0.012598107407437628
8.39225e-06;0.012567846563902363
8.39250e-06;0.012538097473872934
8.39275e-06;0.012508466747669611
8.39300e-06;0.012478836021466289
8.39325e-06;0.012449205295262967
8.39350e-06;0.012418696601997415
8.39375e-06;0.012387984843115608
8.39400e-06;0.0123572730842338
8.39425e-06;0.012326561325352202
8.39450e-06;0.012293713324924502
8.39475e-06;0.012260371231695209
8.39500e-06;0.01222702913846614
8.39525e-06;0.012193687045236847
8.39550e-06;0.012160344952007553
8.39575e-06;0.012124938095059375
8.39600e-06;0.012089053677465897
8.39625e-06;0.012053169259872416
8.39650e-06;0.01201728484227918
8.39675e-06;0.011981400424685701
8.39700e-06;0.011945499568452703
8.39725e-06;0.011909594910115512
8.39750e-06;0.011873690251778077
8.39775e-06;0.011837785593440644
8.39800e-06;0.011801880935103452
8.39825e-06;0.011765976276766019
8.39850e-06;0.011730071618428584
8.39875e-06;0.011694166960091394
8.39900e-06;0.01165826230175396
8.39925e-06;0.011629080761236801
8.39950e-06;0.011601454215344167
8.39975e-06;0.011573827669451345
8.40000e-06;0.011546201123558524
8.40025e-06;0.01151857457766589
8.40050e-06;0.011490948031773068
8.40075e-06;0.011463321485880246
8.40100e-06;0.011435694939987614
8.40125e-06;0.011408068394094792
8.40150e-06;0.011394040922849482
8.40175e-06;0.011383158791094115
