Time(s);Current(A)
1.13000e-05;-0.0011976066915241025
1.13003e-05;-0.0012295545498730827
1.13005e-05;-0.0012621764589501455
1.13008e-05;-0.001295280213013081
1.13010e-05;-0.0013286763463789201
1.13013e-05;-0.001362175363375203
1.13015e-05;-0.0013955857424397186
1.13018e-05;-0.0014286975183744046
1.13020e-05;-0.0014612579949832318
1.13023e-05;-0.0014929917657783547
1.13025e-05;-0.0015236485359476182
1.13028e-05;-0.001553000099448385
1.13030e-05;-0.0015808202613101657
1.13033e-05;-0.0016068827686082155
1.13035e-05;-0.001631019003462332
1.13037e-05;-0.001653488367900699
1.13040e-05;-0.0016754676804515238
1.13043e-05;-0.001698352211348832
1.13045e-05;-0.0017225961284565363
1.13048e-05;-0.0017479914394162887
1.13050e-05;-0.001774281157152141
1.13052e-05;-0.0018012083825317468
1.13055e-05;-0.001828552175864532
1.13058e-05;-0.0018563597779626987
1.13060e-05;-0.0018852531584238794
1.13063e-05;-0.0019159908978825587
1.13065e-05;-0.0019487419759510708
1.13068e-05;-0.0019832608002965705
1.13070e-05;-0.002019271205303736
1.13073e-05;-0.0020565989943140566
1.13075e-05;-0.0020949923017912924
1.13078e-05;-0.00213393157253659
1.13080e-05;-0.002174518261092367
1.13083e-05;-0.0022156802380492906
1.13085e-05;-0.0022589023771394955
1.13088e-05;-0.002303355397674183
1.13090e-05;-0.0023487508804403826
1.13093e-05;-0.002394826110193839
1.13095e-05;-0.0024413071393243574
1.13098e-05;-0.0024879189145016107
1.13100e-05;-0.002534925209563894
1.13103e-05;-0.0025820615841929354
1.13105e-05;-0.0026296018267775757
1.13108e-05;-0.0026771140436071495
1.13110e-05;-0.0027243023069342173
1.13113e-05;-0.002770870689010373
1.13115e-05;-0.002816532071218036
1.13118e-05;-0.002861065093517746
1.13120e-05;-0.002904390025676463
1.13122e-05;-0.002946460638266913
1.13125e-05;-0.0029870857460758743
1.13128e-05;-0.003025972343369257
1.13130e-05;-0.0030625002809520512
1.13133e-05;-0.0030963636354263573
1.13135e-05;-0.003129236484278126
1.13137e-05;-0.0031586052540241425
1.13140e-05;-0.00318618124027363
1.13143e-05;-0.0032129130187247925
1.13145e-05;-0.0032390975303635853
1.13148e-05;-0.003264560669450395
1.13150e-05;-0.0032890925976208243
1.13153e-05;-0.0033124833595889313
1.13155e-05;-0.00333454966029187
1.13158e-05;-0.003355306118913113
1.13160e-05;-0.0033751994965000275
1.13163e-05;-0.0033948024849208953
1.13165e-05;-0.0034142795875152436
1.13168e-05;-0.003433500102747415
1.13170e-05;-0.003452310711132733
1.13173e-05;-0.0034705585588481864
1.13175e-05;-0.0034881074271230833
1.13178e-05;-0.0035049444774055494
1.13180e-05;-0.0035213283520773007
1.13183e-05;-0.003537596065399092
1.13185e-05;-0.0035538290203001094
1.13188e-05;-0.0035699234514851384
1.13190e-05;-0.0035856411012848777
1.13193e-05;-0.0036007347358107105
1.13195e-05;-0.003615828370336645
1.13198e-05;-0.003630688350395278
1.13200e-05;-0.0036447551014767224
1.13203e-05;-0.0036585557498282325
1.13205e-05;-0.003672356398179743
1.13207e-05;-0.003686034047110471
1.13210e-05;-0.003699177959012296
1.13213e-05;-0.0037118312567569873
1.13215e-05;-0.003724161736562318
1.13218e-05;-0.00373551812881675
1.13220e-05;-0.003746874521071182
1.13222e-05;-0.0037580277044506893
1.13225e-05;-0.0037684553404856934
1.13228e-05;-0.0037784112337198796
1.13230e-05;-0.003787814067292393
1.13233e-05;-0.0037965828171505974
1.13235e-05;-0.0038046585359782013
1.13238e-05;-0.003812149525835644
1.13240e-05;-0.0038195204336533904
1.13243e-05;-0.003827319348727717
1.13245e-05;-0.0038357250413947313
1.13248e-05;-0.003844658028814804
1.13250e-05;-0.0038540506805153623
1.13253e-05;-0.003863804538254632
1.13255e-05;-0.0038736429810359903
1.13258e-05;-0.003883840799889499
1.13260e-05;-0.003894545222627304
1.13263e-05;-0.003906051445630079
1.13265e-05;-0.003918423436130059
1.13268e-05;-0.00393156249011685
1.13270e-05;-0.003945468052930816
1.13273e-05;-0.003960135141717577
1.13275e-05;-0.003974802230504337
1.13278e-05;-0.0039898519755693735
1.13280e-05;-0.004006056367485966
1.13283e-05;-0.004022260759402559
1.13285e-05;-0.004038824741583858
1.13288e-05;-0.004056473770034108
1.13290e-05;-0.004074285535584971
1.13292e-05;-0.0040925883524824775
1.13295e-05;-0.0041109605992399835
1.13298e-05;-0.0041295423472487115
1.13300e-05;-0.004148201117197023
1.13303e-05;-0.004167092297131167
1.13305e-05;-0.0041859977339480554
1.13307e-05;-0.00420494619022041
1.13310e-05;-0.00422378847328481
1.13313e-05;-0.004242310383818119
1.13315e-05;-0.0042606197161160295
1.13318e-05;-0.004278287603848296
1.13320e-05;-0.004295699794968209
1.13323e-05;-0.004312340433900795
1.13325e-05;-0.004328739227419891
1.13328e-05;-0.0043442058858873134
1.13330e-05;-0.004358696820601313
1.13333e-05;-0.004372086212425826
1.13335e-05;-0.004384769115823846
1.13338e-05;-0.004395320224492094
1.13340e-05;-0.004405871333160271
1.13343e-05;-0.004415604313123671
1.13345e-05;-0.004422868629205672
1.13348e-05;-0.004430132945287623
1.13350e-05;-0.004436519748304975
1.13353e-05;-0.004440258698001207
1.13355e-05;-0.004443997647697413
1.13358e-05;-0.004446859277511684
1.13360e-05;-0.004447073636924276
1.13363e-05;-0.004447287996336865
1.13365e-05;-0.0044469721465302675
1.13368e-05;-0.004444800023924138
1.13370e-05;-0.004441601104019737
1.13373e-05;-0.004437388657152324
1.13375e-05;-0.004432178275895145
1.13377e-05;-0.004426000765300695
1.13380e-05;-0.004418925708354739
1.13383e-05;-0.004411041135268861
1.13385e-05;-0.004402332878970189
1.13388e-05;-0.004392847824209018
1.13390e-05;-0.004383058332841976
1.13392e-05;-0.0043723502187097635
1.13395e-05;-0.004361389885253527
1.13398e-05;-0.00434966849216006
1.13400e-05;-0.004337776480112156
1.13403e-05;-0.004325369633603857
1.13405e-05;-0.004312884721969243
1.13408e-05;-0.004300134695631833
1.13410e-05;-0.004287282732560535
1.13413e-05;-0.00427439646955145
1.13415e-05;-0.004261544588610307
1.13418e-05;-0.004248801579360567
1.13420e-05;-0.004236256368948163
1.13423e-05;-0.004224006054831471
1.13425e-05;-0.004212139940205061
1.13428e-05;-0.0042007388162907085
1.13430e-05;-0.004189883710175312
1.13433e-05;-0.004179654481758297
1.13435e-05;-0.004170071069713184
1.13438e-05;-0.004160707030032838
1.13440e-05;-0.004150192568852551
1.13443e-05;-0.004136976222736005
1.13445e-05;-0.004120539173010961
1.13448e-05;-0.004101074010673573
1.13450e-05;-0.004078532829939287
1.13453e-05;-0.004053154988272946
1.13455e-05;-0.0040269208643203425
1.13458e-05;-0.00399739763988211
1.13460e-05;-0.003964805917719462
1.13462e-05;-0.003928368422475951
1.13465e-05;-0.003887954722474588
1.13468e-05;-0.003843879906961136
1.13470e-05;-0.0037958393686790552
1.13473e-05;-0.003743538155533799
1.13475e-05;-0.003691236942388543
1.13477e-05;-0.0036369053405045215
1.13480e-05;-0.0035764471385894957
1.13483e-05;-0.00351598893667447
1.13485e-05;-0.0034541362261723374
1.13488e-05;-0.003387529776974793
1.13490e-05;-0.0033186627496156478
1.13493e-05;-0.0032479447489726925
1.13495e-05;-0.003176688493052099
1.13498e-05;-0.0031038080778062085
1.13500e-05;-0.0030304733548214046
1.13503e-05;-0.0029557677801604174
1.13505e-05;-0.0028808831830974104
1.13508e-05;-0.002805487777665261
1.13510e-05;-0.002730323081516452
1.13513e-05;-0.0026558416015116104
1.13515e-05;-0.0025824862799467716
1.13518e-05;-0.0025106316275397326
1.13520e-05;-0.0024405066169420407
1.13523e-05;-0.0023723121178893187
1.13525e-05;-0.0023064084564385317
1.13528e-05;-0.0022432651239504813
1.13530e-05;-0.0021833595981209436
1.13533e-05;-0.0021271692976793854
1.13535e-05;-0.0020751621387884965
1.13538e-05;-0.002027723917573711
1.13540e-05;-0.0019850238660036527
1.13543e-05;-0.0019476642045985926
1.13545e-05;-0.001915692773726957
1.13548e-05;-0.001886194375927905
1.13550e-05;-0.0018641582360746064
1.13553e-05;-0.001844706156216826
1.13555e-05;-0.0018330513526874836
1.13558e-05;-0.0018233600290710123
1.13560e-05;-0.0018208518999860309
1.13562e-05;-0.0018233559904028524
1.13565e-05;-0.001830711002898971
1.13568e-05;-0.0018428000214453274
1.13570e-05;-0.00185951023959516
1.13573e-05;-0.0018807288509012886
1.13575e-05;-0.0019063392818547344
1.13578e-05;-0.0019361929311276702
1.13580e-05;-0.0019700559330301866
1.13583e-05;-0.0020076274607627414
1.13585e-05;-0.0020486221129602453
1.13588e-05;-0.0020927819671783744
1.13590e-05;-0.002139852073862938
1.13593e-05;-0.0021895774255040338
1.13595e-05;-0.002241700521523538
1.13598e-05;-0.0022959438264792066
1.13600e-05;-0.0023519762589367527
1.13603e-05;-0.002409425225842654
1.13605e-05;-0.002467927604040729
1.13608e-05;-0.0025271374041598844
1.13610e-05;-0.002586710677384232
1.13613e-05;-0.0026463033000232606
1.13615e-05;-0.0027055697574698582
1.13618e-05;-0.002764152108514149
1.13620e-05;-0.0028216587124931577
1.13623e-05;-0.002877671926152342
1.13625e-05;-0.0029317800307759622
1.13628e-05;-0.0029835825566462506
1.13630e-05;-0.003032255939015264
1.13633e-05;-0.0030773930696703063
1.13635e-05;-0.003121212163108114
1.13638e-05;-0.003160349354431894
1.13640e-05;-0.0031969981268056254
1.13643e-05;-0.003232194033940383
1.13645e-05;-0.0032662997651147327
1.13647e-05;-0.0032999263838923774
1.13650e-05;-0.0033314624699661267
1.13653e-05;-0.003361052800052775
1.13655e-05;-0.0033898988455196436
1.13658e-05;-0.0034161064042418318
1.13660e-05;-0.0034409475488088115
1.13663e-05;-0.003465073780614581
1.13665e-05;-0.003488696544888899
1.13668e-05;-0.0035119573813883896
1.13670e-05;-0.003534126118293249
1.13673e-05;-0.0035559096875450364
1.13675e-05;-0.0035762341874664024
1.13678e-05;-0.00359543416777538
1.13680e-05;-0.003613780962547494
1.13683e-05;-0.0036316365893888803
1.13685e-05;-0.003649492216230266
1.13688e-05;-0.0036670922140732863
1.13690e-05;-0.0036839208637506225
1.13693e-05;-0.0037004013788972667
1.13695e-05;-0.0037158314148980696
1.13698e-05;-0.0037309636501189018
1.13700e-05;-0.0037451972858573938
1.13703e-05;-0.0037592952493906446
1.13705e-05;-0.003772983828592343
1.13708e-05;-0.0037864697688084416
1.13710e-05;-0.003799344255664517
1.13713e-05;-0.003811846353902937
1.13715e-05;-0.0038232247874583018
1.13718e-05;-0.003834603221013589
1.13720e-05;-0.003845630660934447
1.13723e-05;-0.003855598994501629
1.13725e-05;-0.003865567328068744
1.13728e-05;-0.0038753078026498014
1.13730e-05;-0.0038842150253494624
1.13732e-05;-0.0038925177867243405
1.13735e-05;-0.0039001098695745705
1.13738e-05;-0.0039066734145491505
1.13740e-05;-0.003911457116400277
1.13743e-05;-0.003913657813188789
1.13745e-05;-0.003912997416229221
1.13748e-05;-0.003909549057910466
1.13750e-05;-0.0039034104661138567
1.13753e-05;-0.003894680712806675
1.13755e-05;-0.0038834391552076634
1.13758e-05;-0.0038696339170867953
1.13760e-05;-0.00385294130295865
1.13763e-05;-0.0038330044748853187
1.13765e-05;-0.0038097963478507806
1.13768e-05;-0.0037835092746586916
1.13770e-05;-0.003754351755656301
1.13773e-05;-0.0037222403708010877
1.13775e-05;-0.003687366996994611
1.13778e-05;-0.0036512990876666107
1.13780e-05;-0.0036116267250487313
1.13783e-05;-0.0035710402122693507
1.13785e-05;-0.003527158749882682
1.13788e-05;-0.0034811907076186983
1.13790e-05;-0.0034334131539427173
1.13793e-05;-0.003383969397624538
1.13795e-05;-0.003333127334123405
1.13798e-05;-0.003281805259926141
1.13800e-05;-0.0032290347766186006
1.13803e-05;-0.003175984284657433
1.13805e-05;-0.003121996384221797
1.13808e-05;-0.0030677166898492587
1.13810e-05;-0.0030134656934268796
1.13813e-05;-0.0029595635950437553
1.13815e-05;-0.0029063262491909117
1.13817e-05;-0.002854036918822003
1.13820e-05;-0.0028029120040384057
1.13823e-05;-0.002753159796228019
1.13825e-05;-0.0027050696859801
1.13828e-05;-0.002658985034470108
1.13830e-05;-0.002615253051154281
1.13833e-05;-0.0025746178169782116
1.13835e-05;-0.0025374047280339097
1.13838e-05;-0.0025013094134676687
1.13840e-05;-0.0024691402236974693
1.13843e-05;-0.0024393881905530206
1.13845e-05;-0.002411892055690717
1.13848e-05;-0.0023852184154608902
1.13850e-05;-0.0023619524701256724
1.13853e-05;-0.0023414802537057968
1.13855e-05;-0.0023219985139288166
1.13858e-05;-0.0023061144787448816
1.13860e-05;-0.002292559495614112
1.13863e-05;-0.002280924786551033
1.13865e-05;-0.002271055189152925
1.13868e-05;-0.002262988574608695
1.13870e-05;-0.0022567779123955412
1.13873e-05;-0.002252475764284147
1.13875e-05;-0.0022501233898462093
1.13878e-05;-0.002249676718849614
1.13880e-05;-0.0022508989474570745
1.13883e-05;-0.002253482740131898
1.13885e-05;-0.0022572797887125996
1.13888e-05;-0.0022622623721927993
1.13890e-05;-0.0022684124467033436
1.13893e-05;-0.0022757116186233758
1.13895e-05;-0.0022841345397550477
1.13898e-05;-0.0022936024221080174
1.13900e-05;-0.002303915713029421
1.13902e-05;-0.0023148306475351743
1.13905e-05;-0.0023262027044504254
1.13908e-05;-0.0023379637732262393
1.13910e-05;-0.002350051105498362
1.13913e-05;-0.002362402186744843
1.13915e-05;-0.00237494980608123
1.13918e-05;-0.0023875932947979217
1.13920e-05;-0.0024001564038389402
1.13923e-05;-0.0024124355135024607
1.13925e-05;-0.002424289053958643
1.13928e-05;-0.0024355385743701566
1.13930e-05;-0.0024460920889550555
1.13933e-05;-0.002456263942153177
1.13935e-05;-0.002465284150534232
1.13938e-05;-0.0024737472683253703
1.13940e-05;-0.002480529392144364
1.13943e-05;-0.0024873115159633114
1.13945e-05;-0.0024932709857743095
1.13948e-05;-0.002496748136814303
1.13950e-05;-0.002500225287854273
1.13953e-05;-0.002503702438894267
1.13955e-05;-0.0025061953579221196
1.13958e-05;-0.002505718404348597
1.13960e-05;-0.002505241450775071
1.13963e-05;-0.0025047644972015456
1.13965e-05;-0.002503584957493099
1.13968e-05;-0.0025002853980265467
1.13970e-05;-0.0024966565683194903
1.13973e-05;-0.002491822298773756
1.13975e-05;-0.002486143059514034
1.13978e-05;-0.0024796475314931453
1.13980e-05;-0.0024723791778812746
1.13983e-05;-0.0024643938780327976
1.13985e-05;-0.002455746178341659
1.13987e-05;-0.002446486661012406
1.13990e-05;-0.0024366658513059964
1.13993e-05;-0.002426333806799464
1.13995e-05;-0.0024155414004828173
1.13998e-05;-0.0024043422891994386
1.14000e-05;-0.0023927999086799656
1.14003e-05;-0.0023809849235304527
1.14005e-05;-0.002368967184966904
1.14008e-05;-0.0023568147395147346
1.14010e-05;-0.0023445946413879863
1.14013e-05;-0.0023323745283944284
1.14015e-05;-0.0023202218624543353
1.14018e-05;-0.002308206194895547
1.14020e-05;-0.002296403131654046
1.14023e-05;-0.0022848925326290344
1.14025e-05;-0.002273754435630026
1.14028e-05;-0.0022630671307195794
1.14030e-05;-0.0022529084412873388
1.14033e-05;-0.002243356423553809
1.14035e-05;-0.002234504145046107
1.14038e-05;-0.002226552148607181
1.14040e-05;-0.0022199192860480666
1.14043e-05;-0.002215038884017535
1.14045e-05;-0.002212063705508754
1.14048e-05;-0.0022109628042743866
1.14050e-05;-0.0022119096466933323
1.14053e-05;-0.002214864151145988
1.14055e-05;-0.0022187072476890233
1.14058e-05;-0.00222523162798547
1.14060e-05;-0.002233048516405195
1.14063e-05;-0.0022447654857164325
1.14065e-05;-0.0022564824550275905
1.14068e-05;-0.0022694242412465405
1.14070e-05;-0.0022860618533807587
1.14072e-05;-0.002303542476148871
1.14075e-05;-0.0023235668428256786
1.14078e-05;-0.002344389131296038
1.14080e-05;-0.0023676191102745144
1.14083e-05;-0.002391619134784136
1.14085e-05;-0.0024179427345249987
1.14088e-05;-0.0024448832342172876
1.14090e-05;-0.002473685199744329
1.14093e-05;-0.0025029376769698398
1.14095e-05;-0.0025335495515055196
1.14098e-05;-0.0025644909281006137
1.14100e-05;-0.0025964265612607876
1.14103e-05;-0.002628581524390997
1.14105e-05;-0.0026613983051218567
1.14108e-05;-0.0026942457149688485
1.14110e-05;-0.0027271855466951015
1.14113e-05;-0.0027599590771002214
1.14115e-05;-0.0027922308012945096
1.14118e-05;-0.0028241677785190906
1.14120e-05;-0.0028550946729154246
1.14123e-05;-0.0028855251554059866
1.14125e-05;-0.002914457738924313
1.14128e-05;-0.002942683012990994
1.14130e-05;-0.0029687740149188465
1.14133e-05;-0.0029939428979002445
1.14135e-05;-0.003016329331456769
1.14138e-05;-0.0030376426737927743
1.14140e-05;-0.003055718015151555
1.14143e-05;-0.0030723989058804957
1.14145e-05;-0.0030848721091223208
1.14148e-05;-0.003097345312364146
1.14150e-05;-0.0031080524587488085
1.14153e-05;-0.0031134306137865814
1.14155e-05;-0.0031188087688243543
1.14157e-05;-0.0031223926236953526
1.14160e-05;-0.0031205622643953666
1.14163e-05;-0.003118731905095381
1.14165e-05;-0.003115767215661226
1.14168e-05;-0.0031088379782401917
1.14170e-05;-0.003099746265025717
1.14173e-05;-0.0030885485369432698
1.14175e-05;-0.003075302821720921
1.14178e-05;-0.003060079049061756
1.14180e-05;-0.0030429815435811082
1.14183e-05;-0.0030241438900909397
1.14185e-05;-0.003003698231612507
1.14188e-05;-0.0029817682611953467
1.14190e-05;-0.0029584765057129943
1.14193e-05;-0.0029339455510047183
1.14195e-05;-0.002908298676345133
1.14198e-05;-0.0028816672349325865
1.14200e-05;-0.0028542034717109364
1.14203e-05;-0.0028260781664403633
1.14205e-05;-0.0027974614094918465
1.14208e-05;-0.0027685177551866635
1.14210e-05;-0.0027394109993771117
1.14213e-05;-0.0027103051717575492
1.14215e-05;-0.002681364531818146
1.14218e-05;-0.00265275833327726
1.14220e-05;-0.0026246692160981286
1.14223e-05;-0.0025972910682289033
1.14225e-05;-0.0025708176687885788
1.14228e-05;-0.0025454388327067062
1.14230e-05;-0.0025213444918333588
1.14233e-05;-0.0024987242292788653
1.14235e-05;-0.002477787503618335
1.14238e-05;-0.0024588868721352143
1.14240e-05;-0.0024426540925645192
1.14242e-05;-0.002429715705688421
1.14245e-05;-0.0024202983239890712
1.14248e-05;-0.0024143743238601487
1.14250e-05;-0.002412317695315257
1.14253e-05;-0.0024140898857594284
1.14255e-05;-0.0024175669327833617
1.14258e-05;-0.002426188302271928
1.14260e-05;-0.002437178738732749
1.14263e-05;-0.0024553177204675028
1.14265e-05;-0.002473456702202257
1.14268e-05;-0.0024938349224806794
1.14270e-05;-0.002520969937014676
1.14273e-05;-0.0025496772075282816
1.14275e-05;-0.0025831286845937377
1.14278e-05;-0.00261805850187302
1.14280e-05;-0.002657449139412347
1.14283e-05;-0.0026982326048461285
1.14285e-05;-0.002743218861244389
1.14288e-05;-0.002789334714800558
1.14290e-05;-0.0028388590732739403
1.14293e-05;-0.0028892315713816927
1.14295e-05;-0.0029421632899099635
1.14298e-05;-0.0029957207464971474
1.14300e-05;-0.003051166337484949
1.14303e-05;-0.0031070205098673847
1.14305e-05;-0.003164107556892559
1.14308e-05;-0.003221274813372044
1.14310e-05;-0.003278684098008422
1.14313e-05;-0.0033358337161283036
1.14315e-05;-0.0033921998030657908
1.14318e-05;-0.0034480035545037145
1.14320e-05;-0.0035021104857054616
1.14323e-05;-0.0035556161647546263
1.14325e-05;-0.0036064787247837866
1.14327e-05;-0.0036548402106074476
1.14330e-05;-0.0037017822093253815
1.14333e-05;-0.003744440974194356
1.14335e-05;-0.0037849604725631427
1.14338e-05;-0.0038190248374931368
1.14340e-05;-0.0038530892024231304
1.14343e-05;-0.0038847171858722033
1.14345e-05;-0.003908993505763253
1.14348e-05;-0.003933269825654467
1.14350e-05;-0.003954927476876223
1.14353e-05;-0.003968683421744089
1.14355e-05;-0.00398243936661205
1.14358e-05;-0.0039935834428413116
1.14360e-05;-0.003996846331481462
1.14363e-05;-0.004000109220121634
1.14365e-05;-0.004001805706218206
1.14368e-05;-0.003998016092511494
1.14370e-05;-0.003991183345881334
1.14373e-05;-0.003981340878030778
1.14375e-05;-0.0039685285895787415
1.14378e-05;-0.0039528385439077515
1.14380e-05;-0.003934484016518872
1.14383e-05;-0.003913739706506688
1.14385e-05;-0.0038908076839643054
1.14388e-05;-0.003865826374295108
1.14390e-05;-0.003838929014582265
1.14393e-05;-0.0038102489008746037
1.14395e-05;-0.0037799232101707937
1.14398e-05;-0.0037481214741305847
1.14400e-05;-0.0037150889654754275
1.14403e-05;-0.0036811102507884786
1.14405e-05;-0.0036464239801640252
1.14408e-05;-0.003611228529355638
1.14410e-05;-0.0035757194761042205
1.14412e-05;-0.0035400922822410676
1.14415e-05;-0.003504544725766233
1.14418e-05;-0.0034692950312978023
1.14420e-05;-0.0034346089889740914
1.14423e-05;-0.003400776327401114
1.14425e-05;-0.0033680585507913745
1.14428e-05;-0.003336691927327613
1.14430e-05;-0.003306910625671317
1.14433e-05;-0.003278949049336852
1.14435e-05;-0.0032530080989032575
1.14438e-05;-0.003229042608958613
1.14440e-05;-0.0032064673071805997
1.14443e-05;-0.0031845405292623176
1.14445e-05;-0.003163029972937706
