Time(s);Current(A)
1.30000e-05;-0.0007799011657559284
1.30003e-05;-0.0007561974928327807
1.30005e-05;-0.0007355880792842736
1.30008e-05;-0.000715338507167392
1.30010e-05;-0.0006991397966958405
1.30013e-05;-0.0006834121740286195
1.30015e-05;-0.0006723574612903678
1.30018e-05;-0.0006618461763634616
1.30020e-05;-0.0006560779607156505
1.30023e-05;-0.000650861331936907
1.30025e-05;-0.0006504332156728738
1.30028e-05;-0.000650561971018814
1.30030e-05;-0.0006556733177354294
1.30033e-05;-0.0006613641061199757
1.30035e-05;-0.0006720219470521924
1.30038e-05;-0.0006832574225923916
1.30040e-05;-0.0006990986991181894
1.30043e-05;-0.0007154755991390653
1.30045e-05;-0.0007360815619042916
1.30048e-05;-0.0007571793360560043
1.30050e-05;-0.0007822226937200682
1.30053e-05;-0.0008077248960539507
1.30055e-05;-0.0008375094780665439
1.30058e-05;-0.0008677920718644362
1.30060e-05;-0.0008980746656621234
1.30063e-05;-0.0009322250880233363
1.30065e-05;-0.0009668253126796996
1.30068e-05;-0.0010014255373358284
1.30070e-05;-0.0010385254962664457
1.30073e-05;-0.0010759161573818932
1.30075e-05;-0.0011133068184970875
1.30078e-05;-0.0011516147568420092
1.30080e-05;-0.0011900293683231393
1.30083e-05;-0.001228443979804009
1.30085e-05;-0.0012659730869509515
1.30088e-05;-0.0013033992159344491
1.30090e-05;-0.001340825344917693
1.30093e-05;-0.0013755937442122858
1.30095e-05;-0.0014100530675241313
1.30098e-05;-0.0014445123908357433
1.30100e-05;-0.0014752978427717315
1.30103e-05;-0.0015056560483211504
1.30105e-05;-0.0015319540324309397
1.30108e-05;-0.0015577798402556706
1.30110e-05;-0.0015777716022127763
1.30113e-05;-0.001597084904103734
1.30115e-05;-0.0016074339042179372
1.30118e-05;-0.0016167404166805544
1.30120e-05;-0.0016260469291431083
1.30123e-05;-0.001626412378538312
1.30125e-05;-0.0016257380427866272
1.30128e-05;-0.0016177850199249712
1.30130e-05;-0.001608985534994009
1.30133e-05;-0.0015923505725113558
1.30135e-05;-0.0015748043969979987
1.30138e-05;-0.0015497758089338919
1.30140e-05;-0.0015238770669100364
1.30143e-05;-0.0014911994872960977
1.30145e-05;-0.0014577335747307356
1.30148e-05;-0.0014195777533897904
1.30150e-05;-0.0013778292494868779
1.30153e-05;-0.001332735926514823
1.30155e-05;-0.0012845037917025687
1.30158e-05;-0.0012334290580518594
1.30160e-05;-0.0011798169180252127
1.30163e-05;-0.0011239724040209387
1.30165e-05;-0.0010662007327573767
1.30168e-05;-0.0010067782575982843
1.30170e-05;-0.0009459190500901669
1.30173e-05;-0.0008838433654315745
1.30175e-05;-0.0008208622448275059
1.30178e-05;-0.0007573432060125534
1.30180e-05;-0.0006936594401251576
1.30183e-05;-0.0006301838618253182
1.30185e-05;-0.0005672896622501901
1.30188e-05;-0.000505331818626555
1.30190e-05;-0.00044462624198296583
1.30193e-05;-0.00038549273359238283
1.30195e-05;-0.0003283080230339486
1.30198e-05;-0.00027348405465500887
1.30200e-05;-0.00022143634565824764
1.30203e-05;-0.00017258028410420856
1.30205e-05;-0.00012733126593332474
1.30208e-05;-8.569433222439845e-05
1.30210e-05;-4.662993848436965e-05
1.30213e-05;-8.774603970531791e-06
1.30215e-05;2.8322484941449482e-05
1.30218e-05;6.444123630027697e-05
1.30220e-05;9.929261576663168e-05
1.30223e-05;0.00013258722136839948
1.30225e-05;0.0001640357044139309
1.30228e-05;0.00019360578382582764
1.30230e-05;0.00022191944176819253
1.30233e-05;0.00024980153826065964
1.30235e-05;0.0002775052052523768
1.30238e-05;0.0003042827130033101
1.30240e-05;0.00033095444306281956
1.30243e-05;0.0003576261731223291
1.30245e-05;0.0003819585542420911
1.30248e-05;0.0004060188849062092
1.30250e-05;0.00043007921557032736
1.30253e-05;0.0004532620720302027
1.30255e-05;0.000476342884176469
1.30258e-05;0.0004994236963227353
1.30260e-05;0.0005215332625087509
1.30263e-05;0.0005435298793602893
1.30265e-05;0.0005655264962118277
1.30268e-05;0.0005860760210670648
1.30270e-05;0.0006064572589129327
1.30273e-05;0.0006263199537220558
1.30275e-05;0.0006461223454838356
1.30278e-05;0.0006653337926798706
1.30280e-05;0.0006844765170206521
1.30283e-05;0.0007028845626830293
1.30285e-05;0.0007205619440265309
1.30288e-05;0.0007374655643364422
1.30290e-05;0.0007536892136089348
1.30293e-05;0.000769376446083007
1.30295e-05;0.0007845304019504975
1.30298e-05;0.000799050745643534
1.30300e-05;0.0008128267443673575
1.30303e-05;0.0008257474725120434
1.30305e-05;0.0008377020905632131
1.30308e-05;0.0008482993423095251
1.30310e-05;0.0008564789456908487
1.30313e-05;0.0008610839255088194
1.30315e-05;0.0008616984464968987
1.30318e-05;0.0008584063563980691
1.30320e-05;0.0008513422652443776
1.30323e-05;0.0008406411505376591
1.30325e-05;0.000826437839412244
1.30328e-05;0.0008086916251127071
1.30330e-05;0.0007869427509994064
1.30333e-05;0.0007606709705173905
1.30335e-05;0.0007298201934619821
1.30338e-05;0.0006946474967445455
1.30340e-05;0.0006554416412746088
1.30343e-05;0.0006124915698811586
1.30345e-05;0.0005660862253932862
1.30348e-05;0.0005164045274295924
1.30350e-05;0.0004633628844695048
1.30353e-05;0.0004068398263321855
1.30355e-05;0.00034700472936203804
1.30358e-05;0.00028422300161421685
1.30360e-05;0.0002188799829444871
1.30363e-05;0.00015136102171113048
1.30365e-05;8.205147870167231e-05
1.30368e-05;1.1267731618965957e-05
1.30370e-05;-6.083824341418989e-05
1.30373e-05;-0.00013413819635696862
1.30375e-05;-0.00020855062518671652
1.30378e-05;-0.0002830781232109219
1.30380e-05;-0.00035760562123512724
1.30383e-05;-0.0004313745891826069
1.30385e-05;-0.0005050553452141425
1.30388e-05;-0.0005764020057842562
1.30390e-05;-0.0006474772268417557
1.30393e-05;-0.0007150872903794293
1.30395e-05;-0.000782294379539067
1.30398e-05;-0.000844490485084132
1.30400e-05;-0.0009061038471333984
1.30403e-05;-0.0009609751329038912
1.30405e-05;-0.0010150623608127856
1.30408e-05;-0.001061755116524476
1.30410e-05;-0.001107587945143062
1.30413e-05;-0.0011485814732833874
1.30415e-05;-0.0011890122235153034
1.30418e-05;-0.0012236218421379467
1.30420e-05;-0.0012575545025338471
1.30423e-05;-0.0012914871629295176
1.30425e-05;-0.0013170370281065766
1.30428e-05;-0.0013416120309084918
1.30430e-05;-0.0013661870337102402
1.30433e-05;-0.0013845767159122158
1.30435e-05;-0.001402247087171468
1.30438e-05;-0.0014199174584306005
1.30440e-05;-0.0014319555799474513
1.30443e-05;-0.0014433387089207964
1.30445e-05;-0.0014547218378940642
1.30448e-05;-0.0014604239106207294
1.30450e-05;-0.0014654653149375634
1.30453e-05;-0.0014705067192543634
1.30455e-05;-0.001471833858209157
1.30458e-05;-0.0014727290532289008
1.30460e-05;-0.0014736242482486386
1.30463e-05;-0.00147092973182729
1.30465e-05;-0.0014678177562493055
1.30468e-05;-0.0014647057806713422
1.30470e-05;-0.0014589213361190009
1.30473e-05;-0.0014528261015038936
1.30475e-05;-0.0014467308668888275
1.30478e-05;-0.0014392540675289614
1.30480e-05;-0.001431616601535398
1.30482e-05;-0.0014239791355418864
1.30485e-05;-0.0014153196877671073
1.30488e-05;-0.0014065413904247473
1.30490e-05;-0.0013977630930823873
1.30493e-05;-0.0013892254215399278
1.30495e-05;-0.0013807157331501296
1.30498e-05;-0.0013722060447603317
1.30500e-05;-0.0013652379501343246
1.30503e-05;-0.001358449132434326
1.30505e-05;-0.0013516603147343273
1.30508e-05;-0.001344871497034375
1.30510e-05;-0.0013380826793343763
1.30513e-05;-0.0013312938616343777
1.30515e-05;-0.0013249493082687065
1.30518e-05;-0.0013186564198396907
1.30520e-05;-0.0013123635314106748
1.30523e-05;-0.0013060706429817014
1.30525e-05;-0.0012997777545526855
1.30528e-05;-0.0012934848661236697
1.30530e-05;-0.0012869251836854548
1.30533e-05;-0.0012803344749087358
1.30535e-05;-0.0012737437661320167
1.30538e-05;-0.0014837462168061741
1.30540e-05;-0.010037590316465596
1.30543e-05;-0.016471319092645462
1.30545e-05;-0.014542676682550888
1.30548e-05;-0.012289984514768003
1.30550e-05;-0.0054623833691531285
1.30553e-05;-1.6746737460702902e-05
1.30555e-05;0.00012515420620384863
1.30558e-05;-0.000603828558069213
1.30560e-05;-0.0056161491478057615
1.30563e-05;-0.009650124606857288
1.30565e-05;-0.008889139929298635
1.30567e-05;-0.007705550211119022
1.30570e-05;-0.0038564688360668313
1.30573e-05;-0.00035817211601258704
1.30575e-05;0.0008455684978938754
1.30578e-05;9.397582888266047e-06
1.30580e-05;-0.002590225113528946
1.30583e-05;-0.004770251462110275
1.30585e-05;-0.005174251935492786
1.30588e-05;-0.004082445301264657
1.30590e-05;-0.0019375013130368427
1.30593e-05;-8.395719522782995e-05
1.30595e-05;0.0006296173818065398
1.30598e-05;8.739744074547442e-05
1.30600e-05;-0.001557265516794634
1.30603e-05;-0.0029372258850453603
1.30605e-05;-0.0032031857679124275
1.30608e-05;-0.002530938707736742
1.30610e-05;-0.0011977734334073693
1.30613e-05;-4.578197811365458e-05
1.30615e-05;0.00039351183701464307
1.30618e-05;4.748391753403916e-05
1.30620e-05;-0.00098788095189876
1.30623e-05;-0.0018563064651574842
1.30625e-05;-0.0020259449838402493
1.30628e-05;-0.0016070719570395343
1.30630e-05;-0.0007735162609961892
1.30633e-05;-5.2858079811567756e-05
1.30635e-05;0.0002219089442970618
1.30638e-05;5.2690064413123475e-06
1.30640e-05;-0.0006426724866055349
1.30643e-05;-0.001185586925982329
1.30645e-05;-0.0012904029180416826
1.30648e-05;-0.0010262831155586894
1.30650e-05;-0.0005021884470182857
1.30652e-05;-4.8646647433596814e-05
1.30655e-05;0.00012573022603576894
1.30658e-05;-7.581459634034657e-06
1.30660e-05;-0.0004109431335670699
1.30663e-05;-0.0007484263593473648
1.30665e-05;-0.0008114464480192225
1.30668e-05;-0.0006433839263778087
1.30670e-05;-0.00031254313105036737
1.30673e-05;-2.6004051620829156e-05
1.30675e-05;8.553710371275338e-05
1.30678e-05;4.19868568253384e-06
1.30680e-05;-0.0002464568100921388
1.30683e-05;-0.0004560288242622662
1.30685e-05;-0.0004938999348847743
1.30688e-05;-0.0003872878927285094
1.30690e-05;-0.00017901913624833365
1.30693e-05;1.1590711186481955e-06
1.30695e-05;7.135605716242452e-05
1.30698e-05;2.0352407422900387e-05
1.30700e-05;-0.000137110725395496
1.30703e-05;-0.00026926361994570713
1.30705e-05;-0.0002943223125361083
1.30708e-05;-0.00022941737950294991
1.30710e-05;-0.00010154442887638665
1.30713e-05;7.865728238996971e-06
1.30715e-05;4.748374092369178e-05
1.30718e-05;1.0327941194433613e-05
1.30720e-05;-9.431075123345047e-05
1.30723e-05;-0.00018383903341477698
1.30725e-05;-0.00020698068042366948
1.30728e-05;-0.0001744212284756774
1.30730e-05;-0.00010302436354270207
1.30733e-05;-4.374882042641809e-05
1.30735e-05;-2.869396171632433e-05
1.30737e-05;-6.217816739194034e-05
1.30740e-05;-0.00013832673448551736
1.30743e-05;-0.00020535106524697755
1.30745e-05;-0.0002310833546565824
1.30748e-05;-0.0002221697313822836
1.30750e-05;-0.0001891254929669697
1.30753e-05;-0.000163821115366235
1.30755e-05;-0.00016631116372563913
1.30758e-05;-0.00019924722020469432
1.30760e-05;-0.0002588959653833731
1.30763e-05;-0.00031276532327800295
1.30765e-05;-0.00034065606413181027
1.30768e-05;-0.00034668268846372213
1.30770e-05;-0.00033738278203807634
1.30773e-05;-0.0003326696822978559
1.30775e-05;-0.0003450536929329629
1.30778e-05;-0.00037614325636505837
1.30780e-05;-0.0004235474256353587
1.30783e-05;-0.00046686173568573255
1.30785e-05;-0.0004933835510468323
1.30788e-05;-0.0005056407279529566
1.30790e-05;-0.00050767865873117
1.30793e-05;-0.0005119205516394219
1.30795e-05;-0.0005261513672443112
1.30798e-05;-0.0005513267853777649
1.30800e-05;-0.0005858972778419485
1.30803e-05;-0.0006170304461713588
1.30805e-05;-0.000636719080125992
1.30808e-05;-0.0006464813757497702
1.30810e-05;-0.0006495015649743306
1.30813e-05;-0.0006514552469052368
1.30815e-05;-0.0006589845113726933
1.30818e-05;-0.0006724663667989527
1.30820e-05;-0.000690837388252143
1.30822e-05;-0.0007061198248011465
1.30825e-05;-0.0007133592263808831
1.30828e-05;-0.000713567839218714
1.30830e-05;-0.0007085199349391383
1.30833e-05;-0.0007026177945378545
1.30835e-05;-0.0006994134591426619
1.30838e-05;-0.000699309427881042
1.30840e-05;-0.000700356180829033
1.30843e-05;-0.0007015324412407764
1.30845e-05;-0.0006964637273328347
1.30848e-05;-0.0006863725723353544
1.30850e-05;-0.0006726426144727964
1.30853e-05;-0.0006583168942147393
1.30855e-05;-0.0006454899330999919
1.30858e-05;-0.0006345045426627723
1.30860e-05;-0.000624236588770774
1.30863e-05;-0.0006140516741986786
1.30865e-05;-0.0006000648581174727
1.30868e-05;-0.0005830953654520627
1.30870e-05;-0.0005641873297132356
1.30873e-05;-0.0005449709144737376
1.30875e-05;-0.0005271052086903313
1.30878e-05;-0.0005108202430631508
1.30880e-05;-0.0004956681825883822
1.30883e-05;-0.0004806955278350176
1.30885e-05;-0.0004640543446757581
1.30888e-05;-0.00044623557079314887
1.30890e-05;-0.0004282294723780945
1.30893e-05;-0.00041022034223372474
1.30895e-05;-0.00039485050795526897
1.30898e-05;-0.0003800296296777362
1.30900e-05;-0.00036774267781042005
1.30903e-05;-0.0003559827657973438
1.30905e-05;-0.0003444929932662063
1.30907e-05;-0.0003335383227902804
1.30910e-05;-0.00032361663899614217
1.30913e-05;-0.00031575340891240193
1.30915e-05;-0.00031053338334547574
1.30918e-05;-0.0003080293117702105
1.30920e-05;-0.0003081483347816303
1.30923e-05;-0.0003101162521424992
1.30925e-05;-0.0003134506995249275
1.30928e-05;-0.00031827943770669834
1.30930e-05;-0.0003248526943685959
1.30933e-05;-0.0003337219596350158
1.30935e-05;-0.0003451627024853442
1.30938e-05;-0.0003591296080341092
1.30940e-05;-0.00037547365918137786
1.30943e-05;-0.0003941779988496867
1.30945e-05;-0.0004132891164305923
1.30948e-05;-0.00043473491373106964
1.30950e-05;-0.0004566663088985545
1.30953e-05;-0.0004814202490646156
1.30955e-05;-0.0005067612598333417
1.30958e-05;-0.0005352918117819961
1.30960e-05;-0.0005644857671003776
1.30963e-05;-0.0005936797224185611
1.30965e-05;-0.0006248338604124955
1.30968e-05;-0.0006563957033768367
1.30970e-05;-0.0006879575463409641
1.30973e-05;-0.0007209530499529271
1.30975e-05;-0.0007542467454524268
1.30978e-05;-0.0007875404409517007
1.30980e-05;-0.0008210985780078194
1.30983e-05;-0.000854711717150412
1.30985e-05;-0.000888324856292777
1.30988e-05;-0.0009204457895087466
1.30990e-05;-0.000952256353808171
1.30992e-05;-0.0009840669181073799
1.30995e-05;-0.0010134891883823113
1.30998e-05;-0.0010424147093711135
1.31000e-05;-0.0010713402303599157
1.31003e-05;-0.0010961684170306934
1.31005e-05;-0.0011201443853915943
1.31008e-05;-0.0011441203537524952
1.31010e-05;-0.001163396702233621
1.31013e-05;-0.0011816955610103096
1.31015e-05;-0.0011999944197869981
1.31018e-05;-0.00121389183003098
1.31020e-05;-0.0012268737682291889
1.31023e-05;-0.0012398557064273977
1.31025e-05;-0.0012478251086620673
1.31028e-05;-0.0012547519367261074
1.31030e-05;-0.0012616787647901475
1.31033e-05;-0.0012641195949803564
1.31035e-05;-0.001265627367423555
1.31038e-05;-0.0012671351398667536
1.31040e-05;-0.0012645313472330242
1.31043e-05;-0.0012610723763857871
1.31045e-05;-0.0012576134055385503
1.31048e-05;-0.0012482901228553246
1.31050e-05;-0.0012377471022801503
1.31053e-05;-0.001227204081704976
1.31055e-05;-0.0012166610611298733
1.31058e-05;-0.0012061180405546989
1.31060e-05;-0.0011955750199795247
1.31063e-05;-0.0011850319994044219
1.31065e-05;-0.0011695747824139082
1.31068e-05;-0.0011530954452250938
1.31070e-05;-0.001136616108036391
1.31073e-05;-0.0011201367708475768
1.31075e-05;-0.0011036574336587624
1.31077e-05;-0.0010871780964700596
1.31080e-05;-0.0010706987592812452
1.31083e-05;-0.001053285501560334
1.31085e-05;-0.0010356779945748682
1.31088e-05;-0.001018070487589522
1.31090e-05;-0.0010012167932336798
1.31093e-05;-0.0009845198868955443
1.31095e-05;-0.0009678229805575221
1.31098e-05;-0.0009525637422871893
1.31100e-05;-0.0009376035294213449
1.31103e-05;-0.0009242684419488891
1.31105e-05;-0.0009112713697588427
1.31108e-05;-0.0008993988005947003
1.31110e-05;-0.0008874663822986649
1.31113e-05;-0.0008734857259755338
1.31115e-05;-0.0008590917572350557
1.31118e-05;-0.0008415748837286469
1.31120e-05;-0.0008234084667830901
1.31123e-05;-0.0008052420498375334
1.31125e-05;-0.0007847879660758492
1.31128e-05;-0.000763858062818211
1.31130e-05;-0.0007401780492873011
1.31133e-05;-0.0007159260310946825
1.31135e-05;-0.000687967277588048
1.31138e-05;-0.0006592375477680051
1.31140e-05;-0.0006274890739872603
1.31143e-05;-0.0005951127215224801
1.31145e-05;-0.0005604495856407587
1.31148e-05;-0.0005253108140045853
1.31150e-05;-0.0004876517042455785
1.31153e-05;-0.00044946838090508803
1.31155e-05;-0.00040856188293856346
1.31158e-05;-0.00036708898274537884
1.31160e-05;-0.000324082316705514
1.31162e-05;-0.00028003248305518124
1.31165e-05;-0.0002353325762082114
1.31168e-05;-0.00019016955196110637
1.31170e-05;-0.00014453597822741468
1.31173e-05;-9.838843532515367e-05
1.31175e-05;-5.1866696972316715e-05
1.31178e-05;-5.241916819010995e-06
1.31180e-05;4.1195531998308e-05
1.31183e-05;8.7156880357004e-05
1.31185e-05;0.00013235273415532166
1.31188e-05;0.00017654643945699494
1.31190e-05;0.00021962310781468587
1.31193e-05;0.00026149041773137317
1.31195e-05;0.0003019413048449434
1.31198e-05;0.00034068641045692527
1.31200e-05;0.0003774243152543344
1.31203e-05;0.00041185472823327123
1.31205e-05;0.0004436768902136911
1.31208e-05;0.000472664945475846
1.31210e-05;0.0004987946436495695
1.31213e-05;0.0005221592274810814
1.31215e-05;0.000542771743435502
1.31218e-05;0.0005605592789236776
1.31220e-05;0.0005754354618734974
1.31223e-05;0.000587314596734083
1.31225e-05;0.0005961106363896872
1.31228e-05;0.000601784510652604
1.31230e-05;0.0006044235015877051
1.31233e-05;0.0006041884287527092
1.31235e-05;0.0006011897953966017
1.31238e-05;0.0005954843564607812
1.31240e-05;0.0005871204524447956
1.31243e-05;0.0005761467912125976
1.31245e-05;0.0005615899453940795
1.31247e-05;0.0005463809820894245
1.31250e-05;0.0005273850788482039
1.31253e-05;0.0005076015172645955
1.31255e-05;0.00048462066066573046
1.31258e-05;0.0004609747879500301
1.31260e-05;0.0004345836475954028
1.31263e-05;0.0004076215098143192
1.31265e-05;0.00037836296358010956
1.31268e-05;0.0003486267796471272
1.31270e-05;0.00031719923946842203
1.31273e-05;0.0002854199084299314
1.31275e-05;0.00025254136769282747
1.31278e-05;0.00021943419864272506
1.31280e-05;0.00018632702959284697
1.31283e-05;0.0001530238673718156
1.31285e-05;0.00011967993987360725
1.31288e-05;8.669037092781723e-05
1.31290e-05;5.4259347849888335e-05
1.31293e-05;2.2619731861478153e-05
1.31295e-05;-7.99488611395906e-06
1.31298e-05;-3.736415921926871e-05
1.31300e-05;-6.526984601509464e-05
1.31303e-05;-9.14936382409644e-05
1.31305e-05;-0.00011581728124372006
1.31308e-05;-0.0001383516577536894
1.31310e-05;-0.00016008208493819084
1.31313e-05;-0.00018170826823567596
1.31315e-05;-0.00020401239622698823
1.31318e-05;-0.00022645753220954329
1.31320e-05;-0.00024899291947420984
1.31323e-05;-0.0002715470784058079
1.31325e-05;-0.0002941012373372531
1.31328e-05;-0.00031668821856724636
1.31330e-05;-0.00033928202661720334
1.31332e-05;-0.00036187583466700717
1.31335e-05;-0.00038646627765815463
1.31338e-05;-0.00041147200744955244
1.31340e-05;-0.0004364777372409503
1.31343e-05;-0.00046292793727403206
1.31345e-05;-0.0004896785775191866
1.31348e-05;-0.0005164292177643411
1.31350e-05;-0.0005431798580093143
1.31353e-05;-0.0005699304982544688
1.31355e-05;-0.0005986043774169284
1.31358e-05;-0.0006276782774942233
1.31360e-05;-0.0006567521775717154
1.31363e-05;-0.0006858260776492074
1.31365e-05;-0.0007148999777265024
1.31368e-05;-0.0007442991952074193
1.31370e-05;-0.000773766076546547
1.31373e-05;-0.0008032329578854752
1.31375e-05;-0.000832699839224603
1.31378e-05;-0.0008621667205637308
1.31380e-05;-0.000891633601902659
1.31383e-05;-0.0009189937044733236
1.31385e-05;-0.0009459156110594392
1.31388e-05;-0.0009728375176453724
1.31390e-05;-0.0009997594242314879
1.31393e-05;-0.0010266813308176036
1.31395e-05;-0.0010536032374035367
1.31398e-05;-0.001076887940230322
1.31400e-05;-0.0010994161288438759
1.31403e-05;-0.0011219443174572772
1.31405e-05;-0.0011405203704711925
1.31408e-05;-0.001158274405541731
1.31410e-05;-0.0011760284406121494
1.31413e-05;-0.0011890053094106006
1.31415e-05;-0.0012009885593679635
1.31418e-05;-0.001212971809325245
1.31420e-05;-0.0012198870458467433
1.31423e-05;-0.0012257481692496699
1.31425e-05;-0.0012316092926525964
1.31428e-05;-0.0012322174027503126
1.31430e-05;-0.001231732920985974
1.31433e-05;-0.0012312484392216353
