Time(s);Current(A)
7.50000e-06;0.0015064910620224015
7.50025e-06;0.001541694986065017
7.50050e-06;0.001575694313635217
7.50075e-06;0.001609693641205417
7.50100e-06;0.0016347821945394802
7.50125e-06;0.0016587019731050458
7.50150e-06;0.0016826217516706116
7.50175e-06;0.001696893943362158
7.50200e-06;0.0017099007168290233
7.50225e-06;0.0017229074902959326
7.50250e-06;0.0017264524066410182
7.50275e-06;0.0017287562658599733
7.50300e-06;0.0017310601250789361
7.50325e-06;0.0017249096784924347
7.50350e-06;0.0017176503294641652
7.50375e-06;0.0017103909804358712
7.50400e-06;0.0016951182879657676
7.50425e-06;0.0016787945315391948
7.50450e-06;0.0016624707751125667
7.50475e-06;0.0016395591013505767
7.50500e-06;0.001615783328538111
7.50525e-06;0.0015920075557255644
7.50550e-06;0.001561085441324068
7.50575e-06;0.001529225982589476
7.50600e-06;0.0014973665238547764
7.50625e-06;0.0014655070651201846
7.50650e-06;0.001433647606385485
7.50675e-06;0.001401788147650893
7.50700e-06;0.001365904058287794
7.50725e-06;0.0013294920813802682
7.50750e-06;0.001293080104472866
7.50775e-06;0.0012566681275654637
7.50800e-06;0.001220256150657938
7.50825e-06;0.0011838441737505357
7.50850e-06;0.0011505328567269324
7.50875e-06;0.0011176282353438252
7.50900e-06;0.0010847236139608293
7.50925e-06;0.0010518189925778337
7.50950e-06;0.0010189143711947263
7.50975e-06;0.0009902214164032982
7.51000e-06;0.0009682833934998708
7.51025e-06;0.000946345370596369
7.51050e-06;0.0009244073476929415
7.51075e-06;0.0009024693247895141
7.51100e-06;0.0008805313018860122
7.51125e-06;0.0008674976996924712
7.51150e-06;0.0008556320389113902
7.51175e-06;0.0008487986801444755
7.51200e-06;0.0008426253793548063
7.51225e-06;0.0008416101958483433
7.51250e-06;0.0008412715727809792
7.51275e-06;0.0008460070357762244
7.51300e-06;0.000851408037320912
7.51325e-06;0.0008616101907003112
7.51350e-06;0.0008724420834235288
7.51375e-06;0.0008877834887023795
7.51400e-06;0.0009037163806859184
7.51425e-06;0.0009248126729933342
7.51450e-06;0.0009465862186857724
7.51475e-06;0.0009683597643781368
7.51500e-06;0.0009953556814775756
7.51525e-06;0.0010230365868582661
7.51550e-06;0.001050717492238863
7.51575e-06;0.0010836391567524291
7.51600e-06;0.0011172482213587579
7.51625e-06;0.0011508572859650868
7.51650e-06;0.0011844663505715294
7.51675e-06;0.0012180754151778581
7.51700e-06;0.001251684479784187
7.51725e-06;0.0012871991096944809
7.51750e-06;0.00132296368159465
7.51775e-06;0.001358728253494819
7.51800e-06;0.0013944928253951092
7.51825e-06;0.0014302573972952782
7.51850e-06;0.0014660219691954473
7.51875e-06;0.0014944968255599196
7.51900e-06;0.0015220155320596219
7.51925e-06;0.0015495342385593244
7.51950e-06;0.00157705294505912
7.51975e-06;0.0016045716515588225
7.52000e-06;0.001632090358058618
7.52025e-06;0.0016596090645583203
7.52050e-06;0.0016871277710580228
7.52075e-06;0.0017146464775578184
7.52100e-06;0.0017313174778921933
7.52125e-06;0.0017465656472903355
7.52150e-06;0.0017618138166885294
7.52175e-06;0.0017770619860866717
7.52200e-06;0.001792310155484814
7.52225e-06;0.0018075583248830078
7.52250e-06;0.00182280649428115
7.52275e-06;0.0018380546636792923
7.52300e-06;0.0018533028330774861
7.52325e-06;0.0018608792311648602
7.52350e-06;0.0018674493673394188
7.52375e-06;0.001874019503514
7.52400e-06;0.0018805896396885586
7.52425e-06;0.0018871597758631396
7.52450e-06;0.0018937299120376982
7.52475e-06;0.001900300048212257
7.52500e-06;0.001906870184386838
7.52525e-06;0.0019134403205613966
7.52550e-06;0.0019200104567359553
7.52575e-06;0.0019265805929105364
7.52600e-06;0.001933150729085095
7.52625e-06;0.001937747880413527
7.52650e-06;0.0019391806363755462
7.52675e-06;0.0019406133923375608
7.52700e-06;0.001942046148299575
7.52725e-06;0.0019434789042615942
7.52750e-06;0.0019449116602236088
7.52775e-06;0.001946344416185623
7.52800e-06;0.0019477771721476424
7.52825e-06;0.0019492099281096568
7.52850e-06;0.0019506426840716759
7.52875e-06;0.0019520754400336904
7.52900e-06;0.0019535081959957045
7.52925e-06;0.001954940951957724
7.52950e-06;0.0019545233455873826
7.52975e-06;0.0019538630378819802
7.53000e-06;0.001953202730176576
7.53025e-06;0.0019525424224711737
7.53050e-06;0.0019518821147657716
7.53075e-06;0.0019470072709810837
7.53100e-06;0.0019353728930490736
7.53125e-06;0.0019237385151170633
7.53150e-06;0.0019121041371850135
7.53175e-06;0.0019004697592530033
7.53200e-06;0.0018888353813209932
7.53225e-06;0.0018671602977894473
7.53250e-06;0.0018441682329235203
7.53275e-06;0.0018211761680575155
7.53300e-06;0.0017894555938548784
7.53325e-06;0.0017565901515192728
7.53350e-06;0.0017237247091835557
7.53375e-06;0.0016837032168130646
7.53400e-06;0.001642743106709974
7.53425e-06;0.0016017829966067448
7.53450e-06;0.0015542469074667391
7.53475e-06;0.0015058482851550874
7.53500e-06;0.0014574496628432718
7.53525e-06;0.0014033473463882953
7.53550e-06;0.0013484969093307804
7.53575e-06;0.0012936464722730794
7.53600e-06;0.001234871753770133
7.53625e-06;0.0011755823099460843
7.53650e-06;0.0011162928661218347
7.53675e-06;0.001057003422297786
7.53700e-06;0.0009971985267349778
7.53725e-06;0.0009365669177305957
7.53750e-06;0.0008759353087262139
7.53775e-06;0.0008153036997216264
7.53800e-06;0.0007546720907172444
7.53825e-06;0.0006965517241809063
7.53850e-06;0.0006387607428078922
7.53875e-06;0.0005838125947475663
7.53900e-06;0.0005292373247057429
7.53925e-06;0.000477531620504785
7.53950e-06;0.00042857694166486995
7.53975e-06;0.0003826544280658887
7.54000e-06;0.0003401555776855295
7.54025e-06;0.00030128986191215395
7.54050e-06;0.0002658316477648568
7.54075e-06;0.00023340032569647303
7.54100e-06;0.0002039058941684481
7.54125e-06;0.00017747403990831277
7.54150e-06;0.0001542534225418904
7.54175e-06;0.00013439271561223388
7.54200e-06;0.00011804049312080188
7.54225e-06;0.00010523137427800759
7.54250e-06;9.572740785609426e-05
7.54275e-06;8.919356425138056e-05
7.54300e-06;8.547690814673313e-05
7.54325e-06;8.455957206829859e-05
7.54350e-06;8.64381161755012e-05
7.54375e-06;9.110907321129007e-05
7.54400e-06;9.856893395024042e-05
7.54425e-06;0.00010874278586932622
7.54450e-06;0.00012138500440367984
7.54475e-06;0.00013618915991408324
7.54500e-06;0.00015296292894432885
7.54525e-06;0.00017159857779858818
7.54550e-06;0.0001919974411169971
7.54575e-06;0.00021406081832053253
7.54600e-06;0.0002376899909037173
7.54625e-06;0.0002632460690396672
7.54650e-06;0.00028903124791708045
7.54675e-06;0.0003165936982601616
7.54700e-06;0.0003443892630315752
7.54725e-06;0.00037218482780289466
7.54750e-06;0.0004008230118226353
7.54775e-06;0.00042957171734023334
7.54800e-06;0.000458320422857734
7.54825e-06;0.0004870691283752346
7.54850e-06;0.0005141927200002084
7.54875e-06;0.0005411031548264856
7.54900e-06;0.0005680135896527628
7.54925e-06;0.0005949240244791312
7.54950e-06;0.0006186423406786912
7.54975e-06;0.000641941965123687
7.55000e-06;0.0006621838668637929
7.55025e-06;0.0006820247047857401
7.55050e-06;0.0006981755789788448
7.55075e-06;0.0007138424619520091
7.55100e-06;0.0007255210266235489
7.55125e-06;0.0007366764666299918
7.55150e-06;0.0007437303803216536
7.55175e-06;0.0007502463205072899
7.55200e-06;0.0007525544989495285
7.55225e-06;0.0007543107695984401
7.55250e-06;0.0007517907361978164
7.55275e-06;0.0007487098047056561
7.55300e-06;0.000741493178662049
7.55325e-06;0.0007337340974622838
7.55350e-06;0.000722095917964359
7.55375e-06;0.0007099489395581234
7.55400e-06;0.0006941837815948124
7.55425e-06;0.0006779440479267682
7.55450e-06;0.0006583706212928048
7.55475e-06;0.0006383599334162442
7.55500e-06;0.0006148030902928596
7.55525e-06;0.0005907811184772834
7.55550e-06;0.0005667591466616259
7.55575e-06;0.0005394601373448457
7.55600e-06;0.0005117312979554868
7.55625e-06;0.00048400245856603386
7.55650e-06;0.00045395204229744027
7.55675e-06;0.00042359711820490534
7.55700e-06;0.0003932421941122676
7.55725e-06;0.00036288727001973264
7.55750e-06;0.0003321061434869435
7.55775e-06;0.00030126911444278826
7.55800e-06;0.00027043208539873754
7.55825e-06;0.00023959505635458235
7.55850e-06;0.00021003271737675964
7.55875e-06;0.00018063757212906926
7.55900e-06;0.0001524715442899626
7.55925e-06;0.0001255268485344143
7.55950e-06;9.996234780977263e-05
7.55975e-06;7.598286169296488e-05
7.56000e-06;5.379315456035731e-05
7.56025e-06;3.365371520656232e-05
7.56050e-06;1.5918776202249643e-05
7.56075e-06;8.849676249295266e-07
7.56100e-06;-1.1334382203905955e-05
7.56125e-06;-2.072345679876173e-05
7.56150e-06;-2.727627024385043e-05
7.56175e-06;-3.09868614700739e-05
7.56200e-06;-3.1849281222018647e-05
7.56225e-06;-2.9822699185282252e-05
7.56250e-06;-2.480757251668821e-05
7.56275e-06;-1.6740453438013732e-05
7.56300e-06;-5.672716416715027e-06
7.56325e-06;8.283178398059854e-06
7.56350e-06;2.5008622866509914e-05
7.56375e-06;4.4384995694192414e-05
7.56400e-06;6.629367211999345e-05
7.56425e-06;9.063788410272975e-05
7.56450e-06;0.00011735764593336055
7.56475e-06;0.00014637035965301827
7.56500e-06;0.00017752148999180295
7.56525e-06;0.0002106182776505482
7.56550e-06;0.0002454641262546376
7.56575e-06;0.00028245163567916515
7.56600e-06;0.00031969379935034575
7.56625e-06;0.00035898334280334284
7.56650e-06;0.0003985414292312028
7.56675e-06;0.00043983264028813043
7.56700e-06;0.0004813511752874712
7.56725e-06;0.0005228697102868119
7.56750e-06;0.0005643882452862934
7.56775e-06;0.0006054186350518166
7.56800e-06;0.000646384997627817
7.56825e-06;0.0006873513602039562
7.56850e-06;0.0007283177227799566
7.56875e-06;0.0007661463837624858
7.56900e-06;0.0008035634905586685
7.56925e-06;0.0008409805973547246
7.56950e-06;0.0008744227135193936
7.56975e-06;0.0009073434531329785
7.57000e-06;0.000935980864653875
7.57025e-06;0.0009640564567805723
7.57050e-06;0.000987493530673622
7.57075e-06;0.0010103221969340879
7.57100e-06;0.0010285711102113154
7.57125e-06;0.0010462193237543132
7.57150e-06;0.0010590467284333402
7.57175e-06;0.0010712418154713622
7.57200e-06;0.0010783676020565635
7.57225e-06;0.0010848284777949756
7.57250e-06;0.001085186498226315
7.57275e-06;0.001084744042393158
7.57300e-06;0.001084301586560001
7.57325e-06;0.0010771431168068615
7.57350e-06;0.0010691037463172444
7.57375e-06;0.0010610643758276273
7.57400e-06;0.0010467656656818001
7.57425e-06;0.001031645954123776
7.57450e-06;0.001016526242565752
7.57475e-06;0.000996169734153593
7.57500e-06;0.0009751263453597271
7.57525e-06;0.00095408295656579
7.57550e-06;0.0009289200139381937
7.57575e-06;0.0009032167332396856
7.57600e-06;0.0008775134525410906
7.57625e-06;0.0008482656083685583
7.57650e-06;0.0008185528442879444
7.57675e-06;0.0007888400802072299
7.57700e-06;0.000759127316126616
7.57725e-06;0.0007294145520460023
7.57750e-06;0.0006988025767170783
7.57775e-06;0.000668072657045066
7.57800e-06;0.0006373427373730536
7.57825e-06;0.0006066128177009372
7.57850e-06;0.0005758828980289249
7.57875e-06;0.0005474079190273366
7.57900e-06;0.0005192287075628412
7.57925e-06;0.000491049496098441
7.57950e-06;0.0004658401124663341
7.57975e-06;0.000441020263989425
7.58000e-06;0.0004185290657487731
7.58025e-06;0.0003982212696661416
7.58050e-06;0.00038044245508643743
7.58075e-06;0.00036557820032138044
7.58100e-06;0.0003537707881666409
7.58125e-06;0.00034502737169090985
7.58150e-06;0.00033934135107409764
7.58175e-06;0.0003367061712048706
7.58200e-06;0.00033711520653412
7.58225e-06;0.00034061361405448724
7.58250e-06;0.0003473408744807802
7.58275e-06;0.0003574027433635738
7.58300e-06;0.00037075259683891734
7.58325e-06;0.0003872591214984209
7.58350e-06;0.00040678241522897475
7.58375e-06;0.0004291826531049786
7.58400e-06;0.00045431994313749184
7.58425e-06;0.000482086750413692
7.58450e-06;0.0005135412224667623
7.58475e-06;0.0005454395736201211
7.58500e-06;0.0005814303944479122
7.58525e-06;0.0006179580008738428
7.58550e-06;0.0006584750491057898
7.58575e-06;0.0006995153693656192
7.58600e-06;0.0007405556896255876
7.58625e-06;0.0007854149163984527
7.58650e-06;0.0008307750470702613
7.58675e-06;0.0008761351777422236
7.58700e-06;0.0009214953084140322
7.58725e-06;0.0009672354929662295
7.58750e-06;0.001013585231483973
7.58775e-06;0.0010599349700015598
7.58800e-06;0.0011062847085193035
7.58825e-06;0.00115263444703689
7.58850e-06;0.0011962195200872392
7.58875e-06;0.0012394419679446463
7.58900e-06;0.001282664415801907
7.58925e-06;0.0013210977530384105
7.58950e-06;0.0013589029303099048
7.58975e-06;0.001396708107581271
7.59000e-06;0.0014271810762860675
7.59025e-06;0.0014566923215641884
7.59050e-06;0.001486203566842209
7.59075e-06;0.0015075002671604085
7.59100e-06;0.0015277195130860228
7.59125e-06;0.001540819364356894
7.59150e-06;0.0015529854057720787
7.59175e-06;0.0015579521379669719
7.59200e-06;0.001561974578374397
7.59225e-06;0.0015586261994215856
7.59250e-06;0.0015543110326874266
7.59275e-06;0.0015424357319201532
7.59300e-06;0.0015295688120598658
7.59325e-06;0.0015095307820661408
7.59350e-06;0.001488552158996318
7.59375e-06;0.0014594083222158032
7.59400e-06;0.0014291935015377677
7.59425e-06;0.0013989786808597325
7.59450e-06;0.0013599330176591962
7.59475e-06;0.0013197290638764787
7.59500e-06;0.0012795251100937613
7.59525e-06;0.0012321417785618397
7.59550e-06;0.00118381676953869
7.59575e-06;0.00113549176051554
7.59600e-06;0.0010820868334993734
7.59625e-06;0.0010280156029959535
7.59650e-06;0.0009739443724923501
7.59675e-06;0.000916702965990302
7.59700e-06;0.0008590457458222628
7.59725e-06;0.0008013885256540282
7.59750e-06;0.000743731305485989
7.59775e-06;0.0006866622781334513
7.59800e-06;0.0006296704006332904
7.59825e-06;0.0005726785231333225
7.59850e-06;0.0005156866456333547
7.59875e-06;0.0004620756096644784
7.59900e-06;0.0004089080191422711
7.59925e-06;0.00035853647357623645
7.59950e-06;0.00031084587241945474
7.59975e-06;0.00026611058100516115
7.60000e-06;0.00022471239013059085
7.60025e-06;0.00018672093847642721
7.60050e-06;0.00015149458947200009
7.60075e-06;0.00011821949433548761
7.60100e-06;8.666478196839352e-05
7.60125e-06;5.699757998222348e-05
7.60150e-06;2.9427058897246175e-05
7.60175e-06;4.16235522831665e-06
7.60200e-06;-1.8587446173185126e-05
7.60225e-06;-3.880881272127888e-05
7.60250e-06;-5.693373864460923e-05
7.60275e-06;-7.350202836567075e-05
7.60300e-06;-8.868830703264483e-05
7.60325e-06;-0.00010241787766533961
7.60350e-06;-0.00011458971053480078
7.60375e-06;-0.000125102829584094
7.60400e-06;-0.0001338562599170579
7.60425e-06;-0.00014087157990045625
7.60450e-06;-0.00014644940038683593
7.60475e-06;-0.0001509578204429552
7.60500e-06;-0.00015453621310279145
7.60525e-06;-0.00015716772214189933
7.60550e-06;-0.0001588190348515994
7.60575e-06;-0.00015945688049157653
7.60600e-06;-0.0001590479676545177
7.60625e-06;-0.00015730108025663748
7.60650e-06;-0.00015539467749830837
7.60675e-06;-0.0001525419072083445
7.60700e-06;-0.00014956500735816225
7.60725e-06;-0.00014590413814041296
7.60750e-06;-0.00014215355661328414
7.60775e-06;-0.00013761078057331148
7.60800e-06;-0.0001329640969570425
7.60825e-06;-0.00012831741334078927
7.60850e-06;-0.00012338418480582663
7.60875e-06;-0.00011841337182975991
7.60900e-06;-0.00011344255885371003
7.60925e-06;-0.000108883593627716
7.60950e-06;-0.00010437864809110626
7.60975e-06;-0.00010022495614435471
7.61000e-06;-9.639342214317061e-05
7.61025e-06;-9.267018080922005e-05
7.61050e-06;-8.834957312022396e-05
7.61075e-06;-8.267776969409102e-05
7.61100e-06;-7.541393364707071e-05
7.61125e-06;-6.664194833093878e-05
7.61150e-06;-5.647954332616311e-05
7.61175e-06;-4.504447705390048e-05
7.61200e-06;-3.24545012396959e-05
7.61225e-06;-1.8679877528931805e-05
7.61250e-06;-3.3740827297205573e-06
7.61275e-06;1.3839550715565545e-05
7.61300e-06;3.301632761913695e-05
7.61325e-06;5.400815175805575e-05
7.61350e-06;7.664572247536252e-05
7.61375e-06;0.0001007597385183988
7.61400e-06;0.00012618093464499485
7.61425e-06;0.00015283239840352847
7.61450e-06;0.00018083567307785158
7.61475e-06;0.0002103311859973402
7.61500e-06;0.00024179710177849546
7.61525e-06;0.0002734985218630688
7.61550e-06;0.00030699996222115716
7.61575e-06;0.00034073750083651313
7.61600e-06;0.0003761264899313734
7.61625e-06;0.00041173209024208333
7.61650e-06;0.00044733769055291386
7.61675e-06;0.00048294329086362377
7.61700e-06;0.0005187766870432107
7.61725e-06;0.0005549754363537603
7.61750e-06;0.0005911741856641871
7.61775e-06;0.0006273729349747367
7.61800e-06;0.0006635716842851635
7.61825e-06;0.0006977514658799715
7.61850e-06;0.0007316664311470692
7.61875e-06;0.0007655813964140519
7.61900e-06;0.0007963977897503439
7.61925e-06;0.0008268077613129716
7.61950e-06;0.0008572177328754961
7.61975e-06;0.0008828064667545622
7.62000e-06;0.000907762826748313
7.62025e-06;0.0009327191867419796
7.62050e-06;0.0009533278444489737
7.62075e-06;0.0009733662391721292
7.62100e-06;0.0009934046338952167
7.62125e-06;0.0010101422088568195
7.62150e-06;0.0010264468343655607
7.62175e-06;0.0010427514598742465
7.62200e-06;0.0010524111362275599
7.62225e-06;0.0010611992330008353
7.62250e-06;0.001069987329774111
7.62275e-06;0.0010787754265474162
7.62300e-06;0.0010875635233206918
7.62325e-06;0.0010963516200939675
7.62350e-06;0.0011051397168672728
7.62375e-06;0.0011139278136405482
7.62400e-06;0.0011197322980092605
7.62425e-06;0.0011207514799120581
7.62450e-06;0.0011217706618148523
7.62475e-06;0.0011227898437176462
7.62500e-06;0.0011238090256204438
7.62525e-06;0.0011248282075232378
7.62550e-06;0.001125847389426032
7.62575e-06;0.0011268665713288295
7.62600e-06;0.0011278857532316235
7.62625e-06;0.0011249822048319377
7.62650e-06;0.0011215641345677806
7.62675e-06;0.0011181460643036234
7.62700e-06;0.0011147279940394547
7.62725e-06;0.0011113099237752976
7.62750e-06;0.0011078918535111404
7.62775e-06;0.0011044737832469715
7.62800e-06;0.0011010557129828144
7.62825e-06;0.0010976376427186572
7.62850e-06;0.0010942195724544886
7.62875e-06;0.0010907590388937627
7.62900e-06;0.0010872929356678198
7.62925e-06;0.0010838268324418652
7.62950e-06;0.0010803607292159223
7.62975e-06;0.0010768946259899677
7.63000e-06;0.0010734285227640365
7.63025e-06;0.0010699624195380818
7.63050e-06;0.0010664963163121272
7.63075e-06;0.001063030213086196
7.63100e-06;0.0010595641098602414
7.63125e-06;0.0010566734223818586
7.63150e-06;0.0010538582088617978
7.63175e-06;0.001051042995341718
7.63200e-06;0.0010482277818216381
7.63225e-06;0.0010454125683015774
7.63250e-06;0.0010425973547814975
7.63275e-06;0.0010397821412614177
7.63300e-06;0.0010369669277413378
7.63325e-06;0.001034151714221277
7.63350e-06;0.0010313365007011972
7.63375e-06;0.0010285212871811173
7.63400e-06;0.0010257060736610566
7.63425e-06;0.0010228908601409767
7.63450e-06;0.0010200756466208969
7.63475e-06;0.001017260433100836
7.63500e-06;0.0010144452195807562
7.63525e-06;0.0010116300060606764
7.63550e-06;0.0010088147925406154
7.63575e-06;0.0010061985621151546
7.63600e-06;0.0010036084311523092
7.63625e-06;0.0010010183001894813
7.63650e-06;0.000998428169226636
7.63675e-06;0.0009958380382637905
7.63700e-06;0.000993247907300963
7.63725e-06;0.0009906577763381175
7.63750e-06;0.0009880676453752721
7.63775e-06;0.0009854775144124443
7.63800e-06;0.000982887383449599
7.63825e-06;0.0009802972524867537
7.63850e-06;0.0009777071215239259
7.63875e-06;0.0009751169905610805
7.63900e-06;0.0009725268595982351
7.63925e-06;0.0009699367286354073
7.63950e-06;0.0009673465976725619
7.63975e-06;0.0009647564667097167
7.64000e-06;0.0009621663357468888
7.64025e-06;0.0009573232544015902
7.64050e-06;0.0009521846665741065
7.64075e-06;0.0009470460787466575
7.64100e-06;0.0009419074909191737
7.64125e-06;0.0009367689030916899
7.64150e-06;0.000931630315264206
7.64175e-06;0.0009264917274367571
7.64200e-06;0.0009179900457717573
7.64225e-06;0.0009040944258007005
7.64250e-06;0.0008901988058297378
7.64275e-06;0.000876303185858681
7.64300e-06;0.0008624075658876243
7.64325e-06;0.0008485119459166617
7.64350e-06;0.0008346163259456049
7.64375e-06;0.0008207207059745482
7.64400e-06;0.0008013542538801084
7.64425e-06;0.0007812702243508647
7.64450e-06;0.000761186194821621
7.64475e-06;0.0007382528053655764
7.64500e-06;0.0007149456818336785
7.64525e-06;0.0006916385583017807
7.64550e-06;0.0006658285771269594
7.64575e-06;0.0006396903105784451
7.64600e-06;0.0006135520440299307
7.64625e-06;0.0005874137774815934
