Time(s);Current(A)
5.50000e-07;0.010358155469393079
5.50250e-07;0.010372905197536293
5.50500e-07;0.010387654925679508
5.50750e-07;0.010402404653822724
5.51000e-07;0.010417154381965932
5.51250e-07;0.010431904110109148
5.51500e-07;0.010445969205296892
5.51750e-07;0.010458867091632741
5.52000e-07;0.01047122733244457
5.52250e-07;0.010482670958580152
5.52500e-07;0.010492783124426662
5.52750e-07;0.010500625326166212
5.53000e-07;0.010506511425549337
5.53250e-07;0.010509062628522066
5.53500e-07;0.010511613831494796
5.53750e-07;0.010511983349385632
5.54000e-07;0.01050863338208474
5.54250e-07;0.010505283414783849
5.54500e-07;0.01049890873949887
5.54750e-07;0.010487377336210624
5.55000e-07;0.01047584593292238
5.55250e-07;0.01046431452963414
5.55500e-07;0.010449686715076269
5.55750e-07;0.010429779927874507
5.56000e-07;0.010409873140672744
5.56250e-07;0.010389966353470982
5.56500e-07;0.01036799790313349
5.56750e-07;0.010342514589185574
5.57000e-07;0.010315814471342758
5.57250e-07;0.01028703986341615
5.57500e-07;0.010257550288515077
5.57750e-07;0.010226470275000085
5.58000e-07;0.01019445594869378
5.58250e-07;0.010161661733493352
5.58500e-07;0.010128163647599388
5.58750e-07;0.010094049715837813
5.59000e-07;0.010059507490233714
5.59250e-07;0.010024781180537467
5.59500e-07;0.009990118174240439
5.59750e-07;0.00995576561613837
5.60000e-07;0.009921965040393192
5.60250e-07;0.00988892537893967
5.60500e-07;0.00985680732141315
5.60750e-07;0.009825778839366271
5.61000e-07;0.009796070280265724
5.61250e-07;0.009768320611728701
5.61500e-07;0.009742314360155139
5.61750e-07;0.009718415536719484
5.62000e-07;0.009698109600184284
5.62250e-07;0.009677803663649094
5.62500e-07;0.009659979137094049
5.62750e-07;0.009646385087133674
5.63000e-07;0.009632791037173299
5.63250e-07;0.009619196987212924
5.63500e-07;0.009608482603176424
5.63750e-07;0.009602677669568845
5.64000e-07;0.009596872735961267
5.64250e-07;0.009591067802353689
5.64500e-07;0.009588467164911131
5.64750e-07;0.009591329429623782
5.65000e-07;0.009594191694336432
5.65250e-07;0.009597053959049084
5.65500e-07;0.009599916223761737
5.65750e-07;0.009602778488474387
5.66000e-07;0.009608769013455021
5.66250e-07;0.009620092809419343
5.66500e-07;0.009631416605383658
5.66750e-07;0.009642740401347978
5.67000e-07;0.009654064197312299
5.67250e-07;0.00966538799327662
5.67500e-07;0.009679171997856725
5.67750e-07;0.009697150333502783
5.68000e-07;0.00971512866914885
5.68250e-07;0.009733107004794916
5.68500e-07;0.00975108534044098
5.68750e-07;0.009769063676087047
5.69000e-07;0.009787042011733112
5.69250e-07;0.00980502034737917
5.69500e-07;0.009822998683025237
5.69750e-07;0.009840977018671301
5.70000e-07;0.009858955354317368
5.70250e-07;0.009876390864086365
5.70500e-07;0.009892900927360705
5.70750e-07;0.009909410990635038
5.71000e-07;0.00992592105390938
5.71250e-07;0.00994243111718372
5.71500e-07;0.009958941180458059
5.71750e-07;0.009975451243732399
5.72000e-07;0.009991961307006733
5.72250e-07;0.010008471370281073
5.72500e-07;0.010024981433555413
5.72750e-07;0.010041491496829754
5.73000e-07;0.010054810914255096
5.73250e-07;0.010062690701512835
5.73500e-07;0.010070570488770572
5.73750e-07;0.01007845027602831
5.74000e-07;0.010086330063286051
5.74250e-07;0.01009420985054379
5.74500e-07;0.01010208963780153
5.74750e-07;0.010107145660890883
5.75000e-07;0.01010738753866812
5.75250e-07;0.010107629416445354
5.75500e-07;0.01010787129422259
5.75750e-07;0.010108113171999826
5.76000e-07;0.010108355049777062
5.76250e-07;0.010108596927554298
5.76500e-07;0.010106445504081976
5.76750e-07;0.010100213817774652
5.77000e-07;0.010093982131467328
5.77250e-07;0.010087750445160004
5.77500e-07;0.01008151875885268
5.77750e-07;0.010075287072545357
5.78000e-07;0.010069055386238033
5.78250e-07;0.010062823699930709
5.78500e-07;0.010056592013623385
5.78750e-07;0.010049600121373937
5.79000e-07;0.010041312178302153
5.79250e-07;0.010033024235230363
5.79500e-07;0.010024736292158573
5.79750e-07;0.010016448349086784
5.80000e-07;0.010008160406014995
5.80250e-07;0.009999872462943206
5.80500e-07;0.00999158451987142
5.80750e-07;0.009983296576799632
5.81000e-07;0.009975837434569779
5.81250e-07;0.009969791288415375
5.81500e-07;0.009963745142260972
5.81750e-07;0.0099586841917898
5.82000e-07;0.00995530286996223
5.82250e-07;0.00995192154813466
5.82500e-07;0.009950938427192337
5.82750e-07;0.009954043922317392
5.83000e-07;0.009957149417442447
5.83250e-07;0.0099602549125675
5.83500e-07;0.009963360407692556
5.83750e-07;0.009966465902817611
5.84000e-07;0.009973111284995074
5.84250e-07;0.009985791707509751
5.84500e-07;0.009998472130024428
5.84750e-07;0.0100111525525391
5.85000e-07;0.010023832975053777
5.85250e-07;0.010036513397568454
5.85500e-07;0.010053038232169013
5.85750e-07;0.010076117282106879
5.86000e-07;0.010099196332044744
5.86250e-07;0.010122275381982598
5.86500e-07;0.010145354431920463
5.86750e-07;0.010168433481858327
5.87000e-07;0.010191512531796192
5.87250e-07;0.010214591581734057
5.87500e-07;0.010237670631671912
5.87750e-07;0.010266755787564743
5.88000e-07;0.010296740758744425
5.88250e-07;0.01032672572992411
5.88500e-07;0.010356710701103791
5.88750e-07;0.010386695672283473
5.89000e-07;0.010416680643463143
5.89250e-07;0.010446665614642825
5.89500e-07;0.010476650585822507
5.89750e-07;0.010506744549101787
5.90000e-07;0.010537024329529401
5.90250e-07;0.010567304109957017
5.90500e-07;0.010596923267556959
5.90750e-07;0.010625416150404745
5.91000e-07;0.01065390903325253
5.91250e-07;0.010681243760270933
5.91500e-07;0.010706603984418571
5.91750e-07;0.010731964208566197
5.92000e-07;0.010754633680128172
5.92250e-07;0.010772715773575619
5.92500e-07;0.010790797867023066
5.92750e-07;0.010808879960470513
5.93000e-07;0.01082696205391796
5.93250e-07;0.0108450441473654
5.93500e-07;0.01085891804126473
5.93750e-07;0.010865617510205226
5.94000e-07;0.010872316979145723
5.94250e-07;0.01087901644808622
5.94500e-07;0.010885715917026716
5.94750e-07;0.01089241538596721
5.95000e-07;0.010894718340471104
5.95250e-07;0.010889525817979378
5.95500e-07;0.01088433329548765
5.95750e-07;0.010879140772995921
5.96000e-07;0.010873948250504197
5.96250e-07;0.010868755728012469
5.96500e-07;0.01086356320552074
5.96750e-07;0.010854900396490477
5.97000e-07;0.010840321206815282
5.97250e-07;0.010825742017140087
5.97500e-07;0.010811162827464898
5.97750e-07;0.010796583637789703
5.98000e-07;0.010782004448114509
5.98250e-07;0.010767425258439314
5.98500e-07;0.010751495540065764
5.98750e-07;0.010733263348463383
5.99000e-07;0.010715031156860995
5.99250e-07;0.010696621184723504
5.99500e-07;0.010677908120231755
5.99750e-07;0.010659305236058727
6.00000e-07;0.010640890194790855
6.00250e-07;0.010622802939971181
6.00500e-07;0.010605274517794343
6.00750e-07;0.010588308015242975
6.01000e-07;0.01057229951150791
6.01250e-07;0.01055735241150984
6.01500e-07;0.010544214864831456
6.01750e-07;0.010531077318153078
6.02000e-07;0.010520678457417743
6.02250e-07;0.010514948694846545
6.02500e-07;0.010509218932275344
6.02750e-07;0.010503489169704146
6.03000e-07;0.010497759407132951
6.03250e-07;0.010492029644561751
6.03500e-07;0.010486299881990553
6.03750e-07;0.010484483930928358
6.04000e-07;0.010489340512062814
6.04250e-07;0.01049419709319727
6.04500e-07;0.010499053674331724
6.04750e-07;0.01050391025546618
6.05000e-07;0.010508766836600635
6.05250e-07;0.01051362341773509
6.05500e-07;0.01052254199634887
6.05750e-07;0.010538385744685616
6.06000e-07;0.010554229493022356
6.06250e-07;0.010570073241359102
6.06500e-07;0.010585916989695849
6.06750e-07;0.010601760738032595
6.07000e-07;0.01061760448636934
6.07250e-07;0.01063344823470608
6.07500e-07;0.010649291983042826
6.07750e-07;0.010665135731379572
6.08000e-07;0.010680979479716319
6.08250e-07;0.010701975593360346
6.08500e-07;0.010723743617640304
6.08750e-07;0.010745511641920252
6.09000e-07;0.01076727966620021
6.09250e-07;0.010789047690480169
6.09500e-07;0.010810815714760127
6.09750e-07;0.010832583739040086
6.10000e-07;0.010854351763320044
6.10250e-07;0.010876119787599992
6.10500e-07;0.01089788781187995
6.10750e-07;0.01091751503565349
6.11000e-07;0.010933492477041508
6.11250e-07;0.010949469918429525
6.11500e-07;0.010965447359817537
6.11750e-07;0.010981424801205555
6.12000e-07;0.010997402242593574
6.12250e-07;0.01101337968398159
6.12500e-07;0.011029357125369609
6.12750e-07;0.011045334566757627
6.13000e-07;0.011061312008145639
6.13250e-07;0.011077289449533656
6.13500e-07;0.011093266890921674
6.13750e-07;0.011109244332309693
6.14000e-07;0.01112522177369771
6.14250e-07;0.011141199215085728
6.14500e-07;0.01115717665647374
6.14750e-07;0.011173154097861758
6.15000e-07;0.011186783138923477
6.15250e-07;0.01119640846729949
6.15500e-07;0.011206033795675504
6.15750e-07;0.011215659124051511
6.16000e-07;0.011225284452427525
6.16250e-07;0.011234909780803538
6.16500e-07;0.01124453510917955
6.16750e-07;0.011254160437555562
6.17000e-07;0.011263785765931575
6.17250e-07;0.011273411094307585
6.17500e-07;0.011283036422683596
6.17750e-07;0.01129266175105961
6.18000e-07;0.011302287079435622
6.18250e-07;0.011311912407811636
6.18500e-07;0.011321537736187643
6.18750e-07;0.011331163064563657
6.19000e-07;0.01134078839293967
6.19250e-07;0.011349751315545602
6.19500e-07;0.011357584923717757
6.19750e-07;0.011365418531889914
6.20000e-07;0.011373252140062066
6.20250e-07;0.011381085748234224
6.20500e-07;0.01138891935640638
6.20750e-07;0.011396376399938372
6.21000e-07;0.011403777027779022
6.21250e-07;0.011411177655619671
6.21500e-07;0.011418578283460318
6.21750e-07;0.011425978911300967
6.22000e-07;0.01143304680709958
6.22250e-07;0.011439547438670396
6.22500e-07;0.011446048070241212
6.22750e-07;0.011450710264493997
6.23000e-07;0.011452238165700694
6.23250e-07;0.011453766066907392
6.23500e-07;0.01145529396811409
6.23750e-07;0.011456821869320788
6.24000e-07;0.011458349770527485
6.24250e-07;0.011459877671734182
6.24500e-07;0.011458575709504967
6.24750e-07;0.011452449203516983
6.25000e-07;0.011446322697528998
6.25250e-07;0.011440196191541014
6.25500e-07;0.011434069685553027
6.25750e-07;0.011427943179565046
6.26000e-07;0.011421816673577062
6.26250e-07;0.011413055903152797
6.26500e-07;0.011399804059454913
6.26750e-07;0.011386552215757026
6.27000e-07;0.011373300372059148
6.27250e-07;0.011360048528361264
6.27500e-07;0.011346796684663377
6.27750e-07;0.011333544840965493
6.28000e-07;0.011320292997267608
6.28250e-07;0.011307041153569723
6.28500e-07;0.011291479738245633
6.28750e-07;0.011275572310401754
6.29000e-07;0.011259664882557875
6.29250e-07;0.011243757454713996
6.29500e-07;0.011227850026870118
6.29750e-07;0.011211942599026239
6.30000e-07;0.011196035171182367
6.30250e-07;0.011180127743338488
6.30500e-07;0.011165022268885485
6.30750e-07;0.011151284019146473
6.31000e-07;0.011137545769407462
6.31250e-07;0.011125381929646967
6.31500e-07;0.011115902251157023
6.31750e-07;0.011106422572667078
6.32000e-07;0.011096942894177134
6.32250e-07;0.011087463215687189
6.32500e-07;0.011077983537197245
6.32750e-07;0.011071890878714765
6.33000e-07;0.011066305652569107
6.33250e-07;0.01106072042642345
6.33500e-07;0.011055135200277792
6.33750e-07;0.011049549974132133
6.34000e-07;0.011045251249279884
6.34250e-07;0.011043145839379537
6.34500e-07;0.01104104042947919
6.34750e-07;0.011038935019578843
6.35000e-07;0.011036829609678495
6.35250e-07;0.011034724199778148
6.35500e-07;0.011032618789877801
6.35750e-07;0.011030513379977454
6.36000e-07;0.011028407970077108
6.36250e-07;0.011026302560176759
6.36500e-07;0.011024197150276412
6.36750e-07;0.011022091740376065
6.37000e-07;0.011020903409472283
6.37250e-07;0.011021278577249423
6.37500e-07;0.011021653745026564
6.37750e-07;0.011022028912803706
6.38000e-07;0.011022404080580845
6.38250e-07;0.011022779248357987
6.38500e-07;0.011023154416135128
6.38750e-07;0.011023529583912268
6.39000e-07;0.01102390475168941
6.39250e-07;0.011024279919466551
6.39500e-07;0.011024655087243691
6.39750e-07;0.011025030255020832
6.40000e-07;0.011025942178845427
6.40250e-07;0.011027769200906179
6.40500e-07;0.01102959622296693
6.40750e-07;0.011031423245027682
6.41000e-07;0.011033538113171079
6.41250e-07;0.011036143720904208
6.41500e-07;0.011038749328637338
6.41750e-07;0.011041354936370469
6.42000e-07;0.011044655454816876
6.42250e-07;0.011049140704336224
6.42500e-07;0.01105362595385557
6.42750e-07;0.011060982460103603
6.43000e-07;0.011073234080212869
6.43250e-07;0.011085485700322133
6.43500e-07;0.011097737320431398
6.43750e-07;0.011109988940540664
6.44000e-07;0.011122240560649923
6.44250e-07;0.011134492180759188
6.44500e-07;0.011156878454580037
6.44750e-07;0.011180783069303682
6.45000e-07;0.011204687684027327
6.45250e-07;0.011228592298750973
6.45500e-07;0.011252496913474607
6.45750e-07;0.011276401528198253
6.46000e-07;0.011304602982162326
6.46250e-07;0.01134012998006514
6.46500e-07;0.011375656977967953
6.46750e-07;0.01141118397587075
6.47000e-07;0.011446710973773564
6.47250e-07;0.011482237971676378
6.47500e-07;0.011517764969579191
6.47750e-07;0.011553291967482003
6.48000e-07;0.011588818965384816
6.48250e-07;0.011629267560653203
6.48500e-07;0.011670453493654106
6.48750e-07;0.011711639426655008
6.49000e-07;0.01175282535965591
6.49250e-07;0.011794011292656812
6.49500e-07;0.011835197225657713
6.49750e-07;0.0118763831586586
6.50000e-07;0.0119175690916595
6.50250e-07;0.011957890892302913
6.50500e-07;0.011996739461298705
6.50750e-07;0.0120355880302945
6.51000e-07;0.01207146701015858
6.51250e-07;0.012102283232389174
6.51500e-07;0.012133099454619767
6.51750e-07;0.012163915676850361
6.52000e-07;0.012194731899080956
6.52250e-07;0.01222554812131155
6.52500e-07;0.012256364343542131
6.52750e-07;0.012287180565772726
6.53000e-07;0.012306049551953128
6.53250e-07;0.0123231286420318
6.53500e-07;0.012340207732110472
6.53750e-07;0.012357286822189143
6.54000e-07;0.012374365912267806
6.54250e-07;0.012391445002346478
6.54500e-07;0.01240852409242515
6.54750e-07;0.012420273058743896
6.55000e-07;0.012422934867359535
6.55250e-07;0.012425596675975172
6.55500e-07;0.012428258484590811
6.55750e-07;0.01243092029320645
6.56000e-07;0.012433582101822091
6.56250e-07;0.01243624391043773
6.56500e-07;0.012438905719053369
6.56750e-07;0.012441567527669006
6.57000e-07;0.012444229336284645
6.57250e-07;0.012446891144900284
6.57500e-07;0.012440992831444288
6.57750e-07;0.012433812068301839
6.58000e-07;0.012426631305159393
6.58250e-07;0.012419450542016944
6.58500e-07;0.012412269778874493
6.58750e-07;0.012405089015732043
6.59000e-07;0.012397908252589594
6.59250e-07;0.012390727489447145
6.59500e-07;0.0123835467263047
6.59750e-07;0.01237636596316225
6.60000e-07;0.012368969585989853
6.60250e-07;0.01236120561534657
6.60500e-07;0.012353441644703289
6.60750e-07;0.012345677674060007
6.61000e-07;0.012337913703416728
6.61250e-07;0.012330149732773446
6.61500e-07;0.012323875204928197
6.61750e-07;0.012320139980522272
6.62000e-07;0.012316404756116348
6.62250e-07;0.012312669531710426
6.62500e-07;0.0123089343073045
6.62750e-07;0.012305199082898576
6.63000e-07;0.012304279080406957
6.63250e-07;0.012308158659811948
6.63500e-07;0.012312038239216937
6.63750e-07;0.012315917818621925
6.64000e-07;0.012319797398026916
6.64250e-07;0.012323676977431905
6.64500e-07;0.012327556556836894
6.64750e-07;0.012331436136241885
6.65000e-07;0.012335315715646875
6.65250e-07;0.012339195295051862
6.65500e-07;0.012343074874456853
6.65750e-07;0.012346954453861842
6.66000e-07;0.012350834033266832
6.66250e-07;0.012354713612671823
6.66500e-07;0.01235859319207681
6.66750e-07;0.0123624727714818
6.67000e-07;0.01236635235088679
6.67250e-07;0.01237023193029178
6.67500e-07;0.012376141065598823
6.67750e-07;0.012385510325919884
6.68000e-07;0.01239487958624094
6.68250e-07;0.012404248846562
6.68500e-07;0.012413618106883063
6.68750e-07;0.012422987367204123
6.69000e-07;0.012432356627525183
6.69250e-07;0.012441725887846245
6.69500e-07;0.012451095148167302
6.69750e-07;0.012460464408488362
6.70000e-07;0.012469833668809424
6.70250e-07;0.012479202929130484
6.70500e-07;0.012488572189451545
6.70750e-07;0.012497941449772601
6.71000e-07;0.012507310710093663
6.71250e-07;0.012516679970414724
6.71500e-07;0.012526049230735784
6.71750e-07;0.012535418491056846
6.72000e-07;0.01254516355521237
6.72250e-07;0.012555549315318514
6.72500e-07;0.01256593507542466
6.72750e-07;0.012576320835530806
6.73000e-07;0.012586706595636953
6.73250e-07;0.012597092355743099
6.73500e-07;0.01260747811584924
6.73750e-07;0.012617863875955386
6.74000e-07;0.012630063135244849
6.74250e-07;0.012645354171351495
6.74500e-07;0.01266064520745814
6.74750e-07;0.012675936243564787
6.75000e-07;0.012691227279671426
6.75250e-07;0.012706518315778072
6.75500e-07;0.012721809351884718
6.75750e-07;0.012737100387991364
6.76000e-07;0.012754416919970075
6.76250e-07;0.012775186655147434
6.76500e-07;0.012795956390324782
6.76750e-07;0.01281672612550214
6.77000e-07;0.012837495860679499
6.77250e-07;0.012858265595856856
6.77500e-07;0.012879035331034214
6.77750e-07;0.012899805066211564
6.78000e-07;0.012920574801388921
6.78250e-07;0.01294134453656628
6.78500e-07;0.012962114271743638
6.78750e-07;0.012982884006920995
6.79000e-07;0.013003608177945719
6.79250e-07;0.01302425466810236
6.79500e-07;0.013044901158259011
6.79750e-07;0.013065547648415662
6.80000e-07;0.013086194138572312
6.80250e-07;0.013106840628728963
6.80500e-07;0.013127487118885613
6.80750e-07;0.013148133609042255
6.81000e-07;0.013168780099198906
6.81250e-07;0.013189426589355556
6.81500e-07;0.013210073079512207
6.81750e-07;0.013230719569668857
6.82000e-07;0.013248176210481221
6.82250e-07;0.013260194579060669
6.82500e-07;0.013272212947640116
6.82750e-07;0.013284231316219563
6.83000e-07;0.01329624968479901
6.83250e-07;0.013308268053378458
6.83500e-07;0.013320286421957902
6.83750e-07;0.013332304790537349
6.84000e-07;0.013340340829222348
6.84250e-07;0.013341587520903793
6.84500e-07;0.013342834212585237
6.84750e-07;0.013344080904266682
6.85000e-07;0.013345327595948126
6.85250e-07;0.013346574287629571
6.85500e-07;0.013347820979311016
6.85750e-07;0.01334906767099246
6.86000e-07;0.013346521596922262
6.86250e-07;0.01333750935769909
6.86500e-07;0.013328497118475913
6.86750e-07;0.013319484879252736
6.87000e-07;0.01331047264002956
6.87250e-07;0.013301460400806382
6.87500e-07;0.013292448161583205
6.87750e-07;0.013283435922360032
6.88000e-07;0.013274423683136855
6.88250e-07;0.013265411443913678
6.88500e-07;0.013256399204690503
6.88750e-07;0.013246303755208992
6.89000e-07;0.013234361575166075
6.89250e-07;0.013222419395123162
6.89500e-07;0.013210477215080245
6.89750e-07;0.013198535035037328
6.90000e-07;0.01318659285499441
6.90250e-07;0.013174650674951494
6.90500e-07;0.013162708494908582
6.90750e-07;0.013150766314865664
6.91000e-07;0.013138824134822747
6.91250e-07;0.013126881954779832
6.91500e-07;0.013117599042014429
6.91750e-07;0.013112849829068218
6.92000e-07;0.01310810061612201
6.92250e-07;0.0131033514031758
6.92500e-07;0.013098602190229588
6.92750e-07;0.013093852977283379
6.93000e-07;0.013089103764337168
6.93250e-07;0.013088502151763442
6.93500e-07;0.01309497165055105
6.93750e-07;0.013101441149338656
6.94000e-07;0.013107910648126263
6.94250e-07;0.013114380146913872
6.94500e-07;0.013120849645701479
6.94750e-07;0.013127319144489084
6.95000e-07;0.01313875151898246
6.95250e-07;0.013158644941705275
6.95500e-07;0.013178538364428092
6.95750e-07;0.013198431787150909
6.96000e-07;0.013218325209873726
6.96250e-07;0.013238218632596534
6.96500e-07;0.013258112055319349
6.96750e-07;0.013278005478042166
6.97000e-07;0.013297898900764982
6.97250e-07;0.0133177923234878
6.97500e-07;0.013340969877197878
6.97750e-07;0.013369746440901893
6.98000e-07;0.013398523004605907
6.98250e-07;0.01342729956830992
6.98500e-07;0.013456076132013934
6.98750e-07;0.013484852695717947
6.99000e-07;0.01351362925942195
6.99250e-07;0.013542405823125964
6.99500e-07;0.013571182386829977
6.99750e-07;0.01359995895053399
7.00000e-07;0.013628251255845878
7.00250e-07;0.013655717964496834
7.00500e-07;0.013683184673147778
7.00750e-07;0.013710651381798732
7.01000e-07;0.013738118090449686
7.01250e-07;0.013765584799100642
7.01500e-07;0.013793051507751597
7.01750e-07;0.013814503966719448
7.02000e-07;0.01383505539033329
