Time(s);Current(A)
1.23000e-05;0.0007419827782523805
1.23003e-05;0.0007366848998943996
1.23005e-05;0.0007313870215364545
1.23008e-05;0.0007260891431784736
1.23010e-05;0.0007207912648204926
1.23013e-05;0.0007148799769706178
1.23015e-05;0.0007088094445780847
1.23018e-05;0.0007027389121855517
1.23020e-05;0.0006966683797930597
1.23023e-05;0.0006905978474005266
1.23025e-05;0.0006845273150079936
1.23028e-05;0.0006784567826155017
1.23030e-05;0.0006723862502229686
1.23033e-05;0.0006663157178304356
1.23035e-05;0.0006602451854379437
1.23038e-05;0.0006544017672905425
1.23040e-05;0.0006491039970324944
1.23042e-05;0.000643806226774482
1.23045e-05;0.0006385084565164338
1.23048e-05;0.0006337882207295242
1.23050e-05;0.0006304555265520253
1.23053e-05;0.0006271228323745039
1.23055e-05;0.0006237901381969824
1.23058e-05;0.0006219685777459452
1.23060e-05;0.0006247766837799648
1.23063e-05;0.0006313905688316994
1.23065e-05;0.000641380836985803
1.23068e-05;0.0006526831667684137
1.23070e-05;0.0006679503503317772
1.23073e-05;0.000686525944549139
1.23075e-05;0.0007083596963652935
1.23078e-05;0.0007318750849979684
1.23080e-05;0.0007611296932646696
1.23083e-05;0.0007944662975113134
1.23085e-05;0.0008297917067317461
1.23088e-05;0.0008698952717019414
1.23090e-05;0.0009116807643103965
1.23093e-05;0.0009575071318786212
1.23095e-05;0.0010050287878010796
1.23098e-05;0.0010566234181501573
1.23100e-05;0.001110185746051302
1.23103e-05;0.0011684755185717645
1.23105e-05;0.0012267652910918322
1.23108e-05;0.0012870235641651159
1.23110e-05;0.0013520112110889397
1.23113e-05;0.0014169988580123231
1.23115e-05;0.001481986504936147
1.23118e-05;0.0015469741518599708
1.23120e-05;0.0016119617987833542
1.23123e-05;0.001678307075087872
1.23125e-05;0.0017450047995900672
1.23127e-05;0.0018117025240918102
1.23130e-05;0.001878400248594005
1.23133e-05;0.0019450979730962002
1.23135e-05;0.0020083098352909508
1.23138e-05;0.002063146822498284
1.23140e-05;0.002117983809705617
1.23143e-05;0.0021728207969129503
1.23145e-05;0.002227657784119912
1.23148e-05;0.0022824947713272455
1.23150e-05;0.0023373317585345787
1.23153e-05;0.00239216874574154
1.23155e-05;0.002432542472089873
1.23158e-05;0.0024691614548420374
1.23160e-05;0.0025057804375939537
1.23163e-05;0.0025423994203461176
1.23165e-05;0.002579018403098282
1.23168e-05;0.002615637385850198
1.23170e-05;0.002652256368602362
1.23173e-05;0.0026848888741813873
1.23175e-05;0.002707943764515837
1.23178e-05;0.002730998654850443
1.23180e-05;0.0027540535451850492
1.23183e-05;0.0027771084355194993
1.23185e-05;0.0028001633258541055
1.23188e-05;0.0028232182161887116
1.23190e-05;0.0028462731065231617
1.23193e-05;0.002869327996857768
1.23195e-05;0.002892382887192374
1.23198e-05;0.002915437777526824
1.23200e-05;0.0029384926678614302
1.23203e-05;0.0029615475581960364
1.23205e-05;0.002984602448530486
1.23208e-05;0.003007657338865092
1.23210e-05;0.0030280013052000395
1.23212e-05;0.003041832206013088
1.23215e-05;0.0030556631068262307
1.23218e-05;0.003069494007639373
1.23220e-05;0.003083324908452422
1.23223e-05;0.003097155809265564
1.23225e-05;0.003110986710078707
1.23228e-05;0.003124817610891849
1.23230e-05;0.003138648511704898
1.23233e-05;0.0031524794125180403
1.23235e-05;0.003166310313331183
1.23238e-05;0.0031801412141442315
1.23240e-05;0.003193972114957374
1.23243e-05;0.0032078030157705164
1.23245e-05;0.0032216339165835653
1.23248e-05;0.003232506393617009
1.23250e-05;0.0032362711804592064
1.23253e-05;0.0032400359673013784
1.23255e-05;0.003243800754143576
1.23258e-05;0.0032475655409857735
1.23260e-05;0.0032513303278279455
1.23263e-05;0.003255095114670143
1.23265e-05;0.0032588599015123407
1.23268e-05;0.0032626246883545127
1.23270e-05;0.0032663894751967103
1.23273e-05;0.003270154262038908
1.23275e-05;0.00327391904888108
1.23278e-05;0.0032776838357232775
1.23280e-05;0.003281448622565475
1.23283e-05;0.003285213409407647
1.23285e-05;0.0032889781962498446
1.23288e-05;0.003292742983092042
1.23290e-05;0.0032893435045315542
1.23293e-05;0.0032840841425103733
1.23295e-05;0.003278824780489192
1.23297e-05;0.0032735654184680467
1.23300e-05;0.0032683060564468657
1.23303e-05;0.0032630466944256844
1.23305e-05;0.003257787332404539
1.23308e-05;0.003252527970383358
1.23310e-05;0.0032472686083621772
1.23313e-05;0.003242009246340996
1.23315e-05;0.0032367498843198506
1.23318e-05;0.0032314905222986696
1.23320e-05;0.0032262311602774883
1.23323e-05;0.003220971798256343
1.23325e-05;0.003215712436235162
1.23328e-05;0.0032104530742139807
1.23330e-05;0.003204885956429742
1.23333e-05;0.0031985794474080724
1.23335e-05;0.0031922729383864028
1.23338e-05;0.0031859664293647756
1.23340e-05;0.003179659920343106
1.23343e-05;0.0031733534113214364
1.23345e-05;0.0031670469022998097
1.23348e-05;0.00316074039327814
1.23350e-05;0.0031536175462383497
1.23353e-05;0.003144533425845612
1.23355e-05;0.0031354493054528126
1.23358e-05;0.003126365185060013
1.23360e-05;0.0031172810646672754
1.23363e-05;0.003108196944274476
1.23365e-05;0.0030991128238816766
1.23368e-05;0.003090028703488939
1.23370e-05;0.0030767788043221914
1.23373e-05;0.0030535205131372893
1.23375e-05;0.0030302622219525446
1.23378e-05;0.0030070039307676425
1.23380e-05;0.0029837456395827404
1.23382e-05;0.0029604873483979957
1.23385e-05;0.0029372290572130936
1.23388e-05;0.002913970766028191
1.23390e-05;0.002890712474843447
1.23393e-05;0.0028674541836585443
1.23395e-05;0.0028399682130422913
1.23398e-05;0.0028023251324650372
1.23400e-05;0.0027646820518880378
1.23403e-05;0.0027270389713107837
1.23405e-05;0.0026893958907335293
1.23408e-05;0.0026517528101565302
1.23410e-05;0.0026141097295792758
1.23413e-05;0.0025764666490020217
1.23415e-05;0.0025388235684250223
1.23418e-05;0.002501180487847768
1.23420e-05;0.0024630967411725705
1.23423e-05;0.002423954282718277
1.23425e-05;0.002384811824263718
1.23428e-05;0.0023456693658091598
1.23430e-05;0.002306526907354866
1.23433e-05;0.0022673844489003074
1.23435e-05;0.0022282419904457486
1.23438e-05;0.002189099531991455
1.23440e-05;0.0021499570735368963
1.23443e-05;0.002110814615082338
1.23445e-05;0.0020808907202105494
1.23448e-05;0.0020533600161247853
1.23450e-05;0.002025829312039021
1.23453e-05;0.0019982986079534436
1.23455e-05;0.0019707679038676795
1.23458e-05;0.0019432371997819154
1.23460e-05;0.0019157064956963378
1.23463e-05;0.0018881757916105737
1.23465e-05;0.0018606450875248096
1.23467e-05;0.0018346769460719338
1.23470e-05;0.0018124629020484907
1.23473e-05;0.0017902488580250476
1.23475e-05;0.0017680348140017548
1.23478e-05;0.0017458207699783117
1.23480e-05;0.0017236067259548686
1.23483e-05;0.0017013926819314255
1.23485e-05;0.001679178637908133
1.23488e-05;0.0016569645938846896
1.23490e-05;0.0016347505498612465
1.23493e-05;0.001612536505837954
1.23495e-05;0.0015903224618145108
1.23498e-05;0.0015681084177910677
1.23500e-05;0.0015458943737677749
1.23503e-05;0.0015243738784372041
1.23505e-05;0.0015030334322354646
1.23508e-05;0.0014816929860338697
1.23510e-05;0.0014603525398321302
1.23513e-05;0.001439012093630391
1.23515e-05;0.001417671647428796
1.23518e-05;0.0013963312012270565
1.23520e-05;0.001374990755025317
1.23523e-05;0.001353650308823722
1.23525e-05;0.0013323098626219826
1.23528e-05;0.001310969416420243
1.23530e-05;0.0012896289702186482
1.23533e-05;0.0012682885240169087
1.23535e-05;0.0012490216387769414
1.23538e-05;0.0012347365377650217
1.23540e-05;0.0012204514367530055
1.23543e-05;0.001206166335740989
1.23545e-05;0.0011918812347290696
1.23548e-05;0.0011775961337170532
1.23550e-05;0.0011633110327050368
1.23552e-05;0.0011490259316931173
1.23555e-05;0.0011347408306811011
1.23558e-05;0.0011204557296690847
1.23560e-05;0.001106170628657165
1.23563e-05;0.0010918855276451488
1.23565e-05;0.001080328544496912
1.23568e-05;0.0010753259355860882
1.23570e-05;0.0010703233266752981
1.23573e-05;0.0010653207177644744
1.23575e-05;0.0010603181088536505
1.23578e-05;0.0010553154999428606
1.23580e-05;0.0010503128910320366
1.23583e-05;0.0010453102821212127
1.23585e-05;0.0010403076732104228
1.23588e-05;0.0010353050642995989
1.23590e-05;0.0010303024553887752
1.23593e-05;0.001025299846477985
1.23595e-05;0.0010219620698250212
1.23598e-05;0.001022624096042318
1.23600e-05;0.0010232861222596102
1.23603e-05;0.0010239481484769072
1.23605e-05;0.001024610174694204
1.23608e-05;0.0010252722009114965
1.23610e-05;0.0010259342271287933
1.23613e-05;0.00102659625334609
1.23615e-05;0.0010272582795633825
1.23618e-05;0.0010279203057806793
1.23620e-05;0.0010285823319979763
1.23623e-05;0.0010306841879991811
1.23625e-05;0.001033159831884462
1.23628e-05;0.0010356354757697426
1.23630e-05;0.0010381111196550068
1.23633e-05;0.0010405867635402874
1.23635e-05;0.0010430624074255683
1.23637e-05;0.0010455380513108323
1.23640e-05;0.001048013695196113
1.23643e-05;0.0010504893390813938
1.23645e-05;0.0010529649829666577
1.23648e-05;0.0010556021728203757
1.23650e-05;0.0010586274810717568
1.23653e-05;0.0010616527893231376
1.23655e-05;0.001064678097574498
1.23658e-05;0.001067703405825879
1.23660e-05;0.0010729741970428369
1.23663e-05;0.001083639819582583
1.23665e-05;0.0010943054421224013
1.23668e-05;0.0011049710646622195
1.23670e-05;0.0011156366872019656
1.23673e-05;0.0011284948014743583
1.23675e-05;0.0011466204342521684
1.23678e-05;0.0011647460670298555
1.23680e-05;0.0011849688930850209
1.23683e-05;0.0012102302806244276
1.23685e-05;0.001235491668163663
1.23688e-05;0.0012624411932489917
1.23690e-05;0.0012934465127673392
1.23693e-05;0.0013244518322854768
1.23695e-05;0.0013570265426389404
1.23698e-05;0.001393371755359275
1.23700e-05;0.0014297169680793631
1.23703e-05;0.0014678789775765116
1.23705e-05;0.0015104058886609801
1.23708e-05;0.0015529327997451606
1.23710e-05;0.0015954597108296291
1.23713e-05;0.0016379866219140976
1.23715e-05;0.0016805135329982781
1.23718e-05;0.0017230404440827466
1.23720e-05;0.0017672266294092031
1.23723e-05;0.0018118435716312027
1.23725e-05;0.0018564605138535043
1.23728e-05;0.0019010774560758062
1.23730e-05;0.0019456943982978057
1.23733e-05;0.0019903113405201076
1.23735e-05;0.002033065265846551
1.23738e-05;0.0020713432445449635
1.23740e-05;0.0021096212232431166
1.23743e-05;0.0021478992019415295
1.23745e-05;0.002186177180639942
1.23748e-05;0.002224455159338095
1.23750e-05;0.0022578954869104206
1.23753e-05;0.0022797132316199967
1.23755e-05;0.0023015309763294244
1.23758e-05;0.0023233487210390005
1.23760e-05;0.0023451664657485765
1.23763e-05;0.0023669842104580047
1.23765e-05;0.002383461238596821
1.23768e-05;0.0023871070560355905
1.23770e-05;0.0023907528734743353
1.23773e-05;0.0023906370022277364
1.23775e-05;0.002381483575913301
1.23778e-05;0.0023723301495989285
1.23780e-05;0.0023593586721091958
1.23783e-05;0.002337214227201491
1.23785e-05;0.0023150697822939357
1.23788e-05;0.0022895263439462778
1.23790e-05;0.002255816735306998
1.23793e-05;0.002222107126667946
1.23795e-05;0.0021853671959460195
1.23798e-05;0.002141346837472957
1.23800e-05;0.002097326479000193
1.23803e-05;0.0020500990324384817
1.23805e-05;0.0019951664731907605
1.23808e-05;0.0019402339139434114
1.23810e-05;0.0018853013546956902
1.23813e-05;0.0018303687954479687
1.23815e-05;0.0017754362362006196
1.23818e-05;0.0017150912909579539
1.23820e-05;0.001653341259966248
1.23823e-05;0.001591591228974542
1.23825e-05;0.0015298411979832545
1.23828e-05;0.0014680911669915486
1.23830e-05;0.0014070164387107666
1.23833e-05;0.001347564142786943
1.23835e-05;0.0012881118468627164
1.23838e-05;0.00122865955093849
1.23840e-05;0.0011692072550146665
1.23843e-05;0.0011177048361157432
1.23845e-05;0.00106826624986414
1.23848e-05;0.0010188276636128718
1.23850e-05;0.0009693890773612685
1.23853e-05;0.0009230634599292771
1.23855e-05;0.0008842168311891104
1.23858e-05;0.0008464205924906887
1.23860e-05;0.0008111479432341762
1.23863e-05;0.0007768550313236808
1.23865e-05;0.000744915963911513
1.23868e-05;0.0007142455229688109
1.23870e-05;0.0006866229901710207
1.23873e-05;0.0006602979094582435
1.23875e-05;0.0006370899911830959
1.23878e-05;0.0006146007117609101
1.23880e-05;0.0005938379809054153
1.23883e-05;0.0005737386412314452
1.23885e-05;0.0005552331161548087
1.23888e-05;0.0005375609935173881
1.23890e-05;0.0005218911419535172
1.23893e-05;0.0005071862414205697
1.23895e-05;0.0004947996608794606
1.23898e-05;0.0004824130803383516
1.23900e-05;0.0004706809781326262
1.23903e-05;0.00046052127717891413
1.23905e-05;0.00045036157622520203
1.23908e-05;0.0004409658139643252
1.23910e-05;0.00043340543431641615
1.23913e-05;0.0004258450546684559
1.23915e-05;0.0004188669809708402
1.23918e-05;0.00041328791249019763
1.23920e-05;0.00040770884400951723
1.23923e-05;0.0004026743116540474
1.23925e-05;0.000398948041526652
1.23928e-05;0.0003952217713992314
1.23930e-05;0.0003914955012718108
1.23933e-05;0.0003877692311444154
1.23935e-05;0.0003840429610169948
1.23938e-05;0.00038075998523660345
1.23940e-05;0.0003785420356745333
1.23943e-05;0.00037632408611244816
1.23945e-05;0.00037410613655036295
1.23948e-05;0.0003718881869882928
1.23950e-05;0.00036967023742620766
1.23953e-05;0.00036728264583651374
1.23955e-05;0.00036448748485563755
1.23958e-05;0.0003616923238747424
1.23960e-05;0.00035889716289384723
1.23963e-05;0.000356102001912971
1.23965e-05;0.00035330684093207583
1.23968e-05;0.0003497373743011285
1.23970e-05;0.00034430761817200476
1.23973e-05;0.00033887786204284424
1.23975e-05;0.0003334481059136837
1.23978e-05;0.00032801834978456
1.23980e-05;0.0003225885936553995
1.23983e-05;0.00031644354598056324
1.23985e-05;0.0003085799917307885
1.23988e-05;0.00030071643748096045
1.23990e-05;0.0002924756810885248
1.23993e-05;0.00028332868672066206
1.23995e-05;0.0002741816923528613
1.23998e-05;0.0002646391141663601
1.24000e-05;0.0002541461355488112
1.24003e-05;0.00024365315693133336
1.24005e-05;0.0002328762231890356
1.24008e-05;0.00022141707986117606
1.24010e-05;0.00020995793653339417
1.24013e-05;0.0001983322304722215
1.24015e-05;0.0001863063531045164
1.24018e-05;0.00017428047573689277
1.24020e-05;0.00016225459836918766
1.24023e-05;0.00015021491229126648
1.24025e-05;0.00013814205042734959
1.24028e-05;0.0001260691885633509
1.24030e-05;0.00011399632669935219
1.24033e-05;0.00010210606057009844
1.24035e-05;9.065448545081726e-05
1.24038e-05;7.933840890194986e-05
1.24040e-05;6.846003876935093e-05
1.24043e-05;5.798613736330925e-05
1.24045e-05;4.799433337526502e-05
1.24048e-05;3.856224501308914e-05
1.24050e-05;2.9767477105968165e-05
1.24053e-05;2.1690162390064778e-05
1.24055e-05;1.4417763418209118e-05
1.24058e-05;8.031920670283033e-06
1.24060e-05;2.581710400568365e-06
1.24063e-05;-1.9148180027551262e-06
1.24065e-05;-5.44869249260893e-06
1.24068e-05;-8.010953112544791e-06
1.24070e-05;-9.592647959622343e-06
1.24073e-05;-1.018324639374398e-05
1.24075e-05;-9.767631806714715e-06
1.24078e-05;-8.334332427486697e-06
1.24080e-05;-5.892280435360815e-06
1.24083e-05;-2.4698417204909168e-06
1.24085e-05;1.898932176398281e-06
1.24088e-05;7.179983990334093e-06
1.24090e-05;1.3339252121627868e-05
1.24093e-05;2.034366581109781e-05
1.24095e-05;2.8163027328197747e-05
1.24098e-05;3.676485637840456e-05
1.24100e-05;4.6103893176717356e-05
1.24103e-05;5.612271054422467e-05
1.24105e-05;6.676032333430302e-05
1.24108e-05;7.795573890222427e-05
1.24110e-05;8.970600396762253e-05
1.24113e-05;0.00010191608311626712
1.24115e-05;0.00011435584803579645
1.24118e-05;0.00012734743900435203
1.24120e-05;0.00014033902997299567
1.24123e-05;0.0001534265309787553
1.24125e-05;0.00016674445834758162
1.24128e-05;0.00018006238571649822
1.24130e-05;0.0001933803130854148
1.24133e-05;0.00020647308630681663
1.24135e-05;0.00021902492082257822
1.24138e-05;0.0002315767553383398
1.24140e-05;0.00024412858985401633
1.24143e-05;0.00025617335798134937
1.24145e-05;0.0002669998858984861
1.24148e-05;0.0002778264138155495
1.24150e-05;0.0002880960114483924
1.24153e-05;0.0002970275695619376
1.24155e-05;0.0003053946374386052
1.24158e-05;0.0003124055028130735
1.24160e-05;0.00031880245527779997
1.24163e-05;0.0003237244659808123
1.24165e-05;0.00032801681660534854
1.24168e-05;0.00033079639248504355
1.24170e-05;0.00033293163031695495
1.24173e-05;0.00033351882920024806
1.24175e-05;0.0003334489109645691
1.24178e-05;0.0003318002517287657
1.24180e-05;0.00032951431543800736
1.24183e-05;0.0003256973044178481
1.24185e-05;0.00032128396667961825
1.24188e-05;0.00031543793846347464
1.24190e-05;0.00030903719249296256
1.24193e-05;0.0003013037226639993
1.24195e-05;0.00029305832016383973
1.24198e-05;0.00028358298608204094
1.24200e-05;0.0002736589560581253
1.24203e-05;0.0002626569223421322
1.24205e-05;0.0002512055910810974
1.24208e-05;0.00023867481076135202
1.24210e-05;0.0002261440304416916
1.24213e-05;0.0002132281530111748
1.24215e-05;0.0001993870697378832
1.24218e-05;0.0001855459864646854
1.24220e-05;0.0001715123385471073
1.24223e-05;0.00015701604905412342
1.24225e-05;0.00014251975956123774
1.24228e-05;0.00012802347006825383
1.24230e-05;0.00011374097916381605
1.24233e-05;9.951399157183477e-05
1.24235e-05;8.528700397975709e-05
1.24238e-05;7.126042773358739e-05
1.24240e-05;5.7853532574885136e-05
1.24243e-05;4.494499989153877e-05
1.24245e-05;3.263069663196518e-05
1.24248e-05;2.1006478087515152e-05
1.24250e-05;1.0168172636286739e-05
1.24253e-05;2.0519355387379747e-07
1.24255e-05;-8.824061783788264e-06
1.24258e-05;-1.6906917461941678e-05
1.24260e-05;-2.404530393790839e-05
1.24263e-05;-3.0225198435867587e-05
1.24265e-05;-3.542314851021859e-05
1.24268e-05;-3.9615710380025386e-05
1.24270e-05;-4.277945823895551e-05
1.24273e-05;-4.489499226030786e-05
1.24275e-05;-4.596233983705442e-05
1.24278e-05;-4.6010167224695444e-05
1.24280e-05;-4.507629332724269e-05
1.24283e-05;-4.318854452081243e-05
1.24285e-05;-4.036883405979419e-05
1.24288e-05;-3.663908483487311e-05
1.24290e-05;-3.202122218775667e-05
1.24293e-05;-2.653970420536909e-05
1.24295e-05;-2.023115039730937e-05
1.24298e-05;-1.31501211122923e-05
1.24300e-05;-5.356902436225464e-06
1.24303e-05;3.094482593437812e-06
1.24305e-05;1.2153714022388643e-05
1.24308e-05;2.177047311286622e-05
1.24310e-05;3.189443821453937e-05
1.24313e-05;4.247370680983262e-05
1.24315e-05;5.348868297427409e-05
1.24318e-05;6.484476478777097e-05
1.24320e-05;7.6335876709602e-05
1.24323e-05;8.8151401984991e-05
1.24325e-05;9.996692726029993e-05
1.24328e-05;0.00011178245253568893
1.24330e-05;0.00012348669837219847
1.24333e-05;0.00013516205544241775
1.24335e-05;0.00014683741251255794
1.24338e-05;0.00015823341160832265
1.24340e-05;0.00016895824589120516
1.24343e-05;0.000179683080174015
1.24345e-05;0.00019011773374067185
1.24348e-05;0.0001996713567702801
1.24350e-05;0.0002085763478572468
1.24353e-05;0.00021695450334201496
1.24355e-05;0.00022577305101826749
1.24358e-05;0.0002368255495019848
1.24360e-05;0.0002513934843029018
1.24363e-05;0.00026963475516560153
1.24365e-05;0.00029127712485982967
1.24368e-05;0.00031604835615579803
1.24370e-05;0.0003436763743415824
1.24373e-05;0.0003740148652040841
1.24375e-05;0.00040744705755251957
1.24378e-05;0.00044487372772954414
1.24380e-05;0.0004868748087152695
1.24383e-05;0.0005333263912659298
1.24385e-05;0.0005838350925691113
1.24388e-05;0.0006380076582242544
1.24390e-05;0.0006958723225631285
1.24393e-05;0.0007568628626410383
1.24395e-05;0.0008197413693518855
1.24398e-05;0.0008871557650958665
1.24400e-05;0.0009564707012580996
1.24403e-05;0.0010303517352984225
1.24405e-05;0.0011058480901264816
1.24408e-05;0.0011852252952375677
1.24410e-05;0.0012646025003481163
1.24413e-05;0.001345321217111392
1.24415e-05;0.0014292629505759907
1.24417e-05;0.0015132046840400206
1.24420e-05;0.0015971464175046192
1.24423e-05;0.0016810881509692179
1.24425e-05;0.001764538935442535
1.24428e-05;0.0018468102021706172
1.24430e-05;0.001929081468899257
1.24433e-05;0.0020113527356278964
1.24435e-05;0.0020936240023559784
1.24438e-05;0.002173415611497272
1.24440e-05;0.0022472497786697834
1.24443e-05;0.0023210839458417945
1.24445e-05;0.002391591403161656
1.24448e-05;0.0024541063533725055
1.24450e-05;0.0025166213035829315
1.24453e-05;0.0025752245236507747
1.24455e-05;0.0026244297101171506
1.24458e-05;0.0026736348965831934
1.24460e-05;0.0027200106906250213
1.24463e-05;0.002759588795637597
1.24465e-05;0.0027991669006499045
