Time(s);Current(A)
1.50000e-06;0.011389047555437574
1.50025e-06;0.011382591523870049
1.50050e-06;0.011376135492302528
1.50075e-06;0.011369679460735006
1.50100e-06;0.011363223429167481
1.50125e-06;0.01135676739759996
1.50150e-06;0.011350311366032434
1.50175e-06;0.011347435337365673
1.50200e-06;0.011347233455287575
1.50225e-06;0.011347031573209479
1.50250e-06;0.01134682969113138
1.50275e-06;0.011346627809053282
1.50300e-06;0.011346425926975186
1.50325e-06;0.011347056773916429
1.50350e-06;0.011358353430185722
1.50375e-06;0.011369650086455015
1.50400e-06;0.011380946742724317
1.50425e-06;0.01139224339899361
1.50450e-06;0.011403540055262913
1.50475e-06;0.011414836711532206
1.50500e-06;0.011434492834609173
1.50525e-06;0.011460393209511118
1.50550e-06;0.011486293584413042
1.50575e-06;0.011512193959314987
1.50600e-06;0.01153809433421691
1.50625e-06;0.011563994709118855
1.50650e-06;0.01158989508402078
1.50675e-06;0.011615795458922702
1.50700e-06;0.011641695833824647
1.50725e-06;0.011668321964429414
1.50750e-06;0.011704243762370049
1.50775e-06;0.011740165560310652
1.50800e-06;0.011776087358251256
1.50825e-06;0.011812009156191891
1.50850e-06;0.011847930954132495
1.50875e-06;0.01188385275207313
1.50900e-06;0.011919774550013734
1.50925e-06;0.011955696347954337
1.50950e-06;0.011991618145894972
1.50975e-06;0.012026294637070872
1.51000e-06;0.012060040924297575
1.51025e-06;0.012093787211524251
1.51050e-06;0.012127533498750955
1.51075e-06;0.012161279785977629
1.51100e-06;0.012195026073204305
1.51125e-06;0.012228772360431009
1.51150e-06;0.012261617243985543
1.51175e-06;0.01228291671544336
1.51200e-06;0.012304216186901161
1.51225e-06;0.012325515658358962
1.51250e-06;0.012346815129816781
1.51275e-06;0.012368114601274582
1.51300e-06;0.0123894140727324
1.51325e-06;0.0124107135441902
1.51350e-06;0.01242168068312393
1.51375e-06;0.012424929903235724
1.51400e-06;0.012428179123347514
1.51425e-06;0.012431428343459307
1.51450e-06;0.012434677563571098
1.51475e-06;0.012437926783682891
1.51500e-06;0.012441176003794682
1.51525e-06;0.012444425223906474
1.51550e-06;0.012446481873938731
1.51575e-06;0.012433263776988257
1.51600e-06;0.012420045680037769
1.51625e-06;0.012406827583087294
1.51650e-06;0.012393609486136818
1.51675e-06;0.012380391389186332
1.51700e-06;0.012367173292235856
1.51725e-06;0.01235395519528537
1.51750e-06;0.012340737098334893
1.51775e-06;0.012322488899456951
1.51800e-06;0.012300483376833274
1.51825e-06;0.012278477854209616
1.51850e-06;0.01225647233158594
1.51875e-06;0.012234466808962282
1.51900e-06;0.012212461286338605
1.51925e-06;0.012190455763714947
1.51950e-06;0.012168450241091288
1.51975e-06;0.01214721779179719
1.52000e-06;0.012126562803322046
1.52025e-06;0.012105907814846885
1.52050e-06;0.012085252826371741
1.52075e-06;0.012064597837896597
1.52100e-06;0.012043942849421436
1.52125e-06;0.012023287860946292
1.52150e-06;0.01200263287247113
1.52175e-06;0.011986116823931461
1.52200e-06;0.011972692429900095
1.52225e-06;0.011959268035868718
1.52250e-06;0.011953577351653201
1.52275e-06;0.011953663498991353
1.52300e-06;0.011953749646329505
1.52325e-06;0.011953835793667657
1.52350e-06;0.011953921941005809
1.52375e-06;0.011954008088343961
1.52400e-06;0.011965538910723236
1.52425e-06;0.011985618535872803
1.52450e-06;0.012005698161022389
1.52475e-06;0.012025777786171955
1.52500e-06;0.012045857411321524
1.52525e-06;0.012065937036471108
1.52550e-06;0.012098481867517098
1.52575e-06;0.012140337804934946
1.52600e-06;0.01218219374235276
1.52625e-06;0.012224049679770574
1.52650e-06;0.012265905617188422
1.52675e-06;0.012307761554606236
1.52700e-06;0.012349617492024085
1.52725e-06;0.012391473429441899
1.52750e-06;0.012434352161503234
1.52775e-06;0.012490331112711969
1.52800e-06;0.012546310063920702
1.52825e-06;0.012602289015129484
1.52850e-06;0.012658267966338219
1.52875e-06;0.012714246917547
1.52900e-06;0.012770225868755735
1.52925e-06;0.01282620481996447
1.52950e-06;0.012882183771173252
1.52975e-06;0.012938153868606903
1.53000e-06;0.012994117352556452
1.53025e-06;0.013050080836505953
1.53050e-06;0.013104185194937713
1.53075e-06;0.013156900846628718
1.53100e-06;0.013206525537771439
1.53125e-06;0.013253841381174818
1.53150e-06;0.013301157224578157
1.53175e-06;0.013343091342087337
1.53200e-06;0.013381005484099933
1.53225e-06;0.01341891962611253
1.53250e-06;0.013445597360633674
1.53275e-06;0.013463881861520671
1.53300e-06;0.013482166362407682
1.53325e-06;0.01350045086329468
1.53350e-06;0.013518735364181677
1.53375e-06;0.013537019865068688
1.53400e-06;0.013539245196373817
1.53425e-06;0.013529474846463947
1.53450e-06;0.013519704496554085
1.53475e-06;0.013509934146644224
1.53500e-06;0.013500163796734353
1.53525e-06;0.013490393446824492
1.53550e-06;0.013465518703369051
1.53575e-06;0.013429361465573372
1.53600e-06;0.01339320422777766
1.53625e-06;0.01335704698998198
1.53650e-06;0.013320889752186298
1.53675e-06;0.013284732514390588
1.53700e-06;0.013247219036079871
1.53725e-06;0.013192334477392978
1.53750e-06;0.01313744991870613
1.53775e-06;0.013082565360019283
1.53800e-06;0.01302768080133239
1.53825e-06;0.012972796242645543
1.53850e-06;0.012917911683958649
1.53875e-06;0.012859501866189704
1.53900e-06;0.01279845879369782
1.53925e-06;0.012737156364133317
1.53950e-06;0.012675660203208882
1.53975e-06;0.012614769919597806
1.54000e-06;0.012554332206779421
1.54025e-06;0.012495341349243566
1.54050e-06;0.01243743124589264
1.54075e-06;0.012381867884234357
1.54100e-06;0.012328057462856892
1.54125e-06;0.012278604755636429
1.54150e-06;0.012232407120204304
1.54175e-06;0.01218620948477222
1.54200e-06;0.012150713409821304
1.54225e-06;0.01212321105505464
1.54250e-06;0.012095708700287998
1.54275e-06;0.012068206345521333
1.54300e-06;0.012040703990754692
1.54325e-06;0.01201320163598805
1.54350e-06;0.011985699281221385
1.54375e-06;0.011973110852987525
1.54400e-06;0.011971662646383996
1.54425e-06;0.011970214439780469
1.54450e-06;0.011968766233176942
1.54475e-06;0.011967318026573415
1.54500e-06;0.011965869819969888
1.54525e-06;0.011964421613366359
1.54550e-06;0.011977914453264418
1.54575e-06;0.012002567772533857
1.54600e-06;0.012027221091803276
1.54625e-06;0.012051874411072694
1.54650e-06;0.012076527730342134
1.54675e-06;0.012101181049611553
1.54700e-06;0.012125834368880992
1.54725e-06;0.012150487688150411
1.54750e-06;0.01217514100741983
1.54775e-06;0.01219979432668927
1.54800e-06;0.012232785402750756
1.54825e-06;0.012272004513954937
1.54850e-06;0.012311223625159084
1.54875e-06;0.012350442736363232
1.54900e-06;0.012389661847567412
1.54925e-06;0.01242888095877156
1.54950e-06;0.01246810006997574
1.54975e-06;0.012507319181179888
1.55000e-06;0.012546538292384068
1.55025e-06;0.012585757403588214
1.55050e-06;0.012623101725121036
1.55075e-06;0.012659045639296228
1.55100e-06;0.01269498955347139
1.55125e-06;0.012730933467646584
1.55150e-06;0.012766877381821747
1.55175e-06;0.012795440059869373
1.55200e-06;0.012821170358729745
1.55225e-06;0.012846900657590097
1.55250e-06;0.012872630956450469
1.55275e-06;0.01289836125531082
1.55300e-06;0.012916128679738558
1.55325e-06;0.008182313905599141
1.55350e-06;-0.0028703166758205527
1.55375e-06;-0.0015627104006994247
1.55400e-06;0.0008672486955088345
1.55425e-06;0.0057461095104294
1.55450e-06;0.014240035525229271
1.55475e-06;0.015244634851527678
1.55500e-06;0.0145116853121406
1.55525e-06;0.011380418559258993
1.55550e-06;0.004737900075045317
1.55575e-06;0.004151706157931734
1.55600e-06;0.006560121620425254
1.55625e-06;0.00949568942532757
1.55650e-06;0.01326565767487759
1.55675e-06;0.01538154319536487
1.55700e-06;0.01504378136303996
1.55725e-06;0.013017614896249278
1.55750e-06;0.010183562083338923
1.55775e-06;0.00868958113357764
1.55800e-06;0.009364554310540223
1.55825e-06;0.011241497434990226
1.55850e-06;0.013508338801068885
1.55875e-06;0.014791681968410634
1.55900e-06;0.01454256720110243
1.55925e-06;0.013239906929630833
1.55950e-06;0.011434877030905623
1.55975e-06;0.01047257313313916
1.56000e-06;0.010871807968489211
1.56025e-06;0.01202653210732427
1.56050e-06;0.01342783337468575
1.56075e-06;0.01421529077501766
1.56100e-06;0.014045001396912338
1.56125e-06;0.013216952050543587
1.56150e-06;0.01207638965418831
1.56175e-06;0.011465838955590918
1.56200e-06;0.01171025338790985
1.56225e-06;0.012430113979668606
1.56250e-06;0.013306832347153822
1.56275e-06;0.01380151989560449
1.56300e-06;0.013698688770215154
1.56325e-06;0.013186132671795726
1.56350e-06;0.012479985680933389
1.56375e-06;0.012107847185792277
1.56400e-06;0.012273080129674194
1.56425e-06;0.012737773349049105
1.56450e-06;0.013302205735731756
1.56475e-06;0.01362868672417514
1.56500e-06;0.013582128921913359
1.56525e-06;0.013280061746649844
1.56550e-06;0.012857756573490801
1.56575e-06;0.012645566923691886
1.56600e-06;0.012770725206993868
1.56625e-06;0.013084051998933598
1.56650e-06;0.013460303639516454
1.56675e-06;0.013687828974476993
1.56700e-06;0.013681900541567971
1.56725e-06;0.013516030885125074
1.56750e-06;0.013274839883971537
1.56775e-06;0.013165133039965343
1.56800e-06;0.013266468358480651
1.56825e-06;0.01348526050163014
1.56850e-06;0.013742926338694908
1.56875e-06;0.013906766442576927
1.56900e-06;0.013923594500219565
1.56925e-06;0.013839346272741448
1.56950e-06;0.01370691088759862
1.56975e-06;0.013655706115851977
1.57000e-06;0.013735433950308722
1.57025e-06;0.013887340731305679
1.57050e-06;0.014062073322625485
1.57075e-06;0.014176387344480193
1.57100e-06;0.014196851092076485
1.57125e-06;0.014152122860684414
1.57150e-06;0.01407521385055121
1.57175e-06;0.014047067223962042
1.57200e-06;0.014098638922344009
1.57225e-06;0.01419282482166986
1.57250e-06;0.014298393591968987
1.57275e-06;0.014363090667823661
1.57300e-06;0.01436608151261204
1.57325e-06;0.0143254899001258
1.57350e-06;0.014262163949262672
1.57375e-06;0.01422697292345477
1.57400e-06;0.014239471491216921
1.57425e-06;0.014276581968065678
1.57450e-06;0.014318905471646815
1.57475e-06;0.014333879136357903
1.57500e-06;0.014308622729109627
1.57525e-06;0.014254658703741747
1.57550e-06;0.014185215513540244
1.57575e-06;0.014132325017192013
1.57600e-06;0.014108401754311476
1.57625e-06;0.014099153966803266
1.57650e-06;0.014092597888316434
1.57675e-06;0.014068503985778092
1.57700e-06;0.014018972850151716
1.57725e-06;0.01395139163138751
1.57750e-06;0.0138742149229932
1.57775e-06;0.013807674509879178
1.57800e-06;0.013759713186678027
1.57825e-06;0.013721545635475884
1.57850e-06;0.013685830518489896
1.57875e-06;0.013640063954894937
1.57900e-06;0.01357946645260939
1.57925e-06;0.01350883356509584
1.57950e-06;0.013433630238368402
1.57975e-06;0.013366696190450127
1.58000e-06;0.013313172464844288
1.58025e-06;0.013267723074529768
1.58050e-06;0.013225917236648265
1.58075e-06;0.013180088432735618
1.58100e-06;0.013127411189046118
1.58125e-06;0.01307105798811205
1.58150e-06;0.01301461832054422
1.58175e-06;0.012966303277263095
1.58200e-06;0.012929326092936054
1.58225e-06;0.012900214414161523
1.58250e-06;0.012874315730345328
1.58275e-06;0.012846153009455978
1.58300e-06;0.012814572203069403
1.58325e-06;0.012783288049356318
1.58350e-06;0.012753439471280725
1.58375e-06;0.012723590893205156
1.58400e-06;0.012700187831265293
1.58425e-06;0.012684926475396529
1.58450e-06;0.012671513257236058
1.58475e-06;0.012658100039075576
1.58500e-06;0.012643230663751425
1.58525e-06;0.012628084734188952
1.58550e-06;0.012614031697419722
1.58575e-06;0.01259997866065049
1.58600e-06;0.012590120442631624
1.58625e-06;0.012585611258327599
1.58650e-06;0.01258235349196159
1.58675e-06;0.012579095725595586
1.58700e-06;0.012574980272556737
1.58725e-06;0.012571384689204821
1.58750e-06;0.012569092704348693
1.58775e-06;0.012566800719492562
1.58800e-06;0.012564508734636434
1.58825e-06;0.012564707944935383
1.58850e-06;0.012567314849867816
1.58875e-06;0.012569921754800248
1.58900e-06;0.01257252375460712
1.58925e-06;0.01257455510218844
1.58950e-06;0.012576586449769759
1.58975e-06;0.012578617797351076
1.59000e-06;0.012582162697709738
1.59025e-06;0.012587170419193449
1.59050e-06;0.012591573166101837
1.59075e-06;0.012595391216128734
1.59100e-06;0.012599209266155629
1.59125e-06;0.012603027316182522
1.59150e-06;0.012606845366209419
1.59175e-06;0.012610266256631752
1.59200e-06;0.012613303299547577
1.59225e-06;0.012616340342463398
1.59250e-06;0.01261937738537922
1.59275e-06;0.012622414428295042
1.59300e-06;0.012623249999354422
1.59325e-06;0.012621957888058777
1.59350e-06;0.012620665776763136
1.59375e-06;0.012619373665467492
1.59400e-06;0.01261808155417185
1.59425e-06;0.012616789442876208
1.59450e-06;0.012615497331580563
1.59475e-06;0.012614205220284922
1.59500e-06;0.012612913108989278
1.59525e-06;0.012611620997693637
1.59550e-06;0.012610328886397994
1.59575e-06;0.012609036775102351
1.59600e-06;0.012607744663806708
1.59625e-06;0.012606452552511065
1.59650e-06;0.012605160441215423
1.59675e-06;0.01260386832991978
1.59700e-06;0.012602548133328834
1.59725e-06;0.012597960551213863
1.59750e-06;0.012593372969098888
1.59775e-06;0.012588785386983917
1.59800e-06;0.012584197804868942
1.59825e-06;0.012579610222753971
1.59850e-06;0.012575022640639
1.59875e-06;0.012570435058524025
1.59900e-06;0.012565847476409054
1.59925e-06;0.01256125989429408
1.59950e-06;0.012556672312179109
1.59975e-06;0.012552084730064137
1.60000e-06;0.012547497147949163
1.60025e-06;0.012542909565834192
1.60050e-06;0.012538321983719217
1.60075e-06;0.012533734401604246
1.60100e-06;0.012529146819489275
1.60125e-06;0.012526646270289496
1.60150e-06;0.012526162800297348
1.60175e-06;0.012525679330305198
1.60200e-06;0.01252519586031305
1.60225e-06;0.0125247123903209
1.60250e-06;0.01252422892032875
1.60275e-06;0.0125237454503366
1.60300e-06;0.01252326198034445
1.60325e-06;0.012522778510352302
1.60350e-06;0.012522295040360152
1.60375e-06;0.012521811570368004
1.60400e-06;0.012521328100375853
1.60425e-06;0.012520844630383705
1.60450e-06;0.012520361160391555
1.60475e-06;0.012519877690399406
1.60500e-06;0.012519394220407256
1.60525e-06;0.012518910750415108
1.60550e-06;0.012518427280422958
1.60575e-06;0.01251794381043081
1.60600e-06;0.01251746034043866
1.60625e-06;0.01251701032743729
1.60650e-06;0.01252045263196418
1.60675e-06;0.012523894936491068
1.60700e-06;0.012527337241017955
1.60725e-06;0.012530779545544844
1.60750e-06;0.012534221850071732
1.60775e-06;0.012537664154598623
1.60800e-06;0.01254110645912551
1.60825e-06;0.012544548763652397
1.60850e-06;0.012547991068179287
1.60875e-06;0.012551433372706174
1.60900e-06;0.012554875677233065
1.60925e-06;0.012558317981759952
1.60950e-06;0.01256176028628684
1.60975e-06;0.01256520259081373
1.61000e-06;0.012568644895340618
1.61025e-06;0.012572087199867507
1.61050e-06;0.012575529504394395
1.61075e-06;0.012578971808921285
1.61100e-06;0.012582414113448173
1.61125e-06;0.01258585641797506
1.61150e-06;0.01258942510396332
1.61175e-06;0.012593115935326521
1.61200e-06;0.012596806766689726
1.61225e-06;0.012602989672748026
1.61250e-06;0.012611581123498854
1.61275e-06;0.01262017257424969
1.61300e-06;0.012636316633739429
1.61325e-06;0.012659760151679833
1.61350e-06;0.01268320366962022
1.61375e-06;0.012706647187560604
1.61400e-06;0.012730090705501008
1.61425e-06;0.012753534223441393
1.61450e-06;0.012776977741381798
1.61475e-06;0.012811665296834553
1.61500e-06;0.012857220009249295
1.61525e-06;0.012902774721664076
1.61550e-06;0.012948329434078818
1.61575e-06;0.012993884146493597
1.61600e-06;0.013039438858908339
1.61625e-06;0.013084993571323119
1.61650e-06;0.013140835030071586
1.61675e-06;0.013206618441336006
1.61700e-06;0.01327240185260048
1.61725e-06;0.0133381852638649
1.61750e-06;0.013403968675129375
1.61775e-06;0.013469752086393795
1.61800e-06;0.013535535497658215
1.61825e-06;0.01360131890892269
1.61850e-06;0.01366710232018711
1.61875e-06;0.013732885731451584
1.61900e-06;0.013798868101397006
1.61925e-06;0.013865042761275021
1.61950e-06;0.013931217421153093
1.61975e-06;0.013997392081031108
1.62000e-06;0.014063566740909179
1.62025e-06;0.014129741400787195
1.62050e-06;0.014195916060665267
1.62075e-06;0.014262090720543283
1.62100e-06;0.014328265380421298
1.62125e-06;0.01439444004029937
1.62150e-06;0.014447647402778251
1.62175e-06;0.014488322109078381
1.62200e-06;0.014528996815378479
1.62225e-06;0.014569671521678576
1.62250e-06;0.014610346227978709
1.62275e-06;0.014651020934278806
1.62300e-06;0.014691695640578938
1.62325e-06;0.014732106944280706
1.62350e-06;0.01474187453126693
1.62375e-06;0.014751642118253163
1.62400e-06;0.014761409705239387
1.62425e-06;0.01477117729222562
1.62450e-06;0.014780944879211845
1.62475e-06;0.014790712466198076
1.62500e-06;0.0148004800531843
1.62525e-06;0.01479498952107814
1.62550e-06;0.014774752295452873
1.62575e-06;0.014754515069827622
1.62600e-06;0.014734277844202356
1.62625e-06;0.014714040618577106
1.62650e-06;0.014693803392951855
1.62675e-06;0.014673566167326587
1.62700e-06;0.014653328941701339
1.62725e-06;0.01463309171607607
1.62750e-06;0.014603353791140881
1.62775e-06;0.014564433613787129
1.62800e-06;0.014525513436433343
1.62825e-06;0.01448659325907959
1.62850e-06;0.014447673081725804
1.62875e-06;0.014408752904372052
1.62900e-06;0.014369832727018264
1.62925e-06;0.014330912549664511
1.62950e-06;0.014291992372310759
1.62975e-06;0.014251995021744186
1.63000e-06;0.014210956602934614
1.63025e-06;0.014169918184125005
1.63050e-06;0.01413056703849056
1.63075e-06;0.014092846611573484
1.63100e-06;0.014055126184656376
1.63125e-06;0.014023154513504978
1.63150e-06;0.013996738909839752
1.63175e-06;0.013970323306174549
1.63200e-06;0.013943907702509346
1.63225e-06;0.013917492098844119
1.63250e-06;0.013891076495178916
1.63275e-06;0.01386484713609201
1.63300e-06;0.013860285088280357
1.63325e-06;0.013855723040468696
1.63350e-06;0.013851160992657041
1.63375e-06;0.013846598944845388
1.63400e-06;0.013842036897033727
1.63425e-06;0.013837474849222072
1.63450e-06;0.013846234906770932
1.63475e-06;0.013867870535914196
1.63500e-06;0.01388950616505746
1.63525e-06;0.013911141794200742
1.63550e-06;0.013932777423344006
1.63575e-06;0.01395441305248729
1.63600e-06;0.013976048681630554
1.63625e-06;0.013997684310773818
1.63650e-06;0.014021488296267214
1.63675e-06;0.014064458008824192
1.63700e-06;0.014107427721381205
1.63725e-06;0.01415039743393818
1.63750e-06;0.014193367146495195
1.63775e-06;0.014236336859052172
1.63800e-06;0.01427930657160915
1.63825e-06;0.014322276284166163
1.63850e-06;0.01436524599672314
1.63875e-06;0.014406989187561954
1.63900e-06;0.014454666888590635
1.63925e-06;0.014502344589619317
1.63950e-06;0.014550022290648038
1.63975e-06;0.01459769999167672
1.64000e-06;0.014645377692705441
1.64025e-06;0.014693055393734123
1.64050e-06;0.014740733094762804
1.64075e-06;0.014788410795791527
1.64100e-06;0.014836088496820207
1.64125e-06;0.014865114012139144
1.64150e-06;0.014889322578313055
1.64175e-06;0.014913531144486987
1.64200e-06;0.0149377397106609
1.64225e-06;0.014961948276834811
1.64250e-06;0.014986156843008743
1.64275e-06;0.015010365409182654
1.64300e-06;0.015034573975356586
1.64325e-06;0.015058782541530499
1.64350e-06;0.015075769212339557
1.64375e-06;0.015062895612030834
1.64400e-06;0.015050022011722123
1.64425e-06;0.015037148411413402
1.64450e-06;0.015024274811104691
1.64475e-06;0.01501140121079598
1.64500e-06;0.014998527610487259
1.64525e-06;0.014964971925311378
1.64550e-06;0.014922329386947222
1.64575e-06;0.014879686848583103
1.64600e-06;0.014837044310218947
1.64625e-06;0.014794401771854827
1.64650e-06;0.014751759233490707
1.64675e-06;0.014705738349897182
1.64700e-06;0.014645749068898475
1.64725e-06;0.014585759787899716
1.64750e-06;0.014524312887417332
1.64775e-06;0.014456839187768156
1.64800e-06;0.014389365488118925
1.64825e-06;0.014320985741533647
1.64850e-06;0.014248859775183347
1.64875e-06;0.01417673380883311
1.64900e-06;0.014104358930482608
1.64925e-06;0.01403095487911908
1.64950e-06;0.013957550827755611
1.64975e-06;0.013884574225467105
1.65000e-06;0.013813364990971149
1.65025e-06;0.01374215575647519
1.65050e-06;0.013672102145970696
1.65075e-06;0.013606826678038472
1.65100e-06;0.013541551210106192
1.65125e-06;0.013478728808126896
1.65150e-06;0.013426049064095152
1.65175e-06;0.013373369320063453
1.65200e-06;0.013320689576031754
