Time(s);Current(A)
3.05000e-06;-0.00400660888653002
3.05025e-06;-0.004010230986287217
3.05050e-06;-0.004013853086044413
3.05075e-06;-0.0040107787916953686
3.05100e-06;-0.004006389033784009
3.05125e-06;-0.004001999275872644
3.05150e-06;-0.003997609517961278
3.05175e-06;-0.00399321976004992
3.05200e-06;-0.003988830002138555
3.05225e-06;-0.0039844402442271885
3.05250e-06;-0.003977837700841887
3.05275e-06;-0.0039668585539303376
3.05300e-06;-0.003955879407018788
3.05325e-06;-0.003944900260107239
3.05350e-06;-0.003933921113195709
3.05375e-06;-0.0039229419662841596
3.05400e-06;-0.00391196281937261
3.05425e-06;-0.0038978153078716707
3.05450e-06;-0.003883045391520648
3.05475e-06;-0.0038682754751696246
3.05500e-06;-0.0038535055588186018
3.05525e-06;-0.0038387356424676037
3.05550e-06;-0.003823965726116581
3.05575e-06;-0.003808870133027758
3.05600e-06;-0.00379313039346571
3.05625e-06;-0.003777390653903636
3.05650e-06;-0.0037618001993024006
3.05675e-06;-0.003746505011049302
3.05700e-06;-0.0037312098227961776
3.05725e-06;-0.0037163280350404025
3.05750e-06;-0.0037022639000104905
3.05775e-06;-0.0036881997649806024
3.05800e-06;-0.003674841084790068
3.05825e-06;-0.0036628777030476307
3.05850e-06;-0.0036509143213052132
3.05875e-06;-0.0036404524574983046
3.05900e-06;-0.003632960402002722
3.05925e-06;-0.0036254683465071396
3.05950e-06;-0.0036179762910115696
3.05975e-06;-0.003610484235515987
3.06000e-06;-0.0036029921800204046
3.06025e-06;-0.0035955001245248346
3.06050e-06;-0.003588008069029252
3.06075e-06;-0.0035856984797611857
3.06100e-06;-0.0035844069526587965
3.06125e-06;-0.003583115425556405
3.06150e-06;-0.003581823898454014
3.06175e-06;-0.0035805323713516226
3.06200e-06;-0.003579240844249233
3.06225e-06;-0.0035779493171468417
3.06250e-06;-0.0035783329172750606
3.06275e-06;-0.00358202970245043
3.06300e-06;-0.0035857264876258056
3.06325e-06;-0.003589423272801181
3.06350e-06;-0.0035931200579765563
3.06375e-06;-0.0035968168431519255
3.06400e-06;-0.0036005136283273013
3.06425e-06;-0.0036051717221235588
3.06450e-06;-0.0036117311600626467
3.06475e-06;-0.0036182905980017455
3.06500e-06;-0.0036248500359408447
3.06525e-06;-0.003631409473879932
3.06550e-06;-0.0036379689118190314
3.06575e-06;-0.00364452834975813
3.06600e-06;-0.003651317925416679
3.06625e-06;-0.0036584881976180956
3.06650e-06;-0.0036655111459328415
3.06675e-06;-0.003672534094247588
3.06700e-06;-0.003679557042562322
3.06725e-06;-0.0036865799908770685
3.06750e-06;-0.003693602939191815
3.06775e-06;-0.0036999414388959847
3.06800e-06;-0.0037049261877561764
3.06825e-06;-0.0037099109366163763
3.06850e-06;-0.0037148956854765767
3.06875e-06;-0.0037198804343367684
3.06900e-06;-0.003724865183196969
3.06925e-06;-0.0037285474937484115
3.06950e-06;-0.003729653749746625
3.06975e-06;-0.0037307600057448404
3.07000e-06;-0.0037301858807213886
3.07025e-06;-0.0037262881793313
3.07050e-06;-0.0037223904779412178
3.07075e-06;-0.0037184927765511293
3.07100e-06;-0.0037145950751610404
3.07125e-06;-0.0037106973737709584
3.07150e-06;-0.00370450669656097
3.07175e-06;-0.0036937808096895526
3.07200e-06;-0.0036830549228181356
3.07225e-06;-0.0036723290359467363
3.07250e-06;-0.0036616031490753187
3.07275e-06;-0.0036508772622039017
3.07300e-06;-0.0036383337323714527
3.07325e-06;-0.0036221951398058487
3.07350e-06;-0.0036060565472402447
3.07375e-06;-0.003589917954674668
3.07400e-06;-0.003573779362109064
3.07425e-06;-0.00355764076954346
3.07450e-06;-0.003538933179238332
3.07475e-06;-0.0035197209258466242
3.07500e-06;-0.0035005086724548846
3.07525e-06;-0.003481296419063145
3.07550e-06;-0.0034620841656714378
3.07575e-06;-0.003442617022803983
3.07600e-06;-0.0034226457415139286
3.07625e-06;-0.003402764844344744
3.07650e-06;-0.0033830627152787534
3.07675e-06;-0.0033635905340495945
3.07700e-06;-0.00334457315990659
3.07725e-06;-0.0033258025437959324
3.07750e-06;-0.003307863184806519
3.07775e-06;-0.0032906026342852048
3.07800e-06;-0.0032741237057292865
3.07825e-06;-0.003259190724347473
3.07850e-06;-0.003244257742965659
3.07875e-06;-0.0032301125733498748
3.07900e-06;-0.003217525593533539
3.07925e-06;-0.0032049386137171813
3.07950e-06;-0.0031924450933752506
3.07975e-06;-0.0031801364237882953
3.08000e-06;-0.003167827754201319
3.08025e-06;-0.003155799567286895
3.08050e-06;-0.003144326138828939
3.08075e-06;-0.0031328527103709636
3.08100e-06;-0.003121368719566058
3.08125e-06;-0.0031098638378047653
3.08150e-06;-0.0030983589560434925
3.08175e-06;-0.0030868540742821997
3.08200e-06;-0.0030753491925209074
3.08225e-06;-0.003063844310759634
3.08250e-06;-0.0030521136903563697
3.08275e-06;-0.0030403387250484424
3.08300e-06;-0.0030285637597405146
3.08325e-06;-0.0030167887944326072
3.08350e-06;-0.00300501382912468
3.08375e-06;-0.0029931486275403454
3.08400e-06;-0.002981104950269953
3.08425e-06;-0.0029690612729995408
3.08450e-06;-0.002957017595729128
3.08475e-06;-0.002944973918458736
3.08500e-06;-0.002933040328422
3.08525e-06;-0.0029213244766978525
3.08550e-06;-0.0029096086249737045
3.08575e-06;-0.002897892773249577
3.08600e-06;-0.0028861769215254287
3.08625e-06;-0.0028746631205322933
3.08650e-06;-0.002863548949757495
3.08675e-06;-0.0028526007698897035
3.08700e-06;-0.002842083479857288
3.08725e-06;-0.0028318680670293825
3.08750e-06;-0.0028219638370570637
3.08775e-06;-0.0028125060418680748
3.08800e-06;-0.0028034797798902234
3.08825e-06;-0.0027949192906388575
3.08850e-06;-0.0027872800396103593
3.08875e-06;-0.002779640788581861
3.08900e-06;-0.0027724673233110032
3.08925e-06;-0.002766215122036966
3.08950e-06;-0.0027599629207629285
3.08975e-06;-0.0027543780674952126
3.09000e-06;-0.0027501131422878093
3.09025e-06;-0.0027458482170803987
3.09050e-06;-0.002741583291872988
3.09075e-06;-0.002737318366665585
3.09100e-06;-0.0027330534414581743
3.09125e-06;-0.0027287885162507637
3.09150e-06;-0.0027253394272481707
3.09175e-06;-0.0027235039567612093
3.09200e-06;-0.002721668486274245
3.09225e-06;-0.0027198330157872804
3.09250e-06;-0.002717997545300319
3.09275e-06;-0.0027161620748133546
3.09300e-06;-0.00271432660432639
3.09325e-06;-0.0027130687961950447
3.09350e-06;-0.002712953529504393
3.09375e-06;-0.0027128382628137417
3.09400e-06;-0.0027127229961230897
3.09425e-06;-0.0027126077294324386
3.09450e-06;-0.0027124924627417867
3.09475e-06;-0.002712377196051135
3.09500e-06;-0.0027122619293604836
3.09525e-06;-0.002712924215530047
3.09550e-06;-0.0027137392469591794
3.09575e-06;-0.0027145542783883116
3.09600e-06;-0.0027153693098174426
3.09625e-06;-0.002716184341246575
3.09650e-06;-0.002716999372675707
3.09675e-06;-0.002717814404104838
3.09700e-06;-0.002718661313658938
3.09725e-06;-0.0027195712740219983
3.09750e-06;-0.0027204812343850572
3.09775e-06;-0.0027213911947481175
3.09800e-06;-0.002722247655686718
3.09825e-06;-0.0027229696070691046
3.09850e-06;-0.002723605327735712
3.09875e-06;-0.0027242331001314643
3.09900e-06;-0.0027251967440424596
3.09925e-06;-0.0027269950434963782
3.09950e-06;-0.002729899378479279
3.09975e-06;-0.0027339095572632434
3.10000e-06;-0.002739106611418717
3.10025e-06;-0.0027452616058990186
3.10050e-06;-0.0027520104303081047
3.10075e-06;-0.0027599337735269677
3.10100e-06;-0.002768882056517326
3.10125e-06;-0.00277985753783874
3.10150e-06;-0.0027908330191601543
3.10175e-06;-0.00280337387109729
3.10200e-06;-0.0028190108236912123
3.10225e-06;-0.002834647776285135
3.10250e-06;-0.0028502847288790576
3.10275e-06;-0.0028659216814729536
3.10300e-06;-0.0028831561186715583
3.10325e-06;-0.002903550173844359
3.10350e-06;-0.0029239442290171255
3.10375e-06;-0.0029443382841899267
3.10400e-06;-0.0029647323393627275
3.10425e-06;-0.002986000644587245
3.10450e-06;-0.003008998103363044
3.10475e-06;-0.0030319955621388823
3.10500e-06;-0.003055328364767841
3.10525e-06;-0.00307932443417427
3.10550e-06;-0.0031033205035807393
3.10575e-06;-0.0031273559531505776
3.10600e-06;-0.0031514692915911935
3.10625e-06;-0.00317558263003185
3.10650e-06;-0.003199308604231512
3.10675e-06;-0.0032222684220532933
3.10700e-06;-0.003245228239875035
3.10725e-06;-0.0032674846096561357
3.10750e-06;-0.003288349650176963
3.10775e-06;-0.0033092146906977546
3.10800e-06;-0.0033289420588881154
3.10825e-06;-0.0033464192583233495
3.10850e-06;-0.0033638964577585835
3.10875e-06;-0.003380374803196988
3.10900e-06;-0.0033948775445934135
3.10925e-06;-0.0034093802859898386
3.10950e-06;-0.00342388302738624
3.10975e-06;-0.003438385768782665
3.11000e-06;-0.0034528885101790907
3.11025e-06;-0.0034673912515754916
3.11050e-06;-0.003481893992971917
3.11075e-06;-0.00349658843058522
3.11100e-06;-0.003511320525687691
3.11125e-06;-0.0035260526207901367
3.11150e-06;-0.0035407847158926073
3.11175e-06;-0.0035555168109950783
3.11200e-06;-0.003570248906097524
3.11225e-06;-0.0035849810011999946
3.11250e-06;-0.0036001908388002424
3.11275e-06;-0.003616345589283353
3.11300e-06;-0.0036325003397664362
3.11325e-06;-0.0036486550902495468
3.11350e-06;-0.0036648098407326573
3.11375e-06;-0.0036809645912157405
3.11400e-06;-0.003697119341698851
3.11425e-06;-0.0037132740921819616
3.11450e-06;-0.0037295591412267585
3.11475e-06;-0.0037461019039775182
3.11500e-06;-0.003762644666728278
3.11525e-06;-0.0037791874294790377
3.11550e-06;-0.0037957301922297696
3.11575e-06;-0.0038122729549805293
3.11600e-06;-0.003828815717731289
3.11625e-06;-0.0038453584804820206
3.11650e-06;-0.003861150729902584
3.11675e-06;-0.003875458561006187
3.11700e-06;-0.0038897663921097897
3.11725e-06;-0.003904074223213369
3.11750e-06;-0.003918382054316972
3.11775e-06;-0.003932689885420575
3.11800e-06;-0.003945364000084335
3.11825e-06;-0.003954806834888791
3.11850e-06;-0.003964249669693246
3.11875e-06;-0.003973692504497686
3.11900e-06;-0.003983135339302141
3.11925e-06;-0.003992578174106596
3.11950e-06;-0.003999787103336802
3.11975e-06;-0.004002577656211207
3.12000e-06;-0.0040053682090856165
3.12025e-06;-0.004005612238874466
3.12050e-06;-0.004000819575295287
3.12075e-06;-0.0039960269117161
3.12100e-06;-0.003991234248136913
3.12125e-06;-0.003986441584557725
3.12150e-06;-0.003981648920978546
3.12175e-06;-0.003973547372402046
3.12200e-06;-0.003958901277178317
3.12225e-06;-0.003944255181954613
3.12250e-06;-0.0039296090867308835
3.12275e-06;-0.003914962991507155
3.12300e-06;-0.0039003168962834507
3.12325e-06;-0.0038832517826553493
3.12350e-06;-0.0038614021634306816
3.12375e-06;-0.0038395525442060144
3.12400e-06;-0.0038177029249813837
3.12425e-06;-0.003795853305756716
3.12450e-06;-0.003772718543178251
3.12475e-06;-0.003747041933230017
3.12500e-06;-0.0037213653232817394
3.12525e-06;-0.003695688713333462
3.12550e-06;-0.003670012103385185
3.12575e-06;-0.0036439894145148454
3.12600e-06;-0.003617282226288563
3.12625e-06;-0.003590673045411276
3.12650e-06;-0.003564257710396858
3.12675e-06;-0.0035381336999794084
3.12700e-06;-0.0035125858919432
3.12725e-06;-0.0034873684237949503
3.12750e-06;-0.0034630951807034568
3.12775e-06;-0.003439947765579778
3.12800e-06;-0.0034178892739846886
3.12825e-06;-0.0033967546394584147
3.12850e-06;-0.0033774472747487394
3.12875e-06;-0.0033592008679346956
3.12900e-06;-0.0033430528986441088
3.12925e-06;-0.003327904432301926
3.12950e-06;-0.003314732853544461
3.12975e-06;-0.0033028666190438806
3.13000e-06;-0.0032935821866873403
3.13025e-06;-0.003284297754330784
3.13050e-06;-0.003276684854838212
3.13075e-06;-0.003272378031202122
3.13100e-06;-0.003268071207566025
3.13125e-06;-0.0032660077370945608
3.13150e-06;-0.0032683813290912875
3.13175e-06;-0.003270754921088018
3.13200e-06;-0.003273128513084749
3.13225e-06;-0.0032755021050814796
3.13250e-06;-0.0032778756970782063
3.13275e-06;-0.0032827432705261244
3.13300e-06;-0.003292543616783913
3.13325e-06;-0.003302343963041685
3.13350e-06;-0.003312144309299474
3.13375e-06;-0.003321944655557263
3.13400e-06;-0.0033317450018150517
3.13425e-06;-0.003343195370216006
3.13450e-06;-0.003357909269049315
3.13475e-06;-0.003372623167882624
3.13500e-06;-0.003387337066715908
3.13525e-06;-0.0034020509655492167
3.13550e-06;-0.0034167648643825257
3.13575e-06;-0.0034314787632158095
3.13600e-06;-0.003446440816277
3.13625e-06;-0.0034618936863117455
3.13650e-06;-0.0034773465563464915
3.13675e-06;-0.003492799426381211
3.13700e-06;-0.0035082522964159568
3.13725e-06;-0.0035237051664507024
3.13750e-06;-0.003539158036485422
3.13775e-06;-0.0035537400937160936
3.13800e-06;-0.003566599795826384
3.13825e-06;-0.0035794594979366746
3.13850e-06;-0.003591307877837075
3.13875e-06;-0.0036011559931819173
3.13900e-06;-0.0036110041085267593
3.13925e-06;-0.0036187753847219833
3.13950e-06;-0.003622438941638358
3.13975e-06;-0.003626102498554733
3.14000e-06;-0.0036297660554711017
3.14025e-06;-0.0036334296123874763
3.14050e-06;-0.0036370931693038514
3.14075e-06;-0.003640756726220226
3.14100e-06;-0.0036414453588281344
3.14125e-06;-0.0036362499758456394
3.14150e-06;-0.0036310545928631443
3.14175e-06;-0.003625859209880658
3.14200e-06;-0.0036206638268981633
3.14225e-06;-0.0036154684439156683
3.14250e-06;-0.0036102730609331732
3.14275e-06;-0.0036027639565259914
3.14300e-06;-0.0035906786103313865
3.14325e-06;-0.003578593264136781
3.14350e-06;-0.0035665079179421967
3.14375e-06;-0.0035544225717475918
3.14400e-06;-0.003542337225552987
3.14425e-06;-0.0035289431209378505
3.14450e-06;-0.0035129604614042307
3.14475e-06;-0.0034969778018706108
3.14500e-06;-0.003480995142336991
3.14525e-06;-0.003465012482803398
3.14550e-06;-0.003449029823269778
3.14575e-06;-0.003432689432351446
3.14600e-06;-0.003415641495012924
3.14625e-06;-0.0033985935576743734
3.14650e-06;-0.003381636382360247
3.14675e-06;-0.003364858722593871
3.14700e-06;-0.0033483082741208275
3.14725e-06;-0.0033322072202049097
3.14750e-06;-0.0033166037089816755
3.14775e-06;-0.0033019842728666737
3.14800e-06;-0.0032873648367516472
3.14825e-06;-0.0032735861710337243
3.14850e-06;-0.003261470440440143
3.14875e-06;-0.0032493547098465412
3.14900e-06;-0.0032375395559730183
3.14925e-06;-0.0032263189039838363
3.14950e-06;-0.0032150982519946734
3.14975e-06;-0.0032037785631949226
3.15000e-06;-0.003192262992390446
3.15025e-06;-0.0031807474215859886
3.15050e-06;-0.0031691403199186913
3.15075e-06;-0.0031573521820407106
3.15100e-06;-0.00314556404416275
3.15125e-06;-0.0031337759062847687
3.15150e-06;-0.003121987768406788
3.15175e-06;-0.0031101996305288072
3.15200e-06;-0.0030979145493915043
3.15225e-06;-0.0030846465787475667
3.15250e-06;-0.003071378608103629
3.15275e-06;-0.003058110637459714
3.15300e-06;-0.0030448426668157765
3.15325e-06;-0.003031574696171839
3.15350e-06;-0.003017906509957704
3.15375e-06;-0.00300344674909812
3.15400e-06;-0.0029889869882385113
3.15425e-06;-0.0029745272273789024
3.15450e-06;-0.0029600674665193182
3.15475e-06;-0.002945553881759399
3.15500e-06;-0.0029309338402846987
3.15525e-06;-0.0029163137988100236
3.15550e-06;-0.0029016937573353237
3.15575e-06;-0.002887073715860624
3.15600e-06;-0.0028725651768034613
3.15625e-06;-0.0028582771751097004
3.15650e-06;-0.0028442098951918827
3.15675e-06;-0.0028305791744051324
3.15700e-06;-0.0028171356722838502
3.15725e-06;-0.0028041877981633307
3.15750e-06;-0.002791635903968699
3.15775e-06;-0.0027795539201867607
3.15800e-06;-0.0027680282287165527
3.15825e-06;-0.0027571453626402966
3.15850e-06;-0.0027469937384481035
3.15875e-06;-0.002737730756344818
3.15900e-06;-0.002729719516727887
3.15925e-06;-0.002723423795650852
3.15950e-06;-0.002719094447014676
3.15975e-06;-0.0027167485535448846
3.16000e-06;-0.0027163432761332746
3.16025e-06;-0.0027178359268548785
3.16050e-06;-0.002721505954963137
3.16075e-06;-0.002727027068016106
3.16100e-06;-0.002733968251652137
3.16125e-06;-0.002743718151270448
3.16150e-06;-0.002755268918008451
3.16175e-06;-0.002770381567036951
3.16200e-06;-0.002785494216065451
3.16225e-06;-0.002803033699587223
3.16250e-06;-0.0028253731479200095
3.16275e-06;-0.002847712596252796
3.16300e-06;-0.002870052044585545
3.16325e-06;-0.0028923914929183314
3.16350e-06;-0.002917169623674425
3.16375e-06;-0.002946771152914983
3.16400e-06;-0.0029763726821555913
3.16425e-06;-0.0030059742113961994
3.16450e-06;-0.0030355757406368075
3.16475e-06;-0.003066327770080739
3.16500e-06;-0.0030993553401545424
3.16525e-06;-0.0031323829102283453
3.16550e-06;-0.0031657596632462784
3.16575e-06;-0.0031998270549746396
3.16600e-06;-0.003233894446703001
3.16625e-06;-0.0032677102588702174
3.16650e-06;-0.0033010284791974587
3.16675e-06;-0.003334346699524757
3.16700e-06;-0.0033670543448837856
3.16725e-06;-0.0033985543519096297
3.16750e-06;-0.0034290230860209276
3.16775e-06;-0.0034574520956621377
3.16800e-06;-0.0034858811053032996
3.16825e-06;-0.0035120596858607606
3.16850e-06;-0.003533787208695896
3.16875e-06;-0.0035555147315310316
3.16900e-06;-0.00357724225436613
3.16925e-06;-0.0035989697772012656
3.16950e-06;-0.0036187678492556868
3.16975e-06;-0.003634749717165091
3.17000e-06;-0.0036507315850745226
3.17025e-06;-0.003666713452983954
3.17050e-06;-0.0036826953208933854
3.17075e-06;-0.0036959033587506155
3.17100e-06;-0.003703625119451403
3.17125e-06;-0.0037113468801521906
3.17150e-06;-0.003719068640852965
3.17175e-06;-0.003726790401553753
3.17200e-06;-0.0037345121622545407
3.17225e-06;-0.0037422339229553152
3.17250e-06;-0.003749955683656103
3.17275e-06;-0.0037576774443568908
3.17300e-06;-0.0037653992050576783
3.17325e-06;-0.003773120965758453
3.17350e-06;-0.003780842726459241
3.17375e-06;-0.0037885644871600284
3.17400e-06;-0.003796286247860803
3.17425e-06;-0.003804008008561591
3.17450e-06;-0.0038117297692623784
3.17475e-06;-0.003814329736123425
3.17500e-06;-0.00381592355951789
3.17525e-06;-0.0038175173829123575
3.17550e-06;-0.0038191112063068254
3.17575e-06;-0.0038207050297012907
3.17600e-06;-0.0038222988530957585
3.17625e-06;-0.0038238926764902264
3.17650e-06;-0.0038254864998846917
3.17675e-06;-0.003827080323279159
3.17700e-06;-0.003828674146673627
3.17725e-06;-0.003830267970068095
3.17750e-06;-0.00383186179346256
3.17775e-06;-0.003833455616857028
3.17800e-06;-0.003835049440251496
3.17825e-06;-0.003836643263645961
3.17850e-06;-0.003837246357110032
3.17875e-06;-0.0038358899148839345
3.17900e-06;-0.0038345334726578376
3.17925e-06;-0.0038331770304317423
3.17950e-06;-0.0038318205882056453
3.17975e-06;-0.003830464145979548
3.18000e-06;-0.003829107703753453
3.18025e-06;-0.0038277512615273557
3.18050e-06;-0.003824636482627875
3.18075e-06;-0.003818043941160485
3.18100e-06;-0.0038114513996930837
3.18125e-06;-0.0038048588582256827
3.18150e-06;-0.0037982663167582813
3.18175e-06;-0.0037916737752908916
3.18200e-06;-0.00378508123382349
3.18225e-06;-0.003778488692356089
3.18250e-06;-0.003770280502151689
3.18275e-06;-0.0037588767676663792
3.18300e-06;-0.0037474730331810697
3.18325e-06;-0.0037360692986957602
3.18350e-06;-0.00372466556421047
3.18375e-06;-0.0037132618297251604
3.18400e-06;-0.0037018580952398504
3.18425e-06;-0.0036904543607545605
3.18450e-06;-0.003676955097050906
3.18475e-06;-0.0036630441801065628
3.18500e-06;-0.003649133263162243
3.18525e-06;-0.0036352223462179
3.18550e-06;-0.0036213114292735563
3.18575e-06;-0.003607400512329213
3.18600e-06;-0.0035934895953848934
3.18625e-06;-0.003579600904385823
3.18650e-06;-0.0035657561734324474
3.18675e-06;-0.0035519114424790955
3.18700e-06;-0.0035383839941919436
3.18725e-06;-0.0035254840899905156
3.18750e-06;-0.0035125841857890873
3.18775e-06;-0.003501101917610047
3.18800e-06;-0.003492423550167637
3.18825e-06;-0.0034837451827252263
3.18850e-06;-0.0034750668152828306
3.18875e-06;-0.0034663884478404205
3.18900e-06;-0.0034577100803980104
3.18925e-06;-0.0034490317129556147
3.18950e-06;-0.003440353345513204
3.18975e-06;-0.003431674978070794
3.19000e-06;-0.003422996610628384
3.19025e-06;-0.0034143182431859882
3.19050e-06;-0.0034056398757435777
3.19075e-06;-0.003401587001374653
3.19100e-06;-0.0033984427753781846
3.19125e-06;-0.003395298549381711
3.19150e-06;-0.003392154323385237
3.19175e-06;-0.0033890100973887633
3.19200e-06;-0.0033858658713922947
3.19225e-06;-0.003382721645395821
3.19250e-06;-0.003379577419399347
3.19275e-06;-0.0033764331934028786
3.19300e-06;-0.003373288967406405
3.19325e-06;-0.003370144741409931
3.19350e-06;-0.0033680191128864865
3.19375e-06;-0.0033679081384491746
3.19400e-06;-0.0033677971640118623
3.19425e-06;-0.00336768618957455
3.19450e-06;-0.003367575215137238
