Time(s);Current(A)
1.35500e-05;-0.010058978180632092
1.35503e-05;-0.010013952889280921
1.35505e-05;-0.009968927597930055
1.35508e-05;-0.009923902306578882
1.35510e-05;-0.009878877015227711
1.35513e-05;-0.009833851723876845
1.35515e-05;-0.009788826432525674
1.35518e-05;-0.009730787828762735
1.35520e-05;-0.009671482561862642
1.35523e-05;-0.009612177294962145
1.35525e-05;-0.009552872028061649
1.35528e-05;-0.009493566761161153
1.35530e-05;-0.009431506173137736
1.35533e-05;-0.009365501818292342
1.35535e-05;-0.009299497463446948
1.35538e-05;-0.009233493108602001
1.35540e-05;-0.009167488753756607
1.35543e-05;-0.009101484398911215
1.35545e-05;-0.009034815193672842
1.35548e-05;-0.00896808127458877
1.35550e-05;-0.008903070665933197
1.35553e-05;-0.00883822779733732
1.35555e-05;-0.00877609529163358
1.35558e-05;-0.008714226601679299
1.35560e-05;-0.008655986581381649
1.35563e-05;-0.008598099761095136
1.35565e-05;-0.008543847551451293
1.35568e-05;-0.008492878026413823
1.35570e-05;-0.00844550356742653
1.35573e-05;-0.008404235687339227
1.35575e-05;-0.008363530837232071
1.35578e-05;-0.008331655990423126
1.35580e-05;-0.008300640620381994
1.35583e-05;-0.00827890973910338
1.35585e-05;-0.008258082572367254
1.35588e-05;-0.008249138793063819
1.35590e-05;-0.00824135169457662
1.35593e-05;-0.008233564596089366
1.35595e-05;-0.008240416936942375
1.35598e-05;-0.00824869422154466
1.35600e-05;-0.008256971506147005
1.35603e-05;-0.008284497869771253
1.35605e-05;-0.008313897860806515
1.35608e-05;-0.008343297851841977
1.35610e-05;-0.008372697842877438
1.35613e-05;-0.0084020978339129
1.35615e-05;-0.008440659361703655
1.35618e-05;-0.008492334048753325
1.35620e-05;-0.008544008735802994
1.35623e-05;-0.008595683422852314
1.35625e-05;-0.008647358109901982
1.35628e-05;-0.008699032796951651
1.35630e-05;-0.008761396501688801
1.35633e-05;-0.008824800632127766
1.35635e-05;-0.008888204762566729
1.35638e-05;-0.008955690350700492
1.35640e-05;-0.00902357321140078
1.35643e-05;-0.00909145607210107
1.35645e-05;-0.009160188776768208
1.35648e-05;-0.009229004201806546
1.35650e-05;-0.009297819626844884
1.35653e-05;-0.00936412597526957
1.35655e-05;-0.009430188100336485
1.35658e-05;-0.009496250225403402
1.35660e-05;-0.00955628479535428
1.35663e-05;-0.009615732667496279
1.35665e-05;-0.009675180539638275
1.35668e-05;-0.009724839080621363
1.35670e-05;-0.009773544767746885
1.35673e-05;-0.00982225045487241
1.35675e-05;-0.00985103878687198
1.35678e-05;-0.009877888444169163
1.35680e-05;-0.009904738101466345
1.35683e-05;-0.009931587758763348
1.35685e-05;-0.00995843741606053
1.35688e-05;-0.009985287073357713
1.35690e-05;-0.010012136730654713
1.35693e-05;-0.010026329870078794
1.35695e-05;-0.010022407387747193
1.35698e-05;-0.01001848490541559
1.35700e-05;-0.010014562423084017
1.35703e-05;-0.010010639940752417
1.35705e-05;-0.010006717458420815
1.35708e-05;-0.010002794976089241
1.35710e-05;-0.00999887249375764
1.35713e-05;-0.00997330735901467
1.35715e-05;-0.00994563561611709
1.35718e-05;-0.009917963873219323
1.35720e-05;-0.009890292130321556
1.35723e-05;-0.009862620387423976
1.35725e-05;-0.009834948644526208
1.35728e-05;-0.009801847771578179
1.35730e-05;-0.009760976035629672
1.35733e-05;-0.00972010429968089
1.35735e-05;-0.009679232563732107
1.35738e-05;-0.0096383608277836
1.35740e-05;-0.009597489091834818
1.35743e-05;-0.009556617355886036
1.35745e-05;-0.009512607952138534
1.35748e-05;-0.009468293140511463
1.35750e-05;-0.009423978328884393
1.35753e-05;-0.009380661037173905
1.35755e-05;-0.009337440840012867
1.35758e-05;-0.009294220642851828
1.35760e-05;-0.00925460322962011
1.35763e-05;-0.009215336496788315
1.35765e-05;-0.009176069763956518
1.35768e-05;-0.00915047228343715
1.35770e-05;-0.00912620531259178
1.35773e-05;-0.009101938341746411
1.35775e-05;-0.009077671370901206
1.35778e-05;-0.009053404400055838
1.35780e-05;-0.009029137429210469
1.35783e-05;-0.0090048704583651
1.35785e-05;-0.008980603487519894
1.35788e-05;-0.008956336516674525
1.35790e-05;-0.008932069545829157
1.35793e-05;-0.008907802574983952
1.35795e-05;-0.008883535604138583
1.35798e-05;-0.008859268633293213
1.35800e-05;-0.008849733089147643
1.35803e-05;-0.008841631442430865
1.35805e-05;-0.008833529795714086
1.35808e-05;-0.008825428148997363
1.35810e-05;-0.008817326502280586
1.35813e-05;-0.008809224855563806
1.35815e-05;-0.008801123208847085
1.35818e-05;-0.008793021562130306
1.35820e-05;-0.008784919915413528
1.35823e-05;-0.008776818268696805
1.35825e-05;-0.008768716621980026
1.35828e-05;-0.008760614975263249
1.35830e-05;-0.008752513328546525
1.35833e-05;-0.008750585111011946
1.35835e-05;-0.008749257790078603
1.35838e-05;-0.008747930469145269
1.35840e-05;-0.008746603148211926
1.35843e-05;-0.008745275827278583
1.35845e-05;-0.008743948506345248
1.35848e-05;-0.008742621185411905
1.35850e-05;-0.008741855008749707
1.35853e-05;-0.008741892013300006
1.35855e-05;-0.008741929017850304
1.35858e-05;-0.008741966022400603
1.35860e-05;-0.0087420030269509
1.35863e-05;-0.008742040031501199
1.35865e-05;-0.008742077036051496
1.35868e-05;-0.008742114040601795
1.35870e-05;-0.008742187483202348
1.35873e-05;-0.008742264472535184
1.35875e-05;-0.008742341461868018
1.35878e-05;-0.008749863808587702
1.35880e-05;-0.008758110856250443
1.35883e-05;-0.008766357903913186
1.35885e-05;-0.008774604951575874
1.35888e-05;-0.008782851999238615
1.35890e-05;-0.008791099046901358
1.35893e-05;-0.008799346094564044
1.35895e-05;-0.008813471086331038
1.35898e-05;-0.008836009340989439
1.35900e-05;-0.008858547595647689
1.35903e-05;-0.00888108585030609
1.35905e-05;-0.00890362410496449
1.35908e-05;-0.00892616235962274
1.35910e-05;-0.008948700614281142
1.35913e-05;-0.008971238868939543
1.35915e-05;-0.009005425686465531
1.35918e-05;-0.009040746327938467
1.35920e-05;-0.009076066969411403
1.35923e-05;-0.009111387610884099
1.35925e-05;-0.009146708252357034
1.35928e-05;-0.00918202889382997
1.35930e-05;-0.009217349535302666
1.35933e-05;-0.009252670176775602
1.35935e-05;-0.009292384071642679
1.35938e-05;-0.009332525588007519
1.35940e-05;-0.00937266710437263
1.35943e-05;-0.00941280862073774
1.35945e-05;-0.00945295013710258
1.35948e-05;-0.00949309165346769
1.35950e-05;-0.009533233169832801
1.35953e-05;-0.009573374686197912
1.35955e-05;-0.009607020023851526
1.35958e-05;-0.009640033049771152
1.35960e-05;-0.009673046075690778
1.35963e-05;-0.00970605910161018
1.35965e-05;-0.009739072127529806
1.35968e-05;-0.009772085153449432
1.35970e-05;-0.009805098179368834
1.35973e-05;-0.009827732462264382
1.35975e-05;-0.009835511365112957
1.35978e-05;-0.00984329026796148
1.35980e-05;-0.009851069170810056
1.35983e-05;-0.009858848073658631
1.35985e-05;-0.009866626976507155
1.35988e-05;-0.00987440587935573
1.35990e-05;-0.009882184782204305
1.35993e-05;-0.009860183922070095
1.35995e-05;-0.00983528442037793
1.35998e-05;-0.009810384918685765
1.36000e-05;-0.00978548541699377
1.36003e-05;-0.009760585915301604
1.36005e-05;-0.009724744107289162
1.36008e-05;-0.00967324027559944
1.36010e-05;-0.009621736443909368
1.36013e-05;-0.009570232612219298
1.36015e-05;-0.009518728780529574
1.36018e-05;-0.009467224948839503
1.36020e-05;-0.009398290862992209
1.36023e-05;-0.00932766018677614
1.36025e-05;-0.00925702951055959
1.36028e-05;-0.009186398834343041
1.36030e-05;-0.009111609670661389
1.36033e-05;-0.009030868349614243
1.36035e-05;-0.008950127028567095
1.36038e-05;-0.008869385707519948
1.36040e-05;-0.008788644386473348
1.36043e-05;-0.008705051674832317
1.36045e-05;-0.00862118142037532
1.36048e-05;-0.008537550502801756
1.36050e-05;-0.008454693143028724
1.36053e-05;-0.008373073244038735
1.36055e-05;-0.008293084183959508
1.36058e-05;-0.008215106603282177
1.36060e-05;-0.008139607898989851
1.36063e-05;-0.008067118294509084
1.36065e-05;-0.008011133786927908
1.36068e-05;-0.007956729428274446
1.36070e-05;-0.007902325069621354
1.36073e-05;-0.007847920710967893
1.36075e-05;-0.007793516352314431
1.36078e-05;-0.007739111993661339
1.36080e-05;-0.007684707635007878
1.36083e-05;-0.0076303032763544165
1.36085e-05;-0.0075852061797740955
1.36088e-05;-0.007553430823120237
1.36090e-05;-0.007521655466466378
1.36093e-05;-0.007489880109812734
1.36095e-05;-0.007458104753158876
1.36098e-05;-0.007426329396505017
1.36100e-05;-0.007394554039851374
1.36103e-05;-0.007362778683197515
1.36105e-05;-0.007331003326543657
1.36108e-05;-0.007314084021888389
1.36110e-05;-0.007298610745187727
1.36113e-05;-0.0072831374684870645
1.36115e-05;-0.007267664191786507
1.36118e-05;-0.007252190915085844
1.36120e-05;-0.007236717638385182
1.36123e-05;-0.007221244361684519
1.36125e-05;-0.007205771084983961
1.36128e-05;-0.007190297808283299
1.36130e-05;-0.007174824531582636
1.36133e-05;-0.0071593512548820785
1.36135e-05;-0.007147827034790405
1.36138e-05;-0.007141955207926597
1.36140e-05;-0.00713608338106283
1.36143e-05;-0.007130211554199023
1.36145e-05;-0.007124339727335216
1.36148e-05;-0.007118467900471448
1.36150e-05;-0.007112596073607641
1.36153e-05;-0.007106724246743834
1.36155e-05;-0.007100852419880067
1.36158e-05;-0.007094980593016259
1.36160e-05;-0.0070891087661524525
1.36163e-05;-0.007083236939288685
1.36165e-05;-0.007079238034402437
1.36168e-05;-0.007075421432158818
1.36170e-05;-0.007071604829915226
1.36173e-05;-0.0070677882276716075
1.36175e-05;-0.0070639716254279885
1.36178e-05;-0.0070601550231843965
1.36180e-05;-0.007056338420940778
1.36183e-05;-0.0070525218186971595
1.36185e-05;-0.007048705216453567
1.36188e-05;-0.007044888614209948
1.36190e-05;-0.00704107201196633
1.36193e-05;-0.007035690808504647
1.36195e-05;-0.007030157313094724
1.36198e-05;-0.0070246238176848025
1.36200e-05;-0.007019090322274917
1.36203e-05;-0.0070135568268649955
1.36205e-05;-0.007008023331455073
1.36208e-05;-0.007002489836045151
1.36210e-05;-0.006996956340635266
1.36213e-05;-0.006991422845225344
1.36215e-05;-0.006985889349815422
1.36218e-05;-0.006980355854405537
1.36220e-05;-0.0069733204124665825
1.36223e-05;-0.0069661387771331506
1.36225e-05;-0.006958957141799767
1.36228e-05;-0.006951775506466335
1.36230e-05;-0.0069445938711329026
1.36233e-05;-0.006937412235799519
1.36235e-05;-0.006930230600466087
1.36238e-05;-0.0069230489651326554
1.36240e-05;-0.006915867329799272
1.36243e-05;-0.006908823280167982
1.36245e-05;-0.006901792622571924
1.36248e-05;-0.006894761964975913
1.36250e-05;-0.0068877313073798544
1.36253e-05;-0.006880700649783796
1.36255e-05;-0.006873669992187786
1.36258e-05;-0.0068666393345917275
1.36260e-05;-0.006859608676995669
1.36263e-05;-0.006852578019399659
1.36265e-05;-0.00684648337364939
1.36268e-05;-0.006840479835502775
1.36270e-05;-0.006835186457415387
1.36273e-05;-0.006829962203433063
1.36275e-05;-0.006827503054288394
1.36278e-05;-0.006825313049254193
1.36280e-05;-0.006828094376812536
1.36283e-05;-0.006831359593759149
1.36285e-05;-0.006839355533346955
1.36288e-05;-0.006847811942324492
1.36290e-05;-0.0068617979951691
1.36293e-05;-0.006876322281161086
1.36295e-05;-0.006890846567152975
1.36298e-05;-0.0069169125181167785
1.36300e-05;-0.006944101888022857
1.36303e-05;-0.006971291257928751
1.36305e-05;-0.00699848062783483
1.36308e-05;-0.007025669997740909
1.36310e-05;-0.007058609834674416
1.36313e-05;-0.007099780473067687
1.36315e-05;-0.00714095111146096
1.36318e-05;-0.007182121749853953
1.36320e-05;-0.007223292388247224
1.36323e-05;-0.007264463026640497
1.36325e-05;-0.007314953749261332
1.36328e-05;-0.007366351651149409
1.36330e-05;-0.007417749553037486
1.36333e-05;-0.0074691474549252145
1.36335e-05;-0.007520545356813292
1.36338e-05;-0.007571943258701369
1.36340e-05;-0.007624119343556451
1.36343e-05;-0.007677409263074959
1.36345e-05;-0.007730699182593466
1.36348e-05;-0.007783989102111612
1.36350e-05;-0.00783727902163012
1.36353e-05;-0.007890568941148628
1.36355e-05;-0.007943858860666774
1.36358e-05;-0.007992190929062292
1.36360e-05;-0.008040040420300886
1.36363e-05;-0.008087889911539158
1.36365e-05;-0.008124016032993243
1.36368e-05;-0.008159001049093352
1.36370e-05;-0.008193986065193223
1.36373e-05;-0.008228971081293331
1.36375e-05;-0.00826395609739344
1.36378e-05;-0.008298941113493549
1.36380e-05;-0.00833392612959342
1.36383e-05;-0.008368911145693528
1.36385e-05;-0.008393437373411314
1.36388e-05;-0.008416945585008955
1.36390e-05;-0.008440453796606755
1.36393e-05;-0.008463962008204555
1.36395e-05;-0.008487470219802196
1.36398e-05;-0.008510978431399998
1.36400e-05;-0.008534486642997798
1.36403e-05;-0.008557994854595439
1.36405e-05;-0.008575151212029945
1.36408e-05;-0.008591689305694762
1.36410e-05;-0.008608227399359467
1.36413e-05;-0.008624765493024282
1.36415e-05;-0.0086413035866891
1.36418e-05;-0.008657841680353804
1.36420e-05;-0.008674379774018621
1.36423e-05;-0.008690917867683437
1.36425e-05;-0.008707455961348141
1.36428e-05;-0.008723994055012958
1.36430e-05;-0.008740532148677774
1.36433e-05;-0.008757070242342478
1.36435e-05;-0.008773608336007295
1.36438e-05;-0.00879014642967211
1.36440e-05;-0.008800822467133344
1.36443e-05;-0.008810927915775292
1.36445e-05;-0.008821033364417238
1.36448e-05;-0.008831138813059117
1.36450e-05;-0.008841244261701065
1.36453e-05;-0.008851349710343012
1.36455e-05;-0.008861455158984892
1.36458e-05;-0.008871560607626838
1.36460e-05;-0.008881666056268786
1.36463e-05;-0.008891771504910733
1.36465e-05;-0.008901876953552611
1.36468e-05;-0.00891198240219456
1.36470e-05;-0.008922087850836508
1.36473e-05;-0.008932193299478386
1.36475e-05;-0.008940977040294286
1.36478e-05;-0.008949632131421047
1.36480e-05;-0.008958287222547748
1.36483e-05;-0.008966942313674507
1.36485e-05;-0.008975597404801267
1.36488e-05;-0.008984252495927969
1.36490e-05;-0.008992907587054729
1.36493e-05;-0.009001562678181488
1.36495e-05;-0.00901021776930819
1.36498e-05;-0.00901887286043495
1.36500e-05;-0.009029920670906105
1.36503e-05;-0.009044393246320755
1.36505e-05;-0.009058865821735504
1.36508e-05;-0.009073338397150252
1.36510e-05;-0.009087810972564904
1.36513e-05;-0.00910228354797965
1.36515e-05;-0.009116756123394399
1.36518e-05;-0.00913122869880905
1.36520e-05;-0.009145701274223799
1.36523e-05;-0.009160173849638548
1.36525e-05;-0.009174646425053197
1.36528e-05;-0.009192235952144592
1.36530e-05;-0.00921012887069407
1.36533e-05;-0.009228021789243427
1.36535e-05;-0.009245914707792905
1.36538e-05;-0.009263807626342383
1.36540e-05;-0.00928170054489174
1.36543e-05;-0.009299593463441218
1.36545e-05;-0.009317486381990696
1.36548e-05;-0.009333748499759134
1.36550e-05;-0.009349851881981489
1.36553e-05;-0.009365955264203843
1.36555e-05;-0.009382058646426198
1.36558e-05;-0.009398162028648445
1.36560e-05;-0.009414265410870799
1.36563e-05;-0.009430368793093153
1.36565e-05;-0.009446472175315399
1.36568e-05;-0.009459146441375847
1.36570e-05;-0.00947148693115079
1.36573e-05;-0.009478735005372505
1.36575e-05;-0.009485487404479355
1.36578e-05;-0.009492239803586206
1.36580e-05;-0.009486331394756926
1.36583e-05;-0.009479190634136474
1.36585e-05;-0.009472049873516023
1.36588e-05;-0.009452463312088264
1.36590e-05;-0.009431665326792764
1.36593e-05;-0.009410867341497261
1.36595e-05;-0.009371324921558902
1.36598e-05;-0.009329957994233177
1.36600e-05;-0.00928859106690745
1.36603e-05;-0.009247224139582006
1.36605e-05;-0.00920585721225628
1.36608e-05;-0.009142615403074407
1.36610e-05;-0.00907724438144647
1.36613e-05;-0.009011873359818089
1.36615e-05;-0.00894650233818971
1.36618e-05;-0.008881131316561772
1.36620e-05;-0.008799621690109918
1.36623e-05;-0.008716541197196195
1.36625e-05;-0.008633460704283034
1.36628e-05;-0.00855038021136931
1.36630e-05;-0.008458718387883056
1.36633e-05;-0.008366221292418022
1.36635e-05;-0.008273724196952362
1.36638e-05;-0.008181227101486702
1.36640e-05;-0.008085563460242595
1.36643e-05;-0.007989094254814503
1.36645e-05;-0.007892595311465932
1.36648e-05;-0.0077966341473914205
1.36650e-05;-0.007701777130632315
1.36653e-05;-0.007608543401777251
1.36655e-05;-0.007517315966135082
1.36658e-05;-0.007428439987415488
1.36660e-05;-0.007342407141342159
1.36663e-05;-0.007259819081874405
1.36665e-05;-0.007190167343168575
1.36668e-05;-0.007121744563727695
1.36670e-05;-0.007053321784286816
1.36673e-05;-0.0069848990048463995
1.36675e-05;-0.006916476225405519
1.36678e-05;-0.006862560316422918
1.36680e-05;-0.006810056447485781
1.36683e-05;-0.006757552578548289
1.36685e-05;-0.006705048709610796
1.36688e-05;-0.00665254484067366
1.36690e-05;-0.006612916977760056
1.36693e-05;-0.006574542413149634
1.36695e-05;-0.006536167848539473
1.36698e-05;-0.006497793283929051
1.36700e-05;-0.00645941871931863
1.36703e-05;-0.006421044154708468
1.36705e-05;-0.0063826695900980465
1.36708e-05;-0.006344295025487625
1.36710e-05;-0.006315213967200069
1.36713e-05;-0.006287037501197009
1.36715e-05;-0.0062588610351939486
1.36718e-05;-0.006230684569191079
1.36720e-05;-0.006202508103188019
1.36723e-05;-0.006174331637184958
1.36725e-05;-0.006146155171181898
1.36728e-05;-0.0061179787051790285
1.36730e-05;-0.006095907603022078
1.36733e-05;-0.006074430772267116
1.36735e-05;-0.0060529539415123
1.36738e-05;-0.006031477110757339
1.36740e-05;-0.006010000280002378
1.36743e-05;-0.005988523449247563
1.36745e-05;-0.005967046618492601
1.36748e-05;-0.005950047594096618
1.36750e-05;-0.005933484421245441
1.36753e-05;-0.005916921248394151
1.36755e-05;-0.005900358075542861
1.36758e-05;-0.005883794902691683
1.36760e-05;-0.005867231729840393
1.36763e-05;-0.005850668556989103
1.36765e-05;-0.005836488204683009
1.36768e-05;-0.005823256948418788
1.36770e-05;-0.005810905593732448
1.36773e-05;-0.0057995895893240374
1.36775e-05;-0.005789608352806752
1.36778e-05;-0.00578128117390837
1.36780e-05;-0.005775546885414563
1.36783e-05;-0.005770050452409807
1.36785e-05;-0.005767758757238839
1.36788e-05;-0.005765778998275857
1.36790e-05;-0.005766952842227557
1.36793e-05;-0.005768433645121201
1.36795e-05;-0.0057741884219576186
1.36798e-05;-0.005780359210116606
1.36800e-05;-0.005786529998275593
1.36803e-05;-0.005799624337459923
1.36805e-05;-0.005813392587074594
1.36808e-05;-0.005827160836689267
1.36810e-05;-0.00584092908630394
1.36813e-05;-0.0058546973359185185
1.36815e-05;-0.005871737886293643
1.36818e-05;-0.005893462170666189
1.36820e-05;-0.005915186455038589
1.36823e-05;-0.005936910739411135
1.36825e-05;-0.005958635023783681
1.36828e-05;-0.005980359308156081
1.36830e-05;-0.006006539949611618
1.36833e-05;-0.006033154354826404
1.36835e-05;-0.00605976876004101
1.36838e-05;-0.006086383165255797
1.36840e-05;-0.006112997570470583
1.36843e-05;-0.0061396119756851894
1.36845e-05;-0.00616648361146806
1.36848e-05;-0.006193380285033169
1.36850e-05;-0.006220276958598096
1.36853e-05;-0.006247173632163206
1.36855e-05;-0.006274070305728316
1.36858e-05;-0.006300966979293243
1.36860e-05;-0.006324126595566219
1.36863e-05;-0.00634692246180976
1.36865e-05;-0.006369718328053147
1.36868e-05;-0.006392514194296688
1.36870e-05;-0.006410600767888189
1.36873e-05;-0.006428228957995713
1.36875e-05;-0.006445857148103357
1.36878e-05;-0.006463485338211001
1.36880e-05;-0.006479780494521704
1.36883e-05;-0.006495945898718752
1.36885e-05;-0.006512111302915799
1.36888e-05;-0.006528276707112738
1.36890e-05;-0.006544442111309785
1.36893e-05;-0.006560607515506833
1.36895e-05;-0.006576772919703881
1.36898e-05;-0.006592938323900819
1.36900e-05;-0.006609322788240879
1.36903e-05;-0.006626020799383245
1.36905e-05;-0.006642718810525498
1.36908e-05;-0.0066594168216678636
1.36910e-05;-0.00667611483281023
1.36913e-05;-0.006692812843952483
1.36915e-05;-0.006709510855094849
1.36918e-05;-0.006726208866237215
1.36920e-05;-0.006742906877379468
1.36923e-05;-0.006760590887028315
1.36925e-05;-0.006778370869780585
1.36928e-05;-0.006796150852532735
1.36930e-05;-0.006813930835285005
1.36933e-05;-0.0068317108180372755
1.36935e-05;-0.006849490800789425
1.36938e-05;-0.006867270783541695
1.36940e-05;-0.006885050766293965
1.36943e-05;-0.0069028307490461155
1.36945e-05;-0.0069184070030310985
1.36948e-05;-0.006933768754978236
1.36950e-05;-0.00694913050692527
1.36953e-05;-0.006964492258872408
1.36955e-05;-0.006979854010819546
1.36958e-05;-0.00699521576276658
1.36960e-05;-0.007010577514713718
1.36963e-05;-0.007025939266660856
1.36965e-05;-0.00704130101860789
1.36968e-05;-0.007049806650306847
1.36970e-05;-0.007057644935013221
