Time(s);Current(A)
1.00000e-06;-0.009314446966166921
1.00025e-06;-0.00933853434399081
1.00050e-06;-0.0093626217218147
1.00075e-06;-0.00938670909963861
1.00100e-06;-0.0094107964774625
1.00125e-06;-0.009434883855286407
1.00150e-06;-0.009458971233110297
1.00175e-06;-0.009483058610934186
1.00200e-06;-0.009525356120345132
1.00225e-06;-0.009572580344890193
1.00250e-06;-0.009619804569435295
1.00275e-06;-0.009667028793980357
1.00300e-06;-0.009714253018525418
1.00325e-06;-0.00976147724307052
1.00350e-06;-0.009808701467615581
1.00375e-06;-0.009855925692160683
1.00400e-06;-0.00991009820722527
1.00425e-06;-0.009966150568566406
1.00450e-06;-0.010022202929907492
1.00475e-06;-0.010078255291248579
1.00500e-06;-0.010134307652589714
1.00525e-06;-0.0101903600139308
1.00550e-06;-0.010246412375271933
1.00575e-06;-0.01030246473661302
1.00600e-06;-0.010355362683242652
1.00625e-06;-0.010400426424309564
1.00650e-06;-0.010445490165376438
1.00675e-06;-0.01049055390644335
1.00700e-06;-0.010535617647510225
1.00725e-06;-0.010580681388577099
1.00750e-06;-0.010625745129644011
1.00775e-06;-0.010670808870710886
1.00800e-06;-0.010715872611777798
1.00825e-06;-0.010743185946977277
1.00850e-06;-0.010765696944928307
1.00875e-06;-0.010788207942879357
1.00900e-06;-0.010810718940830388
1.00925e-06;-0.010833229938781438
1.00950e-06;-0.010855740936732469
1.00975e-06;-0.010878251934683518
1.01000e-06;-0.010900762932634549
1.01025e-06;-0.01092327393058558
1.01050e-06;-0.01094578492853663
1.01075e-06;-0.010952215038157397
1.01100e-06;-0.010954294495202
1.01125e-06;-0.010956373952246603
1.01150e-06;-0.010958453409291203
1.01175e-06;-0.010960532866335807
1.01200e-06;-0.010962612323380408
1.01225e-06;-0.010964691780425011
1.01250e-06;-0.010966771237469614
1.01275e-06;-0.010968850694514214
1.01300e-06;-0.010970930151558818
1.01325e-06;-0.010964540501033982
1.01350e-06;-0.010955859550183727
1.01375e-06;-0.010947178599333477
1.01400e-06;-0.010938497648483222
1.01425e-06;-0.010929816697632974
1.01450e-06;-0.010921135746782726
1.01475e-06;-0.01091245479593247
1.01500e-06;-0.010903773845082221
1.01525e-06;-0.010895092894231967
1.01550e-06;-0.010886411943381717
1.01575e-06;-0.010879720964162658
1.01600e-06;-0.010873568367837972
1.01625e-06;-0.010867415771513289
1.01650e-06;-0.010861263175188603
1.01675e-06;-0.01085511057886392
1.01700e-06;-0.010848957982539237
1.01725e-06;-0.01084280538621455
1.01750e-06;-0.010836652789889867
1.01775e-06;-0.010830500193565181
1.01800e-06;-0.010824347597240498
1.01825e-06;-0.010824141386234725
1.01850e-06;-0.010833420542206639
1.01875e-06;-0.010844830692469684
1.01900e-06;-0.010856240842732737
1.01925e-06;-0.010867650992995782
1.01950e-06;-0.010879061143258836
1.01975e-06;-0.010890471293521881
1.02000e-06;-0.010901881443784926
1.02025e-06;-0.01091329159404798
1.02050e-06;-0.010924701744311024
1.02075e-06;-0.010949397430337963
1.02100e-06;-0.010977687491825055
1.02125e-06;-0.011005977553312146
1.02150e-06;-0.011034267614799262
1.02175e-06;-0.011062557676286354
1.02200e-06;-0.01109084773777347
1.02225e-06;-0.011119137799260562
1.02250e-06;-0.011147427860747678
1.02275e-06;-0.01117571792223477
1.02300e-06;-0.011211702455992685
1.02325e-06;-0.011249768714025834
1.02350e-06;-0.011287834972058949
1.02375e-06;-0.0113259012300921
1.02400e-06;-0.011363967488125215
1.02425e-06;-0.011402033746158332
1.02450e-06;-0.01144010000419148
1.02475e-06;-0.011478166262224598
1.02500e-06;-0.011516232520257746
1.02525e-06;-0.011552335862819941
1.02550e-06;-0.011587908142478523
1.02575e-06;-0.011623480422137136
1.02600e-06;-0.011659052701795718
1.02625e-06;-0.011694624981454332
1.02650e-06;-0.011730197261112914
1.02675e-06;-0.011765769540771525
1.02700e-06;-0.01180134182043011
1.02725e-06;-0.011836914100088691
1.02750e-06;-0.01186721498943051
1.02775e-06;-0.01189608971453389
1.02800e-06;-0.011924964439637295
1.02825e-06;-0.011953839164740675
1.02850e-06;-0.011982713889844055
1.02875e-06;-0.01201158861494746
1.02900e-06;-0.012040463340050838
1.02925e-06;-0.012069338065154242
1.02950e-06;-0.012099283248726497
1.02975e-06;-0.012131886989418634
1.03000e-06;-0.012164490730110798
1.03025e-06;-0.012197094470802935
1.03050e-06;-0.0122296982114951
1.03075e-06;-0.012262301952187237
1.03100e-06;-0.012294905692879401
1.03125e-06;-0.012327509433571538
1.03150e-06;-0.012360113174263675
1.03175e-06;-0.012396514632291003
1.03200e-06;-0.012433943555242225
1.03225e-06;-0.012471372478193478
1.03250e-06;-0.012508801401144699
1.03275e-06;-0.01254623032409592
1.03300e-06;-0.012583659247047173
1.03325e-06;-0.012621088169998395
1.03350e-06;-0.012658517092949649
1.03375e-06;-0.012696596927499719
1.03400e-06;-0.012734852864897199
1.03425e-06;-0.012773108802294712
1.03450e-06;-0.012811364739692192
1.03475e-06;-0.012849620677089703
1.03500e-06;-0.012887876614487183
1.03525e-06;-0.012926132551884696
1.03550e-06;-0.012964388489282176
1.03575e-06;-0.01300016588041136
1.03600e-06;-0.013035272705743237
1.03625e-06;-0.013070379531075083
1.03650e-06;-0.0131029178944223
1.03675e-06;-0.013134761365452696
1.03700e-06;-0.01316660483648309
1.03725e-06;-0.013191079659941646
1.03750e-06;-0.013213560910353968
1.03775e-06;-0.01323604216076631
1.03800e-06;-0.013258523411178632
1.03825e-06;-0.013281004661590956
1.03850e-06;-0.013303485912003298
1.03875e-06;-0.01332596716241562
1.03900e-06;-0.013348448412827962
1.03925e-06;-0.013366929676292372
1.03950e-06;-0.013375476697478031
1.03975e-06;-0.013384023718663682
1.04000e-06;-0.013392570739849332
1.04025e-06;-0.01340111776103499
1.04050e-06;-0.013409664782220642
1.04075e-06;-0.013418211803406301
1.04100e-06;-0.01342675882459195
1.04125e-06;-0.013435305845777602
1.04150e-06;-0.013435033221765862
1.04175e-06;-0.013432374460166378
1.04200e-06;-0.01342971569856689
1.04225e-06;-0.013427056936967406
1.04250e-06;-0.01342439817536792
1.04275e-06;-0.013421739413768433
1.04300e-06;-0.013419080652168949
1.04325e-06;-0.013416421890569461
1.04350e-06;-0.013412247773191183
1.04375e-06;-0.013404310165671418
1.04400e-06;-0.013396372558151645
1.04425e-06;-0.013388434950631878
1.04450e-06;-0.013380497343112105
1.04475e-06;-0.013372559735592338
1.04500e-06;-0.013364622128072566
1.04525e-06;-0.0133566845205528
1.04550e-06;-0.013348746913033033
1.04575e-06;-0.013341365941671663
1.04600e-06;-0.013334135567123494
1.04625e-06;-0.013326905192575319
1.04650e-06;-0.013319674818027148
1.04675e-06;-0.013313370118548624
1.04700e-06;-0.013309364396674914
1.04725e-06;-0.013305358674801206
1.04750e-06;-0.013301352952927495
1.04775e-06;-0.013297347231053787
1.04800e-06;-0.01329264230046183
1.04825e-06;-0.013287748200332222
1.04850e-06;-0.013282854100202617
1.04875e-06;-0.01327796000007301
1.04900e-06;-0.013273065899943405
1.04925e-06;-0.013268171799813796
1.04950e-06;-0.013263277699684191
1.04975e-06;-0.013258383599554587
1.05000e-06;-0.013253489499424979
1.05025e-06;-0.013244893706081095
1.05050e-06;-0.013235296426949674
1.05075e-06;-0.013225699147818262
1.05100e-06;-0.013216101868686849
1.05125e-06;-0.013206504589555428
1.05150e-06;-0.013196907310424015
1.05175e-06;-0.013187310031292596
1.05200e-06;-0.013177712752161183
1.05225e-06;-0.013168115473029771
1.05250e-06;-0.013155473876085656
1.05275e-06;-0.013142008644970489
1.05300e-06;-0.01312854341385531
1.05325e-06;-0.013115078182740141
1.05350e-06;-0.013101612951624963
1.05375e-06;-0.013088147720509796
1.05400e-06;-0.013074682489394628
1.05425e-06;-0.013061217258279448
1.05450e-06;-0.01304775202716428
1.05475e-06;-0.0130342867960491
1.05500e-06;-0.013020821564933933
1.05525e-06;-0.013010465223021654
1.05550e-06;-0.013000949984942488
1.05575e-06;-0.012991434746863331
1.05600e-06;-0.012981919508784166
1.05625e-06;-0.012972404270705007
1.05650e-06;-0.01296288903262585
1.05675e-06;-0.012953373794546684
1.05700e-06;-0.012943858556467526
1.05725e-06;-0.01293434331838836
1.05750e-06;-0.012924828080309203
1.05775e-06;-0.012915312842230037
1.05800e-06;-0.012912666031309064
1.05825e-06;-0.01291187745978908
1.05850e-06;-0.012911088888269095
1.05875e-06;-0.012910300316749111
1.05900e-06;-0.012909511745229127
1.05925e-06;-0.012908723173709143
1.05950e-06;-0.012907934602189157
1.05975e-06;-0.012907146030669173
1.06000e-06;-0.01290635745914919
1.06025e-06;-0.012905568887629204
1.06050e-06;-0.01290478031610922
1.06075e-06;-0.012903991744589236
1.06100e-06;-0.012903203173069252
1.06125e-06;-0.012902414601549266
1.06150e-06;-0.012901626030029282
1.06175e-06;-0.012900837458509298
1.06200e-06;-0.012900048886989313
1.06225e-06;-0.012899260315469329
1.06250e-06;-0.012901950561839588
1.06275e-06;-0.012905581995518589
1.06300e-06;-0.012909213429197586
1.06325e-06;-0.012912844862876588
1.06350e-06;-0.012916476296555585
1.06375e-06;-0.012920107730234583
1.06400e-06;-0.012923739163913584
1.06425e-06;-0.012927370597592582
1.06450e-06;-0.012931002031271583
1.06475e-06;-0.01293463346495058
1.06500e-06;-0.012938264898629578
1.06525e-06;-0.01294189633230858
1.06550e-06;-0.012945527765987577
1.06575e-06;-0.012949159199666578
1.06600e-06;-0.012952790633345576
1.06625e-06;-0.012956422067024577
1.06650e-06;-0.012960053500703575
1.06675e-06;-0.012963684934382573
1.06700e-06;-0.012970212505232837
1.06725e-06;-0.012977523620274212
1.06750e-06;-0.012984834735315592
1.06775e-06;-0.012992145850356967
1.06800e-06;-0.012999456965398342
1.06825e-06;-0.013006768080439724
1.06850e-06;-0.0130140791954811
1.06875e-06;-0.01302139031052248
1.06900e-06;-0.013035304366648083
1.06925e-06;-0.013051004835441594
1.06950e-06;-0.013066705304235118
1.06975e-06;-0.013082405773028629
1.07000e-06;-0.013098106241822154
1.07025e-06;-0.013113806710615666
1.07050e-06;-0.013129507179409191
1.07075e-06;-0.013145207648202702
1.07100e-06;-0.013167504382466813
1.07125e-06;-0.013191585723324748
1.07150e-06;-0.013215667064182663
1.07175e-06;-0.013239748405040597
1.07200e-06;-0.013263829745898513
1.07225e-06;-0.013287911086756428
1.07250e-06;-0.013311992427614362
1.07275e-06;-0.013340049397456121
1.07300e-06;-0.013369181965866611
1.07325e-06;-0.013398314534277075
1.07350e-06;-0.013427447102687541
1.07375e-06;-0.01345657967109803
1.07400e-06;-0.013485712239508495
1.07425e-06;-0.013514844807918983
1.07450e-06;-0.013544934057212252
1.07475e-06;-0.013575282134628698
1.07500e-06;-0.013605630212045118
1.07525e-06;-0.013635357431213493
1.07550e-06;-0.013664916678409238
1.07575e-06;-0.013694475925604958
1.07600e-06;-0.013722666157151822
1.07625e-06;-0.013750486004219018
1.07650e-06;-0.013778305851286216
1.07675e-06;-0.013803097874169694
1.07700e-06;-0.013827070725200986
1.07725e-06;-0.013851043576232298
1.07750e-06;-0.013875016427263591
1.07775e-06;-0.013898989278294882
1.07800e-06;-0.013920240080191465
1.07825e-06;-0.013941285133834525
1.07850e-06;-0.0139623301874776
1.07875e-06;-0.013983375241120657
1.07900e-06;-0.014003949920002352
1.07925e-06;-0.014025076988177745
1.07950e-06;-0.02065851061472853
1.07975e-06;-0.029747210003759558
1.08000e-06;-0.02776233463011822
1.08025e-06;-0.025451831954900597
1.08050e-06;-0.019887216411674073
1.08075e-06;-0.012836160139101677
1.08100e-06;-0.012272666685213617
1.08125e-06;-0.013005149757058354
1.08150e-06;-0.01692183841923103
1.08175e-06;-0.022523043586223066
1.08200e-06;-0.02221533202257559
1.08225e-06;-0.020198890668361027
1.08250e-06;-0.016723668188663818
1.08275e-06;-0.012891735773938606
1.08300e-06;-0.011588016589761597
1.08325e-06;-0.01259611429050177
1.08350e-06;-0.015181578576907506
1.08375e-06;-0.018104978404515144
1.08400e-06;-0.018823444032818566
1.08425e-06;-0.017623921926308423
1.08450e-06;-0.01543953887822219
1.08475e-06;-0.013108540550845935
1.08500e-06;-0.012326321997641372
1.08525e-06;-0.012988424408225929
1.08550e-06;-0.01463517372195331
1.08575e-06;-0.016490554572625996
1.08600e-06;-0.01696211896741113
1.08625e-06;-0.01623001562023352
1.08650e-06;-0.014879080388418746
1.08675e-06;-0.013434618209207203
1.08700e-06;-0.012958746655063833
1.08725e-06;-0.013386067684838153
1.08750e-06;-0.014428478854193426
1.08775e-06;-0.01559893316930282
1.08800e-06;-0.01589848803239858
1.08825e-06;-0.015439366109044587
1.08850e-06;-0.014588105762487227
1.08875e-06;-0.013674075859768048
1.08900e-06;-0.013362850348633068
1.08925e-06;-0.013613691591285757
1.08950e-06;-0.014246361685283987
1.08975e-06;-0.014956023996249013
1.09000e-06;-0.015117228061417874
1.09025e-06;-0.01480057306666768
1.09050e-06;-0.014235949111698258
1.09075e-06;-0.013629938846945583
1.09100e-06;-0.013399692443866743
1.09125e-06;-0.013519905807171627
1.09150e-06;-0.013877899373270547
1.09175e-06;-0.014282955189180158
1.09200e-06;-0.014343549383855
1.09225e-06;-0.014104178785243221
1.09250e-06;-0.013709107761522173
1.09275e-06;-0.013287988864517755
1.09300e-06;-0.013102355083040005
1.09325e-06;-0.013136576504090497
1.09350e-06;-0.01332029261632805
1.09375e-06;-0.013534268916423578
1.09400e-06;-0.013533502904154487
1.09425e-06;-0.013346123072847714
1.09450e-06;-0.013062747727246877
1.09475e-06;-0.012764836635914158
1.09500e-06;-0.012616442944052241
1.09525e-06;-0.012608001110201382
1.09550e-06;-0.012695665357685987
1.09575e-06;-0.012804977427836556
1.09600e-06;-0.01278271234897995
1.09625e-06;-0.012646738588631662
1.09650e-06;-0.012454063523240095
1.09675e-06;-0.012255953284790165
1.09700e-06;-0.012155404860727302
1.09725e-06;-0.012146649201802173
1.09750e-06;-0.012202356026025662
1.09775e-06;-0.01227562237421131
1.09800e-06;-0.012269811754198716
1.09825e-06;-0.012195619243625003
1.09850e-06;-0.0120885444337696
1.09875e-06;-0.011980550748192698
1.09900e-06;-0.011936000493352516
1.09925e-06;-0.011951123373400065
1.09950e-06;-0.012004845169511454
1.09975e-06;-0.01205864860596961
1.10000e-06;-0.012101590618867527
1.10025e-06;-0.012082886196001431
1.10050e-06;-0.01204822553984409
1.10075e-06;-0.012025098937671239
1.10100e-06;-0.012011476355462217
1.10125e-06;-0.01205472542539654
1.10150e-06;-0.01212953437686388
1.10175e-06;-0.012200914410083717
1.10200e-06;-0.012249532994447528
1.10225e-06;-0.012272323155167244
1.10250e-06;-0.012282190983506582
1.10275e-06;-0.012295753299515374
1.10300e-06;-0.012333034940733902
1.10325e-06;-0.012394813467109397
1.10350e-06;-0.0124758096601012
1.10375e-06;-0.0125545073241399
1.10400e-06;-0.012618007123199874
1.10425e-06;-0.012664375490054261
1.10450e-06;-0.012701333629444015
1.10475e-06;-0.012740313095985242
1.10500e-06;-0.012792351971748606
1.10525e-06;-0.012857803556684373
1.10550e-06;-0.012932110970767696
1.10575e-06;-0.013007709199067715
1.10600e-06;-0.0130693773648739
1.10625e-06;-0.01311842259903321
1.10650e-06;-0.013159970841227697
1.10675e-06;-0.013198600290962767
1.10700e-06;-0.013243875464775026
1.10725e-06;-0.013294870572659495
1.10750e-06;-0.013348630587405146
1.10775e-06;-0.013400522316058594
1.10800e-06;-0.013441341835148349
1.10825e-06;-0.01347181010315258
1.10850e-06;-0.013494389087651557
1.10875e-06;-0.013517160335632895
1.10900e-06;-0.013540963077994938
1.10925e-06;-0.013564442210969474
1.10950e-06;-0.013586185178237323
1.10975e-06;-0.013607928145505155
1.11000e-06;-0.013627077701776614
1.11025e-06;-0.013632313597291102
1.11050e-06;-0.013636490726779417
1.11075e-06;-0.013634987572143988
1.11100e-06;-0.013633484417508559
1.11125e-06;-0.013631981262873127
1.11150e-06;-0.013630478108237698
1.11175e-06;-0.013627022264806549
1.11200e-06;-0.013613090237883834
1.11225e-06;-0.01359915821096113
1.11250e-06;-0.013585226184038417
1.11275e-06;-0.013571294157115714
1.11300e-06;-0.01355676028013727
1.11325e-06;-0.013538997475112472
1.11350e-06;-0.013521234670087688
1.11375e-06;-0.013502582097759773
1.11400e-06;-0.013479155920158754
1.11425e-06;-0.013455729742557715
1.11450e-06;-0.013432073697429445
1.11475e-06;-0.013407184412063705
1.11500e-06;-0.013382295126697943
1.11525e-06;-0.01335786274754805
1.11550e-06;-0.013335881672141956
1.11575e-06;-0.013313900596735881
1.11600e-06;-0.01329192215507614
1.11625e-06;-0.013269957843476392
1.11650e-06;-0.013248424222561873
1.11675e-06;-0.013229201258960507
1.11700e-06;-0.01321082877594615
1.11725e-06;-0.013197019124809752
1.11750e-06;-0.013184140137204285
1.11775e-06;-0.013176254163303728
1.11800e-06;-0.013169449122794387
1.11825e-06;-0.013168443294413803
1.11850e-06;-0.013168745047928409
1.11875e-06;-0.013176061983735875
1.11900e-06;-0.01318482396836524
1.11925e-06;-0.013201338645919623
1.11950e-06;-0.01321922316420614
1.11975e-06;-0.013244456883704082
1.12000e-06;-0.01327102927793587
1.12025e-06;-0.013304783667668947
1.12050e-06;-0.013340229776077385
1.12075e-06;-0.013384751962197737
1.12100e-06;-0.013429274148318125
1.12125e-06;-0.013475639371595325
1.12150e-06;-0.013531892496865533
1.12175e-06;-0.013588145622135788
1.12200e-06;-0.013645438882115618
1.12225e-06;-0.013708787128745053
1.12250e-06;-0.01377511590905755
1.12275e-06;-0.013844196603460262
1.12300e-06;-0.013915918168043533
1.12325e-06;-0.01398992153955048
1.12350e-06;-0.014065820509549774
1.12375e-06;-0.014143267831540981
1.12400e-06;-0.014221850298237335
1.12425e-06;-0.014301298599394717
1.12450e-06;-0.014381294703356837
1.12475e-06;-0.014461496770830974
1.12500e-06;-0.01454163485729184
1.12525e-06;-0.014621285478003766
1.12550e-06;-0.01470000788985816
1.12575e-06;-0.014777384423585406
1.12600e-06;-0.014852957370342921
1.12625e-06;-0.01492635755474259
1.12650e-06;-0.014997188407491285
1.12675e-06;-0.01506503587339231
1.12700e-06;-0.015129530939480594
1.12725e-06;-0.015190211776573433
1.12750e-06;-0.015246630546526495
1.12775e-06;-0.015298492080788604
1.12800e-06;-0.015345298489270567
1.12825e-06;-0.015386163992522154
1.12850e-06;-0.015425518530133709
1.12875e-06;-0.015456766730818495
1.12900e-06;-0.015486452973607885
1.12925e-06;-0.01550775930580865
1.12950e-06;-0.015527469295092418
1.12975e-06;-0.015538614898004129
1.13000e-06;-0.015548236805501875
1.13025e-06;-0.015549684080782828
1.13050e-06;-0.015549357235269196
1.13075e-06;-0.015539512224332927
1.13100e-06;-0.015529667213396667
1.13125e-06;-0.01551757053224368
1.13150e-06;-0.015493393631037284
1.13175e-06;-0.01546921672983091
1.13200e-06;-0.015445039828624515
1.13225e-06;-0.015419485734143989
1.13250e-06;-0.015386075648379566
1.13275e-06;-0.015349734521445607
1.13300e-06;-0.015310735351572855
1.13325e-06;-0.015269326216611728
1.13350e-06;-0.015225758492446022
1.13375e-06;-0.015180323947875697
1.13400e-06;-0.015133352043561579
1.13425e-06;-0.01508520423947684
1.13450e-06;-0.015036230234446791
1.13475e-06;-0.014986770093628341
1.13500e-06;-0.014937176070583131
1.13525e-06;-0.014887781578792957
1.13550e-06;-0.014838923982358991
1.13575e-06;-0.0147909653521342
1.13600e-06;-0.014744290988628906
1.13625e-06;-0.014699307840303159
1.13650e-06;-0.014657154672023718
1.13675e-06;-0.014621024245572123
1.13700e-06;-0.01458489381912056
1.13725e-06;-0.014548763392668996
1.13750e-06;-0.01451404644666334
1.13775e-06;-0.014486912829113205
1.13800e-06;-0.014459779211563047
1.13825e-06;-0.014432645594012913
1.13850e-06;-0.014406014509895308
1.13875e-06;-0.01438207951972767
1.13900e-06;-0.014358144529560052
1.13925e-06;-0.014334899243272251
1.13950e-06;-0.014315354221160577
1.13975e-06;-0.014295809199048904
1.14000e-06;-0.014276264176937213
1.14025e-06;-0.014256719154825539
1.14050e-06;-0.014237174132713849
1.14075e-06;-0.014217629110602174
1.14100e-06;-0.014199523278390906
1.14125e-06;-0.014182168440413938
1.14150e-06;-0.01416481360243697
1.14175e-06;-0.014147458764459988
1.14200e-06;-0.014130103926483019
1.14225e-06;-0.014112749088506037
1.14250e-06;-0.0140956407003677
1.14275e-06;-0.014079854516635803
1.14300e-06;-0.014064068332903893
1.14325e-06;-0.014048282149171996
1.14350e-06;-0.014032495965440086
1.14375e-06;-0.01401670978170819
1.14400e-06;-0.014000923597976292
1.14425e-06;-0.013985612533722037
1.14450e-06;-0.013972850487436
1.14475e-06;-0.01396008844114995
1.14500e-06;-0.013947326394863912
1.14525e-06;-0.013934564348577863
1.14550e-06;-0.013921802302291826
1.14575e-06;-0.013909040256005787
1.14600e-06;-0.013896797907792769
1.14625e-06;-0.013887343741896988
1.14650e-06;-0.0138778895760012
1.14675e-06;-0.013868800086426604
1.14700e-06;-0.013861667086827624
1.14725e-06;-0.013854931051328963
1.14750e-06;-0.013850324729874915
