Time(s);Current(A)
4.55000e-06;0.0020196904706146763
4.55025e-06;0.0020153149446919903
4.55050e-06;0.0020109394187693037
4.55075e-06;0.0020065638928466025
4.55100e-06;0.002002188366923916
4.55125e-06;0.0019978128410012147
4.55150e-06;0.001993437315078528
4.55175e-06;0.0019890617891558417
4.55200e-06;0.001984686263233141
4.55225e-06;0.0019803107373104543
4.55250e-06;0.001975935211387768
4.55275e-06;0.0019715596854650666
4.55300e-06;0.00196718415954238
4.55325e-06;0.0019567618623179774
4.55350e-06;0.001945111859534683
4.55375e-06;0.001933461856751428
4.55400e-06;0.0019218118539681731
4.55425e-06;0.0019101618511848787
4.55450e-06;0.0018985118484016238
4.55475e-06;0.0018868618456183688
4.55500e-06;0.0018752118428350742
4.55525e-06;0.0018635618400518192
4.55550e-06;0.0018519118372685248
4.55575e-06;0.0018387396435434336
4.55600e-06;0.0018224940849516107
4.55625e-06;0.0018062485263597326
4.55650e-06;0.0017900029677679096
4.55675e-06;0.0017737574091760866
4.55700e-06;0.0017575118505842085
4.55725e-06;0.0017412662919923856
4.55750e-06;0.0017250207334005626
4.55775e-06;0.0017087751748086845
4.55800e-06;0.0016925296162168615
4.55825e-06;0.0016762840576250385
4.55850e-06;0.0016608156782091778
4.55875e-06;0.0016455050932834934
4.55900e-06;0.0016301945083578091
4.55925e-06;0.0016148839234320731
4.55950e-06;0.001599573338506389
4.55975e-06;0.0015842627535806527
4.56000e-06;0.0015708522755515583
4.56025e-06;0.0015612781899342612
4.56050e-06;0.0015517041043169315
4.56075e-06;0.0015421300186996344
4.56100e-06;0.0015325559330823372
4.56125e-06;0.0015229818474650075
4.56150e-06;0.0015134077618477104
4.56175e-06;0.0015110793540116356
4.56200e-06;0.0015102220715816992
4.56225e-06;0.0015093647891517657
4.56250e-06;0.001513536347933924
4.56275e-06;0.0015187289369487102
4.56300e-06;0.0015239215259634788
4.56325e-06;0.0015347057590784764
4.56350e-06;0.0015466252910497332
4.56375e-06;0.0015585448230209494
4.56400e-06;0.001579010004622869
4.56425e-06;0.0016012102512748413
4.56450e-06;0.0016234104979268138
4.56475e-06;0.0016456107445788613
4.56500e-06;0.0016678109912308336
4.56525e-06;0.001690011237882806
4.56550e-06;0.0017122114845348536
4.56575e-06;0.0017377259284508447
4.56600e-06;0.001769931870227272
4.56625e-06;0.0018021378120038085
4.56650e-06;0.0018343437537802357
4.56675e-06;0.0018665496955566632
4.56700e-06;0.0018987556373331995
4.56725e-06;0.0019309615791096267
4.56750e-06;0.001963167520886054
4.56775e-06;0.0019967860750561214
4.56800e-06;0.002030691438830847
4.56825e-06;0.0020645968026056873
4.56850e-06;0.0020985021663804124
4.56875e-06;0.002132407530155138
4.56900e-06;0.0021663128939299783
4.56925e-06;0.0022002182577047034
4.56950e-06;0.002227473528618602
4.56975e-06;0.0022533785986468243
4.57000e-06;0.0022792836686749587
4.57025e-06;0.0023051887387030936
4.57050e-06;0.002331093808731316
4.57075e-06;0.002356998878759451
4.57100e-06;0.002382903948787586
4.57125e-06;0.002392060702331766
4.57150e-06;0.0023978169632476484
4.57175e-06;0.00240357322416353
4.57200e-06;0.002409329485079432
4.57225e-06;0.002415085745995314
4.57250e-06;0.0024208420069112154
4.57275e-06;0.0024265982678270976
4.57300e-06;0.0024323545287429794
4.57325e-06;0.002438110789658881
4.57350e-06;0.0024438670505747633
4.57375e-06;0.002441859837648858
4.57400e-06;0.0024241778581188867
4.57425e-06;0.0024064958785889753
4.57450e-06;0.0023888138990590634
4.57475e-06;0.002371131919529092
4.57500e-06;0.0023534499399991806
4.57525e-06;0.002335767960469269
4.57550e-06;0.0023180859809392973
4.57575e-06;0.002300404001409386
4.57600e-06;0.0022827220218794744
4.57625e-06;0.002265040042349503
4.57650e-06;0.0022378284758144016
4.57675e-06;0.002208682070611301
4.57700e-06;0.0021795356654082994
4.57725e-06;0.0021503892602052974
4.57750e-06;0.002121242855002197
4.57775e-06;0.002092096449799195
4.57800e-06;0.002062950044596193
4.57825e-06;0.002033861285493595
4.57850e-06;0.0020047842305608815
4.57875e-06;0.001975707175628168
4.57900e-06;0.001946630120695356
4.57925e-06;0.0019175530657626425
4.57950e-06;0.001888476010829929
4.57975e-06;0.001859398955897117
4.58000e-06;0.0018417417224980833
4.58025e-06;0.0018264031113299174
4.58050e-06;0.0018110645001616994
4.58075e-06;0.0017957258889935335
4.58100e-06;0.0017803872778253155
4.58125e-06;0.0017650486666571494
4.58150e-06;0.0017497100554889834
4.58175e-06;0.0017343714443207655
4.58200e-06;0.0017190328331525995
4.58225e-06;0.0017036942219844334
4.58250e-06;0.0016883556108162154
4.58275e-06;0.0016730169996480495
4.58300e-06;0.0016754903434873394
4.58325e-06;0.001681580135686172
4.58350e-06;0.001687669927884984
4.58375e-06;0.001693759720083796
4.58400e-06;0.0016998495122826284
4.58425e-06;0.0017059393044814406
4.58450e-06;0.0017120290966802525
4.58475e-06;0.0017181188888790852
4.58500e-06;0.001724208681077897
4.58525e-06;0.0017302984732767296
4.58550e-06;0.0017363882654755417
4.58575e-06;0.0017424780576743536
4.58600e-06;0.0017584779207262576
4.58625e-06;0.0017764898739423037
4.58650e-06;0.0017945018271583498
4.58675e-06;0.0018125137803744569
4.58700e-06;0.001830525733590503
4.58725e-06;0.001848537686806549
4.58750e-06;0.0018665496400226563
4.58775e-06;0.0018845615932387024
4.58800e-06;0.0019036412728505538
4.58825e-06;0.0019229377381757885
4.58850e-06;0.0019422342035009578
4.58875e-06;0.001961530668826127
4.58900e-06;0.0019808271341513616
4.58925e-06;0.002000123599476531
4.58950e-06;0.0020194200648017656
4.58975e-06;0.002038716530126935
4.59000e-06;0.002053283092470353
4.59025e-06;0.002066889319473437
4.59050e-06;0.0020804955464764747
4.59075e-06;0.0020941017734795128
4.59100e-06;0.002107708000482597
4.59125e-06;0.002121314227485635
4.59150e-06;0.0021349204544886726
4.59175e-06;0.0021485266814917567
4.59200e-06;0.002162132908494795
4.59225e-06;0.0021757391354978325
4.59250e-06;0.0021887304016421486
4.59275e-06;0.0022015968092749766
4.59300e-06;0.0022144632169078045
4.59325e-06;0.002227329624540676
4.59350e-06;0.0022401960321735033
4.59375e-06;0.0022530624398063746
4.59400e-06;0.0022659288474392025
4.59425e-06;0.0022787952550720305
4.59450e-06;0.0022916616627049018
4.59475e-06;0.0023045280703377293
4.59500e-06;0.0023185272719042837
4.59525e-06;0.002332756470164674
4.59550e-06;0.0023469856684250165
4.59575e-06;0.002361214866685359
4.59600e-06;0.0023754440649457493
4.59625e-06;0.002389673263206092
4.59650e-06;0.0024039024614664344
4.59675e-06;0.002418131659726825
4.59700e-06;0.002432360857987167
4.59725e-06;0.0024465900562475095
4.59750e-06;0.0024608192545079
4.59775e-06;0.0024750484527682427
4.59800e-06;0.002489277651028633
4.59825e-06;0.0025035068492889755
4.59850e-06;0.002517736047549318
4.59875e-06;0.0025319652458097083
4.59900e-06;0.0025461944440700506
4.59925e-06;0.0025581309550664426
4.59950e-06;0.0025696019705523285
4.59975e-06;0.002581072986038175
4.60000e-06;0.002592544001524022
4.60025e-06;0.0026040150170099073
4.60050e-06;0.0026125951542823444
4.60075e-06;0.0026153384919244084
4.60100e-06;0.002618081829566481
4.60125e-06;0.0026208251672085446
4.60150e-06;0.0026235685048506085
4.60175e-06;0.002626311842492681
4.60200e-06;0.0026174451038468386
4.60225e-06;0.002606221114618393
4.60250e-06;0.0025949971253899856
4.60275e-06;0.0025752490335447047
4.60300e-06;0.0025537702514471334
4.60325e-06;0.0025322914693496346
4.60350e-06;0.0025007733262400935
4.60375e-06;0.002467216842554009
4.60400e-06;0.002433660358868039
4.60425e-06;0.0023915926749697165
4.60450e-06;0.002347796920457417
4.60475e-06;0.002304001165945266
4.60500e-06;0.002252520223162633
4.60525e-06;0.0021994789190112364
4.60550e-06;0.002146437614860019
4.60575e-06;0.002084993437912396
4.60600e-06;0.002021843184595983
4.60625e-06;0.0019586929312797844
4.60650e-06;0.0018955426779633717
4.60675e-06;0.0018323924246471729
4.60700e-06;0.001767349880593833
4.60725e-06;0.0016984867252732916
4.60750e-06;0.0016296235699529836
4.60775e-06;0.0015607604146326756
4.60800e-06;0.0014918972593121343
4.60825e-06;0.0014230341039918263
4.60850e-06;0.001356903118859751
4.60875e-06;0.0012913268596058001
4.60900e-06;0.0012257506003520713
4.60925e-06;0.0011601743410983422
4.60950e-06;0.001098199235127439
4.60975e-06;0.0010434950027790823
4.61000e-06;0.0009887907704307255
4.61025e-06;0.0009340865380821835
4.61050e-06;0.0008793823057338268
4.61075e-06;0.0008347320087389811
4.61100e-06;0.0007921230114200874
4.61125e-06;0.0007545888685150738
4.61150e-06;0.0007180850981262873
4.61175e-06;0.0006864762903755102
4.61200e-06;0.000655861330833802
4.61225e-06;0.0006293357400432197
4.61250e-06;0.0006065902621719733
4.61275e-06;0.000587431705753223
4.61300e-06;0.0005715554544266351
4.61325e-06;0.0005584601630087846
4.61350e-06;0.0005479035887499574
4.61375e-06;0.0005409741824896765
4.61400e-06;0.0005346952930031103
4.61425e-06;0.0005317010251014258
4.61450e-06;0.0005327184612897686
4.61475e-06;0.000534415010878583
4.61500e-06;0.0005399567834678145
4.61525e-06;0.0005462792704924048
4.61550e-06;0.0005555466507250035
4.61575e-06;0.0005654119470311255
4.61600e-06;0.0005780017473468029
4.61625e-06;0.0005911447170389288
4.61650e-06;0.0006073496773248043
4.61675e-06;0.0006241763285391158
4.61700e-06;0.0006410029797534273
4.61725e-06;0.0006604467676175964
4.61750e-06;0.0006804219255378675
4.61775e-06;0.0007003970834581387
4.61800e-06;0.0007203722413784775
4.61825e-06;0.0007403473992987487
4.61850e-06;0.0007607939046379674
4.61875e-06;0.000781336109949395
4.61900e-06;0.000801878315260753
4.61925e-06;0.0008224205205721806
4.61950e-06;0.0008429627258835384
4.61975e-06;0.000861230250167743
4.62000e-06;0.0008790359348361257
4.62025e-06;0.0008968416195044482
4.62050e-06;0.0009114668936968573
4.62075e-06;0.0009254464335929557
4.62100e-06;0.0009394259734890069
4.62125e-06;0.0009491632511392127
4.62150e-06;0.0009580392015340618
4.62175e-06;0.0009669151519288811
4.62200e-06;0.0009712217157374108
4.62225e-06;0.0009746005346355736
4.62250e-06;0.000977979353533725
4.62275e-06;0.0009766418274572636
4.62300e-06;0.0009743467187899916
4.62325e-06;0.0009720516101227272
4.62350e-06;0.0009650728640764454
4.62375e-06;0.0009571431762225428
4.62400e-06;0.0009492134883686402
4.62425e-06;0.000937053343968981
4.62450e-06;0.0009240342692831094
4.62475e-06;0.0009110151945972378
4.62500e-06;0.0008942381978057642
4.62525e-06;0.0008766982117069581
4.62550e-06;0.0008591582256081521
4.62575e-06;0.0008376179428010861
4.62600e-06;0.0008152654601855463
4.62625e-06;0.0007929129775700064
4.62650e-06;0.0007705604949543908
4.62675e-06;0.000748208012338851
4.62700e-06;0.0007248149324722544
4.62725e-06;0.0006993208448153696
4.62750e-06;0.0006738267571585712
4.62775e-06;0.0006483326695017728
4.62800e-06;0.0006228385818448879
4.62825e-06;0.0005973444941880896
4.62850e-06;0.0005723326181414002
4.62875e-06;0.000547418647876794
4.62900e-06;0.0005225046776121878
4.62925e-06;0.0004975907073474973
4.62950e-06;0.00047537847036458554
4.62975e-06;0.0004537147795055993
4.63000e-06;0.0004320510886465397
4.63025e-06;0.00041038739778755345
4.63050e-06;0.000392162861016764
4.63075e-06;0.0003746365925233205
4.63100e-06;0.00035958884369619715
4.63125e-06;0.0003471144310176484
4.63150e-06;0.00033723278949968554
4.63175e-06;0.0003299571047699046
4.63200e-06;0.0003252769802410535
4.63225e-06;0.000323181739719171
4.63250e-06;0.0003236607262905079
4.63275e-06;0.0003267407129904369
4.63300e-06;0.0003325383726560096
4.63325e-06;0.0003411716778327266
4.63350e-06;0.000352627157821934
4.63375e-06;0.0003667963907812735
4.63400e-06;0.000383556216047608
4.63425e-06;0.00040278327230734164
4.63450e-06;0.00042435426099906887
4.63475e-06;0.00044908158471012195
4.63500e-06;0.00047437015037662245
4.63525e-06;0.0005031931926932657
4.63550e-06;0.0005327338570932398
4.63575e-06;0.000565292510855692
4.63600e-06;0.0005984639217608892
4.63625e-06;0.0006344730955963054
4.63650e-06;0.0006710584343205856
4.63675e-06;0.0007076437730447418
4.63700e-06;0.0007468473193187024
4.63725e-06;0.0007865824530783798
4.63750e-06;0.0008263175868380572
4.63775e-06;0.0008660527205978692
4.63800e-06;0.0009057878543575466
4.63825e-06;0.0009449631656843254
4.63850e-06;0.000984024813524302
4.63875e-06;0.0010230864613641462
4.63900e-06;0.0010621481092039904
4.63925e-06;0.001101209757043967
4.63950e-06;0.00113653202998455
4.63975e-06;0.0011710950793481433
4.64000e-06;0.0012056581287118535
4.64025e-06;0.001235088343480077
4.64050e-06;0.0012634764137331113
4.64075e-06;0.001291864483986242
4.64100e-06;0.0013132995451718673
4.64125e-06;0.0013333229029159532
4.64150e-06;0.0013533462606599715
4.64175e-06;0.0013656226598698874
4.64200e-06;0.0013763261561944428
4.64225e-06;0.0013870296525189622
4.64250e-06;0.00138967695192725
4.64275e-06;0.0013906885622688222
4.64300e-06;0.0013917001726103909
4.64325e-06;0.0013846230074640964
4.64350e-06;0.0013759035386643366
4.64375e-06;0.0013671840698646065
4.64400e-06;0.0013509992052549255
4.64425e-06;0.0013332986048170457
4.64450e-06;0.0013155980043792258
4.64475e-06;0.0012911998947408231
4.64500e-06;0.0012654419570486302
4.64525e-06;0.0012396840193565244
4.64550e-06;0.001208297730220366
4.64575e-06;0.001175768689359733
4.64600e-06;0.0011432396484990998
4.64625e-06;0.0011054784793626446
4.64650e-06;0.001066655005629726
4.64675e-06;0.0010278315318968075
4.64700e-06;0.0009890080581637574
4.64725e-06;0.000950184584430839
4.64750e-06;0.0009086320876206341
4.64775e-06;0.0008665255039060063
4.64800e-06;0.000824418920191521
4.64825e-06;0.0007823123364770359
4.64850e-06;0.000740205752762408
4.64875e-06;0.0006993625531521694
4.64900e-06;0.0006587758645963923
4.64925e-06;0.0006181891760404777
4.64950e-06;0.0005801679774221914
4.64975e-06;0.0005426676627747325
4.65000e-06;0.0005082930403123747
4.65025e-06;0.00047455304242345945
4.65050e-06;0.00044373600768722956
4.65075e-06;0.0004156968538753241
4.65100e-06;0.00039023458529633336
4.65125e-06;0.0003671836462708328
4.65150e-06;0.0003464876580770086
4.65175e-06;0.0003282155747162732
4.65200e-06;0.00031245770698239833
4.65225e-06;0.0002993046018038695
4.65250e-06;0.00028884672862115125
4.65275e-06;0.0002811289160110318
4.65300e-06;0.00027605546301564545
4.65325e-06;0.00027343872290046766
4.65350e-06;0.00027315943995293
4.65375e-06;0.00027517689159324983
4.65400e-06;0.00027946373275366816
4.65425e-06;0.000285992732072497
4.65450e-06;0.00029473664836443715
4.65475e-06;0.0003056396454900366
4.65500e-06;0.000318557852899037
4.65525e-06;0.0003332898202642804
4.65550e-06;0.000350312268716178
4.65575e-06;0.00036773882748641733
4.65600e-06;0.00038753890050987797
4.65625e-06;0.0004078208797420419
4.65650e-06;0.00043053932889778717
4.65675e-06;0.00045375246645986344
4.65700e-06;0.0004769656040220183
4.65725e-06;0.0005021608976819673
4.65750e-06;0.0005277586381899624
4.65775e-06;0.0005533563786980441
4.65800e-06;0.0005789541192060393
4.65825e-06;0.0006045518597141211
4.65850e-06;0.0006301496002221161
4.65875e-06;0.0006557473407301113
4.65900e-06;0.0006813450812381931
4.65925e-06;0.0007069428217461881
4.65950e-06;0.0007302773434001926
4.65975e-06;0.0007531523526601
4.66000e-06;0.00077602736191993
4.66025e-06;0.0007955489394575027
4.66050e-06;0.0008143896533496985
4.66075e-06;0.0008332303672418305
4.66100e-06;0.0008492646307264903
4.66125e-06;0.0008647290868576036
4.66150e-06;0.0008801935429886645
4.66175e-06;0.0008919731368794058
4.66200e-06;0.000903004575165549
4.66225e-06;0.0009140360134516547
4.66250e-06;0.0009250674517377979
4.66275e-06;0.0009360988900239038
4.66300e-06;0.0009471303283100095
4.66325e-06;0.0009581617665961527
4.66350e-06;0.0009691932048822584
4.66375e-06;0.0009802246431683643
4.66400e-06;0.0009871167212602563
4.66425e-06;0.0009931683648048573
4.66450e-06;0.0009992200083494584
4.66475e-06;0.00100527165189408
4.66500e-06;0.001011323295438681
4.66525e-06;0.0010173749389832821
4.66550e-06;0.0010234265825279038
4.66575e-06;0.0010294782260725048
4.66600e-06;0.0010355298696171058
4.66625e-06;0.0010391363314975718
4.66650e-06;0.0010422463361845669
4.66675e-06;0.0010453563408715724
4.66700e-06;0.0010484663455585675
4.66725e-06;0.0010515763502455624
4.66750e-06;0.001054686354932568
4.66775e-06;0.001057796359619563
4.66800e-06;0.001060906364306558
4.66825e-06;0.0010640163689935634
4.66850e-06;0.0010665951456795583
4.66875e-06;0.0010681013516218444
4.66900e-06;0.0010696075575641355
4.66925e-06;0.0010711137635064213
4.66950e-06;0.0010726199694487074
4.66975e-06;0.0010741261753909983
4.67000e-06;0.0010756323813332844
4.67025e-06;0.0010771385872755702
4.67050e-06;0.0010786447932178613
4.67075e-06;0.0010801509991601474
4.67100e-06;0.00107890787584693
4.67125e-06;0.0010771065427671947
4.67150e-06;0.0010753052096874592
4.67175e-06;0.0010691356385077548
4.67200e-06;0.0010620791625803223
4.67225e-06;0.00105502268665289
4.67250e-06;0.0010440062692188897
4.67275e-06;0.0010321858454916556
4.67300e-06;0.0010203654217644212
4.67325e-06;0.0010035138989010325
4.67350e-06;0.0009856408873715869
4.67375e-06;0.0009677678758421413
4.67400e-06;0.0009451966955990938
4.67425e-06;0.0009216716231821823
4.67450e-06;0.0008981465507652708
4.67475e-06;0.0008707205492147082
4.67500e-06;0.0008425025229417556
4.67525e-06;0.0008142844966687074
4.67550e-06;0.000782278276022326
4.67575e-06;0.0007495029197432607
4.67600e-06;0.0007167275634640845
4.67625e-06;0.0006810633426679261
4.67650e-06;0.0006448125815786868
4.67675e-06;0.0006085618204893248
4.67700e-06;0.0005723110594000855
4.67725e-06;0.0005355022225933198
4.67750e-06;0.0004975666084212502
4.67775e-06;0.0004596309942493092
4.67800e-06;0.00042169538007736816
4.67825e-06;0.0003837597659052986
4.67850e-06;0.00034666492752086014
4.67875e-06;0.0003097407959569955
4.67900e-06;0.0002742170853398916
4.67925e-06;0.00023897770903754875
4.67950e-06;0.0002051068444226106
4.67975e-06;0.00017268386983023486
4.68000e-06;0.0001418717607983987
4.68025e-06;0.00011291500178239632
4.68050e-06;8.605804076625693e-05
4.68075e-06;6.13452619826126e-05
4.68100e-06;3.825833090545427e-05
4.68125e-06;1.6030810715380347e-05
4.68150e-06;-5.6470042237839155e-06
4.68175e-06;-2.6676976056597152e-05
4.68200e-06;-4.689456450658987e-05
4.68225e-06;-6.613452099114348e-05
4.68250e-06;-8.423164115146279e-05
4.68275e-06;-0.00010114604594340529
4.68300e-06;-0.0001171903395356403
4.68325e-06;-0.00013283249267203857
4.68350e-06;-0.00014825436110075458
4.68375e-06;-0.00016320414407777843
4.68400e-06;-0.00017806493098282498
4.68425e-06;-0.00019202084604549424
4.68450e-06;-0.0002057930405521414
4.68475e-06;-0.00021842693654119738
4.68500e-06;-0.00023082971821459402
4.68525e-06;-0.00024323249988803265
4.68550e-06;-0.00025515898929573747
4.68575e-06;-0.00026698877475510194
4.68600e-06;-0.00027881856021450647
4.68625e-06;-0.0002897854570464404
4.68650e-06;-0.00030057715737979724
4.68675e-06;-0.00031136885771319064
4.68700e-06;-0.0003210313718522336
4.68725e-06;-0.0003304646217951895
4.68750e-06;-0.00033989787173817733
4.68775e-06;-0.00034933112168113325
4.68800e-06;-0.0003587643716241211
4.68825e-06;-0.000368197621567077
4.68850e-06;-0.00037697406525166055
4.68875e-06;-0.000384424390630406
4.68900e-06;-0.00039187471600912624
4.68925e-06;-0.00039932504138784645
4.68950e-06;-0.00040677536676659193
4.68975e-06;-0.00041422569214531215
4.69000e-06;-0.0004216760175240324
4.69025e-06;-0.00042784823721661136
4.69050e-06;-0.00043376095686028615
4.69075e-06;-0.00043811924318210835
4.69100e-06;-0.0004421619253036299
4.69125e-06;-0.0004432084392535753
4.69150e-06;-0.0004411130458461937
4.69175e-06;-0.00043607091003879453
4.69200e-06;-0.00042820782304328956
4.69225e-06;-0.0004176504590981453
4.69250e-06;-0.00040452543460138
4.69275e-06;-0.0003888252307196627
4.69300e-06;-0.00037018502171375155
4.69325e-06;-0.00034813229818095705
4.69350e-06;-0.00032256054431926333
4.69375e-06;-0.00029366097416143354
4.69400e-06;-0.00026167229108435346
4.69425e-06;-0.00022683377204648427
4.69450e-06;-0.00018938463616568698
4.69475e-06;-0.00014948004478678725
4.69500e-06;-0.00010705136882351981
4.69525e-06;-6.196253225895993e-05
4.69550e-06;-1.4306725635780909e-05
4.69575e-06;3.563637539958549e-05
4.69600e-06;8.755733422803165e-05
4.69625e-06;0.00014114643643391297
4.69650e-06;0.00019609395500702774
4.69675e-06;0.00025254575570967525
