Time(s);Current(A)
2.25000e-06;0.009367758166546633
2.25025e-06;0.009384180875996762
2.25050e-06;0.009400603585446891
2.25075e-06;0.009417026294896992
2.25100e-06;0.009433449004347122
2.25125e-06;0.009446560034280103
2.25150e-06;0.009415369389330476
2.25175e-06;0.009384178744380795
2.25200e-06;0.009352988099431116
2.25225e-06;0.009321797454481435
2.25250e-06;0.009290606809531808
2.25275e-06;0.009259416164582129
2.25300e-06;0.009228225519632448
2.25325e-06;0.00919703487468282
2.25350e-06;0.009165844229733142
2.25375e-06;0.009132382522277563
2.25400e-06;0.009068539894126482
2.25425e-06;0.009004697265975293
2.25450e-06;0.008940854637824104
2.25475e-06;0.008877012009672915
2.25500e-06;0.008813169381521834
2.25525e-06;0.008749326753370645
2.25550e-06;0.008685484125219455
2.25575e-06;0.008621641497068374
2.25600e-06;0.008557798868917185
2.25625e-06;0.008493836595480034
2.25650e-06;0.008428273778713434
2.25675e-06;0.008362710961946945
2.25700e-06;0.008297148145180344
2.25725e-06;0.008231585328413744
2.25750e-06;0.008166022511647253
2.25775e-06;0.008100459694880652
2.25800e-06;0.008045357076872659
2.25825e-06;0.007998159869637372
2.25850e-06;0.007950962662402005
2.25875e-06;0.007903765455166637
2.25900e-06;0.00785656824793127
2.25925e-06;0.007809371040695984
2.25950e-06;0.007764457714801434
2.25975e-06;0.007750096792341058
2.26000e-06;0.007735735869880705
2.26025e-06;0.007721374947420329
2.26050e-06;0.007707014024959953
2.26075e-06;0.007692653102499576
2.26100e-06;0.007678292180039225
2.26125e-06;0.007663931257578848
2.26150e-06;0.007649570335118472
2.26175e-06;0.00763520941265812
2.26200e-06;0.007620848490197743
2.26225e-06;0.007606487567737367
2.26250e-06;0.007592126645277015
2.26275e-06;0.007579922115892825
2.26300e-06;0.007596564527920317
2.26325e-06;0.007613206939947809
2.26350e-06;0.007629849351975273
2.26375e-06;0.007646491764002764
2.26400e-06;0.007663134176030256
2.26425e-06;0.00767977658805772
2.26450e-06;0.007696419000085211
2.26475e-06;0.007713061412112703
2.26500e-06;0.0077297038241401946
2.26525e-06;0.007746346236167658
2.26550e-06;0.00776298864819515
2.26575e-06;0.0077796310602226415
2.26600e-06;0.007796640291898267
2.26625e-06;0.007818556618211065
2.26650e-06;0.007840472944523861
2.26675e-06;0.007862389270836621
2.26700e-06;0.007884305597149418
2.26725e-06;0.007906221923462214
2.26750e-06;0.007928138249775013
2.26775e-06;0.007950054576087773
2.26800e-06;0.00797197090240057
2.26825e-06;0.007993887228713366
2.26850e-06;0.008015803555026126
2.26875e-06;0.00802690566274448
2.26900e-06;0.00802983480528773
2.26925e-06;0.008032763947830979
2.26950e-06;0.008035693090374222
2.26975e-06;0.008038622232917472
2.27000e-06;0.00804155137546072
2.27025e-06;0.008044480518003964
2.27050e-06;0.008047409660547214
2.27075e-06;0.008050338803090463
2.27100e-06;0.008053267945633706
2.27125e-06;0.00805412378400547
2.27150e-06;0.008027244194810636
2.27175e-06;0.0080003646056158
2.27200e-06;0.007973485016421011
2.27225e-06;0.007946605427226175
2.27250e-06;0.007919725838031341
2.27275e-06;0.007892846248836552
2.27300e-06;0.007865966659641717
2.27325e-06;0.007839087070446882
2.27350e-06;0.007812207481252048
2.27375e-06;0.007785327892057258
2.27400e-06;0.007758448302862423
2.27425e-06;0.007722230858088091
2.27450e-06;0.007678956225797508
2.27475e-06;0.007635681593506851
2.27500e-06;0.007592406961216195
2.27525e-06;0.007549132328925611
2.27550e-06;0.007505857696634954
2.27575e-06;0.007462583064344297
2.27600e-06;0.007419308432053641
2.27625e-06;0.007376033799763058
2.27650e-06;0.007332759167472401
2.27675e-06;0.007289484535181744
2.27700e-06;0.007246776831769786
2.27725e-06;0.007211653165021381
2.27750e-06;0.007176529498272977
2.27775e-06;0.007141405831524572
2.27800e-06;0.007106282164776227
2.27825e-06;0.007071158498027822
2.27850e-06;0.007036034831279418
2.27875e-06;0.007000911164531073
2.27900e-06;0.006965787497782669
2.27925e-06;0.006930663831034264
2.27950e-06;0.0068957463780672445
2.27975e-06;0.006863587530169
2.28000e-06;0.006831428682270755
2.28025e-06;0.0067992698343725105
2.28050e-06;0.0067671109864743196
2.28075e-06;0.006734952138576075
2.28100e-06;0.00670279329067783
2.28125e-06;0.006670634442779639
2.28150e-06;0.006638475594881395
2.28175e-06;0.00660631674698315
2.28200e-06;0.006573824599728146
2.28225e-06;0.0065368737723155105
2.28250e-06;0.0064999229449028105
2.28275e-06;0.006462972117490111
2.28300e-06;0.006426021290077475
2.28325e-06;0.006389070462664776
2.28350e-06;0.0063521196352520765
2.28375e-06;0.00631516880783944
2.28400e-06;0.006265105651194642
2.28425e-06;0.006225121220793557
2.28450e-06;-0.04199245603682248
2.28475e-06;-0.021124951976941208
2.28500e-06;-0.007897793106074563
2.28525e-06;0.009285664573921664
2.28550e-06;0.02491342143364512
2.28575e-06;0.024818041767077994
2.28600e-06;0.01625264338078073
2.28625e-06;0.002881199224630873
2.28650e-06;-0.010609473224600038
2.28675e-06;-0.009776823861443042
2.28700e-06;-0.001264961114228872
2.28725e-06;0.009129942714873399
2.28750e-06;0.01860785352908803
2.28775e-06;0.0183599646914512
2.28800e-06;0.012876623982207182
2.28825e-06;0.0044234599927586915
2.28850e-06;-0.004080153986882862
2.28875e-06;-0.003597053428966172
2.28900e-06;0.0017050346841361982
2.28925e-06;0.00819202996196082
2.28950e-06;0.014108171996133694
2.28975e-06;0.013934934944744634
2.29000e-06;0.010484899841498894
2.29025e-06;0.005177116158230382
2.29050e-06;-0.00015988903390532673
2.29075e-06;0.0001343156526175509
2.29100e-06;0.003448533558538983
2.29125e-06;0.007506089203823415
2.29150e-06;0.01120704973430369
2.29175e-06;0.011094708337155146
2.29200e-06;0.008931032275555518
2.29225e-06;0.0056049650782300404
2.29250e-06;0.0022618551890475898
2.29275e-06;0.0024471374438688864
2.29300e-06;0.004524823613002597
2.29325e-06;0.007068609476472865
2.29350e-06;0.00938939873015831
2.29375e-06;0.00932194591890215
2.29400e-06;0.007970023731254676
2.29425e-06;0.005890470556649475
2.29450e-06;0.0038006777105564697
2.29475e-06;0.003921313504107043
2.29500e-06;0.005227355701061034
2.29525e-06;0.0068252167546785
2.29550e-06;0.00828315447319336
2.29575e-06;0.00824485143254301
2.29600e-06;0.007401731127083016
2.29625e-06;0.006102568897058179
2.29650e-06;0.00479667512660862
2.29675e-06;0.004874926578925773
2.29700e-06;0.0056950708394004415
2.29725e-06;0.006697240371898924
2.29750e-06;0.007610905313831841
2.29775e-06;0.007586435101126034
2.29800e-06;0.0070569199342877436
2.29825e-06;0.006240786533313012
2.29850e-06;0.005419420463727715
2.29875e-06;0.005464068839912441
2.29900e-06;0.005973016199311904
2.29925e-06;0.006596689957589458
2.29950e-06;0.007166280590982255
2.29975e-06;0.007149644930838093
2.30000e-06;0.006818032776060261
2.30025e-06;0.006308210543755168
2.30050e-06;0.0057963670884095255
2.30075e-06;0.005828147732061209
2.30100e-06;0.006151802701518337
2.30125e-06;0.0065482652743255945
2.30150e-06;0.006911713767284467
2.30175e-06;0.006908756155206474
2.30200e-06;0.006709250374017347
2.30225e-06;0.006398804162708046
2.30250e-06;0.006087710353004414
2.30275e-06;0.00611766724103133
2.30300e-06;0.006330878546569031
2.30325e-06;0.006590034472064767
2.30350e-06;0.006828771033604658
2.30375e-06;0.00683818618506081
2.30400e-06;0.006724619267492801
2.30425e-06;0.006541626806142417
2.30450e-06;0.006358224033037735
2.30475e-06;0.006388363726478759
2.30500e-06;0.00653311286596453
2.30525e-06;0.006706377405182561
2.30550e-06;0.006866511322717164
2.30575e-06;0.0068825903236820005
2.30600e-06;0.006821159356307634
2.30625e-06;0.006715696938410045
2.30650e-06;0.006609360714754742
2.30675e-06;0.006636089278822443
2.30700e-06;0.006733826007105873
2.30725e-06;0.006848563565600929
2.30750e-06;0.006954138747769608
2.30775e-06;0.00696847116423419
2.30800e-06;0.006933175567459988
2.30825e-06;0.006869151770443152
2.30850e-06;0.006803363612606225
2.30875e-06;0.006819700228344805
2.30900e-06;0.006879613625401958
2.30925e-06;0.006949896042128514
2.30950e-06;0.007014536164304922
2.30975e-06;0.007022173971461944
2.31000e-06;0.0069988741965538205
2.31025e-06;0.006957722084225032
2.31050e-06;0.006915600882758379
2.31075e-06;0.006925048270930834
2.31100e-06;0.006961906468308167
2.31125e-06;0.007005365673786993
2.31150e-06;0.007045387512561362
2.31175e-06;0.007049795346170106
2.31200e-06;0.007034909885161615
2.31225e-06;0.007010631123850709
2.31250e-06;0.006997644994700903
2.31275e-06;0.0069882467161240195
2.31300e-06;0.00701131703007149
2.31325e-06;0.007037390840162367
2.31350e-06;0.007053201437850313
2.31375e-06;0.007066566229341122
2.31400e-06;0.007057230449137171
2.31425e-06;0.007040005172458356
2.31450e-06;0.007024783502169134
2.31475e-06;0.007028610245138888
2.31500e-06;0.007042740703427611
2.31525e-06;0.007055159579519236
2.31550e-06;0.007067578455610882
2.31575e-06;0.00707821973854795
2.31600e-06;0.007072861133855077
2.31625e-06;0.007066216923387337
2.31650e-06;0.0070595727129195976
2.31675e-06;0.0070544912860183735
2.31700e-06;0.007063214944800584
2.31725e-06;0.0070707378581174735
2.31750e-06;0.007078260771434364
2.31775e-06;0.007084653524690813
2.31800e-06;0.0070808542801462475
2.31825e-06;0.0070760630911611356
2.31850e-06;0.007071271902176024
2.31875e-06;0.007067396611327576
2.31900e-06;0.00707133916711205
2.31925e-06;0.007072143985036947
2.31950e-06;0.007072948802961843
2.31975e-06;0.0070727529756107075
2.32000e-06;0.0070633939199182825
2.32025e-06;0.007051914787109552
2.32050e-06;0.007040435654300803
2.32075e-06;0.007028956521492053
2.32100e-06;0.007017040421677668
2.32125e-06;0.007001226667841007
2.32150e-06;0.006985412914004319
2.32175e-06;0.006969599160167631
2.32200e-06;0.00695378540633097
2.32225e-06;0.006933297138052852
2.32250e-06;0.006909703011947548
2.32275e-06;0.0068861088858422435
2.32300e-06;0.006862514759736979
2.32325e-06;0.006838321917624585
2.32350e-06;0.006808788654328696
2.32375e-06;0.006779255391032857
2.32400e-06;0.006749722127736968
2.32425e-06;0.00672018886444108
2.32450e-06;0.006690373212911394
2.32475e-06;0.006658038717575576
2.32500e-06;0.006625704222239759
2.32525e-06;0.0065933697269039415
2.32550e-06;0.006561035231568179
2.32575e-06;0.006528712287254938
2.32600e-06;0.00649649237563988
2.32625e-06;0.006464272464024877
2.32650e-06;0.00643205255240982
2.32675e-06;0.006399832640794762
2.32700e-06;0.006367612729179704
2.32725e-06;0.006335392817564701
2.32750e-06;0.006303172905949644
2.32775e-06;0.006275990480436094
2.32800e-06;0.006252155079695832
2.32825e-06;0.006228319678955529
2.32850e-06;0.006204484278215227
2.32875e-06;0.006180648877474964
2.32900e-06;0.006156813476734661
2.32925e-06;0.006132978075994358
2.32950e-06;0.006109462882576872
2.32975e-06;0.0060888038713056425
2.33000e-06;0.006068144860034378
2.33025e-06;0.006047485848763113
2.33050e-06;0.006026826837491883
2.33075e-06;0.006006167826220619
2.33100e-06;0.005985508814949353
2.33125e-06;0.005964849803678089
2.33150e-06;0.005944190792406859
2.33175e-06;0.005923429863416319
2.33200e-06;0.005901759849750166
2.33225e-06;0.00588008983608405
2.33250e-06;0.005858419822417897
2.33275e-06;0.005836749808751744
2.33300e-06;0.005815079795085628
2.33325e-06;0.005793409781419475
2.33350e-06;0.005771739767753322
2.33375e-06;0.0057500697540871695
2.33400e-06;0.005728310768442788
2.33425e-06;0.0057057581714167575
2.33450e-06;0.005683205574390727
2.33475e-06;0.0056606529773647355
2.33500e-06;0.005638100380338705
2.33525e-06;0.0056155477833126745
2.33550e-06;0.005592995186286645
2.33575e-06;0.0055704425892606525
2.33600e-06;0.005547889992234622
2.33625e-06;0.005525699046636472
2.33650e-06;0.005506733955908035
2.33675e-06;0.0054877688651795665
2.33700e-06;0.005468803774451098
2.33725e-06;0.005449838683722662
2.33750e-06;0.005430873592994194
2.33775e-06;0.0054119085022657255
2.33800e-06;0.005392943411537257
2.33825e-06;0.005373978320808821
2.33850e-06;0.0053567980905190795
2.33875e-06;0.005355538440916813
2.33900e-06;0.005354278791314547
2.33925e-06;0.00535301914171228
2.33950e-06;0.005351759492110013
2.33975e-06;0.005350499842507745
2.34000e-06;0.0053492401929054805
2.34025e-06;0.0053710080809042755
2.34050e-06;0.005408076008897551
2.34075e-06;0.005445143936890763
2.34100e-06;0.005482211864884038
2.34125e-06;0.0055192797928773135
2.34150e-06;0.005556347720870526
2.34175e-06;0.0055979318599443
2.34200e-06;0.005679799654450552
2.34225e-06;0.005761667448956804
2.34250e-06;0.005843535243462917
2.34275e-06;0.005925403037969169
2.34300e-06;0.0060072708324754205
2.34325e-06;0.0060891386269815335
2.34350e-06;0.006171006421487785
2.34375e-06;0.00625610157044901
2.34400e-06;0.006369984044118956
2.34425e-06;0.006483866517788709
2.34450e-06;0.006597748991458655
2.34475e-06;0.0067116314651286015
2.34500e-06;0.006825513938798355
2.34525e-06;0.006939396412468301
2.34550e-06;0.0070532788861382475
2.34575e-06;0.00716738306828973
2.34600e-06;0.0072834648435888705
2.34625e-06;0.007399546618888011
2.34650e-06;0.0075156283941871516
2.34675e-06;0.007631710169486095
2.34700e-06;0.007747791944785236
2.34725e-06;0.007863873720084376
2.34750e-06;0.007976922570698378
2.34775e-06;0.008062918369362812
2.34800e-06;0.008148914168027245
2.34825e-06;0.008234909966691678
2.34850e-06;0.008320905765355966
2.34875e-06;0.008406901564020401
2.34900e-06;0.008492897362684835
2.34925e-06;0.008573481919103166
2.34950e-06;0.008605799329843764
2.34975e-06;0.008638116740584364
2.35000e-06;0.008670434151324909
2.35025e-06;0.008702751562065509
2.35050e-06;0.008735068972806109
2.35075e-06;0.008767386383546709
2.35100e-06;0.008799703794287253
2.35125e-06;0.008832021205027853
2.35150e-06;0.008858703452588752
2.35175e-06;0.008835121226716373
2.35200e-06;0.008811539000843954
2.35225e-06;0.008787956774971534
2.35250e-06;0.008764374549099115
2.35275e-06;0.008740792323226734
2.35300e-06;0.008717210097354315
2.35325e-06;0.008693627871481896
2.35350e-06;0.008670045645609517
2.35375e-06;0.008642962728022207
2.35400e-06;0.008584654374703325
2.35425e-06;0.008526346021384542
2.35450e-06;0.00846803766806566
2.35475e-06;0.008409729314746778
2.35500e-06;0.008351420961427897
2.35525e-06;0.008293112608109113
2.35550e-06;0.008234804254790232
2.35575e-06;0.00817649590147135
2.35600e-06;0.00811481519372852
2.35625e-06;0.008050893814036099
2.35650e-06;0.00798697243434368
2.35675e-06;0.007923051054651258
2.35700e-06;0.007859129674958946
2.35725e-06;0.007795208295266525
2.35750e-06;0.007731286915574105
2.35775e-06;0.007667365535881793
2.35800e-06;0.007606047512673036
2.35825e-06;0.007567950883175944
2.35850e-06;0.007529854253678916
2.35875e-06;0.007491757624181824
2.35900e-06;0.007453660994684733
2.35925e-06;0.007415564365187641
2.35950e-06;0.007377467735690613
2.35975e-06;0.007339371106193521
2.36000e-06;0.007301274476696429
2.36025e-06;0.0072670482534329854
2.36050e-06;0.007267345241854002
2.36075e-06;0.007267642230275018
2.36100e-06;0.0072679392186960345
2.36125e-06;0.007268236207117051
2.36150e-06;0.007268533195538067
2.36175e-06;0.007268830183959084
2.36200e-06;0.007269127172380099
2.36225e-06;0.0072694241608011155
2.36250e-06;0.007272952712867717
2.36275e-06;0.007305306134747802
2.36300e-06;0.0073376595566279415
2.36325e-06;0.0073700129785080806
2.36350e-06;0.00740236640038822
2.36375e-06;0.007434719822268304
2.36400e-06;0.007467073244148443
2.36425e-06;0.007499426666028583
2.36450e-06;0.007531780087908667
2.36475e-06;0.007565563356972057
2.36500e-06;0.007612100562962875
2.36525e-06;0.007658637768953693
2.36550e-06;0.007705174974944432
2.36575e-06;0.0077517121809352494
2.36600e-06;0.007798249386926068
2.36625e-06;0.007844786592916807
2.36650e-06;0.007891323798907625
2.36675e-06;0.007937861004898442
2.36700e-06;0.007983625759074247
2.36725e-06;0.008022500405102143
2.36750e-06;0.008061375051130039
2.36775e-06;0.008100249697157936
2.36800e-06;0.008139124343185766
2.36825e-06;0.008177998989213661
2.36850e-06;0.008216873635241559
2.36875e-06;0.008255748281269388
2.36900e-06;0.008275349605894843
2.36925e-06;0.0082821452804573
2.36950e-06;0.008288940955019756
2.36975e-06;0.0082957366295822
2.37000e-06;0.008302532304144657
2.37025e-06;0.008309327978707114
2.37050e-06;0.008316123653269558
2.37075e-06;0.008318024183144116
2.37100e-06;0.008276261049281673
2.37125e-06;0.0082344979154193
2.37150e-06;0.008192734781556858
2.37175e-06;0.008150971647694414
2.37200e-06;0.00810920851383197
2.37225e-06;0.008067445379969597
2.37250e-06;0.008025682246107153
2.37275e-06;0.00798391911224471
2.37300e-06;0.007917174164794627
2.37325e-06;0.007833830710212769
2.37350e-06;0.007750487255630911
2.37375e-06;0.007667143801049053
2.37400e-06;0.007583800346467336
2.37425e-06;0.007500456891885478
2.37450e-06;0.00741711343730362
2.37475e-06;0.007333769982721903
2.37500e-06;0.007248854834017301
2.37525e-06;0.00714992050343894
2.37550e-06;0.007050986172860747
2.37575e-06;0.006952051842282385
2.37600e-06;0.006853117511704024
2.37625e-06;0.0067541831811256635
2.37650e-06;0.006655248850547469
2.37675e-06;0.006557583091563717
2.37700e-06;0.006471232725090519
2.37725e-06;0.006384882358617468
2.37750e-06;0.00629853199214427
2.37775e-06;0.006212181625671072
2.37800e-06;0.006125831259197874
2.37825e-06;0.006039480892724822
2.37850e-06;0.005957158819409053
2.37875e-06;0.0059107682760276645
2.37900e-06;0.005864377732646355
2.37925e-06;0.005817987189264966
2.37950e-06;0.005771596645883577
2.37975e-06;0.005725206102502266
2.38000e-06;0.005678815559120878
2.38025e-06;0.0056324250157394895
2.38050e-06;0.005616530209516107
2.38075e-06;0.005620897491509333
2.38100e-06;0.005625264773502565
2.38125e-06;0.005629632055495798
2.38150e-06;0.0056339993374890235
2.38175e-06;0.005638366619482256
2.38200e-06;0.0056427339014754885
2.38225e-06;0.005651696116325602
2.38250e-06;0.0057016441683630245
2.38275e-06;0.005751592220400532
2.38300e-06;0.005801540272438039
2.38325e-06;0.005851488324475462
2.38350e-06;0.00590143637651297
2.38375e-06;0.005951384428550477
2.38400e-06;0.006001332480587899
2.38425e-06;0.006053957185192869
2.38450e-06;0.006130457069209681
2.38475e-06;0.006206956953226493
2.38500e-06;0.006283456837243176
2.38525e-06;0.0063599567212599874
2.38550e-06;0.006436456605276799
2.38575e-06;0.006512956489293482
2.38600e-06;0.006589456373310294
2.38625e-06;0.006666059545036862
2.38650e-06;0.006743584021467507
2.38675e-06;0.006821108497898021
2.38700e-06;0.0068986329743286655
2.38725e-06;0.00697615745075931
2.38750e-06;0.007053681927189823
2.38775e-06;0.0071210650793661024
2.38800e-06;0.0071817100961230175
2.38825e-06;0.00724235511287983
2.38850e-06;0.007303000129636745
2.38875e-06;0.007363645146393661
2.38900e-06;0.0074224574938168
2.38925e-06;0.007464922815225934
2.38950e-06;0.007507388136635139
2.38975e-06;0.007549853458044345
2.39000e-06;0.007592318779453479
2.39025e-06;0.007634784100862684
2.39050e-06;0.00767724942227189
2.39075e-06;0.007719714743681024
2.39100e-06;0.007762180065090229
2.39125e-06;0.007804645386499435
2.39150e-06;0.00784711070790864
2.39175e-06;0.007889576029317774
2.39200e-06;0.007931204766118269
2.39225e-06;0.007965371343700827
2.39250e-06;0.007999537921283327
2.39275e-06;0.008033704498865885
2.39300e-06;0.008067871076448444
2.39325e-06;0.008102037654031
2.39350e-06;0.008136204231613502
2.39375e-06;0.008170370809196059
2.39400e-06;0.008204537386778617
2.39425e-06;0.008238703964361117
2.39450e-06;0.008272870541943676
2.39475e-06;0.008307037119526234
2.39500e-06;0.008340446222608894
2.39525e-06;0.008367098812049247
2.39550e-06;0.0083937514014896
2.39575e-06;0.00842040399092995
2.39600e-06;0.008447056580370258
2.39625e-06;0.008473709169810611
2.39650e-06;0.008500361759250962
2.39675e-06;0.00852701434869127
2.39700e-06;0.008553666938131622
2.39725e-06;0.008580319527571975
2.39750e-06;0.008606972117012326
2.39775e-06;0.008633624706452634
2.39800e-06;0.008660277295892986
2.39825e-06;0.008686929885333337
2.39850e-06;0.008711071223812386
2.39875e-06;0.008712812730503876
2.39900e-06;0.008714554237195367
2.39925e-06;0.008716295743886854
2.39950e-06;0.008718037250578344
2.39975e-06;0.008719778757269835
2.40000e-06;0.008721520263961325
2.40025e-06;0.008723261770652812
2.40050e-06;0.008725003277344302
2.40075e-06;0.008726744784035793
2.40100e-06;0.008728486290727281
