Time(s);Current(A)
5.05000e-06;0.0006926848436039955
5.05025e-06;0.0006871306112339097
5.05050e-06;0.0006806347332887349
5.05075e-06;0.0006741388553435381
5.05100e-06;0.0006649252352237099
5.05125e-06;0.0006548575605819021
5.05150e-06;0.00064478988594006
5.05175e-06;0.000632489144881477
5.05200e-06;0.0006194866593789657
5.05225e-06;0.0006064841738764104
5.05250e-06;0.0005912725839679689
5.05275e-06;0.0005753667797131721
5.05300e-06;0.0005594609754583213
5.05325e-06;0.0005435551712035245
5.05350e-06;0.0005276493669487276
5.05375e-06;0.000511384739737689
5.05400e-06;0.0004941035519547835
5.05425e-06;0.0004768223641718781
5.05450e-06;0.00045954117638891416
5.05475e-06;0.00044225998860600876
5.05500e-06;0.00042497880082304477
5.05525e-06;0.0004084330953836365
5.05550e-06;0.00039211851636493443
5.05575e-06;0.00037580393734617704
5.05600e-06;0.00036100066680559115
5.05625e-06;0.0003466723272027929
5.05650e-06;0.0003323439875999462
5.05675e-06;0.0003198538764007049
5.05700e-06;0.00030794143121220494
5.05725e-06;0.00029779792336205336
5.05750e-06;0.0002882103067023525
5.05775e-06;0.00028046690861340445
5.05800e-06;0.0002733030589541161
5.05825e-06;0.00026805352721582604
5.05850e-06;0.0002634055727323095
5.05875e-06;0.0002602390275621714
5.05900e-06;0.0002585445870082954
5.05925e-06;0.0002586528986104869
5.05950e-06;0.0002592283249943622
5.05975e-06;0.00026169471761235445
5.06000e-06;0.0002647553491827711
5.06025e-06;0.0002696049702039397
5.06050e-06;0.00027501678382162365
5.06075e-06;0.000282115742975506
5.06100e-06;0.0002897448901241971
5.06125e-06;0.0002989184706743482
5.06150e-06;0.0003085773917187008
5.06175e-06;0.00031986343114015535
5.06200e-06;0.000331660794932391
5.06225e-06;0.00034345815872466665
5.06250e-06;0.00035678885030342335
5.06275e-06;0.0003706013924203137
5.06300e-06;0.00038441393453725087
5.06325e-06;0.0003994254790942806
5.06350e-06;0.0004148138119519937
5.06375e-06;0.00043020214480965464
5.06400e-06;0.0004455904776673156
5.06425e-06;0.0004609788105250287
5.06450e-06;0.0004762867734350765
5.06475e-06;0.0004913670448931651
5.06500e-06;0.0005064473163513047
5.06525e-06;0.0005215275878093933
5.06550e-06;0.0005366078592674819
5.06575e-06;0.0005516881307256216
5.06600e-06;0.0005650986953384182
5.06625e-06;0.0005779845520910126
5.06650e-06;0.0005908704088436505
5.06675e-06;0.0006014878413224148
5.06700e-06;0.0006113924180983432
5.06725e-06;0.000621296994874305
5.06750e-06;0.0006277183798549715
5.06775e-06;0.0006330451666319942
5.06800e-06;0.0006351027172464336
5.06825e-06;0.0006361329055331106
5.06850e-06;0.0006340090327387097
5.06875e-06;0.0006308939915572646
5.06900e-06;0.0006245780973418047
5.06925e-06;0.0006172563302984576
5.06950e-06;0.0006063109217850415
5.06975e-06;0.000594226778548762
5.07000e-06;0.0005786622706693457
5.07025e-06;0.0005620040530231642
5.07050e-06;0.0005422530932346677
5.07075e-06;0.0005215302346268285
5.07100e-06;0.0004980007667796453
5.07125e-06;0.0004735893178036203
5.07150e-06;0.00044642182722865614
5.07175e-06;0.00041838824648122313
5.07200e-06;0.0003880037963860624
5.07225e-06;0.000356880582101173
5.07250e-06;0.0003239646691121362
5.07275e-06;0.0002904853978882542
5.07300e-06;0.0002557079710700892
5.07325e-06;0.00022052259692515876
5.07350e-06;0.00018426271116646708
5.07375e-06;0.00014766515853479586
5.07400e-06;0.00011106760590312461
5.07425e-06;7.426921012565611e-05
5.07450e-06;3.740769909099793e-05
5.07475e-06;9.242550778640263e-07
5.07500e-06;-3.497951072187303e-05
5.07525e-06;-7.015307122213242e-05
5.07550e-06;-0.00010443217842593343
5.07575e-06;-0.00013761531790880188
5.07600e-06;-0.0001694688355983525
5.07625e-06;-0.0001997525176490738
5.07650e-06;-0.00022822610086793872
5.07675e-06;-0.0002546493517999118
5.07700e-06;-0.000278901817555058
5.07725e-06;-0.00030120945913999017
5.07750e-06;-0.0003219895855493286
5.07775e-06;-0.0003414283229058167
5.07800e-06;-0.00035887306864878767
5.07825e-06;-0.0003757901212111362
5.07850e-06;-0.000390170088840278
5.07875e-06;-0.00040375277375485945
5.07900e-06;-0.00041468748367260485
5.07925e-06;-0.0004247900635084414
5.07950e-06;-0.00043290053075634784
5.07975e-06;-0.0004403849736600081
5.08000e-06;-0.00044604782997370086
5.08025e-06;-0.0004511382499916511
5.08050e-06;-0.00045428369261897236
5.08075e-06;-0.0004568179232079077
5.08100e-06;-0.00045707094828499573
5.08125e-06;-0.0004566071011364516
5.08150e-06;-0.000456143253987909
5.08175e-06;-0.0004537451622929409
5.08200e-06;-0.00045073923137186787
5.08225e-06;-0.00044773330045080504
5.08250e-06;-0.0004429772368132748
5.08275e-06;-0.0004376711913660911
5.08300e-06;-0.0004323651459189253
5.08325e-06;-0.0004255131837043153
5.08350e-06;-0.00041817541484582475
5.08375e-06;-0.000410837645987359
5.08400e-06;-0.00040349987712889326
5.08425e-06;-0.00039616210827040266
5.08450e-06;-0.00038863695264838697
5.08475e-06;-0.0003805809224206665
5.08500e-06;-0.00037252489219291867
5.08525e-06;-0.0003644688619651982
5.08550e-06;-0.00035641283173745036
5.08575e-06;-0.00034835680150972987
5.08600e-06;-0.0003409168857961906
5.08625e-06;-0.00033367058498521803
5.08650e-06;-0.00032708805227525266
5.08675e-06;-0.0003207141096784148
5.08700e-06;-0.0003141752326445052
5.08725e-06;-0.00030758452471842557
5.08750e-06;-0.0002985002463821476
5.08775e-06;-0.0002862833285052803
5.08800e-06;-0.00027113916671177177
5.08825e-06;-0.0002532820595703887
5.08850e-06;-0.00023292750164646874
5.08875e-06;-0.00021029099636612602
5.08900e-06;-0.00018539243047018417
5.08925e-06;-0.00015771975947634657
5.08950e-06;-0.00012655040576880803
5.08975e-06;-9.164801623818559e-05
5.09000e-06;-5.3231561744883146e-05
5.09025e-06;-1.1615625736091756e-05
5.09050e-06;3.28844514597599e-05
5.09075e-06;7.995334750560982e-05
5.09100e-06;0.00012939829420701985
5.09125e-06;0.00018135972839393528
5.09150e-06;0.00023610992762378104
5.09175e-06;0.00029361656194123927
5.09200e-06;0.00035356211922417494
5.09225e-06;0.00041617544187173486
5.09250e-06;0.0004794506035366679
5.09275e-06;0.0005449624043128449
5.09300e-06;0.0006111770722564616
5.09325e-06;0.0006773917402000783
5.09350e-06;0.0007453957925105763
5.09375e-06;0.0008139621615197805
5.09400e-06;0.000882528530529217
5.09425e-06;0.0009510948995384212
5.09450e-06;0.0010178975020185817
5.09475e-06;0.0010841458382436229
5.09500e-06;0.0011503941744684396
5.09525e-06;0.0012166425106932563
5.09550e-06;0.001278203336253465
5.09575e-06;0.0013382911046144375
5.09600e-06;0.0013983788729754099
5.09625e-06;0.0014516429735703413
5.09650e-06;0.001502762726419483
5.09675e-06;0.0015538824792686247
5.09700e-06;0.001597412029636211
5.09725e-06;0.001638556347583539
5.09750e-06;0.0016736848103789022
5.09775e-06;0.0017069227817444665
5.09800e-06;0.0017324471893538913
5.09825e-06;0.00175554759807941
5.09850e-06;0.0017786480068048506
5.09875e-06;0.0017918099789311418
5.09900e-06;0.0018018487825731705
5.09925e-06;0.0018118875862151655
5.09950e-06;0.0018126452107891187
5.09975e-06;0.001810486211035616
5.10000e-06;0.0018083272112821211
5.10025e-06;0.0017976340797559495
5.10050e-06;0.0017842590846261005
5.10075e-06;0.0017708840894962966
5.10100e-06;0.001749653479128639
5.10125e-06;0.0017259542299876405
5.10150e-06;0.0017022549808467223
5.10175e-06;0.00167228961083786
5.10200e-06;0.001640355103025689
5.10225e-06;0.001608420595213626
5.10250e-06;0.0015700842498053834
5.10275e-06;0.0015297361174104395
5.10300e-06;0.0014893879850154956
5.10325e-06;0.0014490398526204149
5.10350e-06;0.001408691720225471
5.10375e-06;0.0013672332712811462
5.10400e-06;0.0013226292487171505
5.10425e-06;0.0012780252261533056
5.10450e-06;0.001233421203589461
5.10475e-06;0.001188817181025465
5.10500e-06;0.0011442131584616204
5.10525e-06;0.0011012903956161824
5.10550e-06;0.0010588959711378258
5.10575e-06;0.0010165015466596127
5.10600e-06;0.0009780290688112335
5.10625e-06;0.0009407890685246572
5.10650e-06;0.0009035490682382072
5.10675e-06;0.0008716075498345349
5.10700e-06;0.0008413310872435922
5.10725e-06;0.0008110546246526493
5.10750e-06;0.0007820161520922414
5.10775e-06;0.0007533667197404287
5.10800e-06;0.0007250302265665798
5.10825e-06;0.0006967920749947708
5.10850e-06;0.0006685539234230574
5.10875e-06;0.000640315771851344
5.10900e-06;0.0006126243420638629
5.10925e-06;0.0005851047204103806
5.10950e-06;0.0005575850987568983
5.10975e-06;0.0005300654771033227
5.11000e-06;0.0005011022971277232
5.11025e-06;0.0004716854768023002
5.11050e-06;0.00044226865647677745
5.11075e-06;0.0004128518361513544
5.11100e-06;0.0003827403612711862
5.11125e-06;0.0003524105901641235
5.11150e-06;0.0003220808190570608
5.11175e-06;0.00029175104794989534
5.11200e-06;0.00026026373147270874
5.11225e-06;0.00022841265464128846
5.11250e-06;0.00019656157780976032
5.11275e-06;0.00016489400474916486
5.11300e-06;0.00013328409802148392
5.11325e-06;0.00010167419129369588
5.11350e-06;7.006428456601494e-05
5.11375e-06;3.84749420490793e-05
5.11400e-06;7.017548117797068e-06
5.11425e-06;-2.412411332848103e-05
5.11450e-06;-5.475187233939911e-05
5.11475e-06;-8.466759469671826e-05
5.11500e-06;-0.00011372124112768903
5.11525e-06;-0.00014189704101316009
5.11550e-06;-0.00016924154357224653
5.11575e-06;-0.00019569316461096381
5.11600e-06;-0.0002210834619786453
5.11625e-06;-0.000245221332318193
5.11650e-06;-0.00026791546096634314
5.11675e-06;-0.00028897464113811845
5.11700e-06;-0.00030826132794538493
5.11725e-06;-0.00032580142634969916
5.11750e-06;-0.0003417304435421989
5.11775e-06;-0.00035610564001691344
5.11800e-06;-0.00036824498986683313
5.11825e-06;-0.0003797980027492316
5.11850e-06;-0.0003886957992859573
5.11875e-06;-0.0003967591901369781
5.11900e-06;-0.00040207973768648146
5.11925e-06;-0.00040653834264904647
5.11950e-06;-0.0004085580305562778
5.11975e-06;-0.0004098112851514904
5.12000e-06;-0.00040878289502918586
5.12025e-06;-0.00040703749466094395
5.12050e-06;-0.0004030485164786914
5.12075e-06;-0.00039835449063156187
5.12100e-06;-0.0003915257397128031
5.12125e-06;-0.00038402614826539013
5.12150e-06;-0.0003747459491716367
5.12175e-06;-0.00036490619147674057
5.12200e-06;-0.00035354798729737743
5.12225e-06;-0.0003417126090519269
5.12250e-06;-0.0003282570179140837
5.12275e-06;-0.00031429227246518147
5.12300e-06;-0.0003003275270162792
5.12325e-06;-0.000285000072048161
5.12350e-06;-0.00026924438358699634
5.12375e-06;-0.00025348869512577835
5.12400e-06;-0.00023713481984816577
5.12425e-06;-0.00022059296347383224
5.12450e-06;-0.0002040511070994427
5.12475e-06;-0.000187592780001285
5.12500e-06;-0.0001713710948658219
5.12525e-06;-0.00015514940973030382
5.12550e-06;-0.00013892772459484068
5.12575e-06;-0.00012342287439945658
5.12600e-06;-0.00010863190449096507
5.12625e-06;-9.456791061650915e-05
5.12650e-06;-8.134234383808968e-05
5.12675e-06;-6.906666107084007e-05
5.12700e-06;-5.7629725992990985e-05
5.12725e-06;-4.63829909084219e-05
5.12750e-06;-3.4374458249057366e-05
5.12775e-06;-2.117867280617053e-05
5.12800e-06;-6.854162386139502e-06
5.12825e-06;8.442633229050228e-06
5.12850e-06;2.4554440004456145e-05
5.12875e-06;4.132400079022232e-05
5.12900e-06;5.8726166950648096e-05
5.12925e-06;7.709939349910006e-05
5.12950e-06;9.693744896973235e-05
5.12975e-06;0.00011841972999676703
5.13000e-06;0.00014142432182644507
5.13025e-06;0.0001657656966707575
5.13050e-06;0.0001912578415105396
5.13075e-06;0.00021771473162062604
5.13100e-06;0.0002454253190361193
5.13125e-06;0.0002734607333248711
5.13150e-06;0.00030331489967037206
5.13175e-06;0.00033374061155463843
5.13200e-06;0.0003659771661127561
5.13225e-06;0.00039878278067433066
5.13250e-06;0.0004315883952357941
5.13275e-06;0.0004656952217430023
5.13300e-06;0.0005002109560394113
5.13325e-06;0.0005347266903357033
5.13350e-06;0.0005692424246319954
5.13375e-06;0.0006037581589284044
5.13400e-06;0.0006381068151713907
5.13425e-06;0.0006724029668876528
5.13450e-06;0.0007066991186040311
5.13475e-06;0.0007409952703202932
5.13500e-06;0.0007752914220365553
5.13525e-06;0.0008073259671225073
5.13550e-06;0.0008386497989613733
5.13575e-06;0.0008699736308002394
5.13600e-06;0.0008983495179319824
5.13625e-06;0.0009257990090553408
5.13650e-06;0.0009532485001787922
5.13675e-06;0.0009763434387092868
5.13700e-06;0.000998069952611633
5.13725e-06;0.0010197964665140532
5.13750e-06;0.0010368030682236767
5.13775e-06;0.0010523264305075822
5.13800e-06;0.00106784979279154
5.13825e-06;0.001078450101291712
5.13850e-06;0.00108750333281912
5.13875e-06;0.0010965565643465585
5.13900e-06;0.0011004571743765553
5.13925e-06;0.0011027385654383977
5.13950e-06;0.001105019956500248
5.13975e-06;0.0011026071823849071
5.14000e-06;0.001098719259881853
5.14025e-06;0.0010948313373787856
5.14050e-06;0.0010865542868753505
5.14075e-06;0.0010768979463706317
5.14100e-06;0.0010672416058659458
5.14125e-06;0.0010537235082848028
5.14150e-06;0.001038991847799485
5.14175e-06;0.0010242601873142174
5.14200e-06;0.001005303705829763
5.14225e-06;0.000985019568063507
5.14250e-06;0.0009647354302973196
5.14275e-06;0.0009444512925311323
5.14300e-06;0.0009241671547648761
5.14325e-06;0.0009038830169986888
5.14350e-06;0.0008808285505484892
5.14375e-06;0.0008569035041895298
5.14400e-06;0.0008329784578306513
5.14425e-06;0.0008090534114717729
5.14450e-06;0.0007851283651128134
5.14475e-06;0.000761203318753935
5.14500e-06;0.000738191345127965
5.14525e-06;0.0007154663059662233
5.14550e-06;0.0006927412668044815
5.14575e-06;0.0006700162276426628
5.14600e-06;0.0006472911884809211
5.14625e-06;0.0006286837968897099
5.14650e-06;0.0006113703821706956
5.14675e-06;0.0005940569674517397
5.14700e-06;0.000576743552732784
5.14725e-06;0.0005594301380137696
5.14750e-06;0.0005465215755765367
5.14775e-06;0.0005349972445190925
5.14800e-06;0.0005262672766304572
5.14825e-06;0.0005184154415230264
5.14850e-06;0.0005134405696717733
5.14875e-06;0.0005093697878019457
5.14900e-06;0.0005082493348959162
5.14925e-06;0.000508056027254022
5.14950e-06;0.0005107833524051188
5.14975e-06;0.0005144284907545028
5.15000e-06;0.0005208404884367349
5.15025e-06;0.0005281219757787051
5.15050e-06;0.00053799827953703
5.15075e-06;0.0005486900082128041
5.15100e-06;0.0005617987527415884
5.15125e-06;0.0005756670480963571
5.15150e-06;0.0005921875148879764
5.15175e-06;0.0006095414304973958
5.15200e-06;0.0006268953461068151
5.15225e-06;0.0006467826853778711
5.15250e-06;0.0006674661568017553
5.15275e-06;0.0006881496282256396
5.15300e-06;0.0007110076997812669
5.15325e-06;0.0007345491426618506
5.15350e-06;0.0007580905855425139
5.15375e-06;0.0007816320284230974
5.15400e-06;0.0008051734713036809
5.15425e-06;0.0008287739785099585
5.15450e-06;0.0008525418174418476
5.15475e-06;0.0008763096563737368
5.15500e-06;0.0009000774953057065
5.15525e-06;0.0009238453342375956
5.15550e-06;0.0009476131731694848
5.15575e-06;0.0009664138193580955
5.15600e-06;0.000983653517840886
5.15625e-06;0.0010008932163236763
5.15650e-06;0.001018132914806525
5.15675e-06;0.0010353726132893153
5.15700e-06;0.0010526123117721056
5.15725e-06;0.0010698520102549545
5.15750e-06;0.0010870917087377448
5.15775e-06;0.0011006520153383115
5.15800e-06;0.0011037884495471318
5.15825e-06;0.001106924883755952
5.15850e-06;0.0011100613179647828
5.15875e-06;0.001113197752173603
5.15900e-06;0.0011163341863824232
5.15925e-06;0.0011194706205912542
5.15950e-06;0.0011226070548000743
5.15975e-06;0.0011257434890088946
5.16000e-06;0.0011211726398963739
5.16025e-06;0.0011141797655397662
5.16050e-06;0.0011071868911831585
5.16075e-06;0.0010966501704342544
5.16100e-06;0.001084999790687102
5.16125e-06;0.0010733494109399497
5.16150e-06;0.001057297456681074
5.16175e-06;0.0010398623010870736
5.16200e-06;0.0010224271454930141
5.16225e-06;0.0010049919898990137
5.16250e-06;0.0009875568343050132
5.16275e-06;0.0009701216787109535
5.16300e-06;0.0009515650289970049
5.16325e-06;0.0009298311391392623
5.16350e-06;0.000908097249281446
5.16375e-06;0.0008863633594237035
5.16400e-06;0.0008646294695659609
5.16425e-06;0.0008428955797081446
5.16450e-06;0.0008211616898504021
5.16475e-06;0.0008000774272224856
5.16500e-06;0.0007791973109174113
5.16525e-06;0.0007583171946124077
5.16550e-06;0.0007374370783074041
5.16575e-06;0.0007165569620023298
5.16600e-06;0.0006956768456973263
5.16625e-06;0.0006784072980535931
5.16650e-06;0.0006622723769803004
5.16675e-06;0.0006461374559070078
5.16700e-06;0.0006300025348336604
5.16725e-06;0.0006138676137603677
5.16750e-06;0.000597732692687075
5.16775e-06;0.0005806016421183684
5.16800e-06;0.0005631575563746696
5.16825e-06;0.0005457134706309709
5.16850e-06;0.0005282693848872131
5.16875e-06;0.0005100180595428969
5.16900e-06;0.0004894797903629279
5.16925e-06;0.00046894152118288944
5.16950e-06;0.0004484032520029205
5.16975e-06;0.00042786498282295157
5.17000e-06;0.0004043718462259107
5.17025e-06;0.0003799501381496497
5.17050e-06;0.00035418217044601324
5.17075e-06;0.0003279911386528808
5.17100e-06;0.0003007425378594339
5.17125e-06;0.0002731615944350858
5.17150e-06;0.00024401777652981733
5.17175e-06;0.00021438282299512108
5.17200e-06;0.0001834139500203311
5.17225e-06;0.00015202589087828542
5.17250e-06;0.00012001488202926775
5.17275e-06;8.759431338000688e-05
5.17300e-06;5.4988535272296745e-05
5.17325e-06;2.2187883681806914e-05
5.17350e-06;-1.0884266717535359e-05
5.17375e-06;-4.417489102315012e-05
5.17400e-06;-7.7424438522679e-05
5.17425e-06;-0.00011064638822957693
5.17450e-06;-0.00014323140466088137
5.17475e-06;-0.00017561625908224347
5.17500e-06;-0.00020685227749645698
5.17525e-06;-0.00023772727248733852
5.17550e-06;-0.0002672531456361671
5.17575e-06;-0.00029635505524009065
5.17600e-06;-0.00032415826116509016
5.17625e-06;-0.00035047575963262535
5.17650e-06;-0.0003752181698430465
5.17675e-06;-0.00039817667877195415
5.17700e-06;-0.0004190499233353507
5.17725e-06;-0.0004373065389121964
5.17750e-06;-0.0004523797911314286
5.17775e-06;-0.0004640015254804922
5.17800e-06;-0.0004721492892172278
5.17825e-06;-0.00047685052412437055
5.17850e-06;-0.00047813308256766906
5.17875e-06;-0.00047602488334724243
5.17900e-06;-0.0004704958246312234
5.17925e-06;-0.00046137176037381965
5.17950e-06;-0.00044845643820589395
5.17975e-06;-0.00043174062555253974
5.18000e-06;-0.0004113690013429752
5.18025e-06;-0.00038751750268244643
5.18050e-06;-0.00036036232416044396
5.18075e-06;-0.00033007966036673156
5.18100e-06;-0.0002968093884261328
5.18125e-06;-0.00026060111502925745
5.18150e-06;-0.0002214906495623108
5.18175e-06;-0.0001796309223279473
5.18200e-06;-0.0001352712610948022
5.18225e-06;-8.868057071794207e-05
5.18250e-06;-4.012788842880094e-05
5.18275e-06;1.0117762776207186e-05
5.18300e-06;6.181011913453932e-05
5.18325e-06;0.00011475948134727514
5.18350e-06;0.0001690721729328142
5.18375e-06;0.00022372197060847968
5.18400e-06;0.00027897730110966056
5.18425e-06;0.00033442292120129257
5.18450e-06;0.0003898685412929246
5.18475e-06;0.0004440870075401217
5.18500e-06;0.0004979198388669939
5.18525e-06;0.0005517526701938659
5.18550e-06;0.0006030665531734945
5.18575e-06;0.0006535888528897436
5.18600e-06;0.0007009207076235282
5.18625e-06;0.0007472499602783718
5.18650e-06;0.0007892833661918034
5.18675e-06;0.0008299667958800187
5.18700e-06;0.0008656218289907601
5.18725e-06;0.0008996966810009952
5.18750e-06;0.0009292762280966574
5.18775e-06;0.0009574431189394975
5.18800e-06;0.0009811172515191355
5.18825e-06;0.0010033795281351584
5.18850e-06;0.0010207489121773366
5.18875e-06;0.0010365806974538688
5.18900e-06;0.0010473528841358649
5.18925e-06;0.0010565350844373034
5.18950e-06;0.0010612833209076495
5.18975e-06;0.0010646381776520694
5.19000e-06;0.0010638525333958168
5.19025e-06;0.001061765730544408
5.19050e-06;0.001055579660301602
5.19075e-06;0.0010481053891866865
5.19100e-06;0.0010358857984153929
5.19125e-06;0.0010221749838871792
5.19150e-06;0.001008464169359012
5.19175e-06;0.0009902808000026044
5.19200e-06;0.000970691923642198
5.19225e-06;0.0009511030472817915
5.19250e-06;0.0009278705105532518
5.19275e-06;0.0009034929481371553
5.19300e-06;0.0008791153857210588
5.19325e-06;0.0008519117635512153
5.19350e-06;0.0008238200479024344
5.19375e-06;0.0007957283322536535
5.19400e-06;0.0007676366166047774
5.19425e-06;0.0007392824707648464
5.19450e-06;0.0007101848491252878
5.19475e-06;0.0006810872274856305
5.19500e-06;0.0006519896058460718
