Time(s);Current(A)
8.25000e-06;0.0006991236980277875
8.25025e-06;0.0007057534958221506
8.25050e-06;0.0007123832936164688
8.25075e-06;0.0007190130914108318
8.25100e-06;0.000724638466649005
8.25125e-06;0.0007296573640035738
8.25150e-06;0.0007346762613581766
8.25175e-06;0.0007396951587127794
8.25200e-06;0.000744148795111394
8.25225e-06;0.0007482611226991848
8.25250e-06;0.0007523734502869755
8.25275e-06;0.0007564857778747385
8.25300e-06;0.0007601990683739461
8.25325e-06;0.0007636714172819085
8.25350e-06;0.0007667330153996985
8.25375e-06;0.0007695465991052727
8.25400e-06;0.0007716806792395173
8.25425e-06;0.0007734044700136334
8.25450e-06;0.0007743538317742661
8.25475e-06;0.000774835587479818
8.25500e-06;0.0007743814749871538
8.25525e-06;0.0007733622782471103
8.25550e-06;0.0007723430815070668
8.25575e-06;0.0007696129810152779
8.25600e-06;0.0007658498239875844
8.25625e-06;0.0007620866669598909
8.25650e-06;0.0007583235099321974
8.25675e-06;0.0007545603529045293
8.25700e-06;0.0007503965696793331
8.25725e-06;0.0007433899018709575
8.25750e-06;0.0007363832340626294
8.25775e-06;0.0007293765662542539
8.25800e-06;0.0007223698984458783
8.25825e-06;0.0007153632306375502
8.25850e-06;0.0007067686845526384
8.25875e-06;0.0006972153656377527
8.25900e-06;0.0006876620467229317
8.25925e-06;0.000678108727808046
8.25950e-06;0.0006685554088931603
8.25975e-06;0.0006590020899783393
8.26000e-06;0.000649329336482247
8.26025e-06;0.000638809062949242
8.26050e-06;0.0006282887894163083
8.26075e-06;0.0006177685158833034
8.26100e-06;0.0006072482423502984
8.26125e-06;0.0005967279688173647
8.26150e-06;0.0005862076952843598
8.26175e-06;0.0005760890056609185
8.26200e-06;0.0005662127954184756
8.26225e-06;0.0005563365851759658
8.26250e-06;0.0005475235108508194
8.26275e-06;0.000539352365977971
8.26300e-06;0.0005311812211050671
8.26325e-06;0.0005230100762321633
8.26350e-06;0.0005148389313593149
8.26375e-06;0.0005073756352193369
8.26400e-06;0.0005003397434610588
8.26425e-06;0.0004933038517028284
8.26450e-06;0.00048626795994455047
8.26475e-06;0.00047923206818627245
8.26500e-06;0.00047174348254123174
8.26525e-06;0.00046398155692715584
8.26550e-06;0.00045621963131302736
8.26575e-06;0.0004484577056988988
8.26600e-06;0.0004406957800848229
8.26625e-06;0.0004329338544706944
8.26650e-06;0.0004251719288565659
8.26675e-06;0.00041720471934825296
8.26700e-06;0.00040778079427257295
8.26725e-06;0.00039835686919689295
8.26750e-06;0.0003889329441212768
8.26775e-06;0.0003795090190455968
8.26800e-06;0.00037008509396991673
8.26825e-06;0.0003606611688943006
8.26850e-06;0.0003512372438186206
8.26875e-06;0.00034111401892533407
8.26900e-06;0.00033056855154962785
8.26925e-06;0.0003200230841738502
8.26950e-06;0.00030947761679807253
8.26975e-06;0.0002989321494223663
8.27000e-06;0.00028838668204658865
8.27025e-06;0.0002779192878678874
8.27050e-06;0.00026749903487208204
8.27075e-06;0.0002570787818762061
8.27100e-06;0.0002466585288803301
8.27125e-06;0.00023623827588452475
8.27150e-06;0.00022581802288864877
8.27175e-06;0.00021601206930902143
8.27200e-06;0.00020657703433119235
8.27225e-06;0.00019714199935329932
8.27250e-06;0.00018824584606319726
8.27275e-06;0.00017967507358396706
8.27300e-06;0.00017171865798549702
8.27325e-06;0.00016413319568632146
8.27350e-06;0.0001570350632951174
8.27375e-06;0.00015023118436290352
8.27400e-06;0.00014285667304855638
8.27425e-06;0.00013434343698143973
8.27450e-06;0.00012460780616528036
8.27475e-06;0.00011375732462549207
8.27500e-06;0.00010191475694204718
8.27525e-06;8.920286213001803e-05
8.27550e-06;7.570289228532543e-05
8.27575e-06;6.127281129830547e-05
8.27600e-06;4.552542934198111e-05
8.27625e-06;2.819141765604144e-05
8.27650e-06;9.296491891036194e-06
8.27675e-06;-1.101027162494659e-05
8.27700e-06;-3.2570265174654284e-05
8.27725e-06;-5.5224906495484076e-05
8.27750e-06;-7.88416173901189e-05
8.27775e-06;-0.00010342769481506866
8.27800e-06;-0.000129143981481579
8.27825e-06;-0.00015607747541313276
8.27850e-06;-0.00018440350288463723
8.27875e-06;-0.0002132924743130241
8.27900e-06;-0.00024304828687720149
8.27925e-06;-0.00027332750463076086
8.27950e-06;-0.00030431960229255193
8.27975e-06;-0.0003357421421975183
8.28000e-06;-0.0003671646821026976
8.28025e-06;-0.00039858722200787687
8.28050e-06;-0.00043018545836298166
8.28075e-06;-0.00046188978155464305
8.28100e-06;-0.0004935941047463045
8.28125e-06;-0.000525298427937751
8.28150e-06;-0.0005558222909831142
8.28175e-06;-0.0005856333833250539
8.28200e-06;-0.0006154444756669935
8.28225e-06;-0.0006434540835778599
8.28250e-06;-0.0006703759416575914
8.28275e-06;-0.0006972977997373228
8.28300e-06;-0.0007219441873591681
8.28325e-06;-0.0007452166288264383
8.28350e-06;-0.0007660539995180006
8.28375e-06;-0.0007854210561838115
8.28400e-06;-0.0008018291283980005
8.28425e-06;-0.000816450543573498
8.28450e-06;-0.0008279227786254341
8.28475e-06;-0.0008374935150634701
8.28500e-06;-0.0008438572922521275
8.28525e-06;-0.0008482846833565127
8.28550e-06;-0.0008494352503764745
8.28575e-06;-0.0008486072463999776
8.28600e-06;-0.000844436309873032
8.28625e-06;-0.0008382468855612689
8.28650e-06;-0.0008288575792171298
8.28675e-06;-0.0008175361600656682
8.28700e-06;-0.0008032407854263176
8.28725e-06;-0.0007871497141242464
8.28750e-06;-0.0007683030285540578
8.28775e-06;-0.0007477924823894707
8.28800e-06;-0.0007247470041018768
8.28825e-06;-0.0007001709147571246
8.28850e-06;-0.0006734115946835575
8.28875e-06;-0.0006453340234963891
8.28900e-06;-0.0006154767681267356
8.28925e-06;-0.0005845449260790145
8.28950e-06;-0.0005525293624860064
8.28975e-06;-0.0005192649897442446
8.29000e-06;-0.00048514687731098346
8.29025e-06;-0.00045035250921541474
8.29050e-06;-0.0004150807119871584
8.29075e-06;-0.00037953749895779353
8.29100e-06;-0.00034392938714022876
8.29125e-06;-0.00030846281753919304
8.29150e-06;-0.0002733432580811719
8.29175e-06;-0.00023877270721555825
8.29200e-06;-0.00020495438442999546
8.29225e-06;-0.00017210434485828076
8.29250e-06;-0.00014045202891874
8.29275e-06;-0.00011023135855437142
8.29300e-06;-8.167652407120937e-05
8.29325e-06;-5.502168769912687e-05
8.29350e-06;-3.047152857001103e-05
8.29375e-06;-8.060490953873725e-06
8.29400e-06;1.2395845830125733e-05
8.29425e-06;3.106209934159073e-05
8.29450e-06;4.793389323428591e-05
8.29475e-06;6.292938471390766e-05
8.29500e-06;7.596036798781356e-05
8.29525e-06;8.693866114574704e-05
8.29550e-06;9.579456611504125e-05
8.29575e-06;0.00010256501945742812
8.29600e-06;0.00010742405038334265
8.29625e-06;0.00011053326792004367
8.29650e-06;0.00011194842098121262
8.29675e-06;0.00011167672762821581
8.29700e-06;0.00010972142198102804
8.29725e-06;0.00010608576272677865
8.29750e-06;0.00010078458529834644
8.29775e-06;9.38995173133716e-05
8.29800e-06;8.559805206125676e-05
8.29825e-06;7.603989316081165e-05
8.29850e-06;6.531842185650799e-05
8.29875e-06;5.349662187836594e-05
8.29900e-06;4.063497235571458e-05
8.29925e-06;2.6793962390033245e-05
8.29950e-06;1.2041334139015895e-05
8.29975e-06;-3.513334443249533e-06
8.30000e-06;-1.9706695161341984e-05
8.30025e-06;-3.638028651976198e-05
8.30050e-06;-5.3488665367883484e-05
8.30075e-06;-7.076274189428533e-05
8.30100e-06;-8.81924990493358e-05
8.30125e-06;-0.00010571625733734303
8.30150e-06;-0.00012324001562523152
8.30175e-06;-0.00014049519806262688
8.30200e-06;-0.00015758821238391686
8.30225e-06;-0.00017402983238854505
8.30250e-06;-0.0001900781356117601
8.30275e-06;-0.00020516733075016345
8.30300e-06;-0.0002196774092221504
8.30325e-06;-0.00023294175231865742
8.30350e-06;-0.00024545391103754886
8.30375e-06;-0.00025671472704727705
8.30400e-06;-0.0002672199729293635
8.30425e-06;-0.00027672068043717177
8.30450e-06;-0.00028561484012851976
8.30475e-06;-0.0002934271927527768
8.30500e-06;-0.00030058634214342214
8.30525e-06;-0.00030654293625587804
8.30550e-06;-0.0003117734184579013
8.30575e-06;-0.0003158566021149516
8.30600e-06;-0.00031924703829207057
8.30625e-06;-0.00032170354494513666
8.30650e-06;-0.000323596137935914
8.30675e-06;-0.0003243299848319035
8.30700e-06;-0.00032436417213141345
8.30725e-06;-0.00032439835943092333
8.30750e-06;-0.00032308421590319155
8.30775e-06;-0.0003209559400933868
8.30800e-06;-0.00031882766428356765
8.30825e-06;-0.00031569135080883163
8.30850e-06;-0.00031194637661972956
8.30875e-06;-0.00030820140243060205
8.30900e-06;-0.00030360809977479294
8.30925e-06;-0.00029850257001823186
8.30950e-06;-0.0002933970402616362
8.30975e-06;-0.00028753862878596806
8.31000e-06;-0.0002812256216727411
8.31025e-06;-0.0002749126145594713
8.31050e-06;-0.00026859960744620153
8.31075e-06;-0.0002622866003329745
8.31100e-06;-0.0002559389527930381
8.31125e-06;-0.0002493454932320789
8.31150e-06;-0.00024275203367116443
8.31175e-06;-0.00023615857411020524
8.31200e-06;-0.00022956511454924605
8.31225e-06;-0.00022297165498833156
8.31250e-06;-0.00021689361121878195
8.31275e-06;-0.00021112677937590996
8.31300e-06;-0.00020535994753307702
8.31325e-06;-0.0002002766357329895
8.31350e-06;-0.00019560603846937764
8.31375e-06;-0.00019093544120579742
8.31400e-06;-0.00018669879530130241
8.31425e-06;-0.00018272417248731766
8.31450e-06;-0.00017874954967335985
8.31475e-06;-0.00017511844711166856
8.31500e-06;-0.00017169476465886817
8.31525e-06;-0.000168271082206091
8.31550e-06;-0.00016546884363586797
8.31575e-06;-0.00016304183755030035
8.31600e-06;-0.00016061483146473276
8.31625e-06;-0.00015818782537918157
8.31650e-06;-0.00015576081929361398
8.31675e-06;-0.00015333381320804636
8.31700e-06;-0.0001509068071224952
8.31725e-06;-0.00014847980103692757
8.31750e-06;-0.0001461639439034137
8.31775e-06;-0.00014463681113567836
8.31800e-06;-0.0001431096783679327
8.31825e-06;-0.000141582545600187
8.31850e-06;-0.00014005541283245167
8.31875e-06;-0.000138528280064706
8.31900e-06;-0.0001370011472969603
8.31925e-06;-0.000135474014529225
8.31950e-06;-0.0001339468817614793
8.31975e-06;-0.00013274743038387387
8.32000e-06;-0.0001317458354912493
8.32025e-06;-0.00013074424059861795
8.32050e-06;-0.00012974264570598658
8.32075e-06;-0.00012874105081336201
8.32100e-06;-0.00012773945592073067
8.32125e-06;-0.00012677415546273355
8.32150e-06;-0.00012606640403617914
8.32175e-06;-0.0001253586526096199
8.32200e-06;-0.00012465090118306068
8.32225e-06;-0.00012394314975650624
8.32250e-06;-0.000123235398329947
8.32275e-06;-0.00012252764690338778
8.32300e-06;-0.00012189752082235482
8.32325e-06;-0.00012137206278069762
8.32350e-06;-0.00012088150316643248
8.32375e-06;-0.0001207110696702717
8.32400e-06;-0.00012135003423044225
8.32425e-06;-0.00012311927608033954
8.32450e-06;-0.00012607950738056944
8.32475e-06;-0.00013017573683981926
8.32500e-06;-0.00013534409884147192
8.32525e-06;-0.00014152074317626593
8.32550e-06;-0.00014866573888300272
8.32575e-06;-0.0001568664363248977
8.32600e-06;-0.00016634576496531002
8.32625e-06;-0.00017725036641563338
8.32650e-06;-0.00018955145167150734
8.32675e-06;-0.00020314776493495862
8.32700e-06;-0.0002179324860747527
8.32725e-06;-0.00023409766126494239
8.32750e-06;-0.0002508353541961437
8.32775e-06;-0.00026882776966080847
8.32800e-06;-0.00028757779601723733
8.32825e-06;-0.00030762728108504645
8.32850e-06;-0.0003284613890845951
8.32875e-06;-0.000350488906420099
8.32900e-06;-0.00037323701327786075
8.32925e-06;-0.0003959851201354683
8.32950e-06;-0.00041978597210340086
8.32975e-06;-0.00044422247947744904
8.33000e-06;-0.0004686589868513317
8.33025e-06;-0.00049309549422538
8.33050e-06;-0.0005175320015994282
8.33075e-06;-0.0005419135026647614
8.33100e-06;-0.0005662617905079292
8.33125e-06;-0.000590610078351097
8.33150e-06;-0.0006149583661940998
8.33175e-06;-0.0006393066540372676
8.33200e-06;-0.0006622604978429059
8.33225e-06;-0.0006843723658629032
8.33250e-06;-0.0007064842338830502
8.33275e-06;-0.0007270492400157364
8.33300e-06;-0.0007466802393200905
8.33325e-06;-0.0007645933621381101
8.33350e-06;-0.0007814692182284472
8.33375e-06;-0.0007958939437056739
8.33400e-06;-0.0008088386581046409
8.33425e-06;-0.0008186103113110136
8.33450e-06;-0.0008264660463317522
8.33475e-06;-0.0008311079082080516
8.33500e-06;-0.000833809209335733
8.33525e-06;-0.0008333301724398024
8.33550e-06;-0.000830930823553127
8.33575e-06;-0.000825184840188768
8.33600e-06;-0.0008174181337853968
8.33625e-06;-0.0008061455555207275
8.33650e-06;-0.0007927561054884634
8.33675e-06;-0.0007761283023994673
8.33700e-06;-0.0007575451574070032
8.33725e-06;-0.0007360376700343785
8.33750e-06;-0.0007127644427636859
8.33775e-06;-0.0006867557077815087
8.33800e-06;-0.0006590952526924462
8.33825e-06;-0.0006288925523574381
8.33850e-06;-0.0005971548252445851
8.33875e-06;-0.000563794201527573
8.33900e-06;-0.0005285360177979014
8.33925e-06;-0.0004919292007065465
8.33950e-06;-0.00045416510053372964
8.33975e-06;-0.00041540400634961454
8.34000e-06;-0.0003757792639080419
8.34025e-06;-0.00033545623009117965
8.34050e-06;-0.0002946537044583981
8.34075e-06;-0.00025361130923609625
8.34100e-06;-0.00021257014791754495
8.34125e-06;-0.00017177131115596528
8.34150e-06;-0.00013145195271002782
8.34175e-06;-9.182978345988875e-05
8.34200e-06;-5.310562913356313e-05
8.34225e-06;-1.5500344325746945e-05
8.34250e-06;2.0731751021047915e-05
8.34275e-06;5.53233229418671e-05
8.34300e-06;8.800611491860168e-05
8.34325e-06;0.00011851189906068482
8.34350e-06;0.0001465820023759929
8.34375e-06;0.00017202363262917153
8.34400e-06;0.00019475670524781612
8.34425e-06;0.00021475479242546942
8.34450e-06;0.000231974994190828
8.34475e-06;0.0002463589457809392
8.34500e-06;0.0002578466332138365
8.34525e-06;0.0002663780498696
8.34550e-06;0.0002718991902108737
8.34575e-06;0.0002743973299313008
8.34600e-06;0.00027393035177051395
8.34625e-06;0.000270589725202247
8.34650e-06;0.00026445660841882524
8.34675e-06;0.0002556025027201826
8.34700e-06;0.00024409781403983755
8.34725e-06;0.0002300130061732613
8.34750e-06;0.0002134222724105467
8.34775e-06;0.00019442567002233408
8.34800e-06;0.0001731674664051105
8.34825e-06;0.0001498129787857867
8.34850e-06;0.00012452106006911534
8.34875e-06;9.744446798108898e-05
8.34900e-06;6.873529866889673e-05
8.34925e-06;3.8545654657031294e-05
8.34950e-06;7.029980315300538e-06
8.34975e-06;-2.564109511672577e-05
8.35000e-06;-5.926925866328588e-05
8.35025e-06;-9.378683214183104e-05
8.35050e-06;-0.00012864181232745896
8.35075e-06;-0.00016379356986373616
8.35100e-06;-0.00019912452379369092
8.35125e-06;-0.00023445547772388509
8.35150e-06;-0.0002693367864150953
8.35175e-06;-0.00030394659593272117
8.35200e-06;-0.000337541822872604
8.35225e-06;-0.00037052443722962843
8.35250e-06;-0.00040189876308459706
8.35275e-06;-0.00043230199225973256
8.35300e-06;-0.00046051055828016805
8.35325e-06;-0.000487393970199684
8.35350e-06;-0.0005118176862594469
8.35375e-06;-0.0005347562194798869
8.35400e-06;-0.0005565199346694772
8.35425e-06;-0.0005775742859061484
8.35450e-06;-0.0005976299510831774
8.35475e-06;-0.0006170826021143609
8.35500e-06;-0.0006365352531456762
8.35525e-06;-0.0006541394681588072
8.35550e-06;-0.0006706275836171341
8.35575e-06;-0.000687115699075573
8.35600e-06;-0.0007018091568969795
8.35625e-06;-0.0007154189869541357
8.35650e-06;-0.0007290288170113842
8.35675e-06;-0.0007426386470686327
8.35700e-06;-0.0007562484771257889
8.35725e-06;-0.0007698583071830374
8.35750e-06;-0.0007834681372402859
8.35775e-06;-0.0007970779672974421
8.35800e-06;-0.0008106877973546906
8.35825e-06;-0.0008242976274119391
8.35850e-06;-0.0008359533253314573
8.35875e-06;-0.0008464291035852063
8.35900e-06;-0.0008569048818389553
8.35925e-06;-0.0008673806600927043
8.35950e-06;-0.0008778564383463823
8.35975e-06;-0.0008883322166001313
8.36000e-06;-0.0008988079948538803
8.36025e-06;-0.0009092837731075583
8.36050e-06;-0.0009197595513613073
8.36075e-06;-0.0009302353296150563
8.36100e-06;-0.0009386841873822202
8.36125e-06;-0.0009459091753315864
8.36150e-06;-0.0009531341632809525
8.36175e-06;-0.0009603591512302697
8.36200e-06;-0.0009675841391796359
8.36225e-06;-0.000974809127129002
8.36250e-06;-0.0009820341150783192
8.36275e-06;-0.0009892591030276853
8.36300e-06;-0.0009964840909770516
8.36325e-06;-0.0010037090789263687
8.36350e-06;-0.0010109340668757348
8.36375e-06;-0.0010176284080434931
8.36400e-06;-0.0010205572252022811
8.36425e-06;-0.0010234860423610891
8.36450e-06;-0.001026414859519897
8.36475e-06;-0.001029343676678685
8.36500e-06;-0.001032272493837493
8.36525e-06;-0.0010352013109963007
8.36550e-06;-0.001038130128155089
8.36575e-06;-0.0010410589453138967
8.36600e-06;-0.0010439877624727047
8.36625e-06;-0.0010469165796314927
8.36650e-06;-0.0010498453967903005
8.36675e-06;-0.0010505603458702613
8.36700e-06;-0.001049938544771313
8.36725e-06;-0.0010493167436723605
8.36750e-06;-0.001048694942573408
8.36775e-06;-0.0010480731414744553
8.36800e-06;-0.0010474513403755069
8.36825e-06;-0.0010468295392765544
8.36850e-06;-0.0010462077381776017
8.36875e-06;-0.0010455859370786535
8.36900e-06;-0.0010449641359797008
8.36925e-06;-0.0010443423348807483
8.36950e-06;-0.0010437205337818
8.36975e-06;-0.0010430987326828472
8.37000e-06;-0.001041602120553153
8.37025e-06;-0.001039577290950579
8.37050e-06;-0.0010375524613479917
8.37075e-06;-0.001035527631745404
8.37100e-06;-0.0010335028021428304
8.37125e-06;-0.0010314779725402428
8.37150e-06;-0.0010294531429376553
8.37175e-06;-0.0010274283133350816
8.37200e-06;-0.001025403483732494
8.37225e-06;-0.0010233786541299066
8.37250e-06;-0.0010213538245273327
8.37275e-06;-0.0010193289949247454
8.37300e-06;-0.0010173041653221578
8.37325e-06;-0.0010154511599407318
8.37350e-06;-0.0010137019033149603
8.37375e-06;-0.0010119526466891887
8.37400e-06;-0.0010089052469892297
8.37425e-06;-0.0010050740187479053
8.37450e-06;-0.0010012427905065808
8.37475e-06;-0.000995068045275223
8.37500e-06;-0.0009874782668779906
8.37525e-06;-0.0009798884884807584
8.37550e-06;-0.0009722987100835775
8.37575e-06;-0.0009647089316863451
8.37600e-06;-0.0009537817046778183
8.37625e-06;-0.000940839301122902
8.37650e-06;-0.0009278968975680732
8.37675e-06;-0.0009149544940131568
8.37700e-06;-0.0009020120904582405
8.37725e-06;-0.0008855523251051033
8.37750e-06;-0.0008669687502713251
8.37775e-06;-0.0008483851754375468
8.37800e-06;-0.0008298016006038945
8.37825e-06;-0.0008112180257701162
8.37850e-06;-0.000792634450936338
8.37875e-06;-0.0007735325011106182
8.37900e-06;-0.0007507521091498552
8.37925e-06;-0.0007279717171890922
8.37950e-06;-0.0007051913252284836
8.37975e-06;-0.0006824109332677205
8.38000e-06;-0.0006596305413069575
8.38025e-06;-0.0006368501493463489
8.38050e-06;-0.0006134729781536679
8.38075e-06;-0.0005897354671769758
8.38100e-06;-0.0005659979562004446
8.38125e-06;-0.0005426602837914632
8.38150e-06;-0.0005195640369137782
8.38175e-06;-0.0004974515836952222
8.38200e-06;-0.00047593315247936474
8.38225e-06;-0.0004544147212635073
8.38250e-06;-0.00044167341496456885
8.38275e-06;-0.0004208128182189739
8.38300e-06;-0.028243558188234787
8.38325e-06;-0.022423980481625104
8.38350e-06;-0.016670516756240462
8.38375e-06;-0.012411524148487299
8.38400e-06;0.008850977844749957
8.38425e-06;0.007569933028558332
8.38450e-06;0.00668384672286164
8.38475e-06;0.0017653337215911592
8.38500e-06;-0.0067980045047663865
8.38525e-06;-0.009968239521367947
8.38550e-06;-0.008136545364535144
8.38575e-06;-0.0035956491563304176
8.38600e-06;0.0028878904650446492
8.38625e-06;0.00574218814703596
8.38650e-06;0.0053015612219413635
8.38675e-06;0.0020332631342120603
8.38700e-06;-0.0034511158940091846
8.38725e-06;-0.005528374716088271
8.38750e-06;-0.004451228930481435
8.38775e-06;-0.0016615266727288591
8.38800e-06;0.0023563858458346813
8.38825e-06;0.004109345664040678
8.38850e-06;0.0038047561171345116
8.38875e-06;0.0017338444894566306
8.38900e-06;-0.001721353851170304
8.38925e-06;-0.003039400632687909
8.38950e-06;-0.002379444221230689
8.38975e-06;-0.0006452827766277164
8.39000e-06;0.0018592464476338048
8.39025e-06;0.0029457951621471344
8.39050e-06;0.0027442093175311507
8.39075e-06;0.0014368796406217146
8.39100e-06;-0.0007369023567992995
8.39125e-06;-0.0015714106294098945
8.39150e-06;-0.0011665090060405314
8.39175e-06;-8.846290073559124e-05
8.39200e-06;0.0014723229523920587
8.39225e-06;0.0021450684482783866
8.39250e-06;0.002011172828585436
8.39275e-06;0.0011849446271711642
8.39300e-06;-0.00018367356620041758
