Time(s);Current(A)
1.12500e-05;0.0025789289713484525
1.12503e-05;0.002553620534380343
1.12505e-05;0.0025283120974124045
1.12508e-05;0.0025030036604442945
1.12510e-05;0.002477695223476185
1.12513e-05;0.0024523867865082465
1.12515e-05;0.0024201526378713036
1.12518e-05;0.0023876160582366477
1.12520e-05;0.0023550794786022125
1.12523e-05;0.002322542898967557
1.12525e-05;0.0022900063193329015
1.12527e-05;0.0022574697396984663
1.12530e-05;0.002224933160063811
1.12533e-05;0.002192396580429155
1.12535e-05;0.0021598600007947198
1.12538e-05;0.0021273234211600643
1.12540e-05;0.0020947868415254088
1.12542e-05;0.002061695227017166
1.12545e-05;0.0020285793753243107
1.12548e-05;0.0020007216041175906
1.12550e-05;0.001973093442026091
1.12553e-05;0.0019454652799347782
1.12555e-05;0.0019178371178432782
1.12558e-05;0.0018902089557517785
1.12560e-05;0.0018625807936604659
1.12563e-05;0.001834952631568966
1.12565e-05;0.001807324469477466
1.12568e-05;0.0017796963073861533
1.12570e-05;0.0017591840993585537
1.12573e-05;0.00174708755482693
1.12575e-05;0.0017349910102953882
1.12578e-05;0.0017228944657637644
1.12580e-05;0.0017107979212321407
1.12583e-05;0.0016987013767005988
1.12585e-05;0.001686604832168975
1.12588e-05;0.0016745082876373513
1.12590e-05;0.0016624117431058094
1.12593e-05;0.0016503151985741856
1.12595e-05;0.0016538651719256127
1.12598e-05;0.0016580983952082188
1.12600e-05;0.0016623316184908538
1.12603e-05;0.0016665648417734887
1.12605e-05;0.001670798065056095
1.12608e-05;0.00167503128833873
1.12610e-05;0.001679264511621365
1.12612e-05;0.0016834977349039714
1.12615e-05;0.0016877309581866064
1.12618e-05;0.001702242949831489
1.12620e-05;0.0017172037932802365
1.12623e-05;0.0017321646367290853
1.12625e-05;0.0017471254801779343
1.12627e-05;0.0017620863236266816
1.12630e-05;0.0017770471670755306
1.12633e-05;0.0017920080105243794
1.12635e-05;0.0018069688539732282
1.12638e-05;0.0018219296974219758
1.12640e-05;0.0018397396455265877
1.12643e-05;0.001857674007930636
1.12645e-05;0.001875608370334563
1.12648e-05;0.0018935427327386113
1.12650e-05;0.0019114770951426598
1.12653e-05;0.0019294114575465868
1.12655e-05;0.001944746611968283
1.12658e-05;0.0019599682645431203
1.12660e-05;0.0019751899171178543
1.12663e-05;0.0019904115696926915
1.12665e-05;0.0020056332222675288
1.12668e-05;0.0020208548748422627
1.12670e-05;0.002028890873317996
1.12673e-05;0.002036613089665884
1.12675e-05;0.00204433530601372
1.12678e-05;0.0020394347844288744
1.12680e-05;0.002033983054907707
1.12683e-05;0.002028531325386576
1.12685e-05;0.0020128181788570928
1.12688e-05;0.0019966569382197357
1.12690e-05;0.001972239068363575
1.12693e-05;0.0019474606491893208
1.12695e-05;0.0019126212583223982
1.12697e-05;0.0018773425263655592
1.12700e-05;0.0018324332168451326
1.12703e-05;0.0017871033606244998
1.12705e-05;0.001733460712571855
1.12708e-05;0.0016794550626997309
1.12710e-05;0.001617966455678332
1.12712e-05;0.0015561510839418667
1.12715e-05;0.0014866474017858535
1.12718e-05;0.001416807987576726
1.12720e-05;0.0013392163851795578
1.12723e-05;0.0012612862613244156
1.12725e-05;0.0011833561374687454
1.12728e-05;0.0010994199788950472
1.12730e-05;0.0010152215496463906
1.12733e-05;0.0009310231203971636
1.12735e-05;0.0008433881099392181
1.12738e-05;0.0007556030313391431
1.12740e-05;0.0006678179527384732
1.12743e-05;0.0005800328741378032
1.12745e-05;0.0004922477955377283
1.12748e-05;0.0004044627169370583
1.12750e-05;0.00031928586282555557
1.12753e-05;0.00023607879423004385
1.12755e-05;0.00015513672438100543
1.12758e-05;7.694909569037451e-05
1.12760e-05;2.0839411831889752e-06
1.12763e-05;-6.888758161761348e-05
1.12765e-05;-0.00013539441764459615
1.12768e-05;-0.00019686558732229665
1.12770e-05;-0.00025277473582967154
1.12773e-05;-0.00030276198381081956
1.12775e-05;-0.00034666023246126404
1.12778e-05;-0.00038436678959984045
1.12780e-05;-0.000415771828814341
1.12782e-05;-0.000440765104794828
1.12785e-05;-0.0004592365395486529
1.12788e-05;-0.0004710761181607491
1.12790e-05;-0.0004762017142561463
1.12793e-05;-0.0004746355977710038
1.12795e-05;-0.0004665207735107776
1.12797e-05;-0.0004520405140282511
1.12800e-05;-0.0004313736610202681
1.12803e-05;-0.0004046988792491029
1.12805e-05;-0.00037219480924374304
1.12808e-05;-0.0003340401739740983
1.12810e-05;-0.0002904311846497315
1.12813e-05;-0.00024162935838311622
1.12815e-05;-0.0001879719110475587
1.12818e-05;-0.0001298212292363895
1.12820e-05;-6.75369020687632e-05
1.12823e-05;-1.4783754898895494e-06
1.12825e-05;6.799493346183017e-05
1.12828e-05;0.0001405235733476146
1.12830e-05;0.00021573716478263017
1.12833e-05;0.00029322442906342446
1.12835e-05;0.00037315948049053557
1.12838e-05;0.00045319729889670173
1.12840e-05;0.0005348517564190028
1.12843e-05;0.0006165768091099345
1.12845e-05;0.0006983018618003124
1.12848e-05;0.0007787047649080432
1.12850e-05;0.0008575440314477276
1.12853e-05;0.0009363832979868776
1.12855e-05;0.001015222564526562
1.12858e-05;0.001087833788435245
1.12860e-05;0.0011601730470571327
1.12863e-05;0.0012253817731134851
1.12865e-05;0.0012902791240804155
1.12867e-05;0.0013460535918942765
1.12870e-05;0.0014014296829349474
1.12873e-05;0.0014471537241134127
1.12875e-05;0.0014924562809407703
1.12878e-05;0.001528437015149908
1.12880e-05;0.0015640106853248344
1.12882e-05;0.0015897129535433602
1.12885e-05;0.0016149841587749076
1.12888e-05;0.0016298115718795685
1.12890e-05;0.0016441829269438306
1.12893e-05;0.0016484545486322216
1.12895e-05;0.001652285136589289
1.12898e-05;0.0016468983632733957
1.12900e-05;0.0016411090875266229
1.12903e-05;0.001626433681650206
1.12905e-05;0.0016113702374976804
1.12908e-05;0.0015877375051294202
1.12910e-05;0.0015637305702929133
1.12913e-05;0.0015303947669489347
1.12915e-05;0.00149665159189209
1.12918e-05;0.0014629084168350166
1.12920e-05;0.00142015434921912
1.12923e-05;0.0013770067952191937
1.12925e-05;0.001333859241218975
1.12928e-05;0.0012837308286684855
1.12930e-05;0.0012332975769724988
1.12933e-05;0.0011828643252761706
1.12935e-05;0.0011280300142831458
1.12938e-05;0.001073003518454294
1.12940e-05;0.0010179770226250693
1.12943e-05;0.0009629505267958448
1.12945e-05;0.0009076050418233073
1.12948e-05;0.0008522456272774882
1.12950e-05;0.000796886212731669
1.12952e-05;0.000741526798186225
1.12955e-05;0.0006894043189346927
1.12958e-05;0.0006374231897167998
1.12960e-05;0.0005896265934936221
1.12963e-05;0.0005420127268664057
1.12965e-05;0.0004984313024223243
1.12967e-05;0.0004581909831267876
1.12970e-05;0.0004212230483491088
1.12973e-05;0.0003866697690302216
1.12975e-05;0.00035355432171908167
1.12978e-05;0.00032165294600757286
1.12980e-05;0.00029117782292489185
1.12983e-05;0.00026235881087103056
1.12985e-05;0.00023542563246859826
1.12988e-05;0.00021060804608016755
1.12990e-05;0.0001878924777519559
1.12993e-05;0.00016673767745173552
1.12995e-05;0.000146527795144761
1.12998e-05;0.00012711878683910644
1.13000e-05;0.00010863963094195199
1.13003e-05;9.123037992570294e-05
1.13005e-05;7.5031018983346e-05
1.13008e-05;6.018153026352069e-05
1.13010e-05;4.6669446069745076e-05
1.13013e-05;3.4151786278723844e-05
1.13015e-05;2.2238889103333186e-05
1.13018e-05;1.0836640529001337e-05
1.13020e-05;2.1958195147130506e-08
1.13023e-05;-1.0121325927310553e-05
1.13025e-05;-1.950940828177275e-05
1.13028e-05;-2.805852161463031e-05
1.13030e-05;-3.5780376265731835e-05
1.13033e-05;-4.289370947623109e-05
1.13035e-05;-4.9646482408548674e-05
1.13037e-05;-5.610150863177744e-05
1.13040e-05;-6.221446478339752e-05
1.13043e-05;-6.793671078228083e-05
1.13045e-05;-7.321962428055587e-05
1.13048e-05;-7.801459414882954e-05
1.13050e-05;-8.21748820000297e-05
1.13052e-05;-8.630834988264048e-05
1.13055e-05;-9.005781914167549e-05
1.13058e-05;-9.379052000296745e-05
1.13060e-05;-9.730818065902765e-05
1.13063e-05;-0.00010063908140521782
1.13065e-05;-0.00010375936539570404
1.13068e-05;-0.00010664244506363251
1.13070e-05;-0.00010882273009608467
1.13073e-05;-0.00010894157903298294
1.13075e-05;-0.00010565780177420329
1.13078e-05;-9.86094659792041e-05
1.13080e-05;-8.79637963222925e-05
1.13083e-05;-7.39093943924566e-05
1.13085e-05;-5.663487453477177e-05
1.13088e-05;-3.632884791243094e-05
1.13090e-05;-1.2904942408119062e-05
1.13093e-05;1.4282570469178186e-05
1.13095e-05;4.586842825826717e-05
1.13098e-05;8.18739226083457e-05
1.13100e-05;0.00012198887577685562
1.13103e-05;0.00016588973958303556
1.13105e-05;0.00021325300144886699
1.13108e-05;0.00026375512955602933
1.13110e-05;0.0003172448994105289
1.13113e-05;0.0003739214286686784
1.13115e-05;0.0004339769424013742
1.13118e-05;0.0004972193607114947
1.13120e-05;0.0005643806292196397
1.13122e-05;0.0006317072187066765
1.13125e-05;0.0007027786331001754
1.13128e-05;0.0007740135759797032
1.13130e-05;0.000848759170206399
1.13133e-05;0.0009236580670617012
1.13135e-05;0.0009985569639170033
1.13137e-05;0.001073455860771798
1.13140e-05;0.001149279920956405
1.13143e-05;0.0012251443810428549
1.13145e-05;0.0013010088411293049
1.13148e-05;0.001376873301215241
1.13150e-05;0.0014484897316491157
1.13153e-05;0.0015199206597229392
1.13155e-05;0.0015913515877962786
1.13158e-05;0.0016557377051892792
1.13160e-05;0.0017198161907824789
1.13163e-05;0.0017838946763752445
1.13165e-05;0.001839074427321685
1.13168e-05;0.0018938655895778364
1.13170e-05;0.0019388851821317932
1.13173e-05;0.0019834780711576005
1.13175e-05;0.0020154881923375796
1.13178e-05;0.0020469488509844863
1.13180e-05;0.0020651308161745634
1.13183e-05;0.002082732929250177
1.13185e-05;0.0020870251164320495
1.13188e-05;0.0020907360876459393
1.13190e-05;0.002080826481767577
1.13193e-05;0.002070322094448525
1.13195e-05;0.002045590216869742
1.13198e-05;0.0020202370552515423
1.13200e-05;0.001981374303235302
1.13203e-05;0.0019419216163294414
1.13205e-05;0.0018900935784192867
1.13207e-05;0.0018377251354260305
1.13210e-05;0.0017739407907223501
1.13213e-05;0.0017096579380316832
1.13215e-05;0.001634732521067516
1.13218e-05;0.0015593423661060194
1.13220e-05;0.001474913153622638
1.13222e-05;0.0013900892248498097
1.13225e-05;0.0012980901457457503
1.13228e-05;0.0012057777431881687
1.13230e-05;0.001107015247594591
1.13233e-05;0.0010079710902479307
1.13235e-05;0.0009089269329005992
1.13238e-05;0.0008059651720653092
1.13240e-05;0.0007028323378736427
1.13243e-05;0.0005996995036812772
1.13245e-05;0.0004965666694889118
1.13248e-05;0.0003934338352972453
1.13250e-05;0.00029247656897149054
1.13253e-05;0.00019361253959087997
1.13255e-05;9.737809613656037e-05
1.13258e-05;4.415888221650179e-06
1.13260e-05;-8.459583111428118e-05
1.13263e-05;-0.00016897750743959572
1.13265e-05;-0.00024804964783278245
1.13268e-05;-0.0003211328244802804
1.13270e-05;-0.0003881476616454127
1.13273e-05;-0.0004503297986992594
1.13275e-05;-0.0005091337585477014
1.13278e-05;-0.0005648802047147375
1.13280e-05;-0.0006172247542210175
1.13283e-05;-0.0006657960470604218
1.13285e-05;-0.0007102228299004387
1.13288e-05;-0.0007501339658248083
1.13290e-05;-0.0007837872745981758
1.13292e-05;-0.0008171755963515408
1.13295e-05;-0.0008462525033386263
1.13298e-05;-0.0008682669365770808
1.13300e-05;-0.0008767455374872653
1.13303e-05;-0.0019939302912800323
1.13305e-05;-0.008914199591468828
1.13307e-05;-0.014375427469227197
1.13310e-05;-0.013606869499118716
1.13313e-05;-0.011213470626977109
1.13315e-05;-0.005390034847164887
1.13318e-05;-0.0004298795357394661
1.13320e-05;8.10685147429475e-05
1.13323e-05;-0.0006923884566602919
1.13325e-05;-0.005008672708246039
1.13328e-05;-0.008961412941651467
1.13330e-05;-0.008347664464146433
1.13333e-05;-0.00701796869012711
1.13335e-05;-0.0052913759974208925
1.13338e-05;-0.001037223916957476
1.13340e-05;0.000584974507252015
1.13343e-05;0.00017308377285778903
1.13345e-05;-0.0017962420067665981
1.13348e-05;-0.003965567613853676
1.13350e-05;-0.004575658673040592
1.13353e-05;-0.0038046287962892698
1.13355e-05;-0.002082433836091845
1.13358e-05;-0.0002561087766551999
1.13360e-05;0.0005497968066720734
1.13363e-05;0.0002770613660124559
1.13365e-05;-0.0009701109336758239
1.13368e-05;-0.0023416442506091176
1.13370e-05;-0.0027354863051092305
1.13373e-05;-0.0022625017766166418
1.13375e-05;-0.001191174386878469
1.13377e-05;-5.186908616677078e-05
1.13380e-05;0.00045083140015667804
1.13383e-05;0.00028030037761834776
1.13385e-05;-0.0004983317115862583
1.13388e-05;-0.001352736005948502
1.13390e-05;-0.0015927905647436897
1.13392e-05;-0.0012881613733589673
1.13395e-05;-0.000607228007127866
1.13398e-05;0.00011761809938704644
1.13400e-05;0.00044489741742324997
1.13403e-05;0.00035156376388401425
1.13405e-05;-0.00012168476058652458
1.13408e-05;-0.0006415106037641344
1.13410e-05;-0.000775766378773882
1.13413e-05;-0.0005682495956249499
1.13415e-05;-0.0001245824385589276
1.13418e-05;0.00034689274380629754
1.13420e-05;0.0005695249551793707
1.13423e-05;0.000528784280986366
1.13425e-05;0.0002500711684639175
1.13428e-05;-5.791451639030565e-05
1.13430e-05;-0.0001245993644064469
1.13433e-05;2.244859138786801e-05
1.13435e-05;0.0003169395213795512
1.13438e-05;0.0006282495336817912
1.13440e-05;0.000782980766713279
1.13443e-05;0.0007719364981938431
1.13445e-05;0.0006109324546701733
1.13448e-05;0.00043059660081996637
1.13450e-05;0.0004003010098650265
1.13453e-05;0.0005026556965370233
1.13455e-05;0.0006960183831067092
1.13458e-05;0.0008984538081492376
1.13460e-05;0.001001242104221197
1.13462e-05;0.0009985240546665618
1.13465e-05;0.000900108358840835
1.13468e-05;0.0007878042842136429
1.13470e-05;0.0007682858860224499
1.13473e-05;0.0008323809899999052
1.13475e-05;0.000955894093728598
1.13477e-05;0.00108820002637196
1.13480e-05;0.0011610963136558113
1.13483e-05;0.001170742657494435
1.13485e-05;0.0011231129325844783
1.13488e-05;0.0010692797312294112
1.13490e-05;0.0010758852609371308
1.13493e-05;0.0011370031856901583
1.13495e-05;0.001237297637234656
1.13498e-05;0.001344879413885685
1.13500e-05;0.0014168522064352267
1.13503e-05;0.0014506382000022229
1.13505e-05;0.0014498072835162942
1.13508e-05;0.0014461772450641132
1.13510e-05;0.0014813156582776338
1.13513e-05;0.0015513312831946058
1.13515e-05;0.0016464394708494367
1.13518e-05;0.001746487917415935
1.13520e-05;0.0018244317142261232
1.13523e-05;0.0018784825957088443
1.13525e-05;0.0019107032488799125
1.13528e-05;0.0019408499433517458
1.13530e-05;0.001994783877828641
1.13533e-05;0.002069889935854489
1.13535e-05;0.0021598620100755483
1.13538e-05;0.0022519001532250223
1.13540e-05;0.0023288885777306948
1.13543e-05;0.0023876334970393278
1.13545e-05;0.002431211360874126
1.13548e-05;0.0024773442411242597
1.13550e-05;0.0025327349272711293
1.13553e-05;0.002598944336108309
1.13555e-05;0.002670067811316705
1.13558e-05;0.0027411912865255837
1.13560e-05;0.0028058909310791384
1.13562e-05;0.002851637974735134
1.13565e-05;0.0028849720275462
1.13568e-05;0.0029183060803572667
1.13570e-05;0.002953531924659069
1.13573e-05;0.0029936504838391125
1.13575e-05;0.003036068501822549
1.13578e-05;0.0030784865198059857
1.13580e-05;0.003116767560733444
1.13583e-05;0.0031428645058813967
1.13585e-05;0.0031610096964332737
1.13588e-05;0.003179154886985028
1.13590e-05;0.003198849297140217
1.13593e-05;0.0032215940570574763
1.13595e-05;0.0032436112209493096
1.13598e-05;0.0032641957781547482
1.13600e-05;0.003284780335360187
1.13603e-05;0.003301523782950796
1.13605e-05;0.003310704243489925
1.13608e-05;0.003319884704029054
1.13610e-05;0.003329065164568121
1.13613e-05;0.00333824562510725
1.13615e-05;0.0033462433819587273
1.13618e-05;0.003354010508750693
1.13620e-05;0.003361777635542712
1.13623e-05;0.0033695447623347304
1.13625e-05;0.0033748345081600416
1.13628e-05;0.00337524639262414
1.13630e-05;0.0033756582770882383
1.13633e-05;0.003376070161552334
1.13635e-05;0.0033764820460164325
1.13638e-05;0.003376893930480531
1.13640e-05;0.0033773058149446263
1.13643e-05;0.0033777176994087246
1.13645e-05;0.003378129583872823
1.13647e-05;0.003378541468336919
1.13650e-05;0.003378953352801017
1.13653e-05;0.0033793652372651156
1.13655e-05;0.003379777121729214
1.13658e-05;0.0033801890061933098
1.13660e-05;0.003380600890657408
1.13663e-05;0.0033810127751215066
1.13665e-05;0.0033814246595856023
1.13668e-05;0.003375788060666705
1.13670e-05;0.0033689719929620447
1.13673e-05;0.0033621559252574314
1.13675e-05;0.0033553398575527716
1.13678e-05;0.0033485237898481113
1.13680e-05;0.003341707722143498
1.13683e-05;0.0033348916544388377
1.13685e-05;0.003328075586734178
1.13688e-05;0.0033212595190295646
1.13690e-05;0.0033144434513249043
1.13693e-05;0.0033076273836202446
1.13695e-05;0.0033008113159156307
1.13698e-05;0.003293995248210971
1.13700e-05;0.003287179180506311
1.13703e-05;0.0032803631128016974
1.13705e-05;0.0032735470450970376
1.13708e-05;0.0032638701630039874
1.13710e-05;0.003248560454892131
1.13713e-05;0.003233250746780171
1.13715e-05;0.003217941038668211
1.13718e-05;0.003202631330556355
1.13720e-05;0.003187321622444395
1.13723e-05;0.003172011914332435
1.13725e-05;0.0031567022062205788
1.13728e-05;0.003141392498108619
1.13730e-05;0.003126082789996659
1.13732e-05;0.0031107730818848026
1.13735e-05;0.0030954633737728427
1.13738e-05;0.00307956231005212
1.13740e-05;0.003063545930567456
1.13743e-05;0.003047529551082901
1.13745e-05;0.003031513171598237
1.13748e-05;0.003015496792113573
1.13750e-05;0.002999480412629018
1.13753e-05;0.002983464033144354
1.13755e-05;0.00296744765365969
1.13758e-05;0.002951431274175135
1.13760e-05;0.002935414894690471
1.13763e-05;0.002919398515205807
1.13765e-05;0.0029034694994798968
1.13768e-05;0.002887712499406106
1.13770e-05;0.0028719554993323153
1.13773e-05;0.0028561984992586317
1.13775e-05;0.002840441499184841
1.13778e-05;0.0028186737623169494
1.13780e-05;0.0027850711315976343
1.13783e-05;0.002751468500878092
1.13785e-05;0.0027178658701585492
1.13788e-05;0.0026842632394392346
1.13790e-05;0.0026448915360679707
1.13793e-05;0.00259416076561416
1.13795e-05;0.002543429995160693
1.13798e-05;0.0024873080241390633
1.13800e-05;0.002420571000646409
1.13803e-05;0.002353833977154207
1.13805e-05;0.0022829543302490657
1.13808e-05;0.002203918028005396
1.13810e-05;0.002124881725762262
1.13813e-05;0.002041749565547329
1.13815e-05;0.0019505528292264758
1.13817e-05;0.0018593560929062406
1.13820e-05;0.0017649093021991826
1.13823e-05;0.0016640632879031674
1.13825e-05;0.0015632172736078356
1.13828e-05;0.001460529631534471
1.13830e-05;0.0013542159000131029
1.13833e-05;0.0012479021684917348
1.13835e-05;0.0011415884369710872
1.13838e-05;0.0010333620466112911
1.13840e-05;0.000924762683184214
1.13843e-05;0.0008161633197578729
1.13845e-05;0.0007085549776641687
1.13848e-05;0.000602897915869396
1.13850e-05;0.0004984000240196541
1.13853e-05;0.0003970788204218842
1.13855e-05;0.0002985663863669288
1.13858e-05;0.0002033844934460714
1.13860e-05;0.00011219573660759647
1.13863e-05;2.568436441144475e-05
1.13865e-05;-5.546413872717135e-05
1.13868e-05;-0.00013062961885656533
1.13870e-05;-0.00019970300511338055
1.13873e-05;-0.0002636062280802864
1.13875e-05;-0.0003235431309103746
1.13878e-05;-0.00037985481491713426
1.13880e-05;-0.0004322589655880297
1.13883e-05;-0.0004804091998492335
1.13885e-05;-0.0005239584257881777
1.13888e-05;-0.0005626004175585562
1.13890e-05;-0.0005963492034276
1.13893e-05;-0.0006258645919024165
1.13895e-05;-0.0006519828239937472
1.13898e-05;-0.0006749997457043053
1.13900e-05;-0.0006942447744534931
1.13902e-05;-0.0007101769388411626
1.13905e-05;-0.0007237267418699893
1.13908e-05;-0.0007325857732380664
1.13910e-05;-0.0007393248322694841
1.13913e-05;-0.0007418897528476447
1.13915e-05;-0.0007429625153730953
1.13918e-05;-0.0007410972799829474
1.13920e-05;-0.0007378211411673097
1.13923e-05;-0.0007317669914595099
1.13925e-05;-0.0007243065750059677
1.13928e-05;-0.0007140772770924261
1.13930e-05;-0.0007025508459551956
1.13933e-05;-0.0006884704127802278
1.13935e-05;-0.0006743899796053554
1.13938e-05;-0.0006593833132794531
1.13940e-05;-0.0006425529319242047
1.13943e-05;-0.0006257225505690703
1.13945e-05;-0.0006088921692138219
1.13948e-05;-0.0005917080719289418
1.13950e-05;-0.000573827522507529
1.13953e-05;-0.000555946973085995
1.13955e-05;-0.0005380664236644611
1.13958e-05;-0.000520888976573951
1.13960e-05;-0.0005050959090932031
1.13963e-05;-0.0004893028416124552
