Time(s);Current(A)
1.28000e-05;0.011523868516032562
1.28002e-05;0.01149800112465505
1.28005e-05;0.011472133733277361
1.28008e-05;0.011446266341899674
1.28010e-05;0.011420398950521986
1.28013e-05;0.011394531559144475
1.28015e-05;0.011368664167766787
1.28018e-05;0.0113427967763891
1.28020e-05;0.011316929385011587
1.28023e-05;0.01130278528638965
1.28025e-05;0.011293215263965588
1.28028e-05;0.01128364524154159
1.28030e-05;0.01127407521911753
1.28033e-05;0.011264505196693466
1.28035e-05;0.01125493517426947
1.28038e-05;0.011245365151845408
1.28040e-05;0.011235795129421345
1.28043e-05;0.011226225106997348
1.28045e-05;0.011216655084573287
1.28048e-05;0.011207085062149224
1.28050e-05;0.011197515039725226
1.28053e-05;0.011187945017301165
1.28055e-05;0.011178374994877102
1.28058e-05;0.011168804972453105
1.28060e-05;0.011159234950029044
1.28063e-05;0.01114966492760498
1.28065e-05;0.011140094905180984
1.28068e-05;0.011130524882756922
1.28070e-05;0.01112095486033286
1.28073e-05;0.011111384837908862
1.28075e-05;0.011101814815484801
1.28078e-05;0.01109391078056584
1.28080e-05;0.011091936335315555
1.28083e-05;0.011089961890065255
1.28085e-05;0.011087987444814956
1.28087e-05;0.01108601299956467
1.28090e-05;0.011084038554314371
1.28093e-05;0.011082064109064071
1.28095e-05;0.011080089663813773
1.28098e-05;0.011078115218563486
1.28100e-05;0.011076140773313188
1.28103e-05;0.011074166328062887
1.28105e-05;0.011072191882812603
1.28108e-05;0.011070217437562303
1.28110e-05;0.011068242992312004
1.28113e-05;0.011066268547061718
1.28115e-05;0.01106429410181142
1.28118e-05;0.011062319656561119
1.28120e-05;0.011060345211310833
1.28123e-05;0.011058370766060534
1.28125e-05;0.011056396320810236
1.28128e-05;0.01105442187555995
1.28130e-05;0.01105244743030965
1.28133e-05;0.01105047298505935
1.28135e-05;0.011043277624176711
1.28138e-05;0.011034045219057886
1.28140e-05;0.01102481281393906
1.28143e-05;0.011015580408820296
1.28145e-05;0.01100634800370147
1.28148e-05;0.010997115598582645
1.28150e-05;0.01098788319346388
1.28153e-05;0.010978650788345055
1.28155e-05;0.01096941838322623
1.28158e-05;0.010960185978107466
1.28160e-05;0.01095095357298864
1.28163e-05;0.010941721167869813
1.28165e-05;0.01093248876275105
1.28168e-05;0.010923256357632225
1.28170e-05;0.010914023952513398
1.28172e-05;0.010904791547394635
1.28175e-05;0.01089555914227581
1.28178e-05;0.010886326737156983
1.28180e-05;0.010877094332038158
1.28183e-05;0.010867861926919393
1.28185e-05;0.010858823521417843
1.28188e-05;0.010850475600162682
1.28190e-05;0.010842127678907578
1.28193e-05;0.010833779757652416
1.28195e-05;0.010825431836397255
1.28198e-05;0.010817083915142151
1.28200e-05;0.01080873599388699
1.28203e-05;0.010800388072631829
1.28205e-05;0.010792040151376725
1.28208e-05;0.010783692230121563
1.28210e-05;0.010775344308866402
1.28213e-05;0.010766996387611298
1.28215e-05;0.010758648466356137
1.28218e-05;0.010750300545100977
1.28220e-05;0.010741952623845872
1.28223e-05;0.010733604702590712
1.28225e-05;0.01072525678133555
1.28228e-05;0.010716908860080445
1.28230e-05;0.010708560938825286
1.28233e-05;0.010700213017570124
1.28235e-05;0.01069186509631502
1.28238e-05;0.010693323217534908
1.28240e-05;0.010698607361567296
1.28243e-05;0.010703891505599649
1.28245e-05;0.010709175649632037
1.28248e-05;0.010714459793664425
1.28250e-05;0.010719743937696778
1.28253e-05;0.010725028081729166
1.28255e-05;0.010730312225761554
1.28257e-05;0.010735596369793907
1.28260e-05;0.010740880513826295
1.28263e-05;0.010746164657858683
1.28265e-05;0.010751448801891073
1.28268e-05;0.010756732945923424
1.28270e-05;0.010762017089955814
1.28273e-05;0.010767301233988202
1.28275e-05;0.010773623744097077
1.28278e-05;0.010783642011074887
1.28280e-05;0.010793660278052699
1.28283e-05;0.010803678545030442
1.28285e-05;0.010813696812008253
1.28288e-05;0.010823715078986064
1.28290e-05;0.010833733345963808
1.28293e-05;0.010843751612941618
1.28295e-05;0.01085376987991943
1.28298e-05;0.010863788146897172
1.28300e-05;0.010873806413874984
1.28303e-05;0.010883824680852796
1.28305e-05;0.010893842947830539
1.28308e-05;0.01090386121480835
1.28310e-05;0.010913879481786161
1.28313e-05;0.010923897748763905
1.28315e-05;0.010925401500796718
1.28318e-05;0.010923583145209923
1.28320e-05;0.010921764789623138
1.28323e-05;0.010919946434036341
1.28325e-05;0.010918128078449545
1.28328e-05;0.010916309722862762
1.28330e-05;0.010914491367275965
1.28333e-05;0.010912673011689168
1.28335e-05;0.010910854656102384
1.28338e-05;0.010893984066786785
1.28340e-05;0.010871240548632925
1.28342e-05;0.010848497030479218
1.28345e-05;0.010825753512325358
1.28348e-05;0.010803009994171497
1.28350e-05;0.010780266476017637
1.28353e-05;0.010757522957863929
1.28355e-05;0.010734779439710069
1.28358e-05;0.010712035921556208
1.28360e-05;0.010676475970660262
1.28363e-05;0.01063591543321905
1.28365e-05;0.01059535489577784
1.28368e-05;0.010554794358336905
1.28370e-05;0.010514233820895695
1.28373e-05;0.010473673283454485
1.28375e-05;0.01043311274601355
1.28378e-05;0.01039255220857234
1.28380e-05;0.010351991671131128
1.28383e-05;0.010311431133690192
1.28385e-05;0.010270870596248982
1.28388e-05;0.010230433935758397
1.28390e-05;0.010190045608328075
1.28393e-05;0.01014965728089748
1.28395e-05;0.010109268953466885
1.28398e-05;0.010068880626036563
1.28400e-05;0.010028492298605968
1.28403e-05;0.009988103971175373
1.28405e-05;0.009947715643745051
1.28408e-05;0.009907327316314458
1.28410e-05;0.009866938988883862
1.28413e-05;0.009826550661453541
1.28415e-05;0.009795816578053035
1.28418e-05;0.009768849290279857
1.28420e-05;0.009741882002506863
1.28423e-05;0.009714914714733685
1.28425e-05;0.009687947426960507
1.28427e-05;0.009660980139187512
1.28430e-05;0.009634012851414334
1.28433e-05;0.009607045563641156
1.28435e-05;0.009580078275867978
1.28438e-05;0.009553110988094984
1.28440e-05;0.009526629520015614
1.28443e-05;0.009501877183417036
1.28445e-05;0.009477124846818626
1.28448e-05;0.009452372510220047
1.28450e-05;0.009427620173621469
1.28453e-05;0.009402867837023059
1.28455e-05;0.00937811550042448
1.28458e-05;0.009353363163825904
1.28460e-05;0.009328610827227492
1.28463e-05;0.009303858490628916
1.28465e-05;0.009279106154030338
1.28468e-05;0.009254963920259133
1.28470e-05;0.009231059730259507
1.28473e-05;0.009207155540259882
1.28475e-05;0.009183251350260418
1.28478e-05;0.00915934716026079
1.28480e-05;0.009135442970261165
1.28483e-05;0.009111538780261701
1.28485e-05;0.009087634590262074
1.28488e-05;0.009063730400262449
1.28490e-05;0.009039826210262985
1.28493e-05;0.00901592202026336
1.28495e-05;0.008992017830263732
1.28498e-05;0.008968113640264268
1.28500e-05;0.008944209450264643
1.28503e-05;0.008929470057802506
1.28505e-05;0.008918306493669785
1.28508e-05;0.008907142929536985
1.28510e-05;0.008895979365404188
1.28512e-05;0.008884815801271465
1.28515e-05;0.008873652237138667
1.28518e-05;0.00886248867300587
1.28520e-05;0.008851325108873072
1.28523e-05;0.00884016154474035
1.28525e-05;0.008828997980607552
1.28528e-05;0.008817834416474752
1.28530e-05;0.008806670852342031
1.28533e-05;0.008795507288209234
1.28535e-05;0.008784343724076434
1.28538e-05;0.008792265722330979
1.28540e-05;0.008807634332951486
1.28543e-05;0.008823002943571993
1.28545e-05;0.008838371554192396
1.28548e-05;0.008853740164812903
1.28550e-05;0.00886910877543341
1.28553e-05;0.008884477386053812
1.28555e-05;0.00889984599667432
1.28558e-05;0.008915214607294827
1.28560e-05;0.00893058321791523
1.28563e-05;0.008945951828535737
1.28565e-05;0.008961320439156244
1.28568e-05;0.008979957206246825
1.28570e-05;0.00901022600948571
1.28573e-05;0.009040494812724597
1.28575e-05;0.009070763615963276
1.28578e-05;0.009101032419202161
1.28580e-05;0.009131301222441046
1.28583e-05;0.009161570025679727
1.28585e-05;0.009191838828918612
1.28588e-05;0.009222107632157497
1.28590e-05;0.009252376435396177
1.28593e-05;0.009282645238635062
1.28595e-05;0.009312914041873947
1.28597e-05;0.009343182845112628
1.28600e-05;0.009366844059115092
1.28603e-05;0.00938792719054765
1.28605e-05;0.009409010321980205
1.28608e-05;0.009430093453412619
1.28610e-05;0.009451176584845174
1.28613e-05;0.00947225971627773
1.28615e-05;0.009493342847710144
1.28618e-05;0.0095144259791427
1.28620e-05;0.009535509110575257
1.28623e-05;0.00955659224200767
1.28625e-05;0.009577675373440226
1.28628e-05;0.009598758504872781
1.28630e-05;0.009615971658725601
1.28633e-05;0.009619410772223337
1.28635e-05;0.009622849885721074
1.28638e-05;0.009626288999218786
1.28640e-05;0.009629728112716522
1.28643e-05;0.009633167226214259
1.28645e-05;0.009636606339711971
1.28648e-05;0.009640045453209707
1.28650e-05;0.009643484566707442
1.28653e-05;0.009646923680205154
1.28655e-05;0.00965036279370289
1.28658e-05;0.009653801907200627
1.28660e-05;0.00965724102069834
1.28663e-05;0.009653101471049903
1.28665e-05;0.009646004955000478
1.28668e-05;0.0096389084389511
1.28670e-05;0.009631811922901672
1.28673e-05;0.009624715406852245
1.28675e-05;0.009617618890802867
1.28678e-05;0.00961052237475344
1.28680e-05;0.009603425858704015
1.28682e-05;0.009596329342654636
1.28685e-05;0.00958923282660521
1.28688e-05;0.009582136310555782
1.28690e-05;0.009574694573039916
1.28693e-05;0.009566024121839448
1.28695e-05;0.00955735367063892
1.28698e-05;0.009548683219438395
1.28700e-05;0.009540012768237927
1.28703e-05;0.0095313423170374
1.28705e-05;0.009522671865836873
1.28708e-05;0.009514001414636404
1.28710e-05;0.009505330963435879
1.28713e-05;0.009496660512235352
1.28715e-05;0.009487990061034884
1.28718e-05;0.009479319609834357
1.28720e-05;0.009468177895503574
1.28723e-05;0.009456071968632357
1.28725e-05;0.009443966041761056
1.28728e-05;0.009431860114889758
1.28730e-05;0.009419754188018539
1.28733e-05;0.009407648261147239
1.28735e-05;0.00939554233427594
1.28738e-05;0.009383436407404721
1.28740e-05;0.009371330480533423
1.28743e-05;0.009359224553662122
1.28745e-05;0.009347118626790905
1.28748e-05;0.009335012699919605
1.28750e-05;0.009320976425343203
1.28753e-05;0.009300069649153541
1.28755e-05;0.009279162872963737
1.28758e-05;0.009258256096773932
1.28760e-05;0.00923734932058427
1.28763e-05;0.009216442544394467
1.28765e-05;0.009195535768204663
1.28767e-05;0.009174628992015
1.28770e-05;0.009153722215825196
1.28773e-05;0.009132815439635391
1.28775e-05;0.009111908663445587
1.28778e-05;0.009091001887255925
1.28780e-05;0.009070095111066122
1.28783e-05;0.009047616722499343
1.28785e-05;0.009024525138055453
1.28788e-05;0.009001433553611406
1.28790e-05;0.008978341969167362
1.28793e-05;0.008955250384723471
1.28795e-05;0.008932158800279425
1.28798e-05;0.008909067215835379
1.28800e-05;0.008887096028254363
1.28803e-05;0.008869112561867568
1.28805e-05;0.008851129095480774
1.28808e-05;0.0088331456290941
1.28810e-05;0.008815162162707306
1.28813e-05;0.00879717869632051
1.28815e-05;0.008779195229933836
1.28818e-05;0.008761211763547041
1.28820e-05;0.008758952225664364
1.28823e-05;0.008762827691727962
1.28825e-05;0.008766703157791588
1.28828e-05;0.008770578623855213
1.28830e-05;0.008774454089918813
1.28833e-05;0.008778329555982437
1.28835e-05;0.008782205022046062
1.28838e-05;0.008786080488109662
1.28840e-05;0.008812677782360405
1.28843e-05;0.008848140450526029
1.28845e-05;0.008883603118691413
1.28848e-05;0.008919065786857038
1.28850e-05;0.008954528455022663
1.28853e-05;0.008989991123188048
1.28855e-05;0.009025453791353671
1.28858e-05;0.009060916459519296
1.28860e-05;0.009115971391079466
1.28863e-05;0.009178670634505365
1.28865e-05;0.009241369877931687
1.28868e-05;0.00930406912135801
1.28870e-05;0.009366768364783907
1.28873e-05;0.00942946760821023
1.28875e-05;0.009492166851636554
1.28878e-05;0.009554866095062451
1.28880e-05;0.009617565338488775
1.28883e-05;0.009680264581915099
1.28885e-05;0.009745360850424666
1.28888e-05;0.009811392366022964
1.28890e-05;0.00987742388162126
1.28893e-05;0.00994345539721911
1.28895e-05;0.010009486912817406
1.28898e-05;0.010075518428415704
1.28900e-05;0.010141549944013555
1.28903e-05;0.01020758145961185
1.28905e-05;0.010273612975210148
1.28908e-05;0.010339644490807999
1.28910e-05;0.01038520590242666
1.28913e-05;0.010422780495185316
1.28915e-05;0.01046035508794372
1.28918e-05;0.010497929680702376
1.28920e-05;0.010535504273461034
1.28923e-05;0.010573078866219436
1.28925e-05;0.010610653458978095
1.28928e-05;0.010648228051736751
1.28930e-05;0.01067749166299869
1.28933e-05;0.010677174794188596
1.28935e-05;0.010676857925378503
1.28938e-05;0.010676541056568413
1.28940e-05;0.010676224187758319
1.28943e-05;0.010675907318948226
1.28945e-05;0.010675590450138132
1.28948e-05;0.010675273581328042
1.28950e-05;0.010674956712517948
1.28953e-05;0.010649031091097971
1.28955e-05;0.010613113704685593
1.28958e-05;0.010577196318272973
1.28960e-05;0.010541278931860352
1.28963e-05;0.010505361545447976
1.28965e-05;0.010469444159035356
1.28968e-05;0.010433526772622735
1.28970e-05;0.010397609386210357
1.28973e-05;0.010361691999797737
1.28975e-05;0.010325774613385116
1.28978e-05;0.010289857226972739
1.28980e-05;0.010243883395216547
1.28983e-05;0.010193985840970686
1.28985e-05;0.010144088286725162
1.28988e-05;0.010094190732479299
1.28990e-05;0.010044293178233438
1.28993e-05;0.009994395623987913
1.28995e-05;0.009944498069742052
1.28998e-05;0.009894600515496189
1.29000e-05;0.009844702961250664
1.29003e-05;0.009794805407004803
1.29005e-05;0.00974490785275894
1.29008e-05;0.009704971240993992
1.29010e-05;0.009668921089374347
1.29013e-05;0.0096328709377547
1.29015e-05;0.009596820786135298
1.29018e-05;0.009560770634515652
1.29020e-05;0.009524720482896005
1.29023e-05;0.009488670331276603
1.29025e-05;0.009452620179656958
1.29028e-05;0.009416570028037311
1.29030e-05;0.009384448966909101
1.29033e-05;0.00935386091870929
1.29035e-05;0.009323272870509476
1.29038e-05;0.009292684822309664
1.29040e-05;0.009262096774110058
1.29043e-05;0.009231508725910246
1.29045e-05;0.009200920677710434
1.29048e-05;0.009170332629510829
1.29050e-05;0.009139744581311015
1.29053e-05;0.009108492646041095
1.29055e-05;0.009076981682005322
1.29058e-05;0.009045470717969333
1.29060e-05;0.009013959753933345
1.29063e-05;0.008982448789897571
1.29065e-05;0.008950937825861583
1.29068e-05;0.008919426861825595
1.29070e-05;0.008887915897789821
1.29073e-05;0.008856404933753833
1.29075e-05;0.008824893969717845
1.29078e-05;0.008793383005682071
1.29080e-05;0.008761872041646083
1.29083e-05;0.00873132304028912
1.29085e-05;0.008704197860521696
1.29088e-05;0.008677072680754086
1.29090e-05;0.008649947500986478
1.29093e-05;0.008622822321219054
1.29095e-05;0.008595697141451444
1.29098e-05;0.008568571961683836
1.29100e-05;0.008541446781916411
1.29103e-05;0.008514321602148803
1.29105e-05;0.008487196422381193
1.29108e-05;0.008460071242613769
1.29110e-05;0.00843294606284616
1.29113e-05;0.008405820883078551
1.29115e-05;0.008392112689449003
1.29118e-05;0.008383639400249816
1.29120e-05;0.008375166111050627
1.29123e-05;0.00836669282185144
1.29125e-05;0.00835821953265231
1.29128e-05;0.008349746243453122
1.29130e-05;0.008341272954253933
1.29133e-05;0.008332799665054803
1.29135e-05;0.0083444228150835
1.29138e-05;0.008363886991231709
1.29140e-05;0.008383351167379786
1.29143e-05;0.008402815343527995
1.29145e-05;0.008422279519676204
1.29148e-05;0.008441743695824282
1.29150e-05;0.00846120787197249
1.29153e-05;0.0084806720481207
1.29155e-05;0.00851961072117516
1.29158e-05;0.00856614775716265
1.29160e-05;0.008612684793150142
1.29163e-05;0.008659221829137316
1.29165e-05;0.008705758865124806
1.29168e-05;0.008752295901112298
1.29170e-05;0.008798832937099472
1.29173e-05;0.008845369973086964
1.29175e-05;0.008891907009074454
1.29178e-05;0.00893844404506163
1.29180e-05;0.008986762517195006
1.29183e-05;0.009041421484309637
1.29185e-05;0.009096080451423896
1.29188e-05;0.009150739418538527
1.29190e-05;0.009205398385653155
1.29193e-05;0.009260057352767416
1.29195e-05;0.009314716319882047
1.29198e-05;0.009369375286996676
1.29200e-05;0.009424034254110937
1.29203e-05;0.009478693221225565
1.29205e-05;0.009533352188340196
1.29208e-05;0.009571482321578246
1.29210e-05;0.00960316340099554
1.29213e-05;0.00963484448041305
1.29215e-05;0.00966652555983056
1.29218e-05;0.009698206639247855
1.29220e-05;0.009729887718665366
1.29223e-05;0.009761568798082876
1.29225e-05;0.009793249877500172
1.29228e-05;0.009824930956917681
1.29230e-05;0.00985661203633519
1.29233e-05;0.009864148213040396
1.29235e-05;0.009862263774942917
1.29238e-05;0.009860379336845438
1.29240e-05;0.00985849489874797
1.29243e-05;0.009856610460650492
1.29245e-05;0.009854726022553011
1.29248e-05;0.009852841584455546
1.29250e-05;0.009850957146358065
1.29253e-05;0.009849072708260586
1.29255e-05;0.009847188270163119
1.29258e-05;0.009825987941353965
1.29260e-05;0.009797251132976201
1.29263e-05;0.009768514324598632
1.29265e-05;0.009739777516220868
1.29268e-05;0.009711040707843104
1.29270e-05;0.009682303899465537
1.29273e-05;0.009653567091087773
1.29275e-05;0.009624830282710009
1.29278e-05;0.00959609347433244
1.29280e-05;0.009567356665954676
1.29283e-05;0.009538619857576914
1.29285e-05;0.009508756545461882
1.29288e-05;0.009474883776531115
1.29290e-05;0.009441011007600348
1.29293e-05;0.009407138238669581
1.29295e-05;0.009373265469739043
1.29298e-05;0.009339392700808278
1.29300e-05;0.00930551993187751
1.29303e-05;0.009271647162946973
1.29305e-05;0.009237774394016206
1.29308e-05;0.009203901625085439
1.29310e-05;0.009170028856154902
1.29313e-05;0.009136156087224135
1.29315e-05;0.009117347244465628
1.29318e-05;0.009104415892605328
1.29320e-05;0.00909148454074494
1.29323e-05;0.009078553188884553
1.29325e-05;0.009065621837024253
1.29328e-05;0.009052690485163864
1.29330e-05;0.009039759133303477
1.29333e-05;0.009033730494864034
1.29335e-05;0.00905227002291608
1.29338e-05;0.009070809550968124
1.29340e-05;0.009089349079020046
1.29343e-05;0.00910788860707209
1.29345e-05;0.009126428135124137
1.29348e-05;0.009144967663176056
1.29350e-05;0.009163507191228102
1.29353e-05;0.009205651696381037
1.29355e-05;0.009257006153605807
1.29358e-05;0.009308360610830924
1.29360e-05;0.009359715068056043
1.29363e-05;0.009411069525280813
1.29365e-05;0.009462423982505932
1.29368e-05;0.00951377843973105
1.29370e-05;0.009565132896955821
1.29373e-05;0.00961648735418094
1.29375e-05;0.009667841811406057
1.29378e-05;0.009722097802036611
1.29380e-05;0.009786680942505907
1.29383e-05;0.009851264082975639
1.29385e-05;0.009915847223445372
1.29388e-05;0.009980430363914668
1.29390e-05;0.0100450135043844
1.29393e-05;0.010109596644854132
1.29395e-05;0.010174179785323428
1.29398e-05;0.010238762925793161
1.29400e-05;0.010303346066262894
1.29403e-05;0.010367929206732188
1.29405e-05;0.010417553204963046
1.29408e-05;0.010461340595833323
1.29410e-05;0.010505127986703302
1.29413e-05;0.010548915377573579
1.29415e-05;0.010592702768443854
1.29418e-05;0.010636490159313835
1.29420e-05;0.01068027755018411
1.29423e-05;0.010724064941054387
1.29425e-05;0.010760166906635877
1.29428e-05;0.010768914874362929
1.29430e-05;0.01077766284208998
1.29433e-05;0.01078641080981697
1.29435e-05;0.010795158777544021
1.29438e-05;0.010803906745271073
1.29440e-05;0.010812654712998065
1.29443e-05;0.010821402680725116
1.29445e-05;0.010830150648452167
1.29448e-05;0.010812682793408985
1.29450e-05;0.010784986312839336
1.29453e-05;0.010757289832269689
1.29455e-05;0.010729593351700227
1.29458e-05;0.010701896871130578
1.29460e-05;0.01067420039056093
1.29463e-05;0.010646503909991282
1.29465e-05;0.010618807429421822
1.29468e-05;0.010591110948852173
1.29470e-05;0.010563414468282524
1.29473e-05;0.010535717987713064
1.29475e-05;0.010504083584447547
1.29478e-05;0.010458433310238192
1.29480e-05;0.010412783036029147
1.29483e-05;0.010367132761819792
1.29485e-05;0.010321482487610438
1.29488e-05;0.010275832213401394
1.29490e-05;0.01023018193919204
1.29493e-05;0.010184531664982685
1.29495e-05;0.01013888139077364
1.29498e-05;0.010093231116564285
1.29500e-05;0.010047580842354931
1.29503e-05;0.010001930568145887
1.29505e-05;0.009965643759940156
1.29508e-05;0.009933010294535844
1.29510e-05;0.009900376829131754
1.29513e-05;0.00986774336372744
1.29515e-05;0.00983510989832313
1.29518e-05;0.009802476432919038
