Time(s);Current(A)
1.17500e-05;2.1849650763038807e-05
1.17503e-05;-1.645426793994874e-05
1.17505e-05;-5.440879173758346e-05
1.17508e-05;-9.172835959932589e-05
1.17510e-05;-0.00012813010453323613
1.17513e-05;-0.00016342339806265253
1.17515e-05;-0.00019756449195741668
1.17518e-05;-0.00023048458662223184
1.17520e-05;-0.00026197150486723325
1.17523e-05;-0.00029174354593999727
1.17525e-05;-0.0003195106737458756
1.17528e-05;-0.0003449829418480382
1.17530e-05;-0.0003678828432295643
1.17533e-05;-0.0003878019615842532
1.17535e-05;-0.0004072291904195329
1.17538e-05;-0.00042535598152467565
1.17540e-05;-0.0004432327911039959
1.17543e-05;-0.00045938624972539043
1.17545e-05;-0.0004752084307378719
1.17548e-05;-0.0004910306117503533
1.17550e-05;-0.0005042920250359535
1.17553e-05;-0.0005170611851296931
1.17555e-05;-0.0005286871405503357
1.17558e-05;-0.0005400933391598787
1.17560e-05;-0.0005514995377694991
1.17563e-05;-0.0005619674574304592
1.17565e-05;-0.0005722550128971946
1.17568e-05;-0.0005825425683639998
1.17570e-05;-0.000592221271410079
1.17572e-05;-0.0006007115572461817
1.17575e-05;-0.0006092018430823419
1.17578e-05;-0.000617692128918502
1.17580e-05;-0.0006255833131106884
1.17583e-05;-0.0006333593327397794
1.17585e-05;-0.0006411353523688704
1.17588e-05;-0.0006489113719979615
1.17590e-05;-0.0006554770803440919
1.17593e-05;-0.000661810132059138
1.17595e-05;-0.0006681431837741842
1.17598e-05;-0.0006744762354891874
1.17600e-05;-0.0006796569105473784
1.17603e-05;-0.0006846160656754619
1.17605e-05;-0.0006895752208035118
1.17608e-05;-0.0006945343759315952
1.17610e-05;-0.0006994935310596787
1.17613e-05;-0.0007036315695733602
1.17615e-05;-0.0007061668730353214
1.17618e-05;-0.0007087021764972826
1.17620e-05;-0.0007112374799592265
1.17623e-05;-0.0007137727834211877
1.17625e-05;-0.0007163080868831489
1.17628e-05;-0.0007171146234119856
1.17630e-05;-0.0007175888412254492
1.17633e-05;-0.0007173916511824303
1.17635e-05;-0.0007170653972430114
1.17638e-05;-0.0007176912320622622
1.17640e-05;-0.0007185000857183176
1.17643e-05;-0.0007193089393743675
1.17645e-05;-0.0007212088796197657
1.17648e-05;-0.000723318558081917
1.17650e-05;-0.000725428236544054
1.17653e-05;-0.0007275379150062052
1.17655e-05;-0.0007314821500139544
1.17657e-05;-0.0007357790395425575
1.17660e-05;-0.0007400759290711896
1.17663e-05;-0.0007443728185998218
1.17665e-05;-0.0007509435407827656
1.17668e-05;-0.000757951358986185
1.17670e-05;-0.0007649591771896045
1.17673e-05;-0.000771966995393024
1.17675e-05;-0.000778974813596396
1.17678e-05;-0.0007880713781260505
1.17680e-05;-0.0007975694597617344
1.17683e-05;-0.0008070675413973538
1.17685e-05;-0.0008165656230330376
1.17688e-05;-0.0008260637046687213
1.17690e-05;-0.0008365735320475079
1.17693e-05;-0.0008472778460510734
1.17695e-05;-0.0008579821600546389
1.17698e-05;-0.0008686864740581317
1.17700e-05;-0.0008793907880616972
1.17703e-05;-0.0008900951020652627
1.17705e-05;-0.0009007994160687557
1.17708e-05;-0.0009101267873894211
1.17710e-05;-0.0009191894707322439
1.17713e-05;-0.0009282521540750055
1.17715e-05;-0.0009373148374178285
1.17718e-05;-0.0009463775207606514
1.17720e-05;-0.000955440204103413
1.17723e-05;-0.000964502887446236
1.17725e-05;-0.0009691949158596949
1.17728e-05;-0.0009730467787167957
1.17730e-05;-0.0009768986415739226
1.17733e-05;-0.0009807505044310495
1.17735e-05;-0.0009846023672881504
1.17738e-05;-0.0009884542301452773
1.17740e-05;-0.000986813904804876
1.17742e-05;-0.0009841178229641446
1.17745e-05;-0.000981421741123395
1.17748e-05;-0.0009787256592826451
1.17750e-05;-0.0009760295774419137
1.17753e-05;-0.0009733334956011641
1.17755e-05;-0.0009649293516027847
1.17758e-05;-0.0009554279539214338
1.17760e-05;-0.0009459265562401473
1.17763e-05;-0.0009364251585587964
1.17765e-05;-0.0009269237608774455
1.17768e-05;-0.000917422363196159
1.17770e-05;-0.0009059735164011021
1.17773e-05;-0.0008907234495327144
1.17775e-05;-0.00087547338266443
1.17778e-05;-0.0008602233157960422
1.17780e-05;-0.0008449732489276545
1.17783e-05;-0.0008297231820593702
1.17785e-05;-0.0008144731151909824
1.17788e-05;-0.0007967396311808521
1.17790e-05;-0.0007785287629850345
1.17793e-05;-0.0007603178947890935
1.17795e-05;-0.0007412803792675256
1.17798e-05;-0.0007220839583596814
1.17800e-05;-0.0007025358685461196
1.17803e-05;-0.0006829201778565856
1.17805e-05;-0.0006631744970990019
1.17808e-05;-0.0006434038285122859
1.17810e-05;-0.0006237267283633809
1.17813e-05;-0.0006040676147589388
1.17815e-05;-0.0005857332972609642
1.17818e-05;-0.0005676536436695124
1.17820e-05;-0.0005874646427562642
1.17823e-05;-0.005518647988191753
1.17825e-05;-0.011585118794930988
1.17827e-05;-0.012108719915517308
1.17830e-05;-0.010473081559441332
1.17833e-05;-0.006583556275125463
1.17835e-05;-0.0016796945491552823
1.17838e-05;0.0001296920524559036
1.17840e-05;-0.0005620329766810484
1.17843e-05;-0.00290526828448345
1.17845e-05;-0.006448875629451379
1.17848e-05;-0.007738618815622793
1.17850e-05;-0.006252704265258369
1.17853e-05;-0.003945615640806904
1.17855e-05;-0.0011849484286461953
1.17858e-05;0.0006829622683948766
1.17860e-05;0.00019308782030099688
1.17863e-05;-0.0009105634341099926
1.17865e-05;-0.0022440066064091284
1.17868e-05;-0.003383906820855445
1.17870e-05;-0.0030743040802685096
1.17873e-05;-0.0018288644316775517
1.17875e-05;-0.00039867667488299155
1.17878e-05;0.0007403675065669605
1.17880e-05;0.0008846423697272831
1.17883e-05;0.00030492928505104956
1.17885e-05;-0.0005742276103861941
1.17888e-05;-0.0012542420244863687
1.17890e-05;-0.0010261437088243896
1.17893e-05;-0.0002120052028957316
1.17895e-05;0.0007174222937499438
1.17898e-05;0.0014638117598116374
1.17900e-05;0.0015862229909560774
1.17903e-05;0.0012541000069182901
1.17905e-05;0.0007331878297417457
1.17908e-05;0.00033558856532788894
1.17910e-05;0.0005051571284301232
1.17912e-05;0.0010398963755430032
1.17915e-05;0.001644702187714713
1.17918e-05;0.00213250101614806
1.17920e-05;0.002226909719596531
1.17923e-05;0.002033898238473157
1.17925e-05;0.0017197486984920562
1.17928e-05;0.001479765963765133
1.17930e-05;0.0015917694525489847
1.17933e-05;0.0019290619956220108
1.17935e-05;0.002306770152930171
1.17938e-05;0.0026078392615853647
1.17940e-05;0.0026593334579256265
1.17943e-05;0.002527826183906327
1.17945e-05;0.0023176613951249687
1.17948e-05;0.002151353306199944
1.17950e-05;0.002203089963613162
1.17953e-05;0.002393666694122109
1.17955e-05;0.0026074463384738386
1.17958e-05;0.0027712825894784
1.17960e-05;0.002777033882267838
1.17963e-05;0.002666589911749933
1.17965e-05;0.002505495163999955
1.17968e-05;0.00237066975439361
1.17970e-05;0.002371393818302264
1.17973e-05;0.0024582199573001664
1.17975e-05;0.0025588854675233897
1.17978e-05;0.0026277490616620925
1.17980e-05;0.002597253783880266
1.17983e-05;0.0024938241252638986
1.17985e-05;0.0023586991007285203
1.17988e-05;0.002240239088371743
1.17990e-05;0.0022070692818050787
1.17993e-05;0.0022283868900531962
1.17995e-05;0.0022591013485981173
1.17997e-05;0.0022708005403946595
1.18000e-05;0.0022213479430561655
1.18003e-05;0.00212747822186209
1.18005e-05;0.0020152035315612236
1.18008e-05;0.001914994800823714
1.18010e-05;0.0018700131806563094
1.18013e-05;0.0018611373041874258
1.18015e-05;0.0018602977800307539
1.18018e-05;0.0018498752185524272
1.18020e-05;0.0018036551596931196
1.18023e-05;0.0017323004857967483
1.18025e-05;0.0016522845245717558
1.18028e-05;0.001582871607856132
1.18030e-05;0.0015511952767574163
1.18033e-05;0.001544882488801419
1.18035e-05;0.0015451445488690082
1.18038e-05;0.0015396753799882756
1.18040e-05;0.0015115553510401548
1.18043e-05;0.001467440990821545
1.18045e-05;0.0014176676223417275
1.18048e-05;0.0013743179478250436
1.18050e-05;0.0013544023155299284
1.18053e-05;0.001350183830915069
1.18055e-05;0.00134990796252882
1.18058e-05;0.0013458815548940675
1.18060e-05;0.0013275224059099181
1.18063e-05;0.0012990168533765505
1.18065e-05;0.0012668549570995758
1.18068e-05;0.0012386206995018496
1.18070e-05;0.0012249839173031404
1.18073e-05;0.0012211126653966361
1.18075e-05;0.001219658731527084
1.18078e-05;0.0012158186087505066
1.18080e-05;0.0012029797085597392
1.18082e-05;0.0011837804540073184
1.18085e-05;0.001162302043730984
1.18088e-05;0.0011433104831195709
1.18090e-05;0.001133504412099533
1.18093e-05;0.0011298717918331405
1.18095e-05;0.001127824859112298
1.18098e-05;0.00112437012835212
1.18100e-05;0.001115381239221245
1.18103e-05;0.0011025268979006834
1.18105e-05;0.0010883792330997346
1.18108e-05;0.001075939207454345
1.18110e-05;0.0010694177865139477
1.18113e-05;0.0010669433630044176
1.18115e-05;0.001065657486162187
1.18118e-05;0.001063700439629841
1.18120e-05;0.001058503130864399
1.18123e-05;0.00105112655438174
1.18125e-05;0.0010431975587735932
1.18128e-05;0.001036611293912541
1.18130e-05;0.0010340707260416892
1.18133e-05;0.0010347703598097518
1.18135e-05;0.0010377493278291524
1.18138e-05;0.0010426184886052643
1.18140e-05;0.0010479797001755264
1.18143e-05;0.001054382312548316
1.18145e-05;0.0010627038457610045
1.18148e-05;0.0010739898109865017
1.18150e-05;0.0010897916985408297
1.18153e-05;0.0011094630778622687
1.18155e-05;0.0011322603455006578
1.18158e-05;0.0011577981557481473
1.18160e-05;0.0011850589727339285
1.18163e-05;0.0012142453576185247
1.18165e-05;0.001245765352965449
1.18167e-05;0.0012801322231617328
1.18170e-05;0.0013181761120258316
1.18173e-05;0.0013593503005879049
1.18175e-05;0.0014030472626083128
1.18178e-05;0.0014488839865004093
1.18180e-05;0.0014960814334407614
1.18183e-05;0.0015446248551530548
1.18185e-05;0.0015946283729669295
1.18188e-05;0.0016462717995260107
1.18190e-05;0.0016999334154468222
1.18193e-05;0.001755129192752841
1.18195e-05;0.0018113368877190508
1.18198e-05;0.001868174977036304
1.18200e-05;0.0019250139978357048
1.18203e-05;0.0019817032791064992
1.18205e-05;0.002038172668095148
1.18208e-05;0.0020943933744430516
1.18210e-05;0.0021504607138804178
1.18213e-05;0.0022059299727783307
1.18215e-05;0.0022603327038588227
1.18218e-05;0.0023132884124962023
1.18220e-05;0.002364261438307547
1.18223e-05;0.0024130158596211604
1.18225e-05;0.002459366400092122
1.18228e-05;0.0025031537236505407
1.18230e-05;0.0025432910231311576
1.18233e-05;0.0025803201758672254
1.18235e-05;0.002617349328603293
1.18238e-05;0.0026525653222003536
1.18240e-05;0.0026842704313275153
1.18243e-05;0.0027132610605321177
1.18245e-05;0.002740238797966143
1.18248e-05;0.0027657888197583826
1.18250e-05;0.0027878380974071426
1.18252e-05;0.0028078021609471084
1.18255e-05;0.0028265159382557265
1.18258e-05;0.002842310670324144
1.18260e-05;0.002856489358030638
1.18263e-05;0.0028691645624242083
1.18265e-05;0.0028796864120415704
1.18268e-05;0.002888752450234992
1.18270e-05;0.002895733411423619
1.18273e-05;0.0029013922913671782
1.18275e-05;0.0029051576285363486
1.18278e-05;0.002907881842280571
1.18280e-05;0.0029091149133693662
1.18283e-05;0.0029093945945399247
1.18285e-05;0.002908308788833249
1.18288e-05;0.002906380731889499
1.18290e-05;0.0029032463657646308
1.18293e-05;0.002899434781207483
1.18295e-05;0.0028946532546940693
1.18298e-05;0.0028894518230773605
1.18300e-05;0.0028836489849456146
1.18303e-05;0.002877562317193114
1.18305e-05;0.002871069136202895
1.18308e-05;0.0028644429908474016
1.18310e-05;0.002857626408093147
1.18313e-05;0.0028508613262953663
1.18315e-05;0.002844170006427443
1.18318e-05;0.002837772567482094
1.18320e-05;0.002831796037690143
1.18323e-05;0.002826431552412525
1.18325e-05;0.002821943664145872
1.18328e-05;0.002817455775879219
1.18330e-05;0.0028144454434979333
1.18333e-05;0.0028135513314934573
1.18335e-05;0.002812657219488981
1.18337e-05;0.0028117631074845106
1.18340e-05;0.0028108689954800346
1.18343e-05;0.002809974883475558
1.18345e-05;0.002813774239798957
1.18348e-05;0.0028180313152875295
1.18350e-05;0.002822288390776102
1.18352e-05;0.002826545466264646
1.18355e-05;0.0028308025417532186
1.18358e-05;0.0028371448577260094
1.18360e-05;0.0028464737466245556
1.18363e-05;0.0028558026355230384
1.18365e-05;0.002865131524421584
1.18368e-05;0.0028744604133201304
1.18370e-05;0.0028837893022186133
1.18373e-05;0.0028969644799839624
1.18375e-05;0.0029105147577833303
1.18378e-05;0.0029240650355826063
1.18380e-05;0.002937615313381974
1.18383e-05;0.002951165591181342
1.18385e-05;0.002965599713462143
1.18388e-05;0.002981299716594367
1.18390e-05;0.002997346154599182
1.18393e-05;0.0030138887718306777
1.18395e-05;0.0030306701792777216
1.18398e-05;0.0030477935925499237
1.18400e-05;0.0030650240761190477
1.18403e-05;0.00308244505241991
1.18405e-05;0.0030999295635387434
1.18408e-05;0.0031174151929690684
1.18410e-05;0.003134840245512279
1.18413e-05;0.0031521349182741603
1.18415e-05;0.0031692232281710806
1.18418e-05;0.003186026069594703
1.18420e-05;0.003202464619194672
1.18422e-05;0.003218464068551857
1.18425e-05;0.0032339503645496563
1.18428e-05;0.0032488499172715654
1.18430e-05;0.003263067711917547
1.18433e-05;0.003276375561521407
1.18435e-05;0.003288352186226325
1.18437e-05;0.003298618681069172
1.18440e-05;0.003306693056968269
1.18443e-05;0.003313177506809351
1.18445e-05;0.0033178971554425844
1.18448e-05;0.003320089178342361
1.18450e-05;0.0033222812012421526
1.18453e-05;0.003321777257561444
1.18455e-05;0.0033174120322389217
1.18458e-05;0.0033130468069163697
1.18460e-05;0.0033086815815938178
1.18463e-05;0.0033012825622427086
1.18465e-05;0.0032895384099538047
1.18468e-05;0.003277794257664901
1.18470e-05;0.0032660501053760763
1.18473e-05;0.0032520534802605106
1.18475e-05;0.00323483076471879
1.18478e-05;0.0032176080491771865
1.18480e-05;0.0031987283047203883
1.18483e-05;0.0031774752907370194
1.18485e-05;0.0031562222767537946
1.18488e-05;0.003134019079696434
1.18490e-05;0.0031104549887441568
1.18493e-05;0.003086369187359522
1.18495e-05;0.003061536169399331
1.18498e-05;0.003036354897759599
1.18500e-05;0.0030106748419179694
1.18503e-05;0.002984946156920255
1.18505e-05;0.0029591478231114753
1.18507e-05;0.002933615370170076
1.18510e-05;0.002908463723474045
1.18513e-05;0.0028838471889463947
1.18515e-05;0.0028599970655485505
1.18518e-05;0.0028369383146542894
1.18520e-05;0.00281501300218737
1.18522e-05;0.0027942143928013927
1.18525e-05;0.0027750294970102793
1.18528e-05;0.0027573142451484682
1.18530e-05;0.002741703881814051
1.18533e-05;0.002728246507348874
1.18535e-05;0.002717872738020876
1.18538e-05;0.0027074989686928777
1.18540e-05;0.00270030983471674
1.18543e-05;0.00269768187524181
1.18545e-05;0.0026950539157668796
1.18548e-05;0.0026924259562919675
1.18550e-05;0.0026936079428060583
1.18553e-05;0.0027002467011562445
1.18555e-05;0.0027068854595063857
1.18558e-05;0.002713524217856572
1.18560e-05;0.0027228874773162002
1.18563e-05;0.002736152886822968
1.18565e-05;0.0027506948595357452
1.18568e-05;0.002767886325593758
1.18570e-05;0.0027870506983349425
1.18573e-05;0.002808116011400302
1.18575e-05;0.002830976514503713
1.18578e-05;0.0028555032349014174
1.18580e-05;0.002881569862303481
1.18583e-05;0.0029090571176377785
1.18585e-05;0.0029378468600410935
1.18588e-05;0.002967820907273527
1.18590e-05;0.002998859682571597
1.18592e-05;0.003030833853100349
1.18595e-05;0.003063593299237515
1.18598e-05;0.003096972972461666
1.18600e-05;0.0031308097363241917
1.18603e-05;0.0031649447589493073
1.18605e-05;0.0031992198655751945
1.18607e-05;0.003233477238402499
1.18610e-05;0.003267557828157796
1.18613e-05;0.0033012964281931337
1.18615e-05;0.003334514945881706
1.18618e-05;0.0033670261724136614
1.18620e-05;0.0033986438408136546
1.18623e-05;0.0034291844935064003
1.18625e-05;0.003458465262709753
1.18628e-05;0.0034863030478115113
1.18630e-05;0.003512485414456041
1.18633e-05;0.0035366286891024066
1.18635e-05;0.0035581050574733522
1.18638e-05;0.0035763678434451393
1.18640e-05;0.0035912413582431277
1.18643e-05;0.0036027534285920254
1.18645e-05;0.0036096127041387255
1.18648e-05;0.0036126211864955784
1.18650e-05;0.0036156296688524513
1.18653e-05;0.0036147268609751366
1.18655e-05;0.003608222131585019
1.18658e-05;0.003601717402194857
1.18660e-05;0.003586916562635077
1.18663e-05;0.0035713066649620106
1.18665e-05;0.0035526783134624197
1.18668e-05;0.003529726799933596
1.18670e-05;0.0035043786731232644
1.18673e-05;0.0034755980115999223
1.18675e-05;0.003444489660008002
1.18678e-05;0.0034100474885538057
1.18680e-05;0.0033735768686476426
1.18683e-05;0.0033342010158541875
1.18685e-05;0.0032932471565248
1.18688e-05;0.0032500332069860327
1.18690e-05;0.003205663309864514
1.18692e-05;0.003159637813888616
1.18695e-05;0.0031127601111006573
1.18698e-05;0.003064661840319319
1.18700e-05;0.003016159650791317
1.18703e-05;0.002967078951109414
1.18705e-05;0.002918136863666818
1.18708e-05;0.0028693933027565933
1.18710e-05;0.002821313319225957
1.18713e-05;0.0027741837403375408
1.18715e-05;0.0027278291646895283
1.18718e-05;0.002683263284887891
1.18720e-05;0.0026404967421643113
1.18723e-05;0.002600456538658711
1.18725e-05;0.0025626241202022938
1.18728e-05;0.0025273356862583014
1.18730e-05;0.002495690858572051
1.18733e-05;0.0024667983645281825
1.18735e-05;0.0024418478835082683
1.18738e-05;0.0024201003375904527
1.18740e-05;0.002402940175881777
1.18743e-05;0.002385780014172985
1.18745e-05;0.0023727851438832305
1.18748e-05;0.002365755986751336
1.18750e-05;0.002358726829619394
1.18753e-05;0.0023552475530042765
1.18755e-05;0.0023568525710462988
1.18758e-05;0.002360971611148629
1.18760e-05;0.002368691343969643
1.18763e-05;0.0023782356274034103
1.18765e-05;0.0023915915146597994
1.18768e-05;0.002407848807008215
1.18770e-05;0.002426965526943292
1.18773e-05;0.0024488364828959943
1.18775e-05;0.002473241920776769
1.18777e-05;0.0024999264403449324
1.18780e-05;0.002528705849288723
1.18783e-05;0.0025594470049353423
1.18785e-05;0.0025920214391189048
1.18788e-05;0.002626300712078422
1.18790e-05;0.002662150092036688
1.18793e-05;0.0026993956055323897
1.18795e-05;0.002737791671043025
1.18798e-05;0.0027770700430589917
1.18800e-05;0.0028170072265203093
1.18803e-05;0.002857411969280714
1.18805e-05;0.002898095595764848
1.18808e-05;0.0029388696916323107
1.18810e-05;0.0029795418893434865
1.18813e-05;0.003019895220269406
1.18815e-05;0.0030596676114960863
1.18818e-05;0.00309858316988963
1.18820e-05;0.003136394089609397
1.18823e-05;0.0031728725227208048
1.18825e-05;0.003207792610527142
1.18828e-05;0.0032409280959926606
1.18830e-05;0.003272101092461868
1.18833e-05;0.003301434635300059
1.18835e-05;0.003329544046187526
1.18838e-05;0.0033570726930759417
1.18840e-05;0.0033841823445757845
1.18843e-05;0.00341073916310896
1.18845e-05;0.0034363869697522278
1.18848e-05;0.0034612779625425197
1.18850e-05;0.0034855405096472
1.18853e-05;0.0035085827635013824
1.18855e-05;0.0035310569890123437
1.18858e-05;0.0035533496157604478
1.18860e-05;0.0035755449474942354
1.18862e-05;0.0035975426644043267
1.18865e-05;0.003619012963416622
1.18868e-05;0.0036399521216923456
1.18870e-05;0.003660891279968069
1.18873e-05;0.0036814359485755664
1.18875e-05;0.0037013701415935098
1.18878e-05;0.003721239210231
1.18880e-05;0.0037410458650698635
1.18883e-05;0.0037607631281276915
1.18885e-05;0.00378019659347397
1.18888e-05;0.00379922359128345
1.18890e-05;0.0038182505890930587
1.18893e-05;0.003836949825115683
1.18895e-05;0.0038551796263233402
1.18898e-05;0.003873409427531121
1.18900e-05;0.0038912990378170732
1.18903e-05;0.0039091554718045695
1.18905e-05;0.003926746474840576
1.18908e-05;0.00394395731601947
1.18910e-05;0.003960833592434879
1.18913e-05;0.003977230690514203
1.18915e-05;0.003993362529949952
1.18918e-05;0.0040091144543156045
1.18920e-05;0.004024583314874421
1.18923e-05;0.004039646759026895
1.18925e-05;0.004054434988960483
1.18928e-05;0.004068611553984599
1.18930e-05;0.004082259319239704
1.18933e-05;0.00409550166345027
1.18935e-05;0.004108716694159116
1.18938e-05;0.004122279197621003
1.18940e-05;0.004136290193298841
1.18943e-05;0.004150687406044329
1.18945e-05;0.004165395781635568
1.18947e-05;0.0041803721168924115
1.18950e-05;0.004195506807221844
1.18953e-05;0.004210799542307864
1.18955e-05;0.004226694076087716
1.18958e-05;0.004243126331594119
1.18960e-05;0.004260050813713816
1.18963e-05;0.00427768028439
1.18965e-05;0.004295731590657024
1.18968e-05;0.004314387068369576
1.18970e-05;0.004333042546082128
1.18973e-05;0.004352172445244348
