Time(s);Current(A)
8.25000e-06;-0.008484174670548973
8.25025e-06;-0.008504953480151418
8.25050e-06;-0.00852573228975372
8.25075e-06;-0.008546511099356165
8.25100e-06;-0.008567289908958609
8.25125e-06;-0.008588068718560911
8.25150e-06;-0.008608847528163356
8.25175e-06;-0.0086296263377658
8.25200e-06;-0.008650405147368104
8.25225e-06;-0.008671183956970547
8.25250e-06;-0.008691962766572992
8.25275e-06;-0.008712741576175295
8.25300e-06;-0.008730968689305585
8.25325e-06;-0.008747410258037847
8.25350e-06;-0.008763851826769998
8.25375e-06;-0.00878029339550226
8.25400e-06;-0.00879673496423452
8.25425e-06;-0.008813176532966671
8.25450e-06;-0.008829618101698933
8.25475e-06;-0.008846059670431195
8.25500e-06;-0.008862501239163344
8.25525e-06;-0.008878942807895605
8.25550e-06;-0.008895384376627867
8.25575e-06;-0.008911825945360018
8.25600e-06;-0.00892826751409228
8.25625e-06;-0.008939786554899146
8.25650e-06;-0.00894786106683738
8.25675e-06;-0.008955935578775562
8.25700e-06;-0.008964010090713797
8.25725e-06;-0.008972084602652032
8.25750e-06;-0.008980159114590214
8.25775e-06;-0.008988233626528449
8.25800e-06;-0.008996308138466684
8.25825e-06;-0.009004382650404865
8.25850e-06;-0.0090124571623431
8.25875e-06;-0.009020531674281336
8.25900e-06;-0.009028606186219515
8.25925e-06;-0.009036680698157752
8.25950e-06;-0.009044755210095987
8.25975e-06;-0.009052829722034167
8.26000e-06;-0.009060904233972402
8.26025e-06;-0.009068978745910637
8.26050e-06;-0.009074796802427561
8.26075e-06;-0.009079035908868808
8.26100e-06;-0.009083275015310054
8.26125e-06;-0.00908751412175127
8.26150e-06;-0.009091753228192515
8.26175e-06;-0.00909599233463376
8.26200e-06;-0.009100231441074977
8.26225e-06;-0.009104470547516222
8.26250e-06;-0.009108709653957468
8.26275e-06;-0.009112948760398684
8.26300e-06;-0.00911718786683993
8.26325e-06;-0.009121426973281175
8.26350e-06;-0.009125666079722391
8.26375e-06;-0.009129905186163637
8.26400e-06;-0.009134144292604882
8.26425e-06;-0.009138383399046098
8.26450e-06;-0.009142622505487344
8.26475e-06;-0.009149347176967023
8.26500e-06;-0.009157811117509702
8.26525e-06;-0.009166275058052321
8.26550e-06;-0.009174738998594998
8.26575e-06;-0.009183202939137675
8.26600e-06;-0.009191666879680295
8.26625e-06;-0.009200130820222972
8.26650e-06;-0.009208594760765649
8.26675e-06;-0.009217058701308269
8.26700e-06;-0.009225522641850946
8.26725e-06;-0.009233986582393622
8.26750e-06;-0.009243296544392826
8.26775e-06;-0.009261339259092281
8.26800e-06;-0.009279381973791734
8.26825e-06;-0.009297424688491068
8.26850e-06;-0.009315467403190524
8.26875e-06;-0.009333510117889977
8.26900e-06;-0.00935155283258931
8.26925e-06;-0.009369595547288766
8.26950e-06;-0.00938763826198822
8.26975e-06;-0.009405680976687553
8.27000e-06;-0.009423723691387009
8.27025e-06;-0.009441766406086462
8.27050e-06;-0.009461830649206483
8.27075e-06;-0.009483309452713695
8.27100e-06;-0.009504788256220907
8.27125e-06;-0.009526267059727976
8.27150e-06;-0.009547745863235188
8.27175e-06;-0.009569224666742402
8.27200e-06;-0.009590703470249469
8.27225e-06;-0.009612182273756681
8.27250e-06;-0.009633661077263895
8.27275e-06;-0.009655139880770961
8.27300e-06;-0.009676618684278175
8.27325e-06;-0.009698097487785388
8.27350e-06;-0.0097195762912926
8.27375e-06;-0.009741055094799668
8.27400e-06;-0.009761560386773007
8.27425e-06;-0.009772016955495075
8.27450e-06;-0.00978247352421707
8.27475e-06;-0.009792930092939137
8.27500e-06;-0.009803386661661206
8.27525e-06;-0.009813843230383201
8.27550e-06;-0.009824299799105268
8.27575e-06;-0.009834756367827336
8.27600e-06;-0.009845212936549332
8.27625e-06;-0.0098556695052714
8.27650e-06;-0.009866126073993467
8.27675e-06;-0.009876582642715463
8.27700e-06;-0.009887039211437531
8.27725e-06;-0.009897495780159598
8.27750e-06;-0.009907952348881593
8.27775e-06;-0.009910385858350296
8.27800e-06;-0.009907205248477586
8.27825e-06;-0.009904024638604899
8.27850e-06;-0.00990084402873219
8.27875e-06;-0.00989766341885948
8.27900e-06;-0.009894482808986792
8.27925e-06;-0.009891302199114082
8.27950e-06;-0.009888121589241372
8.27975e-06;-0.009884940979368685
8.28000e-06;-0.009881760369495975
8.28025e-06;-0.009878579759623266
8.28050e-06;-0.009875399149750577
8.28075e-06;-0.009872218539877868
8.28100e-06;-0.009866590380109633
8.28125e-06;-0.009859249552296159
8.28150e-06;-0.009851908724482637
8.28175e-06;-0.009844567896669114
8.28200e-06;-0.00983722706885559
8.28225e-06;-0.009829886241042118
8.28250e-06;-0.009822545413228594
8.28275e-06;-0.009815204585415072
8.28300e-06;-0.009807863757601598
8.28325e-06;-0.009800522929788075
8.28350e-06;-0.009793182101974553
8.28375e-06;-0.00978584127416108
8.28400e-06;-0.009778500446347557
8.28425e-06;-0.009773543288152454
8.28450e-06;-0.009770254097909197
8.28475e-06;-0.009766964907665918
8.28500e-06;-0.009763675717422638
8.28525e-06;-0.00976038652717938
8.28550e-06;-0.009759195501623897
8.28575e-06;-0.009760993940162277
8.28600e-06;-0.009762792378700643
8.28625e-06;-0.009764590817239023
8.28650e-06;-0.009766389255777403
8.28675e-06;-0.009768088219981375
8.28700e-06;-0.010483747077739382
8.28725e-06;-0.029641487862251927
8.28750e-06;-0.028204489573450096
8.28775e-06;-0.02484267482793551
8.28800e-06;-0.021069063729794005
8.28825e-06;-0.007929686369643089
8.28850e-06;-0.005852536095660394
8.28875e-06;-0.0068414592063592876
8.28900e-06;-0.008015713829682549
8.28925e-06;-0.018417886753883863
8.28950e-06;-0.019198746188406675
8.28975e-06;-0.01688287964373615
8.29000e-06;-0.012661732669945431
8.29025e-06;-0.007257270751822361
8.29050e-06;-0.005547579353845743
8.29075e-06;-0.006738403110059782
8.29100e-06;-0.009786229654904681
8.29125e-06;-0.014299103953626912
8.29150e-06;-0.01534715861408675
8.29175e-06;-0.013681357988705015
8.29200e-06;-0.011088518177095812
8.29225e-06;-0.007759408436190201
8.29250e-06;-0.0067367079568086755
8.29275e-06;-0.007524081208841475
8.29300e-06;-0.009468849166164438
8.29325e-06;-0.012326293504728424
8.29350e-06;-0.01300913323810482
8.29375e-06;-0.011988529774156119
8.29400e-06;-0.010384311217700098
8.29425e-06;-0.008316395365810239
8.29450e-06;-0.007690961589223236
8.29475e-06;-0.008197203918035778
8.29500e-06;-0.009426356480976264
8.29525e-06;-0.01122522987910983
8.29550e-06;-0.011660175238437718
8.29575e-06;-0.01102661125407073
8.29600e-06;-0.010026212952819927
8.29625e-06;-0.008734259535082632
8.29650e-06;-0.008344869509807538
8.29675e-06;-0.008663387674478207
8.29700e-06;-0.009433805583121858
8.29725e-06;-0.010560216882802542
8.29750e-06;-0.010831490275145971
8.29775e-06;-0.010432821685222445
8.29800e-06;-0.00980385217863283
8.29825e-06;-0.008991822479817337
8.29850e-06;-0.008744775970024083
8.29875e-06;-0.008940796008085741
8.29900e-06;-0.009419548244600853
8.29925e-06;-0.010120991041278227
8.29950e-06;-0.010286548490755854
8.29975e-06;-0.010032325934862469
8.30000e-06;-0.009633795211890703
8.30025e-06;-0.009120615998443996
8.30050e-06;-0.008961405700907355
8.30075e-06;-0.009079819717787053
8.30100e-06;-0.009375459436166229
8.30125e-06;-0.009810754657924267
8.30150e-06;-0.009910593795352692
8.30175e-06;-0.009747788188785925
8.30200e-06;-0.00949496070541703
8.30225e-06;-0.00917075109471239
8.30250e-06;-0.009068745489962166
8.30275e-06;-0.009141157363713473
8.30300e-06;-0.009325135660613685
8.30325e-06;-0.009597189673778487
8.30350e-06;-0.009659768129195324
8.30375e-06;-0.00955855015929429
8.30400e-06;-0.009401728058136697
8.30425e-06;-0.009201034435284696
8.30450e-06;-0.009140418086515868
8.30475e-06;-0.009189927560262294
8.30500e-06;-0.009310069105246913
8.30525e-06;-0.009485988263001422
8.30550e-06;-0.009531236784587137
8.30575e-06;-0.009474402643425164
8.30600e-06;-0.009370339839119408
8.30625e-06;-0.009264523899513813
8.30650e-06;-0.009235031733110976
8.30675e-06;-0.009274388611531372
8.30700e-06;-0.00937511765247504
8.30725e-06;-0.009478222977727206
8.30750e-06;-0.009515179511209955
8.30775e-06;-0.009489128468214125
8.30800e-06;-0.009433815435272132
8.30825e-06;-0.009377416868459665
8.30850e-06;-0.009369075452797417
8.30875e-06;-0.00940399129941007
8.30900e-06;-0.009477463825491587
8.30925e-06;-0.009552429239151145
8.30950e-06;-0.009586004162027807
8.30975e-06;-0.009580105791976651
8.31000e-06;-0.009555806830764598
8.31025e-06;-0.009530825034023027
8.31050e-06;-0.009535811880641306
8.31075e-06;-0.009567754599444723
8.31100e-06;-0.009614821467145719
8.31125e-06;-0.00966245830639655
8.31150e-06;-0.009710095145647057
8.31175e-06;-0.009716285849101903
8.31200e-06;-0.009715864981617148
8.31225e-06;-0.009715244410341599
8.31250e-06;-0.009714623839066046
8.31275e-06;-0.009741909912860475
8.31300e-06;-0.00977826080291257
8.31325e-06;-0.00981493287105157
8.31350e-06;-0.009851604939190569
8.31375e-06;-0.009861325427594022
8.31400e-06;-0.009865727533446734
8.31425e-06;-0.009869958531903221
8.31450e-06;-0.00987418953035968
8.31475e-06;-0.00989429591660747
8.31500e-06;-0.009915474199019137
8.31525e-06;-0.009936669859053856
8.31550e-06;-0.00995786551908872
8.31575e-06;-0.009956994724262076
8.31600e-06;-0.009948019623401163
8.31625e-06;-0.009938752653342924
8.31650e-06;-0.00992948568328462
8.31675e-06;-0.009926097094113892
8.31700e-06;-0.009919842243733207
8.31725e-06;-0.009913461752774503
8.31750e-06;-0.009907081261815798
8.31775e-06;-0.009884002791648123
8.31800e-06;-0.009853553174683696
8.31825e-06;-0.00982283256823736
8.31850e-06;-0.009792111961791233
8.31875e-06;-0.009763390995417485
8.31900e-06;-0.009726225599787574
8.31925e-06;-0.009688715143778484
8.31950e-06;-0.009651204687769139
8.31975e-06;-0.009613694231759794
8.32000e-06;-0.009576183775750704
8.32025e-06;-0.009534528200631921
8.32050e-06;-0.009488028111138257
8.32075e-06;-0.009441528021644907
8.32100e-06;-0.009395027932151242
8.32125e-06;-0.009348527842657578
8.32150e-06;-0.009302027753164228
8.32175e-06;-0.009253508344048143
8.32200e-06;-0.009204907203851637
8.32225e-06;-0.009156306063655459
8.32250e-06;-0.009107704923458953
8.32275e-06;-0.009059103783262445
8.32300e-06;-0.009010502643066267
8.32325e-06;-0.008967319358537897
8.32350e-06;-0.008930468070503532
8.32375e-06;-0.008893616782469416
8.32400e-06;-0.00885676549443505
8.32425e-06;-0.008819914206400685
8.32450e-06;-0.008783062918366318
8.32475e-06;-0.008746211630332203
8.32500e-06;-0.008727748897848884
8.32525e-06;-0.008710030434126683
8.32550e-06;-0.0086923119704046
8.32575e-06;-0.008674593506682397
8.32600e-06;-0.008656875042960196
8.32625e-06;-0.008639156579238113
8.32650e-06;-0.00862143811551591
8.32675e-06;-0.008603719651793707
8.32700e-06;-0.008586001188071625
8.32725e-06;-0.008568282724349422
8.32750e-06;-0.00855056426062722
8.32775e-06;-0.008532845796905138
8.32800e-06;-0.008515127333182935
8.32825e-06;-0.008497408869460732
8.32850e-06;-0.00847969040573865
8.32875e-06;-0.008461971942016448
8.32900e-06;-0.008444253478294245
8.32925e-06;-0.008426535014572162
8.32950e-06;-0.0084196676266438
8.32975e-06;-0.00841323943127323
8.33000e-06;-0.008406811235902706
8.33025e-06;-0.008400383040532138
8.33050e-06;-0.00839395484516157
8.33075e-06;-0.008387526649791045
8.33100e-06;-0.008381098454420477
8.33125e-06;-0.008374670259049909
8.33150e-06;-0.008368242063679384
8.33175e-06;-0.008361813868308816
8.33200e-06;-0.008355385672938248
8.33225e-06;-0.008348957477567724
8.33250e-06;-0.008342529282197156
8.33275e-06;-0.008336101086826588
8.33300e-06;-0.008329672891456018
8.33325e-06;-0.008323244696085494
8.33350e-06;-0.008316816500714926
8.33375e-06;-0.008310388305344358
8.33400e-06;-0.008312574134434288
8.33425e-06;-0.008315108612405786
8.33450e-06;-0.008317643090377285
8.33475e-06;-0.008320177568348765
8.33500e-06;-0.008322712046320265
8.33525e-06;-0.008325246524291762
8.33550e-06;-0.008327781002263245
8.33575e-06;-0.008330315480234742
8.33600e-06;-0.00835488851596753
8.33625e-06;-0.008380353552709791
8.33650e-06;-0.008405818589452224
8.33675e-06;-0.008431283626194655
8.33700e-06;-0.008456748662936915
8.33725e-06;-0.008482213699679348
8.33750e-06;-0.00850767873642178
8.33775e-06;-0.00853314377316404
8.33800e-06;-0.008581940315015992
8.33825e-06;-0.00863168118935755
8.33850e-06;-0.008681422063698768
8.33875e-06;-0.008731162938040323
8.33900e-06;-0.00878090381238188
8.33925e-06;-0.008830644686723099
8.33950e-06;-0.008880385561064654
8.33975e-06;-0.00894477068528652
8.34000e-06;-0.009009748529132673
8.34025e-06;-0.009074726372979267
8.34050e-06;-0.00913970421682586
8.34075e-06;-0.009204682060672013
8.34100e-06;-0.009269659904518607
8.34125e-06;-0.009334637748365201
8.34150e-06;-0.009403744575744024
8.34175e-06;-0.009473018521929461
8.34200e-06;-0.009542292468115368
8.34225e-06;-0.009609997911188873
8.34250e-06;-0.009677639869782737
8.34275e-06;-0.00974528182837706
8.34300e-06;-0.009808647922770568
8.34325e-06;-0.009871840953425526
8.34350e-06;-0.00993503398408091
8.34375e-06;-0.009981023731393259
8.34400e-06;-0.010026317183317025
8.34425e-06;-0.010071610635241098
8.34450e-06;-0.01011690408716517
8.34475e-06;-0.010162197539088936
8.34500e-06;-0.010207490991013009
8.34525e-06;-0.010252784442937082
8.34550e-06;-0.010298077894860848
8.34575e-06;-0.010343371346784922
8.34600e-06;-0.010376930390691997
8.34625e-06;-0.010396775110145725
8.34650e-06;-0.010416619829599585
8.34675e-06;-0.010436464549053448
8.34700e-06;-0.010456309268507175
8.34725e-06;-0.010476153987961038
8.34750e-06;-0.010495998707414899
8.34775e-06;-0.010515843426868626
8.34800e-06;-0.010535688146322488
8.34825e-06;-0.01055553286577635
8.34850e-06;-0.010557046647169083
8.34875e-06;-0.01055781849183997
8.34900e-06;-0.010558590336510855
8.34925e-06;-0.010559362181181737
8.34950e-06;-0.010560134025852624
8.34975e-06;-0.01056090587052351
8.35000e-06;-0.010561677715194392
8.35025e-06;-0.010562449559865279
8.35050e-06;-0.010563221404536164
8.35075e-06;-0.010563993249207052
8.35100e-06;-0.010560860691344825
8.35125e-06;-0.010553164951167296
8.35150e-06;-0.010545469210989769
8.35175e-06;-0.010537773470812294
8.35200e-06;-0.010530077730634765
8.35225e-06;-0.010522381990457238
8.35250e-06;-0.010514686250279763
8.35275e-06;-0.010506990510102234
8.35300e-06;-0.010499294769924707
8.35325e-06;-0.010491599029747231
8.35350e-06;-0.010483903289569703
8.35375e-06;-0.010477234435366826
8.35400e-06;-0.010470607143925906
8.35425e-06;-0.010463979852484942
8.35450e-06;-0.01045839504722892
8.35475e-06;-0.010452852436146562
8.35500e-06;-0.010447309825064166
8.35525e-06;-0.010431281357867557
8.35550e-06;-0.01041482848021843
8.35575e-06;-0.01039837560256919
8.35600e-06;-0.01038192272491995
8.35625e-06;-0.010365469847270823
8.35650e-06;-0.010349016969621585
8.35675e-06;-0.010332564091972345
8.35700e-06;-0.01029798862902892
8.35725e-06;-0.010262679662349687
8.35750e-06;-0.010227370695670455
8.35775e-06;-0.010192061728991463
8.35800e-06;-0.01015675276231223
8.35825e-06;-0.010121443795632998
8.35850e-06;-0.010086134828954004
8.35875e-06;-0.010033697862847751
8.35900e-06;-0.009980567648434744
8.35925e-06;-0.009927437434021738
8.35950e-06;-0.00987430721960909
8.35975e-06;-0.009821177005196084
8.36000e-06;-0.009768046790783075
8.36025e-06;-0.00971491657637043
8.36050e-06;-0.009657807238126976
8.36075e-06;-0.009596047388737582
8.36100e-06;-0.009534287539348606
8.36125e-06;-0.009472527689959211
8.36150e-06;-0.009410767840569817
8.36175e-06;-0.009349007991180842
8.36200e-06;-0.009287248141791448
8.36225e-06;-0.009225488292402053
8.36250e-06;-0.009170334867811712
8.36275e-06;-0.009115448835383653
8.36300e-06;-0.009060562802955592
8.36325e-06;-0.009005676770527904
8.36350e-06;-0.008950790738099844
8.36375e-06;-0.008895904705671783
8.36400e-06;-0.008841018673244095
8.36425e-06;-0.008805197504385753
8.36450e-06;-0.008770147977566591
8.36475e-06;-0.008735098450747667
8.36500e-06;-0.008700048923928507
8.36525e-06;-0.008664999397109345
8.36550e-06;-0.008629949870290423
8.36575e-06;-0.008594900343471261
8.36600e-06;-0.008584425588479355
8.36625e-06;-0.00857494548666102
8.36650e-06;-0.008565465384842619
8.36675e-06;-0.008555985283024219
8.36700e-06;-0.008546505181205883
8.36725e-06;-0.008537025079387485
8.36750e-06;-0.008527544977569084
8.36775e-06;-0.008518064875750684
8.36800e-06;-0.008508584773932348
8.36825e-06;-0.008499104672113948
8.36850e-06;-0.00848962457029555
8.36875e-06;-0.008501339237361578
8.36900e-06;-0.008513911753456147
8.36925e-06;-0.008526484269550718
8.36950e-06;-0.008539056785645203
8.36975e-06;-0.008551629301739774
8.37000e-06;-0.008564201817834342
8.37025e-06;-0.008576774333928828
8.37050e-06;-0.008589346850023398
8.37075e-06;-0.008601919366117967
8.37100e-06;-0.008614491882212453
8.37125e-06;-0.008627064398307023
8.37150e-06;-0.008646595041366832
8.37175e-06;-0.00866640731158138
8.37200e-06;-0.008686219581796063
8.37225e-06;-0.008706031852010746
8.37250e-06;-0.008725844122225296
8.37275e-06;-0.008745656392439979
8.37300e-06;-0.008765468662654662
8.37325e-06;-0.00878528093286921
8.37350e-06;-0.008805093203083893
8.37375e-06;-0.008822684673150569
8.37400e-06;-0.008837680633179015
8.37425e-06;-0.008852676593207563
8.37450e-06;-0.008867672553236111
8.37475e-06;-0.008882668513264557
8.37500e-06;-0.008897664473293106
8.37525e-06;-0.008912660433321654
8.37550e-06;-0.0089276563933501
8.37575e-06;-0.008942652353378648
8.37600e-06;-0.008957648313407196
8.37625e-06;-0.0089645966714182
8.37650e-06;-0.008971219306246246
8.37675e-06;-0.008977841941074337
8.37700e-06;-0.008984464575902427
8.37725e-06;-0.008991087210730473
8.37750e-06;-0.008997709845558564
8.37775e-06;-0.009004332480386654
8.37800e-06;-0.0090109551152147
8.37825e-06;-0.00901757775004279
8.37850e-06;-0.009024200384870881
8.37875e-06;-0.009030823019698927
8.37900e-06;-0.009037445654527018
8.37925e-06;-0.009044068289355108
8.37950e-06;-0.009050690924183154
8.37975e-06;-0.009057313559011244
8.38000e-06;-0.009063936193839335
8.38025e-06;-0.00907055882866738
8.38050e-06;-0.009077181463495471
8.38075e-06;-0.009083804098323562
8.38100e-06;-0.009090426733151608
8.38125e-06;-0.009097049367979698
8.38150e-06;-0.009099797481723624
8.38175e-06;-0.009102388775915739
8.38200e-06;-0.009104980070107871
8.38225e-06;-0.009107571364300003
8.38250e-06;-0.009110162658492118
8.38275e-06;-0.009112753952684252
8.38300e-06;-0.009115345246876384
8.38325e-06;-0.009117936541068499
8.38350e-06;-0.009120527835260631
8.38375e-06;-0.009123119129452763
8.38400e-06;-0.009125710423644878
8.38425e-06;-0.009128301717837012
8.38450e-06;-0.009130893012029144
8.38475e-06;-0.009133484306221277
8.38500e-06;-0.009136075600413391
8.38525e-06;-0.009138666894605523
8.38550e-06;-0.009141258188797656
8.38575e-06;-0.00914384948298977
8.38600e-06;-0.009146440777181904
8.38625e-06;-0.009149032071374037
8.38650e-06;-0.009151623365566151
8.38675e-06;-0.009151944300627511
8.38700e-06;-0.009152173343892695
8.38725e-06;-0.009152402387157877
8.38750e-06;-0.009152631430423061
8.38775e-06;-0.009152860473688245
8.38800e-06;-0.009153089516953428
8.38825e-06;-0.009153318560218612
8.38850e-06;-0.009153547603483796
8.38875e-06;-0.00915377664674898
8.38900e-06;-0.009154005690014164
8.38925e-06;-0.009154234733279348
8.38950e-06;-0.00915446377654453
8.38975e-06;-0.009154692819809714
8.39000e-06;-0.009154921863074898
8.39025e-06;-0.00915515090634008
8.39050e-06;-0.009154316816584912
8.39075e-06;-0.009153439696984138
8.39100e-06;-0.009152562577383372
8.39125e-06;-0.009151685457782598
8.39150e-06;-0.009150808338181823
8.39175e-06;-0.009149931218581056
8.39200e-06;-0.009149054098980283
8.39225e-06;-0.009148176979379509
8.39250e-06;-0.00914729985977874
8.39275e-06;-0.009146422740177967
8.39300e-06;-0.009145545620577194
8.39325e-06;-0.00914466850097642
8.39350e-06;-0.009143791381375652
8.39375e-06;-0.009142914261774878
8.39400e-06;-0.009142037142174105
8.39425e-06;-0.009146595637734619
8.39450e-06;-0.009151374137449653
8.39475e-06;-0.009156152637164686
8.39500e-06;-0.009160931136879689
8.39525e-06;-0.009165709636594722
8.39550e-06;-0.009170488136309758
8.39575e-06;-0.009175266636024759
8.39600e-06;-0.009180045135739794
8.39625e-06;-0.009201644578196824
8.39650e-06;-0.009223924840979862
8.39675e-06;-0.00924620510376305
8.39700e-06;-0.00926848536654624
8.39725e-06;-0.009290765629329277
