Time(s);Current(A)
1.25000e-06;-0.008157493311614196
1.25025e-06;-0.008180830392688911
1.25050e-06;-0.008207237323204119
1.25075e-06;-0.008237988973736206
1.25100e-06;-0.00826874062426832
1.25125e-06;-0.008300533252468236
1.25150e-06;-0.008333799163510926
1.25175e-06;-0.008367065074553644
1.25200e-06;-0.008400634063178845
1.25225e-06;-0.008434631993765212
1.25250e-06;-0.00846840936407522
1.25275e-06;-0.008501874578148877
1.25300e-06;-0.00853454990109308
1.25325e-06;-0.008566107300872637
1.25350e-06;-0.00859414819094582
1.25375e-06;-0.008617212208241657
1.25400e-06;-0.008640276225537494
1.25425e-06;-0.008663340242833351
1.25450e-06;-0.008686404260129189
1.25475e-06;-0.008709468277425046
1.25500e-06;-0.008732532294720883
1.25525e-06;-0.00875559631201674
1.25550e-06;-0.008778660329312578
1.25575e-06;-0.008801724346608414
1.25600e-06;-0.00882264403216875
1.25625e-06;-0.008840528871494892
1.25650e-06;-0.008858413710821052
1.25675e-06;-0.008876298550147195
1.25700e-06;-0.008894183389473337
1.25725e-06;-0.008912068228799497
1.25750e-06;-0.00892995306812564
1.25775e-06;-0.008947837907451798
1.25800e-06;-0.00896572274677794
1.25825e-06;-0.008983607586104085
1.25850e-06;-0.009001339033754071
1.25875e-06;-0.009018853388058334
1.25900e-06;-0.009036367742362612
1.25925e-06;-0.009053882096666875
1.25950e-06;-0.009071396450971152
1.25975e-06;-0.009088910805275414
1.26000e-06;-0.009106425159579677
1.26025e-06;-0.009123939513883956
1.26050e-06;-0.009141453868188218
1.26075e-06;-0.009158968222492495
1.26100e-06;-0.009174809007154726
1.26125e-06;-0.009190492381277296
1.26150e-06;-0.00920617575539988
1.26175e-06;-0.00922185912952245
1.26200e-06;-0.009237542503645033
1.26225e-06;-0.009253225877767604
1.26250e-06;-0.009268909251890174
1.26275e-06;-0.009284592626012757
1.26300e-06;-0.009300276000135327
1.26325e-06;-0.009314179798036752
1.26350e-06;-0.009325564983680782
1.26375e-06;-0.009336950169324823
1.26400e-06;-0.009348335354968854
1.26425e-06;-0.009359720540612885
1.26450e-06;-0.009371105726256925
1.26475e-06;-0.009382490911900956
1.26500e-06;-0.009393876097544995
1.26525e-06;-0.009407625558249132
1.26550e-06;-0.009424721148259417
1.26575e-06;-0.009441816738269717
1.26600e-06;-0.009458912328280002
1.26625e-06;-0.009476007918290303
1.26650e-06;-0.009493103508300588
1.26675e-06;-0.009510199098310874
1.26700e-06;-0.009527294688321173
1.26725e-06;-0.009549519827856214
1.26750e-06;-0.009579004755510507
1.26775e-06;-0.009608489683164774
1.26800e-06;-0.009637974610819068
1.26825e-06;-0.009667459538473335
1.26850e-06;-0.009696944466127604
1.26875e-06;-0.009726429393781896
1.26900e-06;-0.009755914321436165
1.26925e-06;-0.00979347244916301
1.26950e-06;-0.009831789915938582
1.26975e-06;-0.009870107382714157
1.27000e-06;-0.009908424849489764
1.27025e-06;-0.009946742316265338
1.27050e-06;-0.009985059783040944
1.27075e-06;-0.010023377249816518
1.27100e-06;-0.010062591263267842
1.27125e-06;-0.010103074148161691
1.27150e-06;-0.010143557033055505
1.27175e-06;-0.010184039917949354
1.27200e-06;-0.01022452280284317
1.27225e-06;-0.010265005687736984
1.27250e-06;-0.010303274551045639
1.27275e-06;-0.010338409936936441
1.27300e-06;-0.010373545322827273
1.27325e-06;-0.010408680708718074
1.27350e-06;-0.010443816094608906
1.27375e-06;-0.010478951480499708
1.27400e-06;-0.010511501324130026
1.27425e-06;-0.010535667615984493
1.27450e-06;-0.010553147712867736
1.27475e-06;-0.010570627809750996
1.27500e-06;-0.01058810790663424
1.27525e-06;-0.010605588003517484
1.27550e-06;-0.010623068100400743
1.27575e-06;-0.010640548197283986
1.27600e-06;-0.010658028294167244
1.27625e-06;-0.010675508391050489
1.27650e-06;-0.01068514583064816
1.27675e-06;-0.010683683654206012
1.27700e-06;-0.010682221477763865
1.27725e-06;-0.010680759301321717
1.27750e-06;-0.010679297124879571
1.27775e-06;-0.010677834948437425
1.27800e-06;-0.010676372771995278
1.27825e-06;-0.010674910595553132
1.27850e-06;-0.010673448419110984
1.27875e-06;-0.01066621187352244
1.27900e-06;-0.010650802934564841
1.27925e-06;-0.010635393995607256
1.27950e-06;-0.010619985056649671
1.27975e-06;-0.010604576117692072
1.28000e-06;-0.010589167178734487
1.28025e-06;-0.010573758239776888
1.28050e-06;-0.010558349300819303
1.28075e-06;-0.010542940361861718
1.28100e-06;-0.010525410051201849
1.28125e-06;-0.010504877389359873
1.28150e-06;-0.01048434472751788
1.28175e-06;-0.010463812065675905
1.28200e-06;-0.010443279403833912
1.28225e-06;-0.010422746741991937
1.28250e-06;-0.010402214080149961
1.28275e-06;-0.010381681418307968
1.28300e-06;-0.010361148756465995
1.28325e-06;-0.01034315318598846
1.28350e-06;-0.01032874832959889
1.28375e-06;-0.010314343473209323
1.28400e-06;-0.010299938616819741
1.28425e-06;-0.010285533760430171
1.28450e-06;-0.01027112890404059
1.28475e-06;-0.010256724047651022
1.28500e-06;-0.010242319191261453
1.28525e-06;-0.010227914334871871
1.28550e-06;-0.010213509478482301
1.28575e-06;-0.01019910462209272
1.28600e-06;-0.010184699765703152
1.28625e-06;-0.01017029490931357
1.28650e-06;-0.010155890052924001
1.28675e-06;-0.010141485196534432
1.28700e-06;-0.01012708034014485
1.28725e-06;-0.010116289368281229
1.28750e-06;-0.010105838306690195
1.28775e-06;-0.010095387245099171
1.28800e-06;-0.010084936183508145
1.28825e-06;-0.010074485121917111
1.28850e-06;-0.010064034060326087
1.28875e-06;-0.010053582998735053
1.28900e-06;-0.010043131937144028
1.28925e-06;-0.010032680875553002
1.28950e-06;-0.010022229813961968
1.28975e-06;-0.010011778752370944
1.29000e-06;-0.01000132769077991
1.29025e-06;-0.009990876629188884
1.29050e-06;-0.00998042556759785
1.29075e-06;-0.009969974506006826
1.29100e-06;-0.009960013975843875
1.29125e-06;-0.009950747688755474
1.29150e-06;-0.00994148140166708
1.29175e-06;-0.00993221511457868
1.29200e-06;-0.009922948827490286
1.29225e-06;-0.009913682540401892
1.29250e-06;-0.00990441625331349
1.29275e-06;-0.009895149966225095
1.29300e-06;-0.00988762625727948
1.29325e-06;-0.009880266449589496
1.29350e-06;-0.00987290664189951
1.29375e-06;-0.00986554683420952
1.29400e-06;-0.009858187026519534
1.29425e-06;-0.009850827218829543
1.29450e-06;-0.009843467411139558
1.29475e-06;-0.009838891247226521
1.29500e-06;-0.009838254739986915
1.29525e-06;-0.009837618232747309
1.29550e-06;-0.0098369817255077
1.29575e-06;-0.009836345218268094
1.29600e-06;-0.009835708711028488
1.29625e-06;-0.009835072203788882
1.29650e-06;-0.009834435696549274
1.29675e-06;-0.009833799189309668
1.29700e-06;-0.009837339360217225
1.29725e-06;-0.009846790732145288
1.29750e-06;-0.009856242104073345
1.29775e-06;-0.0098656934760014
1.29800e-06;-0.009875144847929465
1.29825e-06;-0.00988459621985752
1.29850e-06;-0.009894047591785585
1.29875e-06;-0.00990349896371364
1.29900e-06;-0.009912950335641706
1.29925e-06;-0.009925448428082236
1.29950e-06;-0.00994225850645218
1.29975e-06;-0.009959068584822138
1.30000e-06;-0.009975878663192083
1.30025e-06;-0.009992688741562042
1.30050e-06;-0.010009498819931986
1.30075e-06;-0.01002630889830193
1.30100e-06;-0.01004311897667189
1.30125e-06;-0.010059929055041834
1.30150e-06;-0.010076739133411793
1.30175e-06;-0.010093477706262946
1.30200e-06;-0.010110209553536621
1.30225e-06;-0.01012694140081031
1.30250e-06;-0.010143673248083986
1.30275e-06;-0.010160405095357676
1.30300e-06;-0.010177136942631351
1.30325e-06;-0.01019386878990504
1.30350e-06;-0.010210600637178716
1.30375e-06;-0.010227332484452392
1.30400e-06;-0.01024014041308437
1.30425e-06;-0.010247394868103816
1.30450e-06;-0.010254649323123269
1.30475e-06;-0.010261903778142716
1.30500e-06;-0.010269158233162162
1.30525e-06;-0.010276412688181615
1.30550e-06;-0.01028366714320106
1.30575e-06;-0.010290921598220513
1.30600e-06;-0.01029817605323996
1.30625e-06;-0.01029193939978994
1.30650e-06;-0.010284433816377428
1.30675e-06;-0.010276928232964921
1.30700e-06;-0.010269422649552409
1.30725e-06;-0.010261917066139901
1.30750e-06;-0.010254411482727389
1.30775e-06;-0.010246905899314882
1.30800e-06;-0.010239400315902376
1.30825e-06;-0.01022664492896077
1.30850e-06;-0.010206459559893875
1.30875e-06;-0.010186274190826964
1.30900e-06;-0.01016608882176007
1.30925e-06;-0.010145903452693176
1.30950e-06;-0.010125718083626266
1.30975e-06;-0.010105532714559372
1.31000e-06;-0.01008534734549246
1.31025e-06;-0.010062567260219705
1.31050e-06;-0.010036114905132901
1.31075e-06;-0.010009662550046075
1.31100e-06;-0.009983210194959272
1.31125e-06;-0.009956757839872446
1.31150e-06;-0.009930305484785643
1.31175e-06;-0.009903853129698839
1.31200e-06;-0.009877400774612013
1.31225e-06;-0.009851054458119618
1.31250e-06;-0.00982485821674081
1.31275e-06;-0.009798661975362022
1.31300e-06;-0.009772465733983212
1.31325e-06;-0.009748761727471935
1.31350e-06;-0.009725292132499463
1.31375e-06;-0.009701822537526971
1.31400e-06;-0.0096800046841647
1.31425e-06;-0.009660524520312309
1.31450e-06;-0.009641044356459936
1.31475e-06;-0.009620953538835379
1.31500e-06;-0.009599998470465654
1.31525e-06;-0.009579043402095947
1.31550e-06;-0.009556159073966066
1.31575e-06;-0.0095305442883147
1.31600e-06;-0.009504929502663333
1.31625e-06;-0.00947669043999181
1.31650e-06;-0.009444737270450882
1.31675e-06;-0.009412784100909928
1.31700e-06;-0.009380830931368999
1.31725e-06;-0.009348877761828045
1.31750e-06;-0.009316924592287118
1.31775e-06;-0.00927543952040797
1.31800e-06;-0.009233057908670598
1.31825e-06;-0.009190676296933264
1.31850e-06;-0.009148294685195893
1.31875e-06;-0.009105913073458559
1.31900e-06;-0.009060106572865032
1.31925e-06;-0.009009452869354227
1.31950e-06;-0.008958799165843466
1.31975e-06;-0.008908145462332661
1.32000e-06;-0.0088574917588219
1.32025e-06;-0.00880526189764377
1.32050e-06;-0.008750801319976964
1.32075e-06;-0.008696340742310205
1.32100e-06;-0.0086418801646434
1.32125e-06;-0.00858741958697664
1.32150e-06;-0.008532760466501602
1.32175e-06;-0.008477820350841173
1.32200e-06;-0.008423261395728302
1.32225e-06;-0.008369674144303159
1.32250e-06;-0.00831721496516996
1.32275e-06;-0.00826602711944212
1.32300e-06;-0.008216202441602365
1.32325e-06;-0.00816794486425047
1.32350e-06;-0.008121567128545342
1.32375e-06;-0.008077976893561675
1.32400e-06;-0.00803660940744237
1.32425e-06;-0.00799770876462409
1.32450e-06;-0.007962299414675923
1.32475e-06;-0.007928966878798717
1.32500e-06;-0.007898573632237428
1.32525e-06;-0.00787043592297806
1.32550e-06;-0.007845490447816985
1.32575e-06;-0.007820544972655889
1.32600e-06;-0.007798748008293378
1.32625e-06;-0.007781407092394896
1.32650e-06;-0.007764066176496399
1.32675e-06;-0.007750950688485627
1.32700e-06;-0.007743815396400304
1.32725e-06;-0.007736680104314987
1.32750e-06;-0.00772954481222967
1.32775e-06;-0.007722409520144347
1.32800e-06;-0.00771527422805903
1.32825e-06;-0.007708138935973707
1.32850e-06;-0.007711305611612751
1.32875e-06;-0.007715441256965628
1.32900e-06;-0.0077195769023185095
1.32925e-06;-0.007723712547671386
1.32950e-06;-0.007727848193024267
1.32975e-06;-0.007731983838377145
1.33000e-06;-0.00773916123206103
1.33025e-06;-0.0077506435746065045
1.33050e-06;-0.00776212591715198
1.33075e-06;-0.007773608259697465
1.33100e-06;-0.00778509060224294
1.33125e-06;-0.007796572944788425
1.33150e-06;-0.007808055287333901
1.33175e-06;-0.007820349334662777
1.33200e-06;-0.00783379217775087
1.33225e-06;-0.007847235020838951
1.33250e-06;-0.007860677863927046
1.33275e-06;-0.007874120707015127
1.33300e-06;-0.00788756355010321
1.33325e-06;-0.007901006393191303
1.33350e-06;-0.007913513985057442
1.33375e-06;-0.007924697927415151
1.33400e-06;-0.00793588186977285
1.33425e-06;-0.007946244366485791
1.33450e-06;-0.007955444281318702
1.33475e-06;-0.007964644196151612
1.33500e-06;-0.00797475771380772
1.33525e-06;-0.007986164242260752
1.33550e-06;-0.007997570770713794
1.33575e-06;-0.008010668646880725
1.33600e-06;-0.008026160266586879
1.33625e-06;-0.008041651886293045
1.33650e-06;-0.008057143505999197
1.33675e-06;-0.008072635125705363
1.33700e-06;-0.008088126745411517
1.33725e-06;-0.008103618365117669
1.33750e-06;-0.008125589746836371
1.33775e-06;-0.0081481705939805
1.33800e-06;-0.008170751441124648
1.33825e-06;-0.008193332288268776
1.33850e-06;-0.008215913135412924
1.33875e-06;-0.00823849398255705
1.33900e-06;-0.00826366294259482
1.33925e-06;-0.008292494826859788
1.33950e-06;-0.008321326711124732
1.33975e-06;-0.008350158595389701
1.34000e-06;-0.008378990479654645
1.34025e-06;-0.008407822363919591
1.34050e-06;-0.00843665424818456
1.34075e-06;-0.008465486132449504
1.34100e-06;-0.008495535994051258
1.34125e-06;-0.008525700414655965
1.34150e-06;-0.008555864835260673
1.34175e-06;-0.008586029255865405
1.34200e-06;-0.008616193676470114
1.34225e-06;-0.008646358097074846
1.34250e-06;-0.008676522517679554
1.34275e-06;-0.0087053720083008
1.34300e-06;-0.008732360494749724
1.34325e-06;-0.008759348981198647
1.34350e-06;-0.008782069446355002
1.34375e-06;-0.008798749433666365
1.34400e-06;-0.008815429420977742
1.34425e-06;-0.008832109408289105
1.34450e-06;-0.008848789395600468
1.34475e-06;-0.008865469382911845
1.34500e-06;-0.008882149370223209
1.34525e-06;-0.008898829357534586
1.34550e-06;-0.008915509344845949
1.34575e-06;-0.008932189332157312
1.34600e-06;-0.00894886931946869
1.34625e-06;-0.008965549306780052
1.34650e-06;-0.008976691990823545
1.34675e-06;-0.008979997797912358
1.34700e-06;-0.008983303605001169
1.34725e-06;-0.008986609412089985
1.34750e-06;-0.008989915219178796
1.34775e-06;-0.00899322102626761
1.34800e-06;-0.008996526833356423
1.34825e-06;-0.008999832640445238
1.34850e-06;-0.00900313844753405
1.34875e-06;-0.009006444254622863
1.34900e-06;-0.009009750061711678
1.34925e-06;-0.00901305586880049
1.34950e-06;-0.009013487409307925
1.34975e-06;-0.009009851035806852
1.35000e-06;-0.009006214662305776
1.35025e-06;-0.009002578288804698
1.35050e-06;-0.008998941915303623
1.35075e-06;-0.008995305541802546
1.35100e-06;-0.00899166916830147
1.35125e-06;-0.008988032794800396
1.35150e-06;-0.008984396421299319
1.35175e-06;-0.008980760047798244
1.35200e-06;-0.008975613725052543
1.35225e-06;-0.00897032538137201
1.35250e-06;-0.008965037037691474
1.35275e-06;-0.00895974869401094
1.35300e-06;-0.008954460350330408
1.35325e-06;-0.00894917200664987
1.35350e-06;-0.008943883662969337
1.35375e-06;-0.0089385953192888
1.35400e-06;-0.008933306975608268
1.35425e-06;-0.008927633612446766
1.35450e-06;-0.008921415335967096
1.35475e-06;-0.008915197059487432
1.35500e-06;-0.008908978783007762
1.35525e-06;-0.008902760506528098
1.35550e-06;-0.008896542230048432
1.35575e-06;-0.008890323953568762
1.35600e-06;-0.008884105677089098
1.35625e-06;-0.008877887400609429
1.35650e-06;-0.00886647656160314
1.35675e-06;-0.008854577326985672
1.35700e-06;-0.008842678092368213
1.35725e-06;-0.008830778857750755
1.35750e-06;-0.008818879623133286
1.35775e-06;-0.008806980388515828
1.35800e-06;-0.00879508115389836
1.35825e-06;-0.008783181919280902
1.35850e-06;-0.008769039611148976
1.35875e-06;-0.008751722708763923
1.35900e-06;-0.008734405806378883
1.35925e-06;-0.008717088903993829
1.35950e-06;-0.00869977200160879
1.35975e-06;-0.008682455099223751
1.36000e-06;-0.008665138196838697
1.36025e-06;-0.008647821294453658
1.36050e-06;-0.008630504392068604
1.36075e-06;-0.0086115062086618
1.36100e-06;-0.008592349889408199
1.36125e-06;-0.008573193570154614
1.36150e-06;-0.008554037250901031
1.36175e-06;-0.008534880931647431
1.36200e-06;-0.008515724612393846
1.36225e-06;-0.008496568293140246
1.36250e-06;-0.008477411973886663
1.36275e-06;-0.008458843514604384
1.36300e-06;-0.008441107046282025
1.36325e-06;-0.00842337057795968
1.36350e-06;-0.00841046406156212
1.36375e-06;-0.015947919421838506
1.36400e-06;-0.026042128523957563
1.36425e-06;-0.023226087687642245
1.36450e-06;-0.020604257297613685
1.36475e-06;-0.014001216142361595
1.36500e-06;-0.0056976389216702
1.36525e-06;-0.005966799710523071
1.36550e-06;-0.006585805595188359
1.36575e-06;-0.010760275897408751
1.36600e-06;-0.021000377847277582
1.36625e-06;-0.01700849958443244
1.36650e-06;-0.01372529012243886
1.36675e-06;-0.009760732086086406
1.36700e-06;-0.005983352573628269
1.36725e-06;-0.004914004174992689
1.36750e-06;-0.006360997151316458
1.36775e-06;-0.009450677746656292
1.36800e-06;-0.012387974444669917
1.36825e-06;-0.012882791799591831
1.36850e-06;-0.01123896920878224
1.36875e-06;-0.00861583763816264
1.36900e-06;-0.0062924452593993065
1.36925e-06;-0.0056601342796370815
1.36950e-06;-0.006599549034295521
1.36975e-06;-0.00856403277829824
1.37000e-06;-0.010429704263376742
1.37025e-06;-0.010762613031128404
1.37050e-06;-0.009753617023693022
1.37075e-06;-0.008129335681200852
1.37100e-06;-0.006691250808460375
1.37125e-06;-0.006311058129416404
1.37150e-06;-0.006914076712979477
1.37175e-06;-0.008157948038153633
1.37200e-06;-0.00933876013291311
1.37225e-06;-0.009558422707990582
1.37250e-06;-0.00893663983817096
1.37275e-06;-0.007928672204737785
1.37300e-06;-0.007036615746904177
1.37325e-06;-0.006806489905658138
1.37350e-06;-0.007191471745494477
1.37375e-06;-0.007977070184891652
1.37400e-06;-0.008722340514993729
1.37425e-06;-0.008864743368581831
1.37450e-06;-0.00847928248655253
1.37475e-06;-0.007851090257645826
1.37500e-06;-0.0072946049143530235
1.37525e-06;-0.007151821579467186
1.37550e-06;-0.00739342234292176
1.37575e-06;-0.00788507790935429
1.37600e-06;-0.008350626494824086
1.37625e-06;-0.008437767007949513
1.37650e-06;-0.008193566807812356
1.37675e-06;-0.007796705524456801
1.37700e-06;-0.0074442046446421125
1.37725e-06;-0.007350326044737678
1.37750e-06;-0.007496732436490094
1.37775e-06;-0.0077993117119927345
1.37800e-06;-0.008085119112031403
1.37825e-06;-0.008133535178308391
1.37850e-06;-0.00797411134483149
1.37875e-06;-0.007718835328294847
1.37900e-06;-0.007491172223062245
1.37925e-06;-0.007425375137711112
1.37950e-06;-0.007509991707560925
1.37975e-06;-0.00769237099167625
1.38000e-06;-0.007864224667562153
1.38025e-06;-0.007887411333577857
1.38050e-06;-0.007780503556474932
1.38075e-06;-0.007613707108487399
1.38100e-06;-0.007464409115084835
1.38125e-06;-0.007416748409219405
1.38150e-06;-0.007463589661964181
1.38175e-06;-0.007571993333951399
1.38200e-06;-0.007674172532272859
1.38225e-06;-0.007683648289855386
1.38250e-06;-0.007612109912994576
1.38275e-06;-0.007503586479059309
1.38300e-06;-0.007406602606185111
1.38325e-06;-0.0073739067980191746
1.38350e-06;-0.007401071382426342
1.38375e-06;-0.007467506108192954
1.38400e-06;-0.00753079517254974
1.38425e-06;-0.007536817481547037
1.38450e-06;-0.007492923406332727
1.38475e-06;-0.007426653288901502
1.38500e-06;-0.007368306452960796
1.38525e-06;-0.007350844698215105
1.38550e-06;-0.007371448548431551
1.38575e-06;-0.007417183324632336
1.38600e-06;-0.00746144513555497
1.38625e-06;-0.007470299650615022
1.38650e-06;-0.007448320662776727
1.38675e-06;-0.007416986833426761
1.38700e-06;-0.007391008754361081
1.38725e-06;-0.007378144574015652
1.38750e-06;-0.007397965253727307
1.38775e-06;-0.007430227268264717
1.38800e-06;-0.007461771163866943
1.38825e-06;-0.007482053638275907
1.38850e-06;-0.00747603901129951
1.38875e-06;-0.007464303749575122
1.38900e-06;-0.007456016608475543
1.38925e-06;-0.007455967357090573
1.38950e-06;-0.007476438349854572
1.38975e-06;-0.007504678467917077
1.39000e-06;-0.0075324218689229415
1.39025e-06;-0.007553065590742416
1.39050e-06;-0.007557100299571567
1.39075e-06;-0.00755737080951105
1.39100e-06;-0.0075596204191900355
1.39125e-06;-0.0075669170715515904
1.39150e-06;-0.007586749282131173
1.39175e-06;-0.007611105370939345
1.39200e-06;-0.007634830347866407
1.39225e-06;-0.007653926261150623
1.39250e-06;-0.007661837550134189
1.39275e-06;-0.0076659383962608685
1.39300e-06;-0.007671661506106955
1.39325e-06;-0.007682598904970502
1.39350e-06;-0.007699060145319921
1.39375e-06;-0.007718714078442675
1.39400e-06;-0.007736594854004388
1.39425e-06;-0.007748707552044592
1.39450e-06;-0.007754463800904245
1.39475e-06;-0.007756367657077403
1.39500e-06;-0.007758279259340994
1.39525e-06;-0.007760206398578519
1.39550e-06;-0.007761417360114889
1.39575e-06;-0.007761191824831403
1.39600e-06;-0.007760966289547916
1.39625e-06;-0.007756497420104796
1.39650e-06;-0.007743517344551736
1.39675e-06;-0.007728308847882538
1.39700e-06;-0.007708630622762613
1.39725e-06;-0.007688952397642704
