Time(s);Current(A)
7.00000e-06;-0.002800380845337677
7.00025e-06;-0.0028087879873509884
7.00050e-06;-0.0028171951293643
7.00075e-06;-0.00282560227137764
7.00100e-06;-0.002840950835139087
7.00125e-06;-0.0028572652783399135
7.00150e-06;-0.002876058362757345
7.00175e-06;-0.002896688392392927
7.00200e-06;-0.0029189101676466724
7.00225e-06;-0.0029426005495485096
7.00250e-06;-0.002967636575078092
7.00275e-06;-0.0029938879516047917
7.00300e-06;-0.003021185550439174
7.00325e-06;-0.0030493192131260272
7.00350e-06;-0.0030780872939107774
7.00375e-06;-0.003107312711424719
7.00400e-06;-0.003136823993860786
7.00425e-06;-0.003166449601915385
7.00450e-06;-0.003196017939403943
7.00475e-06;-0.003225352709165194
7.00500e-06;-0.0032542536594154037
7.00525e-06;-0.003282494813238381
7.00550e-06;-0.0033098556496736374
7.00575e-06;-0.003336130740795612
7.00600e-06;-0.0033604535504753934
7.00625e-06;-0.0033845235824163304
7.00650e-06;-0.003406422784938558
7.00675e-06;-0.003426464308009498
7.00700e-06;-0.0034452766176990774
7.00725e-06;-0.0034638613440167152
7.00750e-06;-0.0034827328302547912
7.00775e-06;-0.0035018296431528007
7.00800e-06;-0.0035209140073195486
7.00825e-06;-0.0035399930815831213
7.00850e-06;-0.0035585390037387666
7.00875e-06;-0.003577010739268368
7.00900e-06;-0.0035954645906463695
7.00925e-06;-0.003613915953494714
7.00950e-06;-0.0036335324432709695
7.00975e-06;-0.0036533110572034002
7.01000e-06;-0.0036739204564045736
7.01025e-06;-0.0036946454570542502
7.01050e-06;-0.0037154977047181587
7.01075e-06;-0.0037365594716109157
7.01100e-06;-0.0037576212385036015
7.01125e-06;-0.0037796904588308132
7.01150e-06;-0.0038018998634880975
7.01175e-06;-0.003824109268145382
7.01200e-06;-0.0038470893945741014
7.01225e-06;-0.0038701767647834973
7.01250e-06;-0.003893265770115325
7.01275e-06;-0.003916355002969949
7.01300e-06;-0.003939350114089499
7.01325e-06;-0.003962332128432641
7.01350e-06;-0.00398538547499196
7.01375e-06;-0.004008448747229738
7.01400e-06;-0.004031299453551347
7.01425e-06;-0.004053804185729195
7.01450e-06;-0.004075817686276024
7.01475e-06;-0.004097209747487941
7.01500e-06;-0.004117945162589707
7.01525e-06;-0.004138059626685725
7.01550e-06;-0.0041575147470349315
7.01575e-06;-0.004176182212002708
7.01600e-06;-0.004193917065935707
7.01625e-06;-0.004210573965631663
7.01650e-06;-0.004225401403127121
7.01675e-06;-0.004239992899564909
7.01700e-06;-0.004252019706467998
7.01725e-06;-0.004263689643989217
7.01750e-06;-0.004270550359413143
7.01775e-06;-0.0042767418850214655
7.01800e-06;-0.004282933410629766
7.01825e-06;-0.004289124936238067
7.01850e-06;-0.00429531646184639
7.01875e-06;-0.004294346805251009
7.01900e-06;-0.004292380690163739
7.01925e-06;-0.0042904145750764615
7.01950e-06;-0.00428844845998919
7.01975e-06;-0.004286482344901913
7.02000e-06;-0.004276763144969923
7.02025e-06;-0.004265965124947666
7.02050e-06;-0.004255167104925374
7.02075e-06;-0.004244369084903118
7.02100e-06;-0.004233571064880861
7.02125e-06;-0.004222773044858569
7.02150e-06;-0.004211975024836313
7.02175e-06;-0.004194777252409128
7.02200e-06;-0.004176688972318803
7.02225e-06;-0.0041586006922285385
7.02250e-06;-0.004140512412138275
7.02275e-06;-0.004122424132047949
7.02300e-06;-0.004104335851957686
7.02325e-06;-0.004086247571867422
7.02350e-06;-0.004065909616365111
7.02375e-06;-0.004045258624816016
7.02400e-06;-0.004024607633266852
7.02425e-06;-0.004003896550968375
7.02450e-06;-0.0039831771072100465
7.02475e-06;-0.003962457663451648
7.02500e-06;-0.003942624932962264
7.02525e-06;-0.003922915586146321
7.02550e-06;-0.00390320623933031
7.02575e-06;-0.0038850044753968326
7.02600e-06;-0.00386701248740848
7.02625e-06;-0.0038502754558867656
7.02650e-06;-0.0038347049541958703
7.02675e-06;-0.0038201881420352264
7.02700e-06;-0.0038057564338031483
7.02725e-06;-0.003789784684798815
7.02750e-06;-0.003771438852701383
7.02775e-06;-0.0037498799181364608
7.02800e-06;-0.003727915722952051
7.02825e-06;-0.003702118834851538
7.02850e-06;-0.0036757886382424386
7.02875e-06;-0.003649458441633339
7.02900e-06;-0.00361879820236831
7.02925e-06;-0.0035875354497682957
7.02950e-06;-0.0035497385776039267
7.02975e-06;-0.003511032500961918
7.03000e-06;-0.003472326424320041
7.03025e-06;-0.0034271282497870237
7.03050e-06;-0.003381026717974767
7.03075e-06;-0.0033349251861626663
7.03100e-06;-0.003286063879158928
7.03125e-06;-0.003232658450055176
7.03150e-06;-0.003179253020951606
7.03175e-06;-0.003125847591848035
7.03200e-06;-0.0030674868366175802
7.03225e-06;-0.0030084365616047295
7.03250e-06;-0.002949386286591679
7.03275e-06;-0.002888494863720127
7.03300e-06;-0.002827347250269242
7.03325e-06;-0.00276502725403423
7.03350e-06;-0.0027025441240113466
7.03375e-06;-0.0026396101089777714
7.03400e-06;-0.0025767519311809075
7.03425e-06;-0.0025143849731465297
7.03450e-06;-0.002452888368483312
7.03475e-06;-0.0023926123464460504
7.03500e-06;-0.0023337661846985695
7.03525e-06;-0.0022764591673161303
7.03550e-06;-0.002220921556526232
7.03575e-06;-0.0021675219925651468
7.03600e-06;-0.002116655212101913
7.03625e-06;-0.002068717260061225
7.03650e-06;-0.002024104385758576
7.03675e-06;-0.0019832255391480065
7.03700e-06;-0.001946519230566559
7.03725e-06;-0.001914357936753046
7.03750e-06;-0.0018869315958481281
7.03775e-06;-0.001864310240633015
7.03800e-06;-0.0018465445358553597
7.03825e-06;-0.0018336840006874069
7.03850e-06;-0.0018279816435088471
7.03875e-06;-0.0018231918515075997
7.03900e-06;-0.0018273314120115277
7.03925e-06;-0.0018327134669625697
7.03950e-06;-0.0018469012182848609
7.03975e-06;-0.0018623142576488338
7.04000e-06;-0.0018839923708072722
7.04025e-06;-0.0019105232636226887
7.04050e-06;-0.001941441852085921
7.04075e-06;-0.0019765861046465304
7.04100e-06;-0.0020158052099895187
7.04125e-06;-0.002058922316760833
7.04150e-06;-0.0021056892995807864
7.04175e-06;-0.0021558110399417245
7.04200e-06;-0.0022089841204584416
7.04225e-06;-0.00226490571909265
7.04250e-06;-0.002323272338446581
7.04275e-06;-0.0023837840463859935
7.04300e-06;-0.002446147963193068
7.04325e-06;-0.0025100553592359485
7.04350e-06;-0.0025751522508104347
7.04375e-06;-0.0026410549724663803
7.04400e-06;-0.0027073759465033455
7.04425e-06;-0.002773727101118589
7.04450e-06;-0.002839719898848755
7.04475e-06;-0.002904968402423759
7.04500e-06;-0.002969090927713041
7.04525e-06;-0.0030316957026575646
7.04550e-06;-0.003092363314340851
7.04575e-06;-0.0031506553802107947
7.04600e-06;-0.003206130771518877
7.04625e-06;-0.0032583484785852932
7.04650e-06;-0.0033068673157808557
7.04675e-06;-0.003351282859290717
7.04700e-06;-0.0033913979465713985
7.04725e-06;-0.0034272540645889377
7.04750e-06;-0.003458873553357052
7.04775e-06;-0.0034861687954250977
7.04800e-06;-0.0035070231357442884
7.04825e-06;-0.0035270549530017604
7.04850e-06;-0.003536807300567616
7.04875e-06;-0.0035451292886535214
7.04900e-06;-0.0035534512767394556
7.04925e-06;-0.003549893759703583
7.04950e-06;-0.0035446832427292354
7.04975e-06;-0.0035394727257549055
7.05000e-06;-0.003525101741938564
7.05025e-06;-0.00350945610476158
7.05050e-06;-0.003486862934564547
7.05075e-06;-0.0034633030345638557
7.05100e-06;-0.003433364930734888
7.05125e-06;-0.003402539317668334
7.05150e-06;-0.003366260162509107
7.05175e-06;-0.003329222162208455
7.05200e-06;-0.0032875283551719466
7.05225e-06;-0.0032451867056396285
7.05250e-06;-0.003198962968867156
7.05275e-06;-0.003152199050504598
7.05300e-06;-0.0031024789329793844
7.05325e-06;-0.0030523474686021687
7.05350e-06;-0.0030004084785712325
7.05375e-06;-0.002948217976396857
7.05400e-06;-0.002895288603273505
7.05425e-06;-0.0028422564183224978
7.05450e-06;-0.0027895389944395544
7.05475e-06;-0.002736865368679774
7.05500e-06;-0.0026851277483174105
7.05525e-06;-0.0026345756376299047
7.05550e-06;-0.002585550407748902
7.05575e-06;-0.0025384052665620616
7.05600e-06;-0.0024934898635073943
7.05625e-06;-0.002451153472991031
7.05650e-06;-0.0024117453409782945
7.05675e-06;-0.0023756451675898487
7.05700e-06;-0.002343344195466963
7.05725e-06;-0.002315335517449349
7.05750e-06;-0.002291871269539293
7.05775e-06;-0.002275041812361102
7.05800e-06;-0.0022590578722589422
7.05825e-06;-0.0022512420840729614
7.05850e-06;-0.002244562871398463
7.05875e-06;-0.0022483605013197054
7.05900e-06;-0.0022536159546082605
7.05925e-06;-0.0022588714078968157
7.05950e-06;-0.0022748079918901007
7.05975e-06;-0.0022922308253700415
7.06000e-06;-0.0023157078018513876
7.06025e-06;-0.0023438507248298227
7.06050e-06;-0.002376189377441233
7.06075e-06;-0.002412553336369695
7.06100e-06;-0.0024528169257528546
7.06125e-06;-0.002496854338930488
7.06150e-06;-0.002544445509663617
7.06175e-06;-0.0025952942178741624
7.06200e-06;-0.0026490911632222145
7.06225e-06;-0.0027055262437309297
7.06250e-06;-0.002764289533373464
7.06275e-06;-0.0028250784926136677
7.06300e-06;-0.002887617767727334
7.06325e-06;-0.0029516331926692494
7.06350e-06;-0.0030167905781419663
7.06375e-06;-0.0030827085961111214
7.06400e-06;-0.003148997449022599
7.06425e-06;-0.003215267117108159
7.06450e-06;-0.003281127404649602
7.06475e-06;-0.003346192788464707
7.06500e-06;-0.003410095568285282
7.06525e-06;-0.00347246777575769
7.06550e-06;-0.0035329042825485123
7.06575e-06;-0.003590970723007966
7.06600e-06;-0.003646227127232824
7.06625e-06;-0.0036982332124755523
7.06650e-06;-0.0037465491047698066
7.06675e-06;-0.003790886440245186
7.06700e-06;-0.0038316951348994384
7.06725e-06;-0.0038700311766656976
7.06750e-06;-0.003906437670269887
7.06775e-06;-0.0039408052808092816
7.06800e-06;-0.0039728963333493135
7.06825e-06;-0.0040024663557139215
7.06850e-06;-0.004029270875727385
7.06875e-06;-0.004053161075876252
7.06900e-06;-0.004074450289833483
7.06925e-06;-0.0040938307024487265
7.06950e-06;-0.004111673891914814
7.06975e-06;-0.004127942607045845
7.07000e-06;-0.004141717083082374
7.07025e-06;-0.0041551714346566015
7.07050e-06;-0.004165236905718083
7.07075e-06;-0.0041748308235274555
7.07100e-06;-0.004179468789471951
7.07125e-06;-0.009876993880224706
7.07150e-06;-0.02417015036179851
7.07175e-06;-0.020477579836962793
7.07200e-06;-0.017603226365058944
7.07225e-06;-0.011494330272478847
7.07250e-06;-0.0005750817602173679
7.07275e-06;-0.0013208309135640118
7.07300e-06;-0.0018453363870039447
7.07325e-06;-0.0045334127950136084
7.07350e-06;-0.018973088433489747
7.07375e-06;-0.01305408696371742
7.07400e-06;-0.009993065182322338
7.07425e-06;-0.00587322091849525
7.07450e-06;-0.0015241854989199552
7.07475e-06;-0.00012966821743737528
7.07500e-06;-0.001549101076409854
7.07525e-06;-0.004694124254759919
7.07550e-06;-0.008178189509461838
7.07575e-06;-0.008936795961706335
7.07600e-06;-0.007203420643652663
7.07625e-06;-0.00450518308676359
7.07650e-06;-0.0018233831460934178
7.07675e-06;-0.0009865275179439827
7.07700e-06;-0.0019075487819360457
7.07725e-06;-0.0039055010099938135
7.07750e-06;-0.006112537906386288
7.07775e-06;-0.006609729155133053
7.07800e-06;-0.005543962123004596
7.07825e-06;-0.0038723179371990823
7.07850e-06;-0.002209830202304898
7.07875e-06;-0.0017020794867806575
7.07900e-06;-0.002294632439725419
7.07925e-06;-0.003561030665385408
7.07950e-06;-0.004957751995882057
7.07975e-06;-0.005282926930381422
7.08000e-06;-0.004628739483061166
7.08025e-06;-0.003594826016464148
7.08050e-06;-0.002566504787597459
7.08075e-06;-0.00226136351930485
7.08100e-06;-0.0026452615806850295
7.08125e-06;-0.003451026457237376
7.08150e-06;-0.004338177737857747
7.08175e-06;-0.004553891551971889
7.08200e-06;-0.004155962949282613
7.08225e-06;-0.0035200313216249162
7.08250e-06;-0.0028874558253867383
7.08275e-06;-0.0027076944402213803
7.08300e-06;-0.0029593013333282688
7.08325e-06;-0.0034748670711754635
7.08350e-06;-0.004041077297724024
7.08375e-06;-0.004186356502602374
7.08400e-06;-0.003946919072013587
7.08425e-06;-0.00355806326977595
7.08450e-06;-0.0031709555374437163
7.08475e-06;-0.0030670949476116955
7.08500e-06;-0.003232994242208445
7.08525e-06;-0.00356373975957715
7.08550e-06;-0.003925674361590931
7.08575e-06;-0.004023384542459202
7.08600e-06;-0.003879548370155118
7.08625e-06;-0.0036415422417454563
7.08650e-06;-0.0034040310928004454
7.08675e-06;-0.0033431550745983483
7.08700e-06;-0.003449737502908669
7.08725e-06;-0.0036570209493579082
7.08750e-06;-0.003880737111626616
7.08775e-06;-0.00393586986080237
7.08800e-06;-0.003836807780301406
7.08825e-06;-0.0036760500641859466
7.08850e-06;-0.0035130699985659953
7.08875e-06;-0.003458369522462454
7.08900e-06;-0.0035063635588794017
7.08925e-06;-0.003615400450390445
7.08950e-06;-0.0037328639018761947
7.08975e-06;-0.003743037772802801
7.09000e-06;-0.0036551167513218805
7.09025e-06;-0.0035272207798952423
7.09050e-06;-0.0033967786186839986
7.09075e-06;-0.003333178448860024
7.09100e-06;-0.003333088091807525
7.09125e-06;-0.0033705850047716407
7.09150e-06;-0.003412881240048835
7.09175e-06;-0.0033876674490078123
7.09200e-06;-0.003300881707171109
7.09225e-06;-0.0031891069211182955
7.09250e-06;-0.00307596201417535
7.09275e-06;-0.0030050822208951286
7.09300e-06;-0.0029745493557126112
7.09325e-06;-0.0029682949961041287
7.09350e-06;-0.002965951619804221
7.09375e-06;-0.0029223995932074146
7.09400e-06;-0.002841534232508852
7.09425e-06;-0.0027464458760075704
7.09450e-06;-0.0026521027963079444
7.09475e-06;-0.002586009175717976
7.09500e-06;-0.002547133053648085
7.09525e-06;-0.0025255799128375707
7.09550e-06;-0.002508763278005536
7.09575e-06;-0.002468593191836525
7.09600e-06;-0.002407684399830307
7.09625e-06;-0.0023406745879466753
7.09650e-06;-0.0022771121802128928
7.09675e-06;-0.0022341869982040394
7.09700e-06;-0.002210439090412769
7.09725e-06;-0.00219828477756375
7.09750e-06;-0.002188966399665411
7.09775e-06;-0.0021647144688939266
7.09800e-06;-0.0021271782490063654
7.09825e-06;-0.002085544021845456
7.09850e-06;-0.002045809618093837
7.09875e-06;-0.002018758765762157
7.09900e-06;-0.0020034924207813602
7.09925e-06;-0.001995275626619412
7.09950e-06;-0.0019886389515886478
7.09975e-06;-0.0019724682579581355
7.10000e-06;-0.0019478142786713785
7.10025e-06;-0.0019204482499736017
7.10050e-06;-0.0018941437485397693
7.10075e-06;-0.0018756716463737787
7.10100e-06;-0.001864484701640986
7.10125e-06;-0.0018576331751654154
7.10150e-06;-0.0018517068863661188
7.10175e-06;-0.0018397608625898034
7.10200e-06;-0.0018224702079788575
7.10225e-06;-0.0018034668022461652
7.10250e-06;-0.0017851310197947393
7.10275e-06;-0.0017717203519798002
7.10300e-06;-0.0017629079362088975
7.10325e-06;-0.001756862135707073
7.10350e-06;-0.0017514632724495056
7.10375e-06;-0.0017423775098223842
7.10400e-06;-0.001730044424791103
7.10425e-06;-0.001716755822174835
7.10450e-06;-0.0017040190547299176
7.10475e-06;-0.0016945174075014813
7.10500e-06;-0.001688062069584336
7.10525e-06;-0.0016835220292011606
7.10550e-06;-0.0016785074610448363
7.10575e-06;-0.0016731799466720703
7.10600e-06;-0.0016657222855703336
7.10625e-06;-0.0016575386985579474
7.10650e-06;-0.0016499653605540781
7.10675e-06;-0.0016448862450429975
7.10700e-06;-0.0016430416918935516
7.10725e-06;-0.001644983053901733
7.10750e-06;-0.0016505669428885233
7.10775e-06;-0.001658097550674159
7.10800e-06;-0.001667576127817615
7.10825e-06;-0.001679724682934004
7.10850e-06;-0.0016949574752927782
7.10875e-06;-0.0017142669914137793
7.10900e-06;-0.001737929299387881
7.10925e-06;-0.0017661021348741874
7.10950e-06;-0.0017985079561281562
7.10975e-06;-0.0018338967311571407
7.11000e-06;-0.0018720817474847178
7.11025e-06;-0.001913327552449969
7.11050e-06;-0.00195770601016647
7.11075e-06;-0.0020056513055210154
7.11100e-06;-0.00205714834386933
7.11125e-06;-0.0021121083834793213
7.11150e-06;-0.002170169651718682
7.11175e-06;-0.0022303617981067267
7.11200e-06;-0.002292380254827202
7.11225e-06;-0.002356202777138054
7.11250e-06;-0.002421687000177071
7.11275e-06;-0.0024889169322213477
7.11300e-06;-0.002557695947928891
7.11325e-06;-0.0026277804605066807
7.11350e-06;-0.002698756662859152
7.11375e-06;-0.0027698286494870494
7.11400e-06;-0.0028406184129200138
7.11425e-06;-0.0029109245709611066
7.11450e-06;-0.002980470166796712
7.11475e-06;-0.003049120629743222
7.11500e-06;-0.0031165651082105997
7.11525e-06;-0.0031824635542626535
7.11550e-06;-0.003246369324981962
7.11575e-06;-0.0033075964561538845
7.11600e-06;-0.0033644237069920158
7.11625e-06;-0.0034199776806446264
7.11650e-06;-0.003471360394011788
7.11675e-06;-0.0035183642036070405
7.11700e-06;-0.0035605386363330646
7.11725e-06;-0.003601386677286343
7.11750e-06;-0.0036390227882342244
7.11775e-06;-0.0036731543396200128
7.11800e-06;-0.0037027087007914664
7.11825e-06;-0.0037309589741086604
7.11850e-06;-0.0037552629448665297
7.11875e-06;-0.003775551636702732
7.11900e-06;-0.0037924790119357307
7.11925e-06;-0.0038064852680509023
7.11950e-06;-0.0038178251536168154
7.11975e-06;-0.003826428272005002
7.12000e-06;-0.0038312414093923794
7.12025e-06;-0.0038349848604810463
7.12050e-06;-0.00383466344204003
7.12075e-06;-0.003832927107514981
7.12100e-06;-0.003827662606825941
7.12125e-06;-0.003821170007912309
7.12150e-06;-0.003811885256155032
7.12175e-06;-0.003801628600640792
7.12200e-06;-0.0037887649398316834
7.12225e-06;-0.00377499382216681
7.12250e-06;-0.0037588822805891763
7.12275e-06;-0.003741956074872149
7.12300e-06;-0.003723268204044822
7.12325e-06;-0.0037039671257624598
7.12350e-06;-0.003683608012140384
7.12375e-06;-0.0036628806133350636
7.12400e-06;-0.0036414536434973854
7.12425e-06;-0.003619783164169945
7.12450e-06;-0.003597822441879967
7.12475e-06;-0.003575760690655792
7.12500e-06;-0.0035540137938920953
7.12525e-06;-0.0035323764929313757
7.12550e-06;-0.0035117367780173746
7.12575e-06;-0.0034914443068543998
7.12600e-06;-0.0034740476849795063
7.12625e-06;-0.003457659061935556
7.12650e-06;-0.003441270438891661
7.12675e-06;-0.003424881815847711
7.12700e-06;-0.003408493192803816
7.12725e-06;-0.003395211717701234
7.12750e-06;-0.003383011791111982
7.12775e-06;-0.003370811864522771
7.12800e-06;-0.003359336849552818
7.12825e-06;-0.003350134983377335
7.12850e-06;-0.0033409331172018835
7.12875e-06;-0.003331731251026432
7.12900e-06;-0.0033245618710183718
7.12925e-06;-0.0033180999669446165
7.12950e-06;-0.0033116380628708617
7.12975e-06;-0.0033066080339482647
7.13000e-06;-0.003302076417869311
7.13025e-06;-0.0032975448017903575
7.13050e-06;-0.0032935529447246314
7.13075e-06;-0.0032912536423339864
7.13100e-06;-0.003288954339943334
7.13125e-06;-0.0032866550375526896
7.13150e-06;-0.003285381604898485
7.13175e-06;-0.003284465261095275
7.13200e-06;-0.0032835489172920677
7.13225e-06;-0.003283966982996312
7.13250e-06;-0.0032848495353121065
7.13275e-06;-0.003285732087627898
7.13300e-06;-0.003286614639943689
7.13325e-06;-0.0032874971922594834
7.13350e-06;-0.0032883797445752744
7.13375e-06;-0.003289262296891066
7.13400e-06;-0.003290400895213981
7.13425e-06;-0.0032923423923411966
7.13450e-06;-0.003294283889468412
7.13475e-06;-0.0032962253865956343
7.13500e-06;-0.0032981668837228496
7.13525e-06;-0.0033001083808500715
7.13550e-06;-0.0033020498779772873
7.13575e-06;-0.0033039913751045026
7.13600e-06;-0.0033058092678202164
7.13625e-06;-0.0033074939800140785
7.13650e-06;-0.0033090466191637437
7.13675e-06;-0.0033103894244861645
7.13700e-06;-0.003311216120477655
7.13725e-06;-0.0033106186225855283
7.13750e-06;-0.003309580547160794
7.13775e-06;-0.00330676560794621
7.13800e-06;-0.0033033321708595682
7.13825e-06;-0.0032979094051108237
7.13850e-06;-0.0032917941858654695
7.13875e-06;-0.0032856789666201153
7.13900e-06;-0.0032768497468309986
7.13925e-06;-0.0032670758268512675
7.13950e-06;-0.003257301906871503
7.13975e-06;-0.003244541906958731
7.14000e-06;-0.0032307425003706533
7.14025e-06;-0.003216943093782529
7.14050e-06;-0.00320072905457796
7.14075e-06;-0.0031836745203711724
7.14100e-06;-0.0031666199861643267
7.14125e-06;-0.0031472365997663523
7.14150e-06;-0.003127042577160536
7.14175e-06;-0.0031068485545546506
7.14200e-06;-0.003084863563323897
7.14225e-06;-0.0030622551645536045
7.14250e-06;-0.0030396467657832354
7.14275e-06;-0.003015990118701425
7.14300e-06;-0.0029919685931445823
7.14325e-06;-0.0029679470675876584
7.14350e-06;-0.0029433648604454735
7.14375e-06;-0.002918587489009032
7.14400e-06;-0.0028938101175726744
7.14425e-06;-0.0028692324015155116
7.14450e-06;-0.002844724182303135
