Time(s);Current(A)
2.25000e-06;-0.008518846532914987
2.25025e-06;-0.00856443213419512
2.25050e-06;-0.008610017735475253
2.25075e-06;-0.008655603336755309
2.25100e-06;-0.008701203634483016
2.25125e-06;-0.008746883299343186
2.25150e-06;-0.008792562964203277
2.25175e-06;-0.008838242629063447
2.25200e-06;-0.008883922293923615
2.25225e-06;-0.008929601958783784
2.25250e-06;-0.008974629062569071
2.25275e-06;-0.009016132056122948
2.25300e-06;-0.009055785973038305
2.25325e-06;-0.009085454081494918
2.25350e-06;-0.009115122189951584
2.25375e-06;-0.009144790298408248
2.25400e-06;-0.009174458406864863
2.25425e-06;-0.009204126515321527
2.25450e-06;-0.009233794623778192
2.25475e-06;-0.009263462732234856
2.25500e-06;-0.009293130840691471
2.25525e-06;-0.009320127671747136
2.25550e-06;-0.009332698456898724
2.25575e-06;-0.00934526924205029
2.25600e-06;-0.009357840027201877
2.25625e-06;-0.009370410812353465
2.25650e-06;-0.009382981597505053
2.25675e-06;-0.00939555238265662
2.25700e-06;-0.009408123167808207
2.25725e-06;-0.009420693952959795
2.25750e-06;-0.00943130956854037
2.25775e-06;-0.0094313664282344
2.25800e-06;-0.009431423287928429
2.25825e-06;-0.009431480147622457
2.25850e-06;-0.009431537007316486
2.25875e-06;-0.009431593867010516
2.25900e-06;-0.009431650726704545
2.25925e-06;-0.009431707586398575
2.25950e-06;-0.009431764446092603
2.25975e-06;-0.009431821305786632
2.26000e-06;-0.009427449558477732
2.26025e-06;-0.00942075795676214
2.26050e-06;-0.009414066355046548
2.26075e-06;-0.009407374753330956
2.26100e-06;-0.009400683151615376
2.26125e-06;-0.009393991549899785
2.26150e-06;-0.009387299948184194
2.26175e-06;-0.009380608346468613
2.26200e-06;-0.009373916744753021
2.26225e-06;-0.009367218602773633
2.26250e-06;-0.009360485140559172
2.26275e-06;-0.0093537516783447
2.26300e-06;-0.009347018216130227
2.26325e-06;-0.009340284753915755
2.26350e-06;-0.009333551291701294
2.26375e-06;-0.009326817829486822
2.26400e-06;-0.00932008436727235
2.26425e-06;-0.00931335090505789
2.26450e-06;-0.009306617442843416
2.26475e-06;-0.009300707418221178
2.26500e-06;-0.009299244310456456
2.26525e-06;-0.009297781202691738
2.26550e-06;-0.009296318094927017
2.26575e-06;-0.009294854987162295
2.26600e-06;-0.009293391879397577
2.26625e-06;-0.009291928771632856
2.26650e-06;-0.009290465663868134
2.26675e-06;-0.009289002556103416
2.26700e-06;-0.009287539448338695
2.26725e-06;-0.009287003949025598
2.26750e-06;-0.009291477933976663
2.26775e-06;-0.00929595191892772
2.26800e-06;-0.009300425903878785
2.26825e-06;-0.00930489988882985
2.26850e-06;-0.009309373873780908
2.26875e-06;-0.009313847858731973
2.26900e-06;-0.009318321843683038
2.26925e-06;-0.009322795828634102
2.26950e-06;-0.00932726981358516
2.26975e-06;-0.009331743798536225
2.27000e-06;-0.009338002867495232
2.27025e-06;-0.009345197023943265
2.27050e-06;-0.009352391180391313
2.27075e-06;-0.00935958533683936
2.27100e-06;-0.009366779493287394
2.27125e-06;-0.009373973649735442
2.27150e-06;-0.009381167806183489
2.27175e-06;-0.009388361962631535
2.27200e-06;-0.00939555611907957
2.27225e-06;-0.009402750275527616
2.27250e-06;-0.00940931841637723
2.27275e-06;-0.009412505803974552
2.27300e-06;-0.009415693191571881
2.27325e-06;-0.009418880579169208
2.27350e-06;-0.009422067966766536
2.27375e-06;-0.009425255354363858
2.27400e-06;-0.009428442741961186
2.27425e-06;-0.009431630129558515
2.27450e-06;-0.009434817517155837
2.27475e-06;-0.009438004904753165
2.27500e-06;-0.009441192292350492
2.27525e-06;-0.009444379679947814
2.27550e-06;-0.009447567067545144
2.27575e-06;-0.009450754455142471
2.27600e-06;-0.009453941842739799
2.27625e-06;-0.00945712923033712
2.27650e-06;-0.009460316617934448
2.27675e-06;-0.009463504005531777
2.27700e-06;-0.0094666913931291
2.27725e-06;-0.009469878780726427
2.27750e-06;-0.009473066168323755
2.27775e-06;-0.009476253555921082
2.27800e-06;-0.009479440943518406
2.27825e-06;-0.009482628331115734
2.27850e-06;-0.009485815718713061
2.27875e-06;-0.009489003106310383
2.27900e-06;-0.009490099139780139
2.27925e-06;-0.009490099651094494
2.27950e-06;-0.009490100162408848
2.27975e-06;-0.009490100673723204
2.28000e-06;-0.009490101185037559
2.28025e-06;-0.009490101696351913
2.28050e-06;-0.009490102207666268
2.28075e-06;-0.009490102718980622
2.28100e-06;-0.009490103230294977
2.28125e-06;-0.009490103741609331
2.28150e-06;-0.009490104252923686
2.28175e-06;-0.009490104764238042
2.28200e-06;-0.009490105275552396
2.28225e-06;-0.009490105786866751
2.28250e-06;-0.009490106298181105
2.28275e-06;-0.00949010680949546
2.28300e-06;-0.009490107320809814
2.28325e-06;-0.00949010783212417
2.28350e-06;-0.009490108343438525
2.28375e-06;-0.009490108854752878
2.28400e-06;-0.009490109366067234
2.28425e-06;-0.009490109877381588
2.28450e-06;-0.009490110388695943
2.28475e-06;-0.009490110900010297
2.28500e-06;-0.009490111411324652
2.28525e-06;-0.009490186925592555
2.28550e-06;-0.009490667488041057
2.28575e-06;-0.009491148050489558
2.28600e-06;-0.00949162861293806
2.28625e-06;-0.009492109175386561
2.28650e-06;-0.009492589737835063
2.28675e-06;-0.009493070300283565
2.28700e-06;-0.009493550862732066
2.28725e-06;-0.009494031425180566
2.28750e-06;-0.009494511987629068
2.28775e-06;-0.00949499255007757
2.28800e-06;-0.00949547311252607
2.28825e-06;-0.009495953674974572
2.28850e-06;-0.009496434237423074
2.28875e-06;-0.009496914799871576
2.28900e-06;-0.009497395362320075
2.28925e-06;-0.009498469588355369
2.28950e-06;-0.009499854795493123
2.28975e-06;-0.009501240002630876
2.29000e-06;-0.009502625209768628
2.29025e-06;-0.009504010416906383
2.29050e-06;-0.009505395624044137
2.29075e-06;-0.009506780831181888
2.29100e-06;-0.009508166038319643
2.29125e-06;-0.009509551245457397
2.29150e-06;-0.009510936452595148
2.29175e-06;-0.009512321659732903
2.29200e-06;-0.009513706866870657
2.29225e-06;-0.00951509207400841
2.29250e-06;-0.009516477281146163
2.29275e-06;-0.009517862488283917
2.29300e-06;-0.009519153353709855
2.29325e-06;-0.009519934733349958
2.29350e-06;-0.00952071611299006
2.29375e-06;-0.009521394835761251
2.29400e-06;-0.009521519167324962
2.29425e-06;-0.009521120610924907
2.29450e-06;-0.009517898234816734
2.29475e-06;-0.009513590649738531
2.29500e-06;-0.009503422469868896
2.29525e-06;-0.009493254289999245
2.29550e-06;-0.009481918445843179
2.29575e-06;-0.009464276712753126
2.29600e-06;-0.009446634979663042
2.29625e-06;-0.009427628174558484
2.29650e-06;-0.009401249393955119
2.29675e-06;-0.00937487061335171
2.29700e-06;-0.0093466425540141
2.29725e-06;-0.009308427594809904
2.29750e-06;-0.009270212635605771
2.29775e-06;-0.009231997676401574
2.29800e-06;-0.009193782717197377
2.29825e-06;-0.009153838597253817
2.29850e-06;-0.009104556266234177
2.29875e-06;-0.009055273935214537
2.29900e-06;-0.009005991604194897
2.29925e-06;-0.00895558634089813
2.29950e-06;-0.00889911676073954
2.29975e-06;-0.008842647180580948
2.30000e-06;-0.008786177600422452
2.30025e-06;-0.008729304049842459
2.30050e-06;-0.008670118945508086
2.30075e-06;-0.008610143640288516
2.30100e-06;-0.008549657530017967
2.30125e-06;-0.008489015157578708
2.30150e-06;-0.008428569785245279
2.30175e-06;-0.008368675810390564
2.30200e-06;-0.008309676396875274
2.30225e-06;-0.008251849749357984
2.30250e-06;-0.008195385188050729
2.30275e-06;-0.00814050716044319
2.30300e-06;-0.008087548992148766
2.30325e-06;-0.008036888945642135
2.30350e-06;-0.007988906069211243
2.30375e-06;-0.007943979556653179
2.30400e-06;-0.007902630531678872
2.30425e-06;-0.007865213715921185
2.30450e-06;-0.007828411168018941
2.30475e-06;-0.00779492593050993
2.30500e-06;-0.0077620296422240345
2.30525e-06;-0.0077323139328357784
2.30550e-06;-0.007703512119371828
2.30575e-06;-0.007679645736633874
2.30600e-06;-0.00765577935389596
2.30625e-06;-0.007632827740138594
2.30650e-06;-0.007614816271986389
2.30675e-06;-0.007596804803834214
2.30700e-06;-0.007579798532129345
2.30725e-06;-0.007568220753210167
2.30750e-06;-0.007556642974290989
2.30775e-06;-0.00754506519537183
2.30800e-06;-0.007533487416452651
2.30825e-06;-0.007521909637533472
2.30850e-06;-0.007514897025708073
2.30875e-06;-0.00751027580309283
2.30900e-06;-0.0075056545804775875
2.30925e-06;-0.007501033357862352
2.30950e-06;-0.0074964121352471096
2.30975e-06;-0.007492575611149092
2.31000e-06;-0.007492976796258157
2.31025e-06;-0.007493377981367222
2.31050e-06;-0.007493779166476287
2.31075e-06;-0.0074941803515853524
2.31100e-06;-0.0074945815366944165
2.31125e-06;-0.007494982721803482
2.31150e-06;-0.007496885506233536
2.31175e-06;-0.007499574879268235
2.31200e-06;-0.007502264252302928
2.31225e-06;-0.007504953625337626
2.31250e-06;-0.007507642998372325
2.31275e-06;-0.007510332371407019
2.31300e-06;-0.007512993269374992
2.31325e-06;-0.007515500389745857
2.31350e-06;-0.007517903495160262
2.31375e-06;-0.007519744875110706
2.31400e-06;-0.007521586255061151
2.31425e-06;-0.007523185871173657
2.31450e-06;-0.007523479858666376
2.31475e-06;-0.007523773846159097
2.31500e-06;-0.007523746476182007
2.31525e-06;-0.007521983637768691
2.31550e-06;-0.007520220799355372
2.31575e-06;-0.007518144485230426
2.31600e-06;-0.007514375267550535
2.31625e-06;-0.007510606049870637
2.31650e-06;-0.007506372812472658
2.31675e-06;-0.007499633669190482
2.31700e-06;-0.007492894525908319
2.31725e-06;-0.007486155382626144
2.31750e-06;-0.007479416239343968
2.31775e-06;-0.007472179439424964
2.31800e-06;-0.0074622550798053465
2.31825e-06;-0.007452330720185729
2.31850e-06;-0.007442406360566112
2.31875e-06;-0.007432482000946511
2.31900e-06;-0.0074222367494871195
2.31925e-06;-0.0074102585441937025
2.31950e-06;-0.0073982803389003055
2.31975e-06;-0.007386171684446069
2.32000e-06;-0.007373358548464509
2.32025e-06;-0.007360472257641252
2.32050e-06;-0.007347190899235304
2.32075e-06;-0.0073338662154109144
2.32100e-06;-0.007320307555708375
2.32125e-06;-0.007306743730422804
2.32150e-06;-0.00729316350401003
2.32175e-06;-0.007279668201812435
2.32200e-06;-0.007266329084651732
2.32225e-06;-0.007253207910992893
2.32250e-06;-0.0072403560927084745
2.32275e-06;-0.007227831196999251
2.32300e-06;-0.0072157060997785445
2.32325e-06;-0.007204059890710463
2.32350e-06;-0.007192971266552586
2.32375e-06;-0.007182518996817172
2.32400e-06;-0.007172782534941795
2.32425e-06;-0.007163842323952937
2.32450e-06;-0.007155770861814701
2.32475e-06;-0.007148610422129029
2.32500e-06;-0.00714237893293366
2.32525e-06;-0.007137163045847109
2.32550e-06;-0.007133154167824684
2.32575e-06;-0.007129449295278236
2.32600e-06;-0.007127386182944818
2.32625e-06;-0.00712570834307714
2.32650e-06;-0.007126111140090661
2.32675e-06;-0.007126513937104183
2.32700e-06;-0.0071274851519668924
2.32725e-06;-0.007131526067485886
2.32750e-06;-0.007135566983004887
2.32775e-06;-0.007139607898523887
2.32800e-06;-0.007143648814042881
2.32825e-06;-0.0071482815744215375
2.32850e-06;-0.007156110551380527
2.32875e-06;-0.007163939528339504
2.32900e-06;-0.007171768505298494
2.32925e-06;-0.007179597482257484
2.32950e-06;-0.007187765743442084
2.32975e-06;-0.007197766285248288
2.33000e-06;-0.007207766827054509
2.33025e-06;-0.007217920541736667
2.33050e-06;-0.007228901455773081
2.33075e-06;-0.007239882369809514
2.33100e-06;-0.007250918965436059
2.33125e-06;-0.007262256265577712
2.33150e-06;-0.007273593565719345
2.33175e-06;-0.007284882459739977
2.33200e-06;-0.00729590993990514
2.33225e-06;-0.007306937420070285
2.33250e-06;-0.0073177676198281525
2.33275e-06;-0.007327532420607674
2.33300e-06;-0.007337297221387179
2.33325e-06;-0.0073470620221667005
2.33350e-06;-0.0073565991189523455
2.33375e-06;-0.007364789163001477
2.33400e-06;-0.00737226650987097
2.33425e-06;-0.007379462916955821
2.33450e-06;-0.007387444351420276
2.33475e-06;-0.0073958109855957336
2.33500e-06;-0.007406257863745839
2.33525e-06;-0.007417025517328161
2.33550e-06;-0.007429525496094006
2.33575e-06;-0.007442361928927935
2.33600e-06;-0.007457015358316935
2.33625e-06;-0.007471668787705935
2.33650e-06;-0.007487269588995526
2.33675e-06;-0.007507986605670779
2.33700e-06;-0.007528703622346031
2.33725e-06;-0.0075494206390212485
2.33750e-06;-0.007570137655696501
2.33775e-06;-0.007590854672371753
2.33800e-06;-0.007615851494998977
2.33825e-06;-0.007643090225001468
2.33850e-06;-0.007670328955004005
2.33875e-06;-0.007697567685006543
2.33900e-06;-0.007724806415009034
2.33925e-06;-0.007752774161260111
2.33950e-06;-0.0077846789085398976
2.33975e-06;-0.007816583655819683
2.34000e-06;-0.007848488403099416
2.34025e-06;-0.007880393150379203
2.34050e-06;-0.00791229789765899
2.34075e-06;-0.007944202644938721
2.34100e-06;-0.007976126714614284
2.34125e-06;-0.008008060906015475
2.34150e-06;-0.008039995097416614
2.34175e-06;-0.008071929288817807
2.34200e-06;-0.008103863480219
2.34225e-06;-0.008135797671620192
2.34250e-06;-0.008167146467585304
2.34275e-06;-0.008195333876628616
2.34300e-06;-0.008223521285671928
2.34325e-06;-0.008250999190969527
2.34350e-06;-0.008274645471139014
2.34375e-06;-0.0082982917513085
2.34400e-06;-0.008320996100746459
2.34425e-06;-0.008338613619449571
2.34450e-06;-0.008356231138152714
2.34475e-06;-0.008372890138054812
2.34500e-06;-0.008384372724518084
2.34525e-06;-0.008395855310981377
2.34550e-06;-0.008405719280929619
2.34575e-06;-0.008406842026113416
2.34600e-06;-0.008407964771297214
2.34625e-06;-0.008409087516481013
2.34650e-06;-0.008410210261664813
2.34675e-06;-0.008411333006848608
2.34700e-06;-0.008412455752032408
2.34725e-06;-0.008405220785329291
2.34750e-06;-0.008393607765945435
2.34775e-06;-0.00838199474656156
2.34800e-06;-0.008370381727177684
2.34825e-06;-0.008358768707793809
2.34850e-06;-0.008347155688409954
2.34875e-06;-0.00833417442090542
2.34900e-06;-0.008313804025559295
2.34925e-06;-0.008293433630213204
2.34950e-06;-0.00827306323486708
2.34975e-06;-0.008252692839520955
2.35000e-06;-0.008232322444174866
2.35025e-06;-0.008209123328728253
2.35050e-06;-0.00818444243384406
2.35075e-06;-0.008159761538959868
2.35100e-06;-0.008135080644075718
2.35125e-06;-0.008110399749191526
2.35150e-06;-0.00808561123689137
2.35175e-06;-0.0080602415442976
2.35200e-06;-0.008034955010315481
2.35225e-06;-0.00801011756857306
2.35250e-06;-0.007985470162083261
2.35275e-06;-0.007961849027623329
2.35300e-06;-0.007938520949058283
2.35325e-06;-0.007916775498263586
2.35350e-06;-0.00789542234076223
2.35375e-06;-0.007876187735628697
2.35400e-06;-0.007857464886990916
2.35425e-06;-0.007841505743352331
2.35450e-06;-0.007826189823935913
2.35475e-06;-0.00781434759173839
2.35500e-06;-0.007803180814091124
2.35525e-06;-0.007795661781284972
2.35550e-06;-0.007788994681657612
2.35575e-06;-0.007786928387305397
2.35600e-06;-0.007784862092953186
2.35625e-06;-0.007784288266283091
2.35650e-06;-0.0077917744064692285
2.35675e-06;-0.0077992605466553665
2.35700e-06;-0.0078067466868414915
2.35725e-06;-0.00781423282702763
2.35750e-06;-0.007821718967213766
2.35775e-06;-0.007836349470277714
2.35800e-06;-0.00785472243269836
2.35825e-06;-0.007873095395119004
2.35850e-06;-0.007891468357539618
2.35875e-06;-0.007909841319960264
2.35900e-06;-0.007929518095284022
2.35925e-06;-0.00795623602058499
2.35950e-06;-0.007982953945885914
2.35975e-06;-0.00800967187118688
2.36000e-06;-0.00803638979648785
2.36025e-06;-0.008063107721788773
2.36050e-06;-0.008089825647089741
2.36075e-06;-0.00811860387572934
2.36100e-06;-0.00814846136106953
2.36125e-06;-0.008178318846409667
2.36150e-06;-0.008208176331749854
2.36175e-06;-0.008238033817090042
2.36200e-06;-0.00826789130243018
2.36225e-06;-0.008297424316773038
2.36250e-06;-0.008325205048292102
2.36275e-06;-0.008352985779811117
2.36300e-06;-0.008380187917525104
2.36325e-06;-0.008404265400046637
2.36350e-06;-0.008428342882568171
2.36375e-06;-0.008451576507681614
2.36400e-06;-0.008470252940152096
2.36425e-06;-0.008488929372622576
2.36450e-06;-0.008506123507949902
2.36475e-06;-0.008515312601701474
2.36500e-06;-0.008524501695453044
2.36525e-06;-0.008533690789204617
2.36550e-06;-0.008542879882956171
2.36575e-06;-0.008552068976707742
2.36600e-06;-0.008561258070459314
2.36625e-06;-0.008568382365296426
2.36650e-06;-0.008564355858668115
2.36675e-06;-0.008560329352039805
2.36700e-06;-0.008556302845411501
2.36725e-06;-0.00855227633878319
2.36750e-06;-0.008548249832154879
2.36775e-06;-0.008544223325526568
2.36800e-06;-0.008538569090191569
2.36825e-06;-0.008524124420339677
2.36850e-06;-0.008509679750487786
2.36875e-06;-0.008495235080635918
2.36900e-06;-0.008480790410784027
2.36925e-06;-0.008466345740932135
2.36950e-06;-0.008451901071080242
2.36975e-06;-0.008433543686604926
2.37000e-06;-0.008413136689630351
2.37025e-06;-0.008392729692655775
2.37050e-06;-0.008372322695681233
2.37075e-06;-0.008351915698706658
2.37100e-06;-0.008331508701732082
2.37125e-06;-0.008310875948817232
2.37150e-06;-0.00828902401680817
2.37175e-06;-0.00826717208479911
2.37200e-06;-0.008245420263244705
2.37225e-06;-0.008224209081167016
2.37250e-06;-0.00820299789908929
2.37275e-06;-0.008182025400900789
2.37300e-06;-0.008162341898286324
2.37325e-06;-0.00814295050575572
2.37350e-06;-0.008125136633209762
2.37375e-06;-0.0081078132970413
2.37400e-06;-0.008093139068114825
2.37425e-06;-0.008078464839188325
2.37450e-06;-0.008064517963158137
2.37475e-06;-0.0080544991053413
2.37500e-06;-0.008044480247524443
2.37525e-06;-0.008035707953657108
2.37550e-06;-0.008033667640816722
2.37575e-06;-0.008031627327976333
2.37600e-06;-0.008029587015135944
2.37625e-06;-0.008027546702295555
2.37650e-06;-0.00802550638945517
2.37675e-06;-0.008023466076614779
2.37700e-06;-0.00802831882865893
2.37725e-06;-0.008036782401656234
2.37750e-06;-0.008045245974653552
2.37775e-06;-0.00805370954765087
2.37800e-06;-0.00806217312064819
2.37825e-06;-0.008070636693645494
2.37850e-06;-0.008080396030885414
2.37875e-06;-0.008097153051878307
2.37900e-06;-0.00811391007287117
2.37925e-06;-0.008130667093864062
2.37950e-06;-0.008147424114856954
2.37975e-06;-0.008164181135849819
2.38000e-06;-0.00818093815684271
2.38025e-06;-0.008198294572553177
2.38050e-06;-0.008218887977323074
2.38075e-06;-0.008239481382092937
2.38100e-06;-0.008260074786862835
2.38125e-06;-0.008280668191632732
2.38150e-06;-0.008301261596402595
2.38175e-06;-0.008321855001172492
2.38200e-06;-0.008342338497856037
2.38225e-06;-0.008362228443641241
2.38250e-06;-0.008382118389426412
2.38275e-06;-0.008401665321095694
2.38300e-06;-0.008419359829131673
2.38325e-06;-0.00843705433716762
2.38350e-06;-0.008454192223315265
2.38375e-06;-0.00846832411206248
2.38400e-06;-0.008482456000809671
2.38425e-06;-0.008495681366108577
2.38450e-06;-0.008504011115215943
2.38475e-06;-0.008512340864323308
2.38500e-06;-0.008519562559488623
2.38525e-06;-0.008520800287190287
2.38550e-06;-0.008522038014891951
2.38575e-06;-0.008521663723521944
2.38600e-06;-0.008512583836413574
2.38625e-06;-0.008503503949305203
2.38650e-06;-0.008494424062196833
2.38675e-06;-0.008485344175088477
2.38700e-06;-0.008476264287980107
2.38725e-06;-0.008458697240473429
2.38750e-06;-0.008436684330768466
2.38775e-06;-0.008414671421063467
2.38800e-06;-0.008392658511358468
2.38825e-06;-0.008370645601653508
2.38850e-06;-0.008347086914038682
2.38875e-06;-0.0083151803614259
2.38900e-06;-0.008283273808813118
2.38925e-06;-0.00825136725620039
2.38950e-06;-0.00821946070358761
2.38975e-06;-0.008186672567834568
2.39000e-06;-0.008149123504271284
2.39025e-06;-0.008111574440707937
2.39050e-06;-0.00807402537714459
2.39075e-06;-0.008036476313581307
2.39100e-06;-0.007998677410409504
2.39125e-06;-0.007959529265985543
2.39150e-06;-0.007920435469315663
2.39175e-06;-0.007881635173873386
2.39200e-06;-0.007842959579971198
2.39225e-06;-0.007805079510346583
2.39250e-06;-0.007768011159068226
2.39275e-06;-0.0077319542362493145
2.39300e-06;-0.007697511263843488
2.39325e-06;-0.007666292932004138
2.39350e-06;-0.007635074600164842
2.39375e-06;-0.007603856268325492
2.39400e-06;-0.007576704666117974
2.39425e-06;-0.0075516833546901444
2.39450e-06;-0.007526662043262273
2.39475e-06;-0.007502416735812751
2.39500e-06;-0.007482362183327825
2.39525e-06;-0.007462307630842866
2.39550e-06;-0.007442253078357907
2.39575e-06;-0.007422198525872948
2.39600e-06;-0.007402143973388023
2.39625e-06;-0.007382089420903064
2.39650e-06;-0.007362034868418105
2.39675e-06;-0.0073419803159331795
2.39700e-06;-0.00732505614366383
