Time(s);Current(A)
6.50000e-06;-0.0006184477702216469
6.50025e-06;-0.0006146710654386974
6.50050e-06;-0.0006108943606557352
6.50075e-06;-0.0006071176558727856
6.50100e-06;-0.0006033409510898361
6.50125e-06;-0.0006002436064708814
6.50150e-06;-0.0006013077395251478
6.50175e-06;-0.0006023718725794141
6.50200e-06;-0.0006039952105036577
6.50225e-06;-0.0006090440047680972
6.50250e-06;-0.0006140927990325366
6.50275e-06;-0.0006191415932969933
6.50300e-06;-0.0006241903875614328
6.50325e-06;-0.0006292391818258894
6.50350e-06;-0.0006342879760903289
6.50375e-06;-0.0006393367703547684
6.50400e-06;-0.0006449273743128441
6.50425e-06;-0.0006538368789988607
6.50450e-06;-0.0006627463836848772
6.50475e-06;-0.000671655888370924
6.50500e-06;-0.0006805653930569406
6.50525e-06;-0.0006894748977429572
6.50550e-06;-0.000698384402429004
6.50575e-06;-0.0007072939071150206
6.50600e-06;-0.0007163191189446434
6.50625e-06;-0.0007260531045885102
6.50650e-06;-0.0007357870902323441
6.50675e-06;-0.0007455210758761779
6.50700e-06;-0.0007552550615200448
6.50725e-06;-0.0007648214881876537
6.50750e-06;-0.0007733615182908594
6.50775e-06;-0.0007819015483940362
6.50800e-06;-0.000790441578497213
6.50825e-06;-0.0007989816086004188
6.50850e-06;-0.0008072924410275252
6.50875e-06;-0.0008141993038638563
6.50900e-06;-0.0008211061667002109
6.50925e-06;-0.0008284629903026827
6.50950e-06;-0.0008385760863225568
6.50975e-06;-0.000848689182342465
6.51000e-06;-0.0008594339002228083
6.51025e-06;-0.0008740476707921725
6.51050e-06;-0.0008886614413615863
6.51075e-06;-0.0009038580931245931
6.51100e-06;-0.0009226252325333305
6.51125e-06;-0.0009413923719421315
6.51150e-06;-0.0009610203749991263
6.51175e-06;-0.000985921670545653
6.51200e-06;-0.0010108229660920952
6.51225e-06;-0.0010364178304359637
6.51250e-06;-0.0010662612086272578
6.51275e-06;-0.0010961045868184507
6.51300e-06;-0.0011265718836664584
6.51325e-06;-0.0011608610465830163
6.51350e-06;-0.0011951502094994582
6.51375e-06;-0.0012302111535412677
6.51400e-06;-0.0012699997076057693
6.51425e-06;-0.0013097882616701362
6.51450e-06;-0.0013495768157345028
6.51475e-06;-0.0013893653697990044
6.51500e-06;-0.001429153923863371
6.51525e-06;-0.0014689424779277377
6.51550e-06;-0.0015098899019845883
6.51575e-06;-0.0015514882307320057
6.51600e-06;-0.0015930865594795643
6.51625e-06;-0.0016346848882269817
6.51650e-06;-0.0016762832169743994
6.51675e-06;-0.0017178815457219577
6.51700e-06;-0.0017590029088183038
6.51725e-06;-0.001797202578810234
6.51750e-06;-0.0018354022488022937
6.51775e-06;-0.001873095326274365
6.51800e-06;-0.001907685228772193
6.51825e-06;-0.0019416959614466719
6.51850e-06;-0.001972158940785735
6.51875e-06;-0.002001791950979469
6.51900e-06;-0.0020263409155544853
6.51925e-06;-0.0020494922101934824
6.51950e-06;-0.002064081960401443
6.51975e-06;-0.0020771044558281276
6.52000e-06;-0.002080526600628552
6.52025e-06;-0.0020824354212424737
6.52050e-06;-0.002075074247612713
6.52075e-06;-0.002066193574163341
6.52100e-06;-0.002048005077111683
6.52125e-06;-0.0020280924347902424
6.52150e-06;-0.0019976183959956057
6.52175e-06;-0.0019654649934397624
6.52200e-06;-0.001923024507299213
6.52225e-06;-0.0018790894199232125
6.52250e-06;-0.001825999027311112
6.52275e-06;-0.0017715611376975893
6.52300e-06;-0.0017088690421720265
6.52325e-06;-0.0016451715764506892
6.52350e-06;-0.001574676959707533
6.52375e-06;-0.0014996969165195365
6.52400e-06;-0.0014206993955215607
6.52425e-06;-0.0013381606517957453
6.52450e-06;-0.0012525569567607745
6.52475e-06;-0.0011643579671384821
6.52500e-06;-0.0010739703642852303
6.52525e-06;-0.000981660670367775
6.52550e-06;-0.0008876839817809197
6.52575e-06;-0.0007924831541041837
6.52600e-06;-0.0006966199759546303
6.52625e-06;-0.0006006613981190353
6.52650e-06;-0.0005051744214220323
6.52675e-06;-0.0004107218519956765
6.52700e-06;-0.0003178270671915443
6.52725e-06;-0.00022692539144918188
6.52750e-06;-0.00013844528459126197
6.52775e-06;-5.293252593091016e-05
6.52800e-06;2.899252768542032e-05
6.52825e-06;0.00010670630620187443
6.52850e-06;0.00017958530708765574
6.52875e-06;0.00024705947849878806
6.52900e-06;0.00030907828319983013
6.52925e-06;0.0003668727291211803
6.52950e-06;0.00042212304150206356
6.52975e-06;0.00047533470438014823
6.53000e-06;0.0005261647582387795
6.53025e-06;0.0005742304632011246
6.53050e-06;0.0006191489782863364
6.53075e-06;0.000660367336512473
6.53100e-06;0.0006972246602336491
6.53125e-06;0.0007335409666367886
6.53150e-06;0.0007665432260793713
6.53175e-06;0.0007991136935879651
6.53200e-06;0.0008290391833861533
6.53225e-06;0.000858404651090748
6.53250e-06;0.0008843396564874405
6.53275e-06;0.0009095685702745704
6.53300e-06;0.0009304722606823148
6.53325e-06;0.0009513759510899883
6.53350e-06;0.000971826516672218
6.53375e-06;0.0009895014281290813
6.53400e-06;0.0010071763395858848
6.53425e-06;0.0010243311418370509
6.53450e-06;0.0010382999715235412
6.53475e-06;0.0010522688012099843
6.53500e-06;0.001065637373769764
6.53525e-06;0.0010753290209520846
6.53550e-06;0.0010850206681343724
6.53575e-06;0.0010947123153166602
6.53600e-06;0.001104403962498981
6.53625e-06;0.0011140956096812689
6.53650e-06;0.0011237872568635567
6.53675e-06;0.0011311049224880475
6.53700e-06;0.0011370891894213894
6.53725e-06;0.0011430734563547516
6.53750e-06;0.0011490577232880935
6.53775e-06;0.0011550419902214353
6.53800e-06;0.0011610262571547974
6.53825e-06;0.0011668137131711476
6.53850e-06;0.0011713955874076121
6.53875e-06;0.001175787737917491
6.53900e-06;0.0011790177198266864
6.53925e-06;0.001182247701735882
6.53950e-06;0.0011850921422470444
6.53975e-06;0.0011855749165866607
6.54000e-06;0.001186057690926277
6.54025e-06;0.001186151040952144
6.54050e-06;0.0011838589396806934
6.54075e-06;0.0011815668384092429
6.54100e-06;0.0011786070637302547
6.54125e-06;0.0011715573995916553
6.54150e-06;0.0011645077354530318
6.54175e-06;0.0011574580713144323
6.54200e-06;0.0011504084071758327
6.54225e-06;0.0011433587430372094
6.54250e-06;0.0011363090788986097
6.54275e-06;0.0011255956501685003
6.54300e-06;0.0011128243878826525
6.54325e-06;0.0011000531255968482
6.54350e-06;0.0010872818633110438
6.54375e-06;0.001074510601025196
6.54400e-06;0.0010617393387393917
6.54425e-06;0.00104846226772174
6.54450e-06;0.0010320868228922205
6.54475e-06;0.0010157113780627565
6.54500e-06;0.0009993359332332926
6.54525e-06;0.000982960488403773
6.54550e-06;0.0009665850435743091
6.54575e-06;0.0009502095987447897
6.54600e-06;0.0009338225926913755
6.54625e-06;0.0009173647673909588
6.54650e-06;0.0009009069420904862
6.54675e-06;0.0008844491167900694
6.54700e-06;0.0008679912914896527
6.54725e-06;0.0008515334661891802
6.54750e-06;0.0008350756408887633
6.54775e-06;0.00081891027826137
6.54800e-06;0.0008045364202676887
6.54825e-06;0.0007903314037563321
6.54850e-06;0.000777293816290345
6.54875e-06;0.0007651447594235269
6.54900e-06;0.000753441323393452
6.54925e-06;0.000741204900001938
6.54950e-06;0.00072570361782402
6.54975e-06;0.0007094815551241128
6.55000e-06;0.0006888442908816471
6.55025e-06;0.0006676188670212005
6.55050e-06;0.0006427906220892047
6.55075e-06;0.0006174105157211957
6.55100e-06;0.0005886499358408687
6.55125e-06;0.000559258698020757
6.55150e-06;0.0005255127120945926
6.55175e-06;0.0004883058014112914
6.55200e-06;0.00044794065268334885
6.55225e-06;0.00040474030209102754
6.55250e-06;0.00035902768573737535
6.55275e-06;0.0003111091529220625
6.55300e-06;0.0002611318057654623
6.55325e-06;0.0002088648774307086
6.55350e-06;0.00015398505703974357
6.55375e-06;9.657654607590313e-05
6.55400e-06;3.7001029670506266e-05
6.55425e-06;-2.4367171888878625e-05
6.55450e-06;-8.715376320503969e-05
6.55475e-06;-0.0001510477701222153
6.55500e-06;-0.0002159503597788478
6.55525e-06;-0.00028109016263690287
6.55550e-06;-0.00034768303485730487
6.55575e-06;-0.00041427590707793243
6.55600e-06;-0.0004807930515504217
6.55625e-06;-0.0005468463193516022
6.55650e-06;-0.0006128995871530064
6.55675e-06;-0.0006784194836577439
6.55700e-06;-0.0007406721695510709
6.55725e-06;-0.0008029248554446089
6.55750e-06;-0.0008645027921550479
6.55775e-06;-0.000921947496153092
6.55800e-06;-0.0009786003671730672
6.55825e-06;-0.0010304027988719557
6.55850e-06;-0.0010811901394702826
6.55875e-06;-0.00112575945439342
6.55900e-06;-0.0011694498934036847
6.55925e-06;-0.001207756704296933
6.55950e-06;-0.0012455186135944458
6.55975e-06;-0.0012799426824663313
6.56000e-06;-0.0013135516521796476
6.56025e-06;-0.0013421676636328193
6.56050e-06;-0.0013707836750859908
6.56075e-06;-0.0013983316124274408
6.56100e-06;-0.0014193369722161765
6.56125e-06;-0.0014403423320049123
6.56150e-06;-0.0014606577635689578
6.56175e-06;-0.0014767469819271567
6.56200e-06;-0.0014928362002853553
6.56225e-06;-0.0015076458241325024
6.56250e-06;-0.001514617184481107
6.56275e-06;-0.0015215885448297355
6.56300e-06;-0.0015285599051783401
6.56325e-06;-0.0015355312655269448
6.56350e-06;-0.0015425026258755732
6.56375e-06;-0.0015494739862241778
6.56400e-06;-0.0015564453465727825
6.56425e-06;-0.001563416706921411
6.56450e-06;-0.0015650204538149078
6.56475e-06;-0.0015636093631551634
6.56500e-06;-0.0015621982724954144
6.56525e-06;-0.0015607871818356701
6.56550e-06;-0.0015593760911759257
6.56575e-06;-0.0015579650005161766
6.56600e-06;-0.0015565539098564322
6.56625e-06;-0.001555142819196688
6.56650e-06;-0.0015533384064911292
6.56675e-06;-0.001549124666606112
6.56700e-06;-0.0015449109267210803
6.56725e-06;-0.001540697186836063
6.56750e-06;-0.0015365050330760255
6.56775e-06;-0.0015324451069349584
6.56800e-06;-0.001528385180793905
6.56825e-06;-0.0015243252546528515
6.56850e-06;-0.0015203517873752833
6.56875e-06;-0.001516907931117338
6.56900e-06;-0.0015130770222279975
6.56925e-06;-0.0015068751899831828
6.56950e-06;-0.0015006733577383894
6.56975e-06;-0.001493582239772041
6.57000e-06;-0.0014810437275346285
6.57025e-06;-0.0014685052152972585
6.57050e-06;-0.0014551951628086954
6.57075e-06;-0.0014371589758030946
6.57100e-06;-0.0014191227887975547
6.57125e-06;-0.001400050892571776
6.57150e-06;-0.0013746346726543396
6.57175e-06;-0.001349218452736903
6.57200e-06;-0.0013228072206946048
6.57225e-06;-0.0012903009584319426
6.57250e-06;-0.0012577946961692804
6.57275e-06;-0.0012244881829517613
6.57300e-06;-0.0011862796653953722
6.57325e-06;-0.001148071147838983
6.57350e-06;-0.00110905146577501
6.57375e-06;-0.0010650629274899135
6.57400e-06;-0.001021074389204817
6.57425e-06;-0.0009765666266694619
6.57450e-06;-0.0009288783124439372
6.57475e-06;-0.0008811899982184125
6.57500e-06;-0.0008333428238850346
6.57525e-06;-0.0007950335335605964
6.57550e-06;-0.006278839252544441
6.57575e-06;-0.0272588130613168
6.57600e-06;-0.02068256780100939
6.57625e-06;-0.015664727818344583
6.57650e-06;-0.008051459478444038
6.57675e-06;0.007892390582309292
6.57700e-06;0.006436169163782064
6.57725e-06;0.004459827970749479
6.57750e-06;-0.0010309242050673285
6.57775e-06;-0.007137716831096232
6.57800e-06;-0.009029043644706535
6.57825e-06;-0.006867046352243368
6.57850e-06;-0.0020000611845228497
6.57875e-06;0.002911716311562157
6.57900e-06;0.004970228770091106
6.57925e-06;0.004037162462176455
6.57950e-06;0.00041689061634829364
6.57975e-06;-0.003527395822212431
6.58000e-06;-0.0048078964317814984
6.58025e-06;-0.0035326470661309547
6.58050e-06;-0.0005510824570835976
6.58075e-06;0.002466925227808925
6.58100e-06;0.0037035637363215233
6.58125e-06;0.0030704836311514646
6.58150e-06;0.0007571370264312218
6.58175e-06;-0.0017570785113785814
6.58200e-06;-0.0026013757491381625
6.58225e-06;-0.0018440621702939298
6.58250e-06;-1.7666630207364975e-05
6.58275e-06;0.0018315554218355126
6.58300e-06;0.002564870550626715
6.58325e-06;0.00212700229715813
6.58350e-06;0.0006367378112844076
6.58375e-06;-0.0009791241931021329
6.58400e-06;-0.0015486859843777622
6.58425e-06;-0.0011147253363445447
6.58450e-06;-1.0774004608324317e-05
6.58475e-06;0.0011078964390223373
6.58500e-06;0.0015281581600275283
6.58525e-06;0.0012156007169595903
6.58550e-06;0.0002448502276177544
6.58575e-06;-0.0008033558039620146
6.58600e-06;-0.0011948069802663055
6.58625e-06;-0.0009561942138696297
6.58650e-06;-0.0002963238537600603
6.58675e-06;0.0003744898555081426
6.58700e-06;0.0006097320559085693
6.58725e-06;0.00038805730197179254
6.58750e-06;-0.00024357986719941412
6.58775e-06;-0.0009212158318983308
6.58800e-06;-0.001184789023844863
6.58825e-06;-0.0010508855135307115
6.58850e-06;-0.0006501613107450851
6.58875e-06;-0.0002394877627506201
6.58900e-06;-9.865086172659308e-05
6.58925e-06;-0.00024161552091900358
6.58950e-06;-0.0006396874221869732
6.58975e-06;-0.001065254901244426
6.59000e-06;-0.0012302660986950977
6.59025e-06;-0.001145199001486469
6.59050e-06;-0.0008919805698284022
6.59075e-06;-0.0006315878299042652
6.59100e-06;-0.0005393360441733961
6.59125e-06;-0.0006240220858892995
6.59150e-06;-0.0008677215688285419
6.59175e-06;-0.0011279158872646168
6.59200e-06;-0.0012242415840189324
6.59225e-06;-0.0011633415075837361
6.59250e-06;-0.000996611754109619
6.59275e-06;-0.0008249581057028478
6.59300e-06;-0.0007582582021996395
6.59325e-06;-0.0008020775532307249
6.59350e-06;-0.0009452436549867739
6.59375e-06;-0.0010985430301971727
6.59400e-06;-0.001149065344727555
6.59425e-06;-0.0011010458395907822
6.59450e-06;-0.0009867513250770518
6.59475e-06;-0.0008694571526712651
6.59500e-06;-0.0008180525867288178
6.59525e-06;-0.0008360825420230992
6.59550e-06;-0.00091660742373673
6.59575e-06;-0.001003805705396384
6.59600e-06;-0.0010270179200442822
6.59625e-06;-0.000988967780757449
6.59650e-06;-0.0009099365769938797
6.59675e-06;-0.0008296266752351247
6.59700e-06;-0.0007912531957632416
6.59725e-06;-0.0007970975702246732
6.59750e-06;-0.0008428737649178138
6.59775e-06;-0.0008936780795347428
6.59800e-06;-0.0009053158849819436
6.59825e-06;-0.0008795615108415386
6.59850e-06;-0.0008291868441726933
6.59875e-06;-0.0007791163849147632
6.59900e-06;-0.0007561651936834916
6.59925e-06;-0.0007609385042685375
6.59950e-06;-0.0007898855095752703
6.59975e-06;-0.0008207897489905843
6.60000e-06;-0.0008259686445123577
6.60025e-06;-0.0008066039129116882
6.60050e-06;-0.0007707656818180722
6.60075e-06;-0.000734135475841574
6.60100e-06;-0.0007135775312678835
6.60125e-06;-0.0007095374699000373
6.60150e-06;-0.0007198576715777527
6.60175e-06;-0.0007306890846307134
6.60200e-06;-0.0007247600867328475
6.60225e-06;-0.0007028803756186506
6.60250e-06;-0.0006701743654923534
6.60275e-06;-0.0006365333652915443
6.60300e-06;-0.000612588708936545
6.60325e-06;-0.0005986865847142415
6.60350e-06;-0.00059354258057085
6.60375e-06;-0.0005885492782498737
6.60400e-06;-0.0005729561429571086
6.60425e-06;-0.0005473392730009291
6.60450e-06;-0.0005149772883410905
6.60475e-06;-0.00048213444123695014
6.60500e-06;-0.00045553783561457477
6.60525e-06;-0.0004354716909419479
6.60550e-06;-0.0004211988480446143
6.60575e-06;-0.0004073952197073263
6.60600e-06;-0.0003873949491899241
6.60625e-06;-0.000361627386536197
6.60650e-06;-0.00033221461495543776
6.60675e-06;-0.00030314860214768647
6.60700e-06;-0.00027871090794532205
6.60725e-06;-0.00025914708038649275
6.60750e-06;-0.00024406286307604945
6.60775e-06;-0.00023019091369883238
6.60800e-06;-0.0002134237321607769
6.60825e-06;-0.00019409843176384294
6.60850e-06;-0.0001736123794620292
6.60875e-06;-0.00015453470970864752
6.60900e-06;-0.0001396287353237689
6.60925e-06;-0.00012913423454306822
6.60950e-06;-0.00012283980458975847
6.60975e-06;-0.00011866257182539718
6.61000e-06;-0.00011395910778924034
6.61025e-06;-0.00010886476800019418
6.61050e-06;-0.00010417898386203655
6.61075e-06;-0.00010143508221181642
6.61100e-06;-0.00010228785725299397
6.61125e-06;-0.00010681128067166213
6.61150e-06;-0.00011479670021905311
6.61175e-06;-0.0001248632561361853
6.61200e-06;-0.00013527907094165094
6.61225e-06;-0.00014605299223699383
6.61250e-06;-0.0001576097921681745
6.61275e-06;-0.0001708339080181719
6.61300e-06;-0.00018668575310255234
6.61325e-06;-0.00020513546469131403
6.61350e-06;-0.00022597617126624367
6.61375e-06;-0.0002482667553223137
6.61400e-06;-0.00027096730539926696
6.61425e-06;-0.0002937082672666516
6.61450e-06;-0.0003172203081961981
6.61475e-06;-0.0003411391457379124
6.61500e-06;-0.00036683855356651356
6.61525e-06;-0.00039347733323939787
6.61550e-06;-0.0004211243625558317
6.61575e-06;-0.0004493033120857577
6.61600e-06;-0.00047748226161577916
6.61625e-06;-0.0005049697885653839
6.61650e-06;-0.0005320925431108005
6.61675e-06;-0.0005592152976563092
6.61700e-06;-0.0005863380522017258
6.61725e-06;-0.0006124288956148265
6.61750e-06;-0.0006379753357710898
6.61775e-06;-0.0006635217759272665
6.61800e-06;-0.0006890682160834432
6.61825e-06;-0.0007115044604861365
6.61850e-06;-0.0007322998652419573
6.61875e-06;-0.0007530952699978487
6.61900e-06;-0.0007716289647734873
6.61925e-06;-0.0007889694538157892
6.61950e-06;-0.00080630994285815
6.61975e-06;-0.0008218156480194593
6.62000e-06;-0.000836353379981117
6.62025e-06;-0.0008508911119428238
6.62050e-06;-0.0008614744962962607
6.62075e-06;-0.0008699716935262656
6.62100e-06;-0.0008784688907562993
6.62125e-06;-0.0008869660879863042
6.62150e-06;-0.0008954632852163091
6.62175e-06;-0.0009039604824463427
6.62200e-06;-0.0009124576796763476
6.62225e-06;-0.0009209548769063525
6.62250e-06;-0.0009294520741363863
6.62275e-06;-0.000936975621156169
6.62300e-06;-0.0009391763915440922
6.62325e-06;-0.000941377161932008
6.62350e-06;-0.0009435779323199239
6.62375e-06;-0.0009457787027078471
6.62400e-06;-0.0009479794730957628
6.62425e-06;-0.0009501802434836787
6.62450e-06;-0.0009523810138716019
6.62475e-06;-0.0009545817842595177
6.62500e-06;-0.0009567825546474335
6.62525e-06;-0.0009570107968739296
6.62550e-06;-0.0009561983964310712
6.62575e-06;-0.0009553859959882129
6.62600e-06;-0.0009545735955453518
6.62625e-06;-0.0009537611951024934
6.62650e-06;-0.0009529487946596351
6.62675e-06;-0.0009521363942167739
6.62700e-06;-0.0009512533446199349
6.62725e-06;-0.0009499840683660513
6.62750e-06;-0.0009487147921121719
6.62775e-06;-0.0009474455158582926
6.62800e-06;-0.0009461762396044089
6.62825e-06;-0.0009449069633505296
6.62850e-06;-0.0009436376870966502
6.62875e-06;-0.0009423684108427666
6.62900e-06;-0.0009434677666180052
6.62925e-06;-0.0009458167367741682
6.62950e-06;-0.0009481657069303392
6.62975e-06;-0.0009505146770865022
6.63000e-06;-0.0009528636472426651
6.63025e-06;-0.000955212617398836
6.63050e-06;-0.000957561587554999
6.63075e-06;-0.0009647911774437384
6.63100e-06;-0.0009745956259557553
6.63125e-06;-0.000984400074467739
6.63150e-06;-0.000994204522979756
6.63175e-06;-0.0010040089714917395
6.63200e-06;-0.0010138134200037231
6.63225e-06;-0.0010236178685157401
6.63250e-06;-0.0010384257757254836
6.63275e-06;-0.0010558733474613127
6.63300e-06;-0.001073320919197201
6.63325e-06;-0.0010907684909330301
6.63350e-06;-0.0011082160626688592
6.63375e-06;-0.0011256636344047475
6.63400e-06;-0.0011431112061405767
6.63425e-06;-0.0011605587778764056
6.63450e-06;-0.0011809755417556403
6.63475e-06;-0.0012029587562932533
6.63500e-06;-0.0012249419708308664
6.63525e-06;-0.0012469251853685541
6.63550e-06;-0.0012689083999061672
6.63575e-06;-0.001290891614443855
6.63600e-06;-0.001312874828981468
6.63625e-06;-0.001334858043519081
6.63650e-06;-0.0013559164007521593
6.63675e-06;-0.0013764868328985543
6.63700e-06;-0.001397057265044949
6.63725e-06;-0.0014176276971914138
6.63750e-06;-0.0014381981293378086
6.63775e-06;-0.0014587685614842036
6.63800e-06;-0.0014793389936306682
6.63825e-06;-0.0014986778876975352
6.63850e-06;-0.0015112841769352701
6.63875e-06;-0.0015238904661730476
6.63900e-06;-0.0015364967554107824
6.63925e-06;-0.0015491030446485171
6.63950e-06;-0.0015617093338862948
6.63975e-06;-0.0015743156231240295
6.64000e-06;-0.001586921912361807
6.64025e-06;-0.0015911697565892354
6.64050e-06;-0.001591007952987816
6.64075e-06;-0.0015908461493863964
6.64100e-06;-0.001590684345784977
6.64125e-06;-0.0015905225421835578
6.64150e-06;-0.001590360738582138
6.64175e-06;-0.0015901989349807186
6.64200e-06;-0.0015900371313792995
6.64225e-06;-0.0015879817751959986
6.64250e-06;-0.0015755746958569738
6.64275e-06;-0.0015631676165179487
6.64300e-06;-0.0015507605371788819
6.64325e-06;-0.0015383534578398569
6.64350e-06;-0.001525946378500832
6.64375e-06;-0.001513539299161765
