Time(s);Current(A)
7.25000e-06;2.640756179757058e-05
7.25025e-06;8.750456482458263e-05
7.25050e-06;0.000145447251750603
7.25075e-06;0.00019975919995852354
7.25100e-06;0.0002500416729009789
7.25125e-06;0.0002966484109088645
7.25150e-06;0.00034092326364005784
7.25175e-06;0.0003838886078997068
7.25200e-06;0.00042549774514599926
7.25225e-06;0.00046484769553048125
7.25250e-06;0.0005038021126598743
7.25275e-06;0.0005388080253102509
7.25300e-06;0.0005734216164591257
7.25325e-06;0.0006041187652180437
7.25350e-06;0.0006346413451125344
7.25375e-06;0.0006634212499363822
7.25400e-06;0.0006919656491474553
7.25425e-06;0.0007181590577534083
7.25450e-06;0.0007443524663594502
7.25475e-06;0.0007701625933657852
7.25500e-06;0.000792146520947319
7.25525e-06;0.0008141304485287783
7.25550e-06;0.0008359047111555494
7.25575e-06;0.0008555859436713386
7.25600e-06;0.0008752671761870611
7.25625e-06;0.0008947225348168497
7.25650e-06;0.0009119230538372667
7.25675e-06;0.0009291235728576254
7.25700e-06;0.0009460701513663645
7.25725e-06;0.0009604817085217642
7.25750e-06;0.000974893265677115
7.25775e-06;0.0009892059439353036
7.25800e-06;0.0010024766965601672
7.25825e-06;0.001015136138240255
7.25850e-06;0.001027085633398487
7.25875e-06;0.0010382246602341305
7.25900e-06;0.0010483563820273892
7.25925e-06;0.0010563633373805604
7.25950e-06;0.0010600261585641162
7.25975e-06;0.0010577667281447003
7.26000e-06;0.0010493875091497863
7.26025e-06;0.0010351536532831854
7.26050e-06;0.0010153299419859358
7.26075e-06;0.0009901806469914678
7.26100e-06;0.0009599091883500869
7.26125e-06;0.0009241426959591629
7.26150e-06;0.0008818179616311272
7.26175e-06;0.0008322734967672827
7.26200e-06;0.0007757128144136076
7.26225e-06;0.0007126290022653134
7.26250e-06;0.0006435152432339197
7.26275e-06;0.000568863994323819
7.26300e-06;0.0004891298738436689
7.26325e-06;0.00040440625515419145
7.26350e-06;0.0003143541972775914
7.26375e-06;0.0002188865345280646
7.26400e-06;0.00011845781986276928
7.26425e-06;1.3703991985701982e-05
7.26450e-06;-9.473900974699798e-05
7.26475e-06;-0.00020623571787314147
7.26500e-06;-0.0003202638273821485
7.26525e-06;-0.00043706219927363963
7.26550e-06;-0.000554158155217979
7.26575e-06;-0.000674224814510592
7.26600e-06;-0.0007943641277975642
7.26625e-06;-0.0009152287268094026
7.26650e-06;-0.0010359020145002684
7.26675e-06;-0.0011546654915761134
7.26700e-06;-0.0012730082077631161
7.26725e-06;-0.0013871505786394276
7.26750e-06;-0.0015006951128983472
7.26775e-06;-0.0016082716014159362
7.26800e-06;-0.001714990424589883
7.26825e-06;-0.001813147400172125
7.26850e-06;-0.001910162464939757
7.26875e-06;-0.0019957781343169054
7.26900e-06;-0.0020799957475993525
7.26925e-06;-0.002150256934519697
7.26950e-06;-0.0022189957185510525
7.26975e-06;-0.0022725367548737654
7.27000e-06;-0.0023245001207105524
7.27025e-06;-0.002360714016947866
7.27050e-06;-0.002395295844289148
7.27075e-06;-0.0024135851570095085
7.27100e-06;-0.002430205608768077
7.27125e-06;-0.0024301662603892996
7.27150e-06;-0.0024285038423836653
7.27175e-06;-0.002410638747096104
7.27200e-06;-0.002391239631488233
7.27225e-06;-0.002356526794410556
7.27250e-06;-0.002320719427829569
7.27275e-06;-0.0022732858803986293
7.27300e-06;-0.0022181924142798443
7.27325e-06;-0.002155729193127241
7.27350e-06;-0.00208628607341171
7.27375e-06;-0.0020103396733548717
7.27400e-06;-0.0019283872656631535
7.27425e-06;-0.001840922123254516
7.27450e-06;-0.0017484377200789462
7.27475e-06;-0.0016514274772692818
7.27500e-06;-0.001550387295407355
7.27525e-06;-0.0014458382478407656
7.27550e-06;-0.0013383636577647615
7.27575e-06;-0.0012286013033239954
7.27600e-06;-0.0011172020092183532
7.27625e-06;-0.001004813785527754
7.27650e-06;-0.0008920850284960777
7.27675e-06;-0.0007796637958114315
7.27700e-06;-0.0006681996868905767
7.27725e-06;-0.000558358097636934
7.27750e-06;-0.0004508434306237737
7.27775e-06;-0.0003463940539602956
7.27800e-06;-0.000245756358954439
7.27825e-06;-0.0001496752144677702
7.27850e-06;-5.88953425406614e-05
7.27875e-06;2.5840043578870266e-05
7.27900e-06;0.00010388129757719896
7.27925e-06;0.0001754894274608452
7.27950e-06;0.00024215316040438525
7.27975e-06;0.00030503896071944415
7.28000e-06;0.000364169538679041
7.28025e-06;0.00041915542152369024
7.28050e-06;0.000469607096836724
7.28075e-06;0.0005151361225565078
7.28100e-06;0.0005554127132256328
7.28125e-06;0.0005906775111647944
7.28150e-06;0.0006219401073920474
7.28175e-06;0.0006500082098240469
7.28200e-06;0.0006749729681346974
7.28225e-06;0.0006966674797603071
7.28250e-06;0.0007149246517061713
7.28275e-06;0.0007294156316608266
7.28300e-06;0.000738875773543127
7.28325e-06;0.0007478122061813653
7.28350e-06;0.0007515205871543444
7.28375e-06;0.0007548427150369304
7.28400e-06;0.0007543089798901844
7.28425e-06;0.0007533870094818288
7.28450e-06;0.0007485893885501886
7.28475e-06;0.0007433290587218309
7.28500e-06;0.0007334496276554173
7.28525e-06;0.0007235701965890035
7.28550e-06;0.0007133766284847869
7.28575e-06;0.0007000471129407101
7.28600e-06;0.0006867175973966335
7.28625e-06;0.0006731945251302066
7.28650e-06;0.0006577392270044627
7.28675e-06;0.0006422839288787188
7.28700e-06;0.0006267382008162351
7.28725e-06;0.0006102897344761552
7.28750e-06;0.0005939028558916373
7.28775e-06;0.000578130791675149
7.28800e-06;0.0005625164570101842
7.28825e-06;0.0005484766949794436
7.28850e-06;0.0005344369329486554
7.28875e-06;0.0005212034933692394
7.28900e-06;0.0005114189353064031
7.28925e-06;-0.006290926723315095
7.28950e-06;-0.018164635704386235
7.28975e-06;-0.014880735562640933
7.29000e-06;-0.012104073358537339
7.29025e-06;-0.005523917706897586
7.29050e-06;0.003994640550670503
7.29075e-06;0.003376754927056823
7.29100e-06;0.0028352531627018635
7.29125e-06;0.0021566233481864878
7.29150e-06;-0.00745309529710501
7.29175e-06;-0.007470067927726371
7.29200e-06;-0.00471548430701725
7.29225e-06;-0.0016825177451613444
7.29250e-06;0.0015931544189658365
7.29275e-06;0.003286455755364687
7.29300e-06;0.002761472036448895
7.29325e-06;0.0007118472732694147
7.29350e-06;-0.0018005945898101193
7.29375e-06;-0.002885805234263954
7.29400e-06;-0.0020309147984515848
7.29425e-06;-0.00017381727664107067
7.29450e-06;0.001842845452247031
7.29475e-06;0.002874475440670124
7.29500e-06;0.002521683357583156
7.29525e-06;0.0012181155203077312
7.29550e-06;-0.00037183779471290765
7.29575e-06;-0.0010649350401225014
7.29600e-06;-0.000540554723788707
7.29625e-06;0.0006132722647640212
7.29650e-06;0.0018683070804211975
7.29675e-06;0.0025072841594011752
7.29700e-06;0.00227983039127595
7.29725e-06;0.001457425574221358
7.29750e-06;0.0004560895643107666
7.29775e-06;1.682461103685226e-05
7.29800e-06;0.000340268763926473
7.29825e-06;0.0010579077695180685
7.29850e-06;0.0018387280665489274
7.29875e-06;0.0022333583071773187
7.29900e-06;0.0020849288811602426
7.29925e-06;0.0015634831518399654
7.29950e-06;0.0009296224408162582
7.29975e-06;0.0006475080522404221
7.30000e-06;0.0008427940578036541
7.30025e-06;0.001284622748845937
7.30050e-06;0.0017656499085522775
7.30075e-06;0.002004417132142439
7.30100e-06;0.0019027079486037745
7.30125e-06;0.0015670850367837845
7.30150e-06;0.0011608256724617927
7.30175e-06;0.0009746972536479431
7.30200e-06;0.001087410673215058
7.30225e-06;0.0013543621592131024
7.30250e-06;0.0016456899975223912
7.30275e-06;0.0017851219240714485
7.30300e-06;0.0017111794664988584
7.30325e-06;0.0014906576546602909
7.30350e-06;0.0012258701327412717
7.30375e-06;0.0010989772808508468
7.30400e-06;0.0011592972690365525
7.30425e-06;0.0013162664299743918
7.30450e-06;0.0014885633831874154
7.30475e-06;0.0015658040892237311
7.30500e-06;0.0015095180800080087
7.30525e-06;0.001361585367338089
7.30550e-06;0.0011861297678226635
7.30575e-06;0.001097282971173543
7.30600e-06;0.0011259580959873524
7.30625e-06;0.0012154474951421672
7.30650e-06;0.0013148377742391443
7.30675e-06;0.0013550163392779153
7.30700e-06;0.001311921659987865
7.30725e-06;0.0012118232357313618
7.30750e-06;0.0010949211076462895
7.30775e-06;0.001032735360195652
7.30800e-06;0.0010446536834103392
7.30825e-06;0.0010951789941308404
7.30850e-06;0.0011524470274230044
7.30875e-06;0.0011731968699406766
7.30900e-06;0.0011423443728469473
7.30925e-06;0.0010761330659740654
7.30950e-06;0.0009993053242329478
7.30975e-06;0.0009562979155725962
7.31000e-06;0.0009591578111332445
7.31025e-06;0.000985675342479797
7.31050e-06;0.0010159227424685043
7.31075e-06;0.0010228355478290416
7.31100e-06;0.0009970008063186087
7.31125e-06;0.0009486292937592562
7.31150e-06;0.0008932541865421444
7.31175e-06;0.0008587432310709935
7.31200e-06;0.000852673720874487
7.31225e-06;0.0008611648540894431
7.31250e-06;0.0008717664072122386
7.31275e-06;0.0008675591547119718
7.31300e-06;0.0008426818761624694
7.31325e-06;0.0008035654758252322
7.31350e-06;0.0007599740907364072
7.31375e-06;0.0007293970050153869
7.31400e-06;0.0007166126079187037
7.31425e-06;0.0007129581542560978
7.31450e-06;0.0007106677358239717
7.31475e-06;0.0006991769898718045
7.31500e-06;0.0006748488351238543
7.31525e-06;0.0006417459460042629
7.31550e-06;0.0006060185664840969
7.31575e-06;0.0005786551379784577
7.31600e-06;0.0005626814038760944
7.31625e-06;0.0005527037161699442
7.31650e-06;0.0005438906373146532
7.31675e-06;0.0005296583110509229
7.31700e-06;0.0005077625726234721
7.31725e-06;0.00048078238509717455
7.31750e-06;0.0004526040656855207
7.31775e-06;0.0004301440434118257
7.31800e-06;0.00041533052618076784
7.31825e-06;0.0004048179430084132
7.31850e-06;0.00039561320321155577
7.31875e-06;0.0003836257768365969
7.31900e-06;0.0003674188114843625
7.31925e-06;0.00034829423604884103
7.31950e-06;0.00032805731256384154
7.31975e-06;0.0003105302499099105
7.32000e-06;0.00029679651853941485
7.32025e-06;0.0002848114002569743
7.32050e-06;0.00027275741556449736
7.32075e-06;0.0002581299014850188
7.32100e-06;0.00024008660061163126
7.32125e-06;0.00021950081168526373
7.32150e-06;0.0001975610333390324
7.32175e-06;0.00017671904743184777
7.32200e-06;0.00015771094519704336
7.32225e-06;0.00013931334381084003
7.32250e-06;0.00012044533633530142
7.32275e-06;9.959566656411037e-05
7.32300e-06;7.62945135876193e-05
7.32325e-06;5.11466874121848e-05
7.32350e-06;2.495437848092752e-05
7.32375e-06;-6.890033483694414e-07
7.32400e-06;-2.5264846660956222e-05
7.32425e-06;-4.9481942373353136e-05
7.32450e-06;-7.395976286637097e-05
7.32475e-06;-9.958726692670141e-05
7.32500e-06;-0.00012660100963115167
7.32525e-06;-0.0001545422977859575
7.32550e-06;-0.000182893052077708
7.32575e-06;-0.00021041732277629426
7.32600e-06;-0.0002370376360687537
7.32625e-06;-0.000263256584306021
7.32650e-06;-0.0002890365438965057
7.32675e-06;-0.00031481650348707776
7.32700e-06;-0.0003407399199362616
7.32725e-06;-0.0003665406201225011
7.32750e-06;-0.00039203548829110844
7.32775e-06;-0.0004162354012682089
7.32800e-06;-0.0004390189711434594
7.32825e-06;-0.000460622292005664
7.32850e-06;-0.00048093472839633216
7.32875e-06;-0.0005003698265460062
7.32900e-06;-0.0005188453455735671
7.32925e-06;-0.0005358915828031557
7.32950e-06;-0.0005513745586717164
7.32975e-06;-0.0005646261296165545
7.33000e-06;-0.0005754371257895042
7.33025e-06;-0.0005842203163356079
7.33050e-06;-0.0005907856166176988
7.33075e-06;-0.0005956706493092744
7.33100e-06;-0.0005987179076695961
7.33125e-06;-0.0005998969649039943
7.33150e-06;-0.0005990326975547482
7.33175e-06;-0.0005959556518304132
7.33200e-06;-0.0005904584039184235
7.33225e-06;-0.000583033780837565
7.33250e-06;-0.0005735011122097665
7.33275e-06;-0.0005624165740732501
7.33300e-06;-0.0005496346956055577
7.33325e-06;-0.0005353410086091348
7.33350e-06;-0.0005193937975410113
7.33375e-06;-0.0005018767159338919
7.33400e-06;-0.0004826426055654761
7.33425e-06;-0.0004619557634083215
7.33450e-06;-0.000439680011718797
7.33475e-06;-0.00041740426002934806
7.33500e-06;-0.000394008320679235
7.33525e-06;-0.00036938718830596267
7.33550e-06;-0.00034476605593277375
7.33575e-06;-0.0003193909699858821
7.33600e-06;-0.0002931912555499968
7.33625e-06;-0.0002669915411141114
7.33650e-06;-0.00024075730616970317
7.33675e-06;-0.00021448531479619773
7.33700e-06;-0.00018860000153691426
7.33725e-06;-0.00016313761324301035
7.33750e-06;-0.00013811027301310688
7.33775e-06;-0.00011391513012448689
7.33800e-06;-9.057333632084078e-05
7.33825e-06;-6.830191122547886e-05
7.33850e-06;-4.7314709376081904e-05
7.33875e-06;-2.7835735161219146e-05
7.33900e-06;-1.0148120861770965e-05
7.33925e-06;5.1413078225033316e-06
7.33950e-06;1.7084227981118997e-05
7.33975e-06;2.4995957011351524e-05
7.34000e-06;2.8725570957918782e-05
7.34025e-06;2.8334971235596664e-05
7.34050e-06;2.389660157885287e-05
7.34075e-06;1.547655234597385e-05
7.34100e-06;3.1038862910484075e-06
7.34125e-06;-1.3395078664946945e-05
7.34150e-06;-3.4407900544814695e-05
7.34175e-06;-6.015695596618124e-05
7.34200e-06;-9.053026072552096e-05
7.34225e-06;-0.00012528251887560692
7.34250e-06;-0.00016416184801360906
7.34275e-06;-0.0002069203541013458
7.34300e-06;-0.00025333334080067805
7.34325e-06;-0.0003033031153471933
7.34350e-06;-0.00035686595903008564
7.34375e-06;-0.00041395468825880955
7.34400e-06;-0.00047429266336516235
7.34425e-06;-0.000538077420576557
7.34450e-06;-0.0006038816177966887
7.34475e-06;-0.0006719398173730764
7.34500e-06;-0.0007424633074160516
7.34525e-06;-0.0008129867974587876
7.34550e-06;-0.0008852229847474756
7.34575e-06;-0.0009593324159486978
7.34600e-06;-0.001033441847149669
7.34625e-06;-0.001107662416757456
7.34650e-06;-0.0011820045427844573
7.34675e-06;-0.001256346668811207
7.34700e-06;-0.001329440760478213
7.34725e-06;-0.0014011698281914784
7.34750e-06;-0.0014711122206795561
7.34775e-06;-0.0015391004566486525
7.34800e-06;-0.0016036315588577928
7.34825e-06;-0.0016643814587642097
7.34850e-06;-0.0017251313586708322
7.34875e-06;-0.001781178768602817
7.34900e-06;-0.001832082881470828
7.34925e-06;-0.0018800504494456067
7.34950e-06;-0.00192480620350665
7.34975e-06;-0.001967993565105375
7.35000e-06;-0.002009465514573572
7.35025e-06;-0.0020509374640416285
7.35050e-06;-0.002089607869392592
7.35075e-06;-0.002125214116455197
7.35100e-06;-0.0021608203635176816
7.35125e-06;-0.002193823401211502
7.35150e-06;-0.002223979207082495
7.35175e-06;-0.0022541350129533858
7.35200e-06;-0.002284290818824276
7.35225e-06;-0.002314446624695269
7.35250e-06;-0.002342338776692117
7.35275e-06;-0.0023677550819808757
7.35300e-06;-0.002393171387269548
7.35325e-06;-0.0024185876925582202
7.35350e-06;-0.002444003997846979
7.35375e-06;-0.0024670987377729825
7.35400e-06;-0.0024876542909325226
7.35425e-06;-0.002508209844092132
7.35450e-06;-0.002528765397251672
7.35475e-06;-0.0025493209504112127
7.35500e-06;-0.002569876503570822
7.35525e-06;-0.0025904320567303623
7.35550e-06;-0.0026109876098899024
7.35575e-06;-0.0026315431630495123
7.35600e-06;-0.0026520987162090524
7.35625e-06;-0.0026726542693685925
7.35650e-06;-0.0026869413797841516
7.35675e-06;-0.0027010849544122457
7.35700e-06;-0.002715228529040388
7.35725e-06;-0.002729372103668482
7.35750e-06;-0.0027435156782965766
7.35775e-06;-0.0027576592529247185
7.35800e-06;-0.002771802827552813
7.35825e-06;-0.002785946402180907
7.35850e-06;-0.0028000899768090494
7.35875e-06;-0.0028142335514371435
7.35900e-06;-0.002826307018844199
7.35925e-06;-0.0028361163290817988
7.35950e-06;-0.0028459256393193653
7.35975e-06;-0.002856285240055515
7.36000e-06;-0.002867246715015891
7.36025e-06;-0.00287820818997623
7.36050e-06;-0.002889169664936569
7.36075e-06;-0.0029001311398969454
7.36100e-06;-0.002911092614857284
7.36125e-06;-0.0029220540898176233
7.36150e-06;-0.0029330155647779993
7.36175e-06;-0.0029439770397383385
7.36200e-06;-0.0029576729370753225
7.36225e-06;-0.0029714314476456407
7.36250e-06;-0.0029851899582159593
7.36275e-06;-0.0029989484687863244
7.36300e-06;-0.003012706979356643
7.36325e-06;-0.0030264654899269613
7.36350e-06;-0.0030402240004973264
7.36375e-06;-0.003053982511067645
7.36400e-06;-0.0030688886990393616
7.36425e-06;-0.003085050146637291
7.36450e-06;-0.0031012115942351654
7.36475e-06;-0.0031173730418330397
7.36500e-06;-0.003133534489430969
7.36525e-06;-0.003149695937028844
7.36550e-06;-0.0031658573846267183
7.36575e-06;-0.0031820188322246477
7.36600e-06;-0.003198180279822522
7.36625e-06;-0.0032136350429611037
7.36650e-06;-0.0032283168776886294
7.36675e-06;-0.003242998712416155
7.36700e-06;-0.0032576805471437303
7.36725e-06;-0.003272362381871256
7.36750e-06;-0.0032870442165987817
7.36775e-06;-0.0033017260513263573
7.36800e-06;-0.003316407886053883
7.36825e-06;-0.0033310897207814087
7.36850e-06;-0.003344192580201322
7.36875e-06;-0.0033555684526196065
7.36900e-06;-0.003365541606921766
7.36925e-06;-0.003373980553601029
7.36950e-06;-0.0033789414510366233
7.36975e-06;-0.0033800982700896176
7.37000e-06;-0.00337625841090206
7.37025e-06;-0.0033669534894488623
7.37050e-06;-0.0033576485679956327
7.37075e-06;-0.003342767580703024
7.37100e-06;-0.00332178783228509
7.37125e-06;-0.0033008080838670853
7.37150e-06;-0.003273145574612708
7.37175e-06;-0.0032381738686643948
7.37200e-06;-0.003203202162715963
7.37225e-06;-0.003162843417962498
7.37250e-06;-0.0031165926583385534
7.37275e-06;-0.003066731072759833
7.37300e-06;-0.003012920185721125
7.37325e-06;-0.0029565336084170727
7.37350e-06;-0.0028955043850404983
7.37375e-06;-0.002830732857769657
7.37400e-06;-0.002762506409747224
7.37425e-06;-0.002691248796245006
7.37450e-06;-0.002617388790529914
7.37475e-06;-0.0025413550233923253
7.37500e-06;-0.002463545787977625
7.37525e-06;-0.0023842302950872985
7.37550e-06;-0.002303543798321421
7.37575e-06;-0.0022216971976295663
7.37600e-06;-0.002139095312920694
7.37625e-06;-0.0020562287148989567
7.37650e-06;-0.0019735905492922687
7.37675e-06;-0.0018916740521827916
7.37700e-06;-0.0018109534751648759
7.37725e-06;-0.0017318221905127157
7.37750e-06;-0.0016545894632493962
7.37775e-06;-0.0015796120597773606
7.37800e-06;-0.0015073683326379463
7.37825e-06;-0.0014383899836282587
7.37850e-06;-0.0013732105493800629
7.37875e-06;-0.001312363500500051
7.37900e-06;-0.0012575231750095645
7.37925e-06;-0.001206618072611318
7.37950e-06;-0.0011602574588684311
7.37975e-06;-0.0011188673299689252
7.38000e-06;-0.0010820446532013278
7.38025e-06;-0.0010502175773287575
7.38050e-06;-0.001022012697945893
7.38075e-06;-0.0010002902010656065
7.38100e-06;-0.0009838894240853688
7.38125e-06;-0.0009727737493695433
7.38150e-06;-0.0009677775551339408
7.38175e-06;-0.0009665078714264354
7.38200e-06;-0.0009695784237582623
7.38225e-06;-0.0009773960618649066
7.38250e-06;-0.0009894302779686057
7.38275e-06;-0.0010060763302137128
7.38300e-06;-0.0010267321501643601
7.38325e-06;-0.0010517736097583668
7.38350e-06;-0.0010802418538864475
7.38375e-06;-0.0011124581061798852
7.38400e-06;-0.0011482333915029267
7.38425e-06;-0.0011879013303388456
7.38450e-06;-0.0012275692691747645
7.38475e-06;-0.00127067653998127
7.38500e-06;-0.0013175455425743303
7.38525e-06;-0.0013644145451673906
7.38550e-06;-0.0014133654398817053
7.38575e-06;-0.0014645933813699314
7.38600e-06;-0.0015158213228581578
7.38625e-06;-0.001567726381090699
7.38650e-06;-0.0016203720283681335
7.38675e-06;-0.001673017675645568
7.38700e-06;-0.0017249799787956105
7.38725e-06;-0.0017761948817677923
7.38750e-06;-0.0018274097847401473
7.38775e-06;-0.001876832971271509
7.38800e-06;-0.0019242964875105858
7.38825e-06;-0.0019695117793294293
7.38850e-06;-0.002012268100238095
7.38875e-06;-0.0020520818712753365
7.38900e-06;-0.0020886772605224007
7.38925e-06;-0.0021202024846966416
7.38950e-06;-0.0021461822711870424
7.38975e-06;-0.0021721620576775308
7.39000e-06;-0.0021911124256529446
7.39025e-06;-0.0022023744438864823
7.39050e-06;-0.002213636462120058
7.39075e-06;-0.0022177475907940174
7.39100e-06;-0.0022140375120976077
7.39125e-06;-0.002210327433401185
7.39150e-06;-0.0021991394533798256
7.39175e-06;-0.0021797726004406308
7.39200e-06;-0.002160405747501502
7.39225e-06;-0.00213516419232557
7.39250e-06;-0.0021034972457280652
7.39275e-06;-0.002067588338985544
7.39300e-06;-0.002027039834655326
7.39325e-06;-0.0019825325771215584
7.39350e-06;-0.0019336954765002455
7.39375e-06;-0.0018820953914963883
7.39400e-06;-0.0018258356874591417
7.39425e-06;-0.001766311672592697
7.39450e-06;-0.0017038678702237461
7.39475e-06;-0.0016388488193150813
