Time(s);Current(A)
5.00000e-07;0.00020988781080031712
5.00250e-07;0.00023871291726733557
5.00500e-07;0.00026659498246325045
5.00750e-07;0.00029333674686000613
5.01000e-07;0.00031873538134157887
5.01250e-07;0.00034258814155627143
5.01500e-07;0.00036469201841460964
5.01750e-07;0.000384776302779725
5.02000e-07;0.0004024442590920023
5.02250e-07;0.00041733079633182534
5.02500e-07;0.0004292714943563954
5.02750e-07;0.000438241322094828
5.03000e-07;0.00044424415035657175
5.03250e-07;0.0004472838900724608
5.03500e-07;0.000447364309774092
5.03750e-07;0.0004444467374729237
5.04000e-07;0.00043841362121250257
5.04250e-07;0.0004291671818191217
5.04500e-07;0.0004167354183918786
5.04750e-07;0.00040123361648514865
5.05000e-07;0.00038279516997146237
5.05250e-07;0.00036155345068825573
5.05500e-07;0.0003376417722653035
5.05750e-07;0.0003111668899546612
5.06000e-07;0.0002821860613831258
5.06250e-07;0.00025076899330830703
5.06500e-07;0.00021706416991772447
5.06750e-07;0.0001812747152641273
5.07000e-07;0.0001436151064916985
5.07250e-07;0.00010429979870954326
5.07500e-07;6.354317126595297e-05
5.07750e-07;2.1542959737048224e-05
5.08000e-07;-2.1534088183933047e-05
5.08250e-07;-6.551345829851873e-05
5.08500e-07;-0.00011034338158880355
5.08750e-07;-0.00015543829228743594
5.09000e-07;-0.00020053320298606836
5.09250e-07;-0.00024523414122584145
5.09500e-07;-0.00028975749149941086
5.09750e-07;-0.00033428084177298026
5.10000e-07;-0.00037732217521771607
5.10250e-07;-0.0004196954315099102
5.10500e-07;-0.0004600462995391654
5.10750e-07;-0.0004994854968196097
5.11000e-07;-0.0005360890856294739
5.11250e-07;-0.0005714144128191131
5.11500e-07;-0.0006031883360662828
5.11750e-07;-0.0006333613248386751
5.12000e-07;-0.0006606303483429773
5.12250e-07;-0.0006865902957222833
5.12500e-07;-0.0007104153444648159
5.12750e-07;-0.0007332780039992457
5.13000e-07;-0.0007536581131578435
5.13250e-07;-0.0007729191154656012
5.13500e-07;-0.0007887080337949159
5.13750e-07;-0.0008029317742310526
5.14000e-07;-0.0008171555146671894
5.14250e-07;-0.000828323477228346
5.14500e-07;-0.0008381139281837766
5.14750e-07;-0.0008479043791392072
5.15000e-07;-0.0008548347776746081
5.15250e-07;-0.0008604758955218224
5.15500e-07;-0.0008661170133690365
5.15750e-07;-0.000868963530137286
5.16000e-07;-0.0008705502709737871
5.16250e-07;-0.0008721370118102882
5.16500e-07;-0.0008706962737169939
5.16750e-07;-0.0008678907808762866
5.17000e-07;-0.0008650852880355804
5.17250e-07;-0.0008622797951948731
5.17500e-07;-0.0008594743023541658
5.17750e-07;-0.0008566688095134585
5.18000e-07;-0.0008538633166727512
5.18250e-07;-0.000848513864821595
5.18500e-07;-0.0008420176237714906
5.18750e-07;-0.0008355213827213835
5.19000e-07;-0.0008290251416712764
5.19250e-07;-0.0008225289006211692
5.19500e-07;-0.0008160326595710621
5.19750e-07;-0.000809536418520955
5.20000e-07;-0.0008027395307917455
5.20250e-07;-0.000795807114792273
5.20500e-07;-0.0007888746987928004
5.20750e-07;-0.0007821471462174255
5.21000e-07;-0.000776297060095739
5.21250e-07;-0.000770446973974055
5.21500e-07;-0.0007645968878523684
5.21750e-07;-0.00075895746762252
5.22000e-07;-0.0007534130132975295
5.22250e-07;-0.000747868558972539
5.22500e-07;-0.0007400683938551824
5.22750e-07;-0.0007312513787170418
5.23000e-07;-0.0007224343635788976
5.23250e-07;-0.0007136173484407532
5.23500e-07;-0.0007048003333026089
5.23750e-07;-0.0006959833181644647
5.24000e-07;-0.0006836902938397651
5.24250e-07;-0.000669830322180507
5.24500e-07;-0.000655970350521249
5.24750e-07;-0.000642110378861991
5.25000e-07;-0.000628250407202733
5.25250e-07;-0.000614390435543475
5.25500e-07;-0.0005979576069737516
5.25750e-07;-0.0005803649623443726
5.26000e-07;-0.0005627723177149934
5.26250e-07;-0.000543525789647894
5.26500e-07;-0.0005235337088203401
5.26750e-07;-0.000503541627992786
5.27000e-07;-0.0004823838874007812
5.27250e-07;-0.00046070067999815455
5.27500e-07;-0.00043901747259552786
5.27750e-07;-0.0004167608237130884
5.28000e-07;-0.0003942456736155792
5.28250e-07;-0.00037173052351807955
5.28500e-07;-0.0003489446744842187
5.28750e-07;-0.00032603679729852633
5.29000e-07;-0.00030312892011283396
5.29250e-07;-0.00028074212935230833
5.29500e-07;-0.0002585902387146448
5.29750e-07;-0.00023643834807699068
5.30000e-07;-0.00021518873540371882
5.30250e-07;-0.00019434585987510386
5.30500e-07;-0.00017420376940787156
5.30750e-07;-0.00015497191326499022
5.31000e-07;-0.00013670241462321458
5.31250e-07;-0.0001195404559663793
5.31500e-07;-0.0001036307312530273
5.31750e-07;-8.896678982599842e-05
5.32000e-07;-7.519954972123603e-05
5.32250e-07;-6.187515395615058e-05
5.32500e-07;-4.880878943251749e-05
5.32750e-07;-3.605039003968705e-05
5.33000e-07;-2.3702759549979564e-05
5.33250e-07;-1.1868682662223764e-05
5.33500e-07;-6.506185826548065e-07
5.33750e-07;9.943656222153485e-06
5.34000e-07;2.012097031199373e-05
5.34250e-07;3.0153764277693745e-05
5.34500e-07;4.0145936071270765e-05
5.34750e-07;4.9991008370131265e-05
5.35000e-07;5.977413910587226e-05
5.35250e-07;6.919897214569314e-05
5.35500e-07;7.846228846058952e-05
5.35750e-07;8.731078901404154e-05
5.36000e-07;9.59722951100979e-05
5.36250e-07;0.00010463380120615424
5.36500e-07;0.0001132057379978856
5.36750e-07;0.00012173729791626822
5.37000e-07;0.00013026885783465447
5.37250e-07;0.0001384488073713603
5.37500e-07;0.00014647025475205455
5.37750e-07;0.00015449170213274882
5.38000e-07;0.0001622001693317354
5.38250e-07;0.00016976754845091733
5.38500e-07;0.00017733492757010243
5.38750e-07;0.00018409020020183366
5.39000e-07;0.00019047938401514742
5.39250e-07;0.00019686856782846117
5.39500e-07;0.00020325775164177495
5.39750e-07;0.000209646935455086
5.40000e-07;0.00021603611926839975
5.40250e-07;0.00022242530308171353
5.40500e-07;0.0002288144868950273
5.40750e-07;0.00023520367070834104
5.41000e-07;0.00024111641460155766
5.41250e-07;0.0002449884816441352
5.41500e-07;0.0002488605486867127
5.41750e-07;0.0002527326157292902
5.42000e-07;0.0002566046827718677
5.42250e-07;0.0002604767498144452
5.42500e-07;0.00026434881685702107
5.42750e-07;0.0002682208838995986
5.43000e-07;0.0002720929509421761
5.43250e-07;0.00027596501798475364
5.43500e-07;0.0002783859889601181
5.43750e-07;0.0002801528215276913
5.44000e-07;0.0002819196540952653
5.44250e-07;0.00028368648666283927
5.44500e-07;0.00028545331923041323
5.44750e-07;0.0002872201517979872
5.45000e-07;0.0002889869843655612
5.45250e-07;0.0002907538169331344
5.45500e-07;0.0002925206495007084
5.45750e-07;0.0002942874820682824
5.46000e-07;0.0002958093478639036
5.46250e-07;0.0002962819774397607
5.46500e-07;0.00029675460701561777
5.46750e-07;0.0002972272365914747
5.47000e-07;0.0002976998661673318
5.47250e-07;0.0002981724957431889
5.47500e-07;0.000298645125319046
5.47750e-07;0.0002991177548949031
5.48000e-07;0.00029959038447076
5.48250e-07;0.0003000630140466171
5.48500e-07;0.0003005356436224742
5.48750e-07;0.00030065353851888173
5.49000e-07;0.0003006115228596424
5.49250e-07;0.00030056950720040303
5.49500e-07;0.00030052749154116365
5.49750e-07;0.00030048547588192433
5.50000e-07;0.00030044346022268495
5.50250e-07;0.00030040144456344557
5.50500e-07;0.00030035942890420625
5.50750e-07;0.00030026399239811545
5.51000e-07;0.0002999397449110071
5.51250e-07;0.0002996154974238986
5.51500e-07;0.00029929124993679015
5.51750e-07;0.00029896700244968165
5.52000e-07;0.00029864275496257315
5.52250e-07;0.0002983185074754648
5.52500e-07;0.0002979942599883563
5.52750e-07;0.00029767001250124785
5.53000e-07;0.00029637154367359944
5.53250e-07;0.0002946339064056636
5.53500e-07;0.0002928962691377278
5.53750e-07;0.00029115863186979273
5.54000e-07;0.0002894209946018569
5.54250e-07;0.0002876833573339211
5.54500e-07;0.0002859457200659853
5.54750e-07;0.0002842080827980495
5.55000e-07;0.00028247044553011367
5.55250e-07;0.0002807328082621786
5.55500e-07;0.0002786877764378653
5.55750e-07;0.0002753261190984066
5.56000e-07;0.00027196446175894784
5.56250e-07;0.0002686028044194891
5.56500e-07;0.0002652411470800318
5.56750e-07;0.0002618794897405731
5.57000e-07;0.00025851783240111434
5.57250e-07;0.0002551561750616556
5.57500e-07;0.0002517945177221969
5.57750e-07;0.00024843286038273813
5.58000e-07;0.00024507120304328084
5.58250e-07;0.0002413622299812989
5.58500e-07;0.00023749669074918522
5.58750e-07;0.0002336311515170715
5.59000e-07;0.00022976561228495778
5.59250e-07;0.00022590007305284406
5.59500e-07;0.000222034533820732
5.59750e-07;0.00021845980436561307
5.60000e-07;0.0002150161688117154
5.60250e-07;0.00021157253325781774
5.60500e-07;0.00020812889770392007
5.60750e-07;0.00020468526215002385
5.61000e-07;0.0002012416265961262
5.61250e-07;0.00019829112456909564
5.61500e-07;0.00019556292180080461
5.61750e-07;0.0001928347190325136
5.62000e-07;0.00018961463987386134
5.62250e-07;0.0001861728281600071
5.62500e-07;0.00018152987266645078
5.62750e-07;0.0001763454545520829
5.63000e-07;0.00017034337780266797
5.63250e-07;0.00016349230603873634
5.63500e-07;0.00015599256640353113
5.63750e-07;0.00014783552828621978
5.64000e-07;0.00013884013050846045
5.64250e-07;0.00012878834931548958
5.64500e-07;0.0001176204944462862
5.64750e-07;0.00010540692385896172
5.65000e-07;9.224671426835415e-05
5.65250e-07;7.823894238928479e-05
5.65500e-07;6.348251943590766e-05
5.65750e-07;4.8026987888594086e-05
5.66000e-07;3.181388319337886e-05
5.66250e-07;1.476161778483278e-05
5.66500e-07;-3.112235964719398e-06
5.66750e-07;-2.170864113571005e-05
5.67000e-07;-4.091056852328395e-05
5.67250e-07;-6.0600999589728904e-05
5.67500e-07;-8.075376655179421e-05
5.67750e-07;-0.00010105161828541614
5.68000e-07;-0.00012180948275145452
5.68250e-07;-0.00014277471598042344
5.68500e-07;-0.0001637399492093924
5.68750e-07;-0.00018468730450029773
5.69000e-07;-0.00020555808540520686
5.69250e-07;-0.00022642886631010715
5.69500e-07;-0.00024729964721501626
5.69750e-07;-0.0002672692838232921
5.70000e-07;-0.000286832694332049
5.70250e-07;-0.0003063961048408058
5.70500e-07;-0.0003248539473787982
5.70750e-07;-0.000342813411836608
5.71000e-07;-0.00035947989468083306
5.71250e-07;-0.00037556351540230735
5.71500e-07;-0.0003897980220614811
5.71750e-07;-0.00040319896810677553
5.72000e-07;-0.0004165999141520643
5.72250e-07;-0.0004293406696117516
5.72500e-07;-0.0004417838182979917
5.72750e-07;-0.00045422696698423185
5.73000e-07;-0.0004658553280543585
5.73250e-07;-0.0004771163916822575
5.73500e-07;-0.0004883774553101518
5.73750e-07;-0.0004996385189380508
5.74000e-07;-0.0005108995825659498
5.74250e-07;-0.0005221606461938488
5.74500e-07;-0.0005334217098217478
5.74750e-07;-0.0005446194210831356
5.75000e-07;-0.0005555457828997554
5.75250e-07;-0.00056647214471638
5.75500e-07;-0.0005773985065330045
5.75750e-07;-0.000588324868349629
5.76000e-07;-0.0005992512301662534
5.76250e-07;-0.0006101775919828733
5.76500e-07;-0.0006211039537994977
5.76750e-07;-0.000631974673881554
5.77000e-07;-0.0006428203112716496
5.77250e-07;-0.0006536659486617453
5.77500e-07;-0.0006645115860518411
5.77750e-07;-0.0006753572234419321
5.78000e-07;-0.0006862028608320279
5.78250e-07;-0.0006970484982221235
5.78500e-07;-0.0007078941356122192
5.78750e-07;-0.0007187397730023149
5.79000e-07;-0.0007292172758625585
5.79250e-07;-0.000738117993106503
5.79500e-07;-0.0007470187103504475
5.79750e-07;-0.000755919427594392
5.80000e-07;-0.0007648201448383367
5.80250e-07;-0.0007737208620822812
5.80500e-07;-0.0007826215793262219
5.80750e-07;-0.0007915222965701664
5.81000e-07;-0.0008004230138141111
5.81250e-07;-0.0008093237310580556
5.81500e-07;-0.0008151772973896701
5.81750e-07;-0.0008196572410568504
5.82000e-07;-0.0008241371847240288
5.82250e-07;-0.000828617128391209
5.82500e-07;-0.0008330970720583893
5.82750e-07;-0.0008375770157255695
5.83000e-07;-0.0008420569593927498
5.83250e-07;-0.0008465369030599282
5.83500e-07;-0.0008510168467271085
5.83750e-07;-0.0008554967903942887
5.84000e-07;-0.000859976734061469
5.84250e-07;-0.0008644566777286492
5.84500e-07;-0.0008689366213958295
5.84750e-07;-0.0008710927533755724
5.85000e-07;-0.0008722013361877189
5.85250e-07;-0.0008733099189998653
5.85500e-07;-0.0008744185018120118
5.85750e-07;-0.0008755270846241583
5.86000e-07;-0.0008766356674363049
5.86250e-07;-0.0008777442502484508
5.86500e-07;-0.0008788528330605973
5.86750e-07;-0.0008799614158727439
5.87000e-07;-0.0008810699986848904
5.87250e-07;-0.0008821785814970369
5.87500e-07;-0.0008832871643091829
5.87750e-07;-0.0008843957471213294
5.88000e-07;-0.0008845022645728487
5.88250e-07;-0.0008841570618010451
5.88500e-07;-0.0008838118590292416
5.88750e-07;-0.0008834666562574381
5.89000e-07;-0.0008831214534856347
5.89250e-07;-0.0008827762507138313
5.89500e-07;-0.0008824310479420278
5.89750e-07;-0.0008820858451702242
5.90000e-07;-0.0008817406423984207
5.90250e-07;-0.0008813954396266172
5.90500e-07;-0.0008810502368548138
5.90750e-07;-0.0008807050340830104
5.91000e-07;-0.0008803598313112068
5.91250e-07;-0.0008799511380020879
5.91500e-07;-0.000879513823845645
5.91750e-07;-0.0008784071246211773
5.92000e-07;-0.0008769986738500541
5.92250e-07;-0.0008728843370533809
5.92500e-07;-0.0008675502161111012
5.92750e-07;-0.000859235618433276
5.93000e-07;-0.000849577454088548
5.93250e-07;-0.0008372963947883554
5.93500e-07;-0.0008238329628190704
5.93750e-07;-0.000807664968829706
5.94000e-07;-0.0007902777875420746
5.94250e-07;-0.0007692641352141606
5.94500e-07;-0.0007466157089757132
5.94750e-07;-0.0007205226417814043
5.95000e-07;-0.0006928767677114007
5.95250e-07;-0.0006623640607086111
5.95500e-07;-0.0006305590164356966
5.95750e-07;-0.0005961897346617294
5.96000e-07;-0.0005606645223645284
5.96250e-07;-0.0005223513758240672
5.96500e-07;-0.0004827814586891265
5.96750e-07;-0.00044089130221252026
5.97000e-07;-0.0003979552069431233
5.97250e-07;-0.0003537263005760043
5.97500e-07;-0.0003082910826196995
5.97750e-07;-0.00026206989831941747
5.98000e-07;-0.00021513157524122737
5.98250e-07;-0.00016752001326843339
5.98500e-07;-0.00011940326139107286
5.98750e-07;-7.105004568027933e-05
5.99000e-07;-2.27512097569074e-05
5.99250e-07;2.5202447816968675e-05
5.99500e-07;7.252028610680866e-05
5.99750e-07;0.00011894935901989396
6.00000e-07;0.00016431842311097437
6.00250e-07;0.00020847186657303144
6.00500e-07;0.00025117628483951404
6.00750e-07;0.00029213524702359023
6.01000e-07;0.0003310384972494496
6.01250e-07;0.0003675758288058013
6.01500e-07;0.0004014379758593279
6.01750e-07;0.000431980573538953
6.02000e-07;0.00046141490709435335
6.02250e-07;0.0004892592505063119
6.02500e-07;0.000516386843563542
6.02750e-07;0.0005415771692044675
6.03000e-07;0.0005658941956532037
6.03250e-07;0.0005902112221019502
6.03500e-07;0.0006114501899373425
6.03750e-07;0.0006313016022510223
6.04000e-07;0.0006511530145647021
6.04250e-07;0.0006694094282496064
6.04500e-07;0.0006869468338087712
6.04750e-07;0.0007044842393679434
6.05000e-07;0.0007204853037527554
6.05250e-07;0.0007357938021576755
6.05500e-07;0.0007511023005625956
6.05750e-07;0.0007638834495332841
6.06000e-07;0.000775525296722138
6.06250e-07;0.0007871671439109967
6.06500e-07;0.0007988089910998554
6.06750e-07;0.000810450838288714
6.07000e-07;0.0008220926854775728
6.07250e-07;0.0008337345326664266
6.07500e-07;0.0008453763798552854
6.07750e-07;0.000856344844917029
6.08000e-07;0.0008644290946545369
6.08250e-07;0.0008725133443920449
6.08500e-07;0.0008805975941295528
6.08750e-07;0.0008886818438670574
6.09000e-07;0.0008967660936045653
6.09250e-07;0.0009048503433420733
6.09500e-07;0.0009129345930795812
6.09750e-07;0.0009210188428170892
6.10000e-07;0.0009271357053905929
6.10250e-07;0.000932365691115506
6.10500e-07;0.0009375956768404213
6.10750e-07;0.0009428256625653367
6.11000e-07;0.000948055648290252
6.11250e-07;0.0009532856340151674
6.11500e-07;0.0009585156197400805
6.11750e-07;0.0009637456054649959
6.12000e-07;0.0009684246490112365
6.12250e-07;0.0009707439092924734
6.12500e-07;0.0009730631695737101
6.12750e-07;0.0009753824298549469
6.13000e-07;0.0009777016901361827
6.13250e-07;0.0009800209504174195
6.13500e-07;0.0009823402106986564
6.13750e-07;0.000984659470979893
6.14000e-07;0.00098697873126113
6.14250e-07;0.0009874925594335591
6.14500e-07;0.000987192518344104
6.14750e-07;0.0009868924772546486
6.15000e-07;0.0009865924361651933
6.15250e-07;0.0009862923950757381
6.15500e-07;0.0009859923539862828
6.15750e-07;0.0009856923128968276
6.16000e-07;0.0009850519618035476
6.16250e-07;0.000982954002483797
6.16500e-07;0.0009808560431640466
6.16750e-07;0.000978758083844296
6.17000e-07;0.0009766601245245455
6.17250e-07;0.0009745621652047958
6.17500e-07;0.0009724642058850453
6.17750e-07;0.0009703662465652947
6.18000e-07;0.0009676694200743395
6.18250e-07;0.0009647026307416798
6.18500e-07;0.0009617358414090214
6.18750e-07;0.0009587690520763617
6.19000e-07;0.000955802262743702
6.19250e-07;0.0009528354734110423
6.19500e-07;0.0009498686840783827
6.19750e-07;0.0009469018947457229
6.20000e-07;0.0009439351054130645
6.20250e-07;0.0009411103612598248
6.20500e-07;0.0009388940218543948
6.20750e-07;0.0009366776824489649
6.21000e-07;0.0009344613430435349
6.21250e-07;0.0009322450036381051
6.21500e-07;0.000930028664232676
6.21750e-07;0.0009278123248272461
6.22000e-07;0.0009255959854218162
6.22250e-07;0.0009233796460163862
6.22500e-07;0.0009211633066109563
6.22750e-07;0.0009202908897711354
6.23000e-07;0.0009200242986841517
6.23250e-07;0.000919757707597168
6.23500e-07;0.0009194911165101845
6.23750e-07;0.0009192245254232008
6.24000e-07;0.0009189579343362171
6.24250e-07;0.0009186913432492335
6.24500e-07;0.0009187698364366062
6.24750e-07;0.0009203263868996469
6.25000e-07;0.0009218829373626876
6.25250e-07;0.0009234394878257283
6.25500e-07;0.000924996038288769
6.25750e-07;0.0009265525887518091
6.26000e-07;0.0009281091392148498
6.26250e-07;0.0009296656896778905
6.26500e-07;0.0009321104739513143
6.26750e-07;0.0009349556644167646
6.27000e-07;0.0009378008548822137
6.27250e-07;0.0009406460453476639
6.27500e-07;0.0009434912358131142
6.27750e-07;0.0009463364262785645
6.28000e-07;0.0009491816167440148
6.28250e-07;0.0009523371919201221
6.28500e-07;0.0009556326851657776
6.28750e-07;0.0009589281784114347
6.29000e-07;0.0009622236716570917
6.29250e-07;0.0009655191649027487
6.29500e-07;0.0009688146581484057
6.29750e-07;0.0009721101513940626
6.30000e-07;0.0009752524956088475
6.30250e-07;0.0009783258018974178
6.30500e-07;0.000981399108185988
6.30750e-07;0.0009843038645662191
6.31000e-07;0.0009870216647401646
6.31250e-07;0.000989562494215639
6.31500e-07;0.000991902624644311
6.31750e-07;0.000993824207972122
6.32000e-07;0.000994690921615242
6.32250e-07;0.0009937936663281604
6.32500e-07;0.0009908313453486537
6.32750e-07;0.000985830928293676
6.33000e-07;0.0009788913681867762
6.33250e-07;0.0009701116982942644
6.33500e-07;0.0009589739613850937
6.33750e-07;0.0009470266643596218
6.34000e-07;0.0009321157616380425
6.34250e-07;0.0009158688975315432
6.34500e-07;0.0008955582594269672
6.34750e-07;0.0008734157159695187
6.35000e-07;0.0008512731725120702
6.35250e-07;0.0008257226389774739
6.35500e-07;0.0007986358203867251
6.35750e-07;0.0007691694229365023
6.36000e-07;0.0007386303370807948
6.36250e-07;0.0007050174521647247
6.36500e-07;0.0006700189318872841
6.36750e-07;0.0006350204116098436
6.37000e-07;0.0005973275268292596
6.37250e-07;0.0005584200516806215
6.37500e-07;0.0005195125765319835
6.37750e-07;0.0004790352387978149
6.38000e-07;0.00043785022399423147
6.38250e-07;0.0003966652091906655
6.38500e-07;0.00035472347176639243
6.38750e-07;0.0003124406119715969
6.39000e-07;0.0002701577521768014
6.39250e-07;0.00022833985401471096
6.39500e-07;0.000186731555526284
6.39750e-07;0.00014589619036693837
6.40000e-07;0.00010606651858678057
6.40250e-07;6.729590662514455e-05
6.40500e-07;2.9794945088634427e-05
6.40750e-07;-6.175299019504376e-06
6.41000e-07;-4.0342716097044036e-05
6.41250e-07;-7.243523154433807e-05
6.41500e-07;-0.00010218088236915249
6.41750e-07;-0.00012933600081830012
6.42000e-07;-0.00015374614166475871
6.42250e-07;-0.00017534831127592938
6.42500e-07;-0.00019410250037849873
6.42750e-07;-0.00020995601871292118
6.43000e-07;-0.0002228510580159623
6.43250e-07;-0.00023272983263225024
6.43500e-07;-0.00023953465720985776
6.43750e-07;-0.0002432255650795072
6.44000e-07;-0.0002438184715351061
6.44250e-07;-0.00024138659944039856
