Time(s);Current(A)
1.40000e-05;0.003946847188732268
1.40003e-05;0.003913794263998596
1.40005e-05;0.003880741339264701
1.40008e-05;0.0038476884145308057
1.40010e-05;0.003814635489797134
1.40013e-05;0.0037815825650632383
1.40015e-05;0.003748529640329343
1.40018e-05;0.0037154767155956714
1.40020e-05;0.003682423790861776
1.40023e-05;0.0036493708661278802
1.40025e-05;0.0036163179413942086
1.40028e-05;0.0035832650166603133
1.40030e-05;0.0035475262260490884
1.40033e-05;0.0035112156244996814
1.40035e-05;0.0034749050229500285
1.40038e-05;0.0034385944214003756
1.40040e-05;0.0034022838198509687
1.40043e-05;0.003365973218301316
1.40045e-05;0.003329662616751663
1.40048e-05;0.003293352015202256
1.40050e-05;0.003257041413652603
1.40053e-05;0.00322073081210295
1.40055e-05;0.0031844202105532973
1.40058e-05;0.0031481096090038903
1.40060e-05;0.0031117990074542375
1.40063e-05;0.0030785411269415325
1.40065e-05;0.00304593315947793
1.40068e-05;0.0030133251920141063
1.40070e-05;0.002980717224550283
1.40073e-05;0.0029481092570866805
1.40075e-05;0.002915501289622857
1.40078e-05;0.0028864163441383217
1.40080e-05;0.002864666057630404
1.40083e-05;0.0028429157711223393
1.40085e-05;0.002821165484614274
1.40088e-05;0.0027994151981063564
1.40090e-05;0.0027776649115982916
1.40093e-05;0.0027559146250902265
1.40095e-05;0.0027460698311374673
1.40098e-05;0.002738759672637039
1.40100e-05;0.0027364101986724464
1.40103e-05;-0.001965156918712928
1.40105e-05;-0.017129802921029103
1.40108e-05;-0.014879019473553757
1.40110e-05;-0.011360680778842667
1.40113e-05;-0.005643774643193983
1.40115e-05;0.006448498728417671
1.40118e-05;0.006938391626220313
1.40120e-05;0.006063030755403718
1.40123e-05;0.0027249222412121916
1.40125e-05;-0.00447759505606898
1.40128e-05;-0.005499400724614822
1.40130e-05;-0.0031008416361687323
1.40133e-05;0.0009494145631780263
1.40135e-05;0.005400116041839025
1.40138e-05;0.007004678166500274
1.40140e-05;0.005981093774161117
1.40143e-05;0.0031469720449734573
1.40145e-05;-0.00031321154701118063
1.40148e-05;-0.0011393223693343453
1.40150e-05;0.0003340730731839747
1.40153e-05;0.002852914330407483
1.40155e-05;0.00563080685236036
1.40158e-05;0.0066320769725137846
1.40160e-05;0.005991718608204754
1.40163e-05;0.004220595595481701
1.40165e-05;0.0020595589195987426
1.40168e-05;0.001549716713453972
1.40170e-05;0.0024805321503164786
1.40173e-05;0.004065667912762576
1.40175e-05;0.00581189066215646
1.40178e-05;0.0064435812968964895
1.40180e-05;0.006044941812757276
1.40183e-05;0.004935652505456628
1.40185e-05;0.0035794586515995827
1.40188e-05;0.003254522750477065
1.40190e-05;0.00382859385473888
1.40193e-05;0.004808950274961424
1.40195e-05;0.005886690880306584
1.40198e-05;0.0062629502766894645
1.40200e-05;0.005990700002352538
1.40203e-05;0.005270410225663839
1.40205e-05;0.004392779249969431
1.40208e-05;0.004158610539687842
1.40210e-05;0.004485198330463959
1.40213e-05;0.005064060338527311
1.40215e-05;0.0057018845878278905
1.40218e-05;0.0058984806293549815
1.40220e-05;0.005687269875861518
1.40223e-05;0.005194062309583647
1.40225e-05;0.0046011728875071664
1.40228e-05;0.004410416373801457
1.40230e-05;0.004570157713209782
1.40233e-05;0.004887348167554842
1.40235e-05;0.005241095980489113
1.40238e-05;0.005318301539109701
1.40240e-05;0.005140133655931333
1.40243e-05;0.004785627662780239
1.40245e-05;0.004369205003285832
1.40248e-05;0.0042054026790761785
1.40250e-05;0.0042620637806893135
1.40253e-05;0.0044184577000884635
1.40255e-05;0.004599062885590679
1.40258e-05;0.004607969652853063
1.40260e-05;0.004458663313829962
1.40263e-05;0.004200873103864902
1.40265e-05;0.003906489535219599
1.40268e-05;0.003772741963534064
1.40270e-05;0.00377968366916125
1.40273e-05;0.0038518899143809315
1.40275e-05;0.003942259900836869
1.40278e-05;0.003928290701236535
1.40280e-05;0.0038186479054772796
1.40283e-05;0.0036446996558665455
1.40285e-05;0.0034517179318551403
1.40288e-05;0.0033636275412331517
1.40290e-05;0.0033684696210075924
1.40293e-05;0.0034193306407218176
1.40295e-05;0.0034866125090040763
1.40298e-05;0.0034933027486240527
1.40300e-05;0.0034445542380354753
1.40303e-05;0.003359740066902789
1.40305e-05;0.003266939343350015
1.40308e-05;0.0032434956978563824
1.40310e-05;0.0032816314559068883
1.40313e-05;0.003351675119771087
1.40315e-05;0.003434804133890355
1.40318e-05;0.003482498305213594
1.40320e-05;0.0034977082957420155
1.40323e-05;0.0034922908088257723
1.40325e-05;0.0034835557140554655
1.40328e-05;0.003519667955022488
1.40330e-05;0.003595471407811126
1.40333e-05;0.0036920966320035287
1.40335e-05;0.0037974711125215665
1.40338e-05;0.003880922210634367
1.40340e-05;0.003942932429809069
1.40343e-05;0.003989751645449177
1.40345e-05;0.004041158205729364
1.40348e-05;0.004115651979171949
1.40350e-05;0.00421479654350742
1.40353e-05;0.004327249087779366
1.40355e-05;0.0044373814526295005
1.40358e-05;0.004535320739006341
1.40360e-05;0.004617944953185291
1.40363e-05;0.004690499793581139
1.40365e-05;0.0047630546339764955
1.40368e-05;0.004839694671429917
1.40370e-05;0.004932092770633007
1.40373e-05;0.0050249709322514845
1.40375e-05;0.005117849093870592
1.40378e-05;0.005205920151940571
1.40380e-05;0.005271932591523851
1.40383e-05;0.005323926002558196
1.40385e-05;0.005375919413592542
1.40388e-05;0.005428523428624965
1.40390e-05;0.005482231096053396
1.40393e-05;0.005531220836564178
1.40395e-05;0.005580210577074959
1.40398e-05;0.0056250593567250705
1.40400e-05;0.005650796418693279
1.40403e-05;0.00566403672129573
1.40405e-05;0.00567727702389809
1.40408e-05;0.005689800661935101
1.40410e-05;0.0056995818772750334
1.40413e-05;0.005706741389883508
1.40415e-05;0.005703868570181664
1.40418e-05;0.005700995750479821
1.40420e-05;0.005693228660107744
1.40423e-05;0.0056667329209109775
1.40425e-05;0.00564023718171421
1.40428e-05;0.005613741442517622
1.40430e-05;0.005587245703320854
1.40433e-05;0.005560749964124086
1.40435e-05;0.005530470502942117
1.40438e-05;0.0054857120713286715
1.40440e-05;0.005440953639715226
1.40443e-05;0.005396195208102084
1.40445e-05;0.005351436776488638
1.40448e-05;0.005306678344875193
1.40450e-05;0.00526025280157579
1.40453e-05;0.0052074478094407085
1.40455e-05;0.005154642817305627
1.40458e-05;0.005101837825170903
1.40460e-05;0.00504903283303582
1.40463e-05;0.004996227840900739
1.40465e-05;0.004943422848766014
1.40468e-05;0.0048916997102491375
1.40470e-05;0.0048441164442208015
1.40473e-05;0.004796533178192788
1.40475e-05;0.004748949912164451
1.40478e-05;0.004701366646136115
1.40480e-05;0.004653783380107779
1.40483e-05;0.004606200114079766
1.40485e-05;0.004564928556683297
1.40488e-05;0.004547809683608627
1.40490e-05;0.0045306908105340726
1.40493e-05;0.004513571937459403
1.40495e-05;0.004496453064384733
1.40498e-05;0.004479334191310178
1.40500e-05;0.0044622153182355085
1.40503e-05;0.004445096445160839
1.40505e-05;0.004427977572086284
1.40508e-05;0.004410858699011614
1.40510e-05;0.0043937398259369445
1.40513e-05;0.00437662095286239
1.40515e-05;0.004367592028020559
1.40518e-05;0.00438952048370118
1.40520e-05;0.004411448939381652
1.40523e-05;0.004433377395062273
1.40525e-05;0.004455305850742895
1.40528e-05;0.004477234306423368
1.40530e-05;0.0044991627621039885
1.40533e-05;0.0045210912177846094
1.40535e-05;0.004543019673465082
1.40538e-05;0.004564948129145704
1.40540e-05;0.004586876584826325
1.40543e-05;0.004608805040506797
1.40545e-05;0.004634374470742397
1.40548e-05;0.004673876627312074
1.40550e-05;0.004713378783881484
1.40553e-05;0.004752880940451161
1.40555e-05;0.004792383097020838
1.40558e-05;0.004831885253590248
1.40560e-05;0.004871387410159925
1.40563e-05;0.004910889566729602
1.40565e-05;0.00495039172329928
1.40568e-05;0.004985845098433977
1.40570e-05;0.005019622031651727
1.40573e-05;0.005053398964869477
1.40575e-05;0.005087175898086997
1.40578e-05;0.005120952831304747
1.40580e-05;0.005154729764522498
1.40583e-05;0.005188506697740018
1.40585e-05;0.005222283630957768
1.40588e-05;0.005253457884000116
1.40590e-05;0.0052746725973424596
1.40593e-05;0.005295887310684947
1.40595e-05;0.005317102024027435
1.40598e-05;0.005338316737369779
1.40600e-05;0.005359531450712267
1.40603e-05;0.005380746164054755
1.40605e-05;0.005401960877397099
1.40608e-05;0.005421607084388819
1.40610e-05;0.0054352511704055815
1.40613e-05;0.005448895256422252
1.40615e-05;0.005462539342439014
1.40618e-05;0.005476183428455777
1.40620e-05;0.005489827514472447
1.40623e-05;0.00550347160048921
1.40625e-05;0.005517115686505972
1.40628e-05;0.005530759772522643
1.40630e-05;0.005544403858539405
1.40633e-05;0.005558047944556168
1.40635e-05;0.005571692030572838
1.40638e-05;0.005585336116589601
1.40640e-05;0.005598980202606363
1.40643e-05;0.0056126242886230335
1.40645e-05;0.005626268374639796
1.40648e-05;0.005635982076315886
1.40650e-05;0.005644068359676644
1.40653e-05;0.005652154643037348
1.40655e-05;0.005660240926398105
1.40658e-05;0.005668327209758864
1.40660e-05;0.005676413493119567
1.40663e-05;0.005684499776480325
1.40665e-05;0.005692586059841083
1.40668e-05;0.005700672343201787
1.40670e-05;0.0057087586265625444
1.40673e-05;0.005716844909923303
1.40675e-05;0.005724931193284006
1.40678e-05;0.005733017476644764
1.40680e-05;0.005741103760005523
1.40683e-05;0.005749190043366226
1.40685e-05;0.005753810541540367
1.40688e-05;0.005745168701336542
1.40690e-05;0.005736526861132777
1.40693e-05;0.0057278850209289515
1.40695e-05;0.005719243180725127
1.40698e-05;0.005710601340521361
1.40700e-05;0.005701959500317537
1.40703e-05;0.005693317660113712
1.40705e-05;0.005684675819909946
1.40708e-05;0.005676033979706121
1.40710e-05;0.005644997475094494
1.40713e-05;0.0056046882165051186
1.40715e-05;0.005564378957915471
1.40718e-05;0.005524069699325823
1.40720e-05;0.005483760440736448
1.40723e-05;0.0054434511821468004
1.40725e-05;0.005403141923557153
1.40728e-05;0.0053628326649677776
1.40730e-05;0.00532252340637813
1.40733e-05;0.005277446050641171
1.40735e-05;0.005214122867655984
1.40738e-05;0.005150799684671227
1.40740e-05;0.00508747650168604
1.40743e-05;0.005024153318700854
1.40745e-05;0.004960830135716097
1.40748e-05;0.00489750695273091
1.40750e-05;0.0048341837697457235
1.40753e-05;0.004770073731036575
1.40755e-05;0.004702952672799767
1.40758e-05;0.0046358316145629595
1.40760e-05;0.004568710556326607
1.40763e-05;0.0045015894980898
1.40765e-05;0.004434468439852992
1.40768e-05;0.004367347381616639
1.40770e-05;0.0043002263233798315
1.40773e-05;0.004238194143923079
1.40775e-05;0.004195635309966626
1.40778e-05;0.004153076476009885
1.40780e-05;0.0041105176420531435
1.40783e-05;0.00406795880809669
1.40785e-05;0.004025399974139948
1.40788e-05;0.003982841140183207
1.40790e-05;0.003940282306226754
1.40793e-05;0.0038977234722700122
1.40795e-05;0.0038551646383132706
1.40798e-05;0.003812605804356818
1.40800e-05;0.0037700469704000763
1.40803e-05;0.0037274881364433347
1.40805e-05;0.0037114392136125534
1.40808e-05;0.003706367007353774
1.40810e-05;0.003701294801094995
1.40813e-05;0.00369622259483625
1.40815e-05;0.003691150388577471
1.40818e-05;0.0036860781823186916
1.40820e-05;0.003681005976059912
1.40823e-05;0.003675933769801167
1.40825e-05;0.0036708615635423878
1.40828e-05;0.0036657893572836085
1.40830e-05;0.0036607171510248636
1.40833e-05;0.0036556449447660844
1.40835e-05;0.0036548891197232826
1.40838e-05;0.003670650564275253
1.40840e-05;0.0036864120088273304
1.40843e-05;0.0037021734533794074
1.40845e-05;0.0037179348979313777
1.40848e-05;0.003733696342483455
1.40850e-05;0.003749457787035532
1.40853e-05;0.003765219231587503
1.40855e-05;0.00378098067613958
1.40858e-05;0.0037975234142390516
1.40860e-05;0.003817055887375901
1.40863e-05;0.0038365883605128823
1.40865e-05;0.0038561208336498633
1.40868e-05;0.0038756533067867125
1.40870e-05;0.0038951857799236936
1.40873e-05;0.003914718253060675
1.40875e-05;0.003934250726197524
1.40878e-05;0.003953783199334505
1.40880e-05;0.003970309391170048
1.40883e-05;0.003975331604032988
1.40885e-05;0.003980353816895961
1.40888e-05;0.0039853760297589354
1.40890e-05;0.003990398242621876
1.40893e-05;0.003995420455484849
1.40895e-05;0.004000442668347823
1.40898e-05;0.0040054648812107635
1.40900e-05;0.004010487094073737
1.40903e-05;0.004015509306936711
1.40905e-05;0.004020531519799685
1.40908e-05;0.0040255537326626244
1.40910e-05;0.004030575945525599
1.40913e-05;0.0040171554719716585
1.40915e-05;0.003996098603835849
1.40918e-05;0.003975041735699897
1.40920e-05;0.003953984867563946
1.40923e-05;0.003932927999428137
1.40925e-05;0.0039118711312921845
1.40928e-05;0.0038908142631562323
1.40930e-05;0.003869757395020423
1.40933e-05;0.0038487005268844714
1.40935e-05;0.003827643658748519
1.40938e-05;0.00380658679061271
1.40940e-05;0.0037855299224767583
1.40943e-05;0.0037618028827709617
1.40945e-05;0.0037278580375716065
1.40948e-05;0.0036939131923720216
1.40950e-05;0.0036599683471724366
1.40953e-05;0.0036260235019730815
1.40955e-05;0.0035920786567734965
1.40958e-05;0.0035581338115739116
1.40960e-05;0.003524188966374557
1.40963e-05;0.003490244121174972
1.40965e-05;0.0034587798548665503
1.40968e-05;0.0034283426991852588
1.40970e-05;0.0033979055435037608
1.40973e-05;0.0033674683878222628
1.40975e-05;0.0033370312321409712
1.40978e-05;0.0033065940764594732
1.40980e-05;0.0032761569207779753
1.40983e-05;0.0032457197650966837
1.40985e-05;0.003218793568102309
1.40988e-05;0.003205302572566811
1.40990e-05;0.0031918115770313135
1.40993e-05;0.003178320581495907
1.40995e-05;0.003164829585960409
1.40998e-05;0.0031513385904249113
1.41000e-05;0.003137847594889505
1.41003e-05;0.0031243565993540074
1.41005e-05;0.0031108656038185095
1.41008e-05;0.003097374608283103
1.41010e-05;0.003083883612747605
1.41013e-05;0.0030703926172121073
1.41015e-05;0.003056901621676701
1.41018e-05;0.0030468205448574174
1.41020e-05;0.003049788025140938
1.41023e-05;0.003052755505424438
1.41025e-05;0.003055722985707958
1.41028e-05;0.0030586904659914782
1.41030e-05;0.0030616579462749783
1.41033e-05;0.0030646254265584982
1.41035e-05;0.0030675929068420186
1.41038e-05;0.0030705603871255187
1.41040e-05;0.003073527867409039
1.41043e-05;0.003076495347692559
1.41045e-05;0.003079462827976059
1.41048e-05;0.0030824303082595795
1.41050e-05;0.0030865549969236535
1.41053e-05;0.0030951079142028984
1.41055e-05;0.0031036608314822015
1.41058e-05;0.0031122137487615046
1.41060e-05;0.0031207666660407495
1.41063e-05;0.0031293195833200526
1.41065e-05;0.0031378725005993557
1.41068e-05;0.003146425417878601
1.41070e-05;0.003154978335157904
1.41073e-05;0.0031635312524372072
1.41075e-05;0.0031720841697165103
1.41078e-05;0.0031806370869957553
1.41080e-05;0.003189260408488499
1.41083e-05;0.0031981531420922143
1.41085e-05;0.0032070458756958704
1.41088e-05;0.0032159386092995863
1.41090e-05;0.003224831342903302
1.41093e-05;0.0032337240765069578
1.41095e-05;0.0032426168101106737
1.41098e-05;0.0032515095437143896
1.41100e-05;0.003260402277318045
1.41103e-05;0.003269295010921761
1.41105e-05;0.003278187744525477
1.41108e-05;0.0032870804781291326
1.41110e-05;0.003297823269968244
1.41113e-05;0.003315645582625034
1.41115e-05;0.003333467895281703
1.41118e-05;0.003351290207938493
1.41120e-05;0.003369112520595283
1.41123e-05;0.0033869348332519525
1.41125e-05;0.0034047571459087426
1.41128e-05;0.0034225794585655326
1.41130e-05;0.0034404017712222016
1.41133e-05;0.0034582240838789916
1.41135e-05;0.0034760463965357816
1.41138e-05;0.003493868709192451
1.41140e-05;0.003512740203012577
1.41143e-05;0.0035356265433637312
1.41145e-05;0.0035585128837147305
1.41148e-05;0.003581399224065885
1.41150e-05;0.0036042855644170396
1.41153e-05;0.003627171904768039
1.41155e-05;0.003650058245119193
1.41158e-05;0.0036729445854703476
1.41160e-05;0.003695830925821347
1.41163e-05;0.0037187172661725014
1.41165e-05;0.0037416036065236555
1.41168e-05;0.00376448994687481
1.41170e-05;0.0037851837080013434
1.41173e-05;0.0037974872412032215
1.41175e-05;0.0038097907744050995
1.41178e-05;0.003822094307606894
1.41180e-05;0.003834397840808772
1.41183e-05;0.00384670137401065
1.41185e-05;0.0038590049072124446
1.41188e-05;0.0038713084404143226
1.41190e-05;0.0038836119736162006
1.41193e-05;0.003895915506817995
1.41195e-05;0.003908219040019873
1.41198e-05;0.003920522573221751
1.41200e-05;0.003932826106423546
1.41203e-05;0.003945129639625423
1.41205e-05;0.003957433172827302
1.41208e-05;0.003969736706029096
1.41210e-05;0.0039820402392309745
1.41213e-05;0.003982336391337043
1.41215e-05;0.003977660756905955
1.41218e-05;0.003972985122474834
1.41220e-05;0.003968309488043714
1.41223e-05;0.003963633853612625
1.41225e-05;0.003958958219181505
1.41228e-05;0.003954282584750384
1.41230e-05;0.003949606950319296
1.41233e-05;0.0039449313158881755
1.41235e-05;0.003940255681457055
1.41238e-05;0.003935580047025967
1.41240e-05;0.003930904412594846
1.41243e-05;0.003926228778163726
1.41245e-05;0.003921553143732637
1.41248e-05;0.003916877509301517
1.41250e-05;0.003912201874870396
1.41253e-05;0.003906519004186877
1.41255e-05;0.003896981795361592
1.41258e-05;0.003887444586536242
1.41260e-05;0.0038779073777108924
1.41263e-05;0.003868370168885607
1.41265e-05;0.0038588329600602574
1.41268e-05;0.003849295751234908
1.41270e-05;0.003839758542409623
1.41273e-05;0.003830221333584273
1.41275e-05;0.0038206841247589232
1.41278e-05;0.003811146915933638
1.41280e-05;0.0038016097071082882
1.41283e-05;0.0037918277598268696
1.41285e-05;0.0037811092847310148
1.41288e-05;0.003770390809635087
1.41290e-05;0.0037596723345391593
1.41293e-05;0.003748953859443304
1.41295e-05;0.0037382353843473763
1.41298e-05;0.0037275169092514486
1.41300e-05;0.0037167984341555937
1.41303e-05;0.003706079959059666
1.41305e-05;0.0036953614839637383
1.41308e-05;0.003684643008867883
1.41310e-05;0.0036739245337719553
1.41313e-05;0.00366114317233359
1.41315e-05;0.003640467871915695
1.41318e-05;0.0036197925714976605
1.41320e-05;0.0035991172710796255
1.41323e-05;0.0035784419706617306
1.41325e-05;0.003557766670243696
1.41328e-05;0.003537091369825661
1.41330e-05;0.0035164160694077665
1.41333e-05;0.0034957407689897315
1.41335e-05;0.0034750654685716965
1.41338e-05;0.003454390168153662
1.41340e-05;0.003433714867735767
1.41343e-05;0.0034095793296921185
1.41345e-05;0.0033840110426823404
1.41348e-05;0.0033584427556727354
1.41350e-05;0.003332874468662957
1.41353e-05;0.003307306181653179
1.41355e-05;0.003281737894643574
1.41358e-05;0.0032561696076337954
1.41360e-05;0.0032306013206240174
1.41363e-05;0.0032050330336144124
1.41365e-05;0.0031794647466046344
1.41368e-05;0.003153896459594856
1.41370e-05;0.0031305932505460874
1.41373e-05;0.0031159576965419746
1.41375e-05;0.003101322142537862
1.41378e-05;0.0030866865885338483
1.41380e-05;0.003072051034529735
1.41383e-05;0.0030574154805256223
1.41385e-05;0.003042779926521609
1.41388e-05;0.003028144372517496
1.41390e-05;0.003013508818513383
1.41393e-05;0.0029988732645093693
1.41395e-05;0.0029842377105052565
1.41398e-05;0.0029696021565011436
1.41400e-05;0.00295496660249713
1.41403e-05;0.002940331048493017
1.41405e-05;0.002925695494488904
1.41408e-05;0.0029110599404848906
1.41410e-05;0.002910277994318331
1.41413e-05;0.0029152322849246575
1.41415e-05;0.00292018657553095
1.41418e-05;0.002925140866137276
1.41420e-05;0.0029300951567436022
1.41423e-05;0.0029350494473499283
1.41425e-05;0.002940003737956221
1.41428e-05;0.002944958028562547
1.41430e-05;0.0029499123191688735
1.41433e-05;0.0029548666097751657
1.41435e-05;0.002959820900381492
1.41438e-05;0.0029647751909878182
1.41440e-05;0.002969729481594111
1.41443e-05;0.002974683772200437
1.41445e-05;0.002979638062806763
1.41448e-05;0.00298598886868655
1.41450e-05;0.002997683646327064
1.41453e-05;0.003009378423967578
1.41455e-05;0.003021073201608013
1.41458e-05;0.003032767979248527
1.41460e-05;0.003044462756889041
1.41463e-05;0.003056157534529476
1.41465e-05;0.00306785231216999
1.41468e-05;0.0030795470898105043
1.41470e-05;0.003091241867450939
1.41473e-05;0.003102936645091453
1.41475e-05;0.003114631422731967
1.41478e-05;0.003126326200372402
1.41480e-05;0.003138020978012916
1.41483e-05;0.00314971575565343
1.41485e-05;0.003161410533293865
1.41488e-05;0.0031718072166689723
1.41490e-05;0.003177236550792591
1.41493e-05;0.003182665884916173
1.41495e-05;0.003188095219039792
