Time(s);Current(A)
1.22500e-05;-0.011913170718938831
1.22503e-05;-0.01192775265141008
1.22505e-05;-0.01194233458388143
1.22508e-05;-0.011956916516352778
1.22510e-05;-0.011971498448824027
1.22513e-05;-0.011986080381295377
1.22515e-05;-0.012000039271477336
1.22518e-05;-0.012012285232010872
1.22520e-05;-0.012024024209962101
1.22523e-05;-0.01203436934112093
1.22525e-05;-0.012044036839509125
1.22528e-05;-0.012051841322684402
1.22530e-05;-0.012058557320962096
1.22532e-05;-0.012062280748615394
1.22535e-05;-0.012066004176268715
1.22538e-05;-0.012068383930339344
1.22540e-05;-0.012067069523745701
1.22543e-05;-0.012065755117152067
1.22545e-05;-0.012063050586342265
1.22548e-05;-0.012056524188180203
1.22550e-05;-0.012049997790018186
1.22553e-05;-0.012041754595211155
1.22555e-05;-0.012028791412814795
1.22558e-05;-0.012015828230418524
1.22560e-05;-0.012002865048022166
1.22563e-05;-0.011989901865625806
1.22565e-05;-0.011971880120698945
1.22568e-05;-0.011952319242223437
1.22570e-05;-0.011932758363747931
1.22573e-05;-0.011913197485272555
1.22575e-05;-0.01189247517536108
1.22578e-05;-0.011868559742967529
1.22580e-05;-0.011844644310574139
1.22583e-05;-0.011820196807288212
1.22585e-05;-0.011794286481939835
1.22588e-05;-0.011768138935442145
1.22590e-05;-0.011741218971866054
1.22593e-05;-0.01171388550803026
1.22595e-05;-0.011686281223110459
1.22598e-05;-0.011658555997766922
1.22600e-05;-0.011630857229365738
1.22603e-05;-0.011603333494994672
1.22605e-05;-0.011576131011601223
1.22608e-05;-0.011549384261886817
1.22610e-05;-0.011523227356998714
1.22613e-05;-0.011497808874720485
1.22615e-05;-0.01147329074132891
1.22617e-05;-0.011449839911964108
1.22620e-05;-0.011427623776290082
1.22623e-05;-0.01140681798341579
1.22625e-05;-0.011387805837838392
1.22628e-05;-0.011371688327080388
1.22630e-05;-0.011359999806973815
1.22633e-05;-0.011353577983175014
1.22635e-05;-0.011352453327699278
1.22638e-05;-0.011356459754455357
1.22640e-05;-0.011365429004730263
1.22643e-05;-0.011379201202410297
1.22645e-05;-0.01139774513863919
1.22648e-05;-0.011422304867085882
1.22650e-05;-0.011453362612303949
1.22653e-05;-0.011488302918401657
1.22655e-05;-0.011533917545902031
1.22658e-05;-0.011579532173402098
1.22660e-05;-0.011629991991130361
1.22663e-05;-0.011693772686330327
1.22665e-05;-0.011757553381529862
1.22668e-05;-0.011821334076729828
1.22670e-05;-0.011885114771929795
1.22673e-05;-0.011963030213341493
1.22675e-05;-0.012045246335425686
1.22678e-05;-0.012127462457509881
1.22680e-05;-0.012209678579593517
1.22683e-05;-0.012294443386939373
1.22685e-05;-0.012386215292560265
1.22688e-05;-0.012477987198180537
1.22690e-05;-0.012570818526002833
1.22693e-05;-0.012666562522404461
1.22695e-05;-0.01276230651880544
1.22698e-05;-0.01285801975511736
1.22700e-05;-0.012953648422740164
1.22702e-05;-0.013048537233615142
1.22705e-05;-0.013141391956949454
1.22708e-05;-0.013233037597619037
1.22710e-05;-0.013321359108321409
1.22713e-05;-0.01340792232592774
1.22715e-05;-0.013489651469785697
1.22718e-05;-0.013569639584286308
1.22720e-05;-0.013642674675386246
1.22723e-05;-0.013709753649484213
1.22725e-05;-0.01377346259286589
1.22728e-05;-0.01382790631359368
1.22730e-05;-0.013878719308740397
1.22733e-05;-0.01391955035305669
1.22735e-05;-0.013955651878331301
1.22738e-05;-0.013978750540826966
1.22740e-05;-0.014001849203322632
1.22743e-05;-0.014019041431796761
1.22745e-05;-0.014019995106113169
1.22748e-05;-0.014020948780429577
1.22750e-05;-0.014016145805387506
1.22753e-05;-0.013995516079037104
1.22755e-05;-0.013974886352686705
1.22758e-05;-0.01394813986036913
1.22760e-05;-0.01390457654844956
1.22763e-05;-0.01386101323652999
1.22765e-05;-0.013817449924610717
1.22768e-05;-0.01376793385223589
1.22770e-05;-0.013702051860476948
1.22773e-05;-0.013636169868718453
1.22775e-05;-0.01357028787695951
1.22778e-05;-0.013500934445548157
1.22780e-05;-0.013422036987978853
1.22783e-05;-0.01334177768229225
1.22785e-05;-0.013257014395831716
1.22787e-05;-0.01316953036755644
1.22790e-05;-0.013079816592676319
1.22793e-05;-0.012988395233179668
1.22795e-05;-0.012895793044696884
1.22798e-05;-0.012802531878543359
1.22800e-05;-0.01270913600705347
1.22803e-05;-0.012616127964466069
1.22805e-05;-0.012524036245902278
1.22808e-05;-0.012433408408849884
1.22810e-05;-0.012344826965835685
1.22813e-05;-0.012258893551243452
1.22815e-05;-0.012176210296253442
1.22818e-05;-0.01209737995269727
1.22820e-05;-0.012023003720434258
1.22823e-05;-0.01195367994238433
1.22825e-05;-0.011889904437696011
1.22828e-05;-0.011831784717225503
1.22830e-05;-0.011779055355430949
1.22833e-05;-0.011731558354163877
1.22835e-05;-0.011689403304386099
1.22838e-05;-0.011652778084858024
1.22840e-05;-0.011621870139816557
1.22843e-05;-0.011596864864031706
1.22845e-05;-0.011577883256718853
1.22848e-05;-0.011565509310799306
1.22850e-05;-0.011559210310565915
1.22853e-05;-0.011556342323029165
1.22855e-05;-0.011562907215857643
1.22858e-05;-0.011569472108686078
1.22860e-05;-0.01158085288064522
1.22863e-05;-0.011605473945109508
1.22865e-05;-0.01163009500957363
1.22868e-05;-0.011654716074037917
1.22870e-05;-0.011679337138502206
1.22872e-05;-0.01171699916732877
1.22875e-05;-0.01175862907945351
1.22878e-05;-0.01180025899157825
1.22880e-05;-0.01184188890370299
1.22883e-05;-0.01188620464499615
1.22885e-05;-0.011937904534199061
1.22888e-05;-0.011989604423401974
1.22890e-05;-0.012042457546869046
1.22893e-05;-0.01209848125634504
1.22895e-05;-0.012154504965821034
1.22898e-05;-0.01221084848914979
1.22900e-05;-0.012268071276440601
1.22903e-05;-0.012325123910341585
1.22905e-05;-0.012381708741668402
1.22908e-05;-0.012437671333226982
1.22910e-05;-0.01249192320150477
1.22913e-05;-0.0125447223903916
1.22915e-05;-0.012593527729032609
1.22918e-05;-0.012642333067673615
1.22920e-05;-0.01268623899884404
1.22923e-05;-0.012716674993111524
1.22925e-05;-0.012747110987379007
1.22928e-05;-0.012777546981646286
1.22930e-05;-0.01280798297591377
1.22933e-05;-0.012838418970181256
1.22935e-05;-0.012868854964448532
1.22938e-05;-0.012899290958716017
1.22940e-05;-0.012929726952983502
1.22943e-05;-0.012960162947250779
1.22945e-05;-0.012984849421216877
1.22948e-05;-0.012993728743775518
1.22950e-05;-0.0130026080663341
1.22953e-05;-0.013011487388892741
1.22955e-05;-0.013020366711451382
1.22957e-05;-0.013029246034009965
1.22960e-05;-0.013038125356568606
1.22963e-05;-0.013047004679127247
1.22965e-05;-0.013055884001685827
1.22968e-05;-0.01306476332424447
1.22970e-05;-0.013070070459742187
1.22973e-05;-0.01306555658430791
1.22975e-05;-0.013061042708873665
1.22978e-05;-0.013056528833439388
1.22980e-05;-0.013052014958005112
1.22983e-05;-0.013047501082570866
1.22985e-05;-0.01304298720713659
1.22988e-05;-0.013038473331702313
1.22990e-05;-0.013033959456268068
1.22993e-05;-0.013029445580833791
1.22995e-05;-0.013021107197915962
1.22998e-05;-0.013011605158772106
1.23000e-05;-0.013002103119628185
1.23003e-05;-0.012992601080484265
1.23005e-05;-0.012983099041340408
1.23008e-05;-0.012973597002196488
1.23010e-05;-0.012964094963052567
1.23013e-05;-0.01295459292390871
1.23015e-05;-0.01294509088476479
1.23018e-05;-0.01293647134228753
1.23020e-05;-0.01293027804716637
1.23023e-05;-0.012924084752045168
1.23025e-05;-0.012917891456923965
1.23028e-05;-0.012911698161802805
1.23030e-05;-0.012905504866681603
1.23033e-05;-0.0128993115715604
1.23035e-05;-0.01289311827643924
1.23038e-05;-0.012886924981318038
1.23040e-05;-0.012882945667456729
1.23042e-05;-0.012885053250443073
1.23045e-05;-0.012887160833429431
1.23048e-05;-0.01288926841641579
1.23050e-05;-0.012891375999402132
1.23053e-05;-0.01289348358238849
1.23055e-05;-0.012895591165374849
1.23058e-05;-0.012897698748361207
1.23060e-05;-0.01289980633134755
1.23063e-05;-0.012904004454310133
1.23065e-05;-0.012913950097101428
1.23068e-05;-0.012923895739892657
1.23070e-05;-0.012933841382683954
1.23073e-05;-0.01294378702547525
1.23075e-05;-0.01295373266826648
1.23078e-05;-0.012963678311057776
1.23080e-05;-0.012973623953849071
1.23083e-05;-0.0129835695966403
1.23085e-05;-0.012993515239431597
1.23088e-05;-0.013005807284685584
1.23090e-05;-0.013018813253456978
1.23093e-05;-0.013031819222228461
1.23095e-05;-0.013044825190999945
1.23098e-05;-0.01305783115977134
1.23100e-05;-0.01307083712854282
1.23103e-05;-0.013083843097314304
1.23105e-05;-0.013096849066085698
1.23108e-05;-0.013109855034857181
1.23110e-05;-0.013122432336492407
1.23113e-05;-0.013133831103923906
1.23115e-05;-0.013145229871355484
1.23118e-05;-0.013156156970278724
1.23120e-05;-0.01316578731136147
1.23123e-05;-0.013174827456161073
1.23125e-05;-0.013182244974806624
1.23127e-05;-0.013188176197382835
1.23130e-05;-0.013190021147403154
1.23133e-05;-0.013189388647508972
1.23135e-05;-0.013181944896610962
1.23138e-05;-0.013174501145712902
1.23140e-05;-0.013164295196721614
1.23143e-05;-0.013146495138793847
1.23145e-05;-0.0131286950808662
1.23148e-05;-0.013107715265942878
1.23150e-05;-0.013077993347737458
1.23153e-05;-0.01304827142953224
1.23155e-05;-0.013014691624763527
1.23158e-05;-0.012970505335651755
1.23160e-05;-0.01292631904654028
1.23163e-05;-0.012882132757428508
1.23165e-05;-0.012837946468316734
1.23168e-05;-0.012782643528274233
1.23170e-05;-0.012723958202360275
1.23173e-05;-0.012665272876446317
1.23175e-05;-0.012606587550532754
1.23178e-05;-0.012545676416802055
1.23180e-05;-0.012478645871477968
1.23183e-05;-0.012410773625773265
1.23185e-05;-0.012340587293905093
1.23188e-05;-0.012269898699038391
1.23190e-05;-0.012197552764716452
1.23193e-05;-0.012124270621608538
1.23195e-05;-0.01205044193758717
1.23198e-05;-0.011976493506791133
1.23200e-05;-0.011902852309482952
1.23203e-05;-0.011829943463281508
1.23205e-05;-0.011758169109236244
1.23208e-05;-0.011687846388945418
1.23210e-05;-0.01161924023602675
1.23212e-05;-0.011552696487399532
1.23215e-05;-0.011488654790984617
1.23218e-05;-0.011427578262501159
1.23220e-05;-0.011369929706995248
1.23223e-05;-0.011316164975033119
1.23225e-05;-0.01126661255349845
1.23228e-05;-0.011221120979119585
1.23230e-05;-0.011179134694503805
1.23233e-05;-0.011140340116713818
1.23235e-05;-0.011104821382417963
1.23238e-05;-0.01107276972341721
1.23240e-05;-0.011044378295734575
1.23243e-05;-0.011019834170660055
1.23245e-05;-0.01099970173912281
1.23248e-05;-0.010983673677613678
1.23250e-05;-0.010969308648139395
1.23253e-05;-0.010959515791267346
1.23255e-05;-0.010952337390217427
1.23258e-05;-0.010952346910403745
1.23260e-05;-0.010952356430590064
1.23263e-05;-0.010952365950776382
1.23265e-05;-0.0109523754709627
1.23268e-05;-0.01096138834066607
1.23270e-05;-0.010973140596754893
1.23273e-05;-0.010984892852843714
1.23275e-05;-0.010996645108932456
1.23278e-05;-0.011010319339327324
1.23280e-05;-0.011029277652097056
1.23283e-05;-0.011048235964866657
1.23285e-05;-0.01106833169715654
1.23288e-05;-0.011091554535995436
1.23290e-05;-0.011114777374834173
1.23293e-05;-0.011138550831698023
1.23295e-05;-0.011163838102243983
1.23297e-05;-0.011189125372789772
1.23300e-05;-0.011214584659718712
1.23303e-05;-0.011240516871147592
1.23305e-05;-0.011266348853535819
1.23308e-05;-0.011291905276305842
1.23310e-05;-0.011317062397508165
1.23313e-05;-0.011341121719239493
1.23315e-05;-0.011363072828052895
1.23318e-05;-0.011379227828828959
1.23320e-05;-0.011395382829605023
1.23323e-05;-0.011411537830380977
1.23325e-05;-0.01142769283115704
1.23328e-05;-0.011443847831933104
1.23330e-05;-0.011460002832709058
1.23333e-05;-0.011476157833485122
1.23335e-05;-0.011492312834261185
1.23338e-05;-0.011508467835037138
1.23340e-05;-0.011521737183364283
1.23343e-05;-0.011527073009791026
1.23345e-05;-0.011532408836217735
1.23348e-05;-0.01153774466264448
1.23350e-05;-0.011543080489071223
1.23353e-05;-0.011548416315497932
1.23355e-05;-0.011553752141924677
1.23358e-05;-0.01155908796835142
1.23360e-05;-0.01156442379477813
1.23363e-05;-0.011569759621204875
1.23365e-05;-0.011573113612620782
1.23368e-05;-0.011571018946673627
1.23370e-05;-0.011568924280726457
1.23373e-05;-0.011566829614779289
1.23375e-05;-0.011564734948832135
1.23378e-05;-0.011562640282884964
1.23380e-05;-0.011560545616937796
1.23382e-05;-0.011558450950990642
1.23385e-05;-0.011556356285043472
1.23388e-05;-0.011554261619096303
1.23390e-05;-0.011552166953149149
1.23393e-05;-0.011550072287201979
1.23395e-05;-0.011545820537936078
1.23398e-05;-0.011540912467967852
1.23400e-05;-0.011536004397999658
1.23403e-05;-0.011531096328031431
1.23405e-05;-0.011526188258063206
1.23408e-05;-0.011521280188095012
1.23410e-05;-0.011516372118126787
1.23413e-05;-0.01151146404815856
1.23415e-05;-0.011506555978190365
1.23418e-05;-0.01150164790822214
1.23420e-05;-0.011496739838253913
1.23423e-05;-0.011491751053187036
1.23425e-05;-0.011486540358165744
1.23428e-05;-0.011481329663144451
1.23430e-05;-0.011476118968123193
1.23433e-05;-0.0114709082731019
1.23435e-05;-0.011465697578080608
1.23438e-05;-0.01146048688305935
1.23440e-05;-0.011455276188038058
1.23443e-05;-0.011450065493016765
1.23445e-05;-0.01144264079073175
1.23448e-05;-0.011434542447892342
1.23450e-05;-0.011426444105052933
1.23453e-05;-0.011418345762213577
1.23455e-05;-0.011410247419374167
1.23458e-05;-0.011402149076534758
1.23460e-05;-0.011394050733695404
1.23463e-05;-0.011385952390855995
1.23465e-05;-0.011377117334615385
1.23467e-05;-0.011366256832826901
1.23470e-05;-0.011355396331038345
1.23473e-05;-0.011344535829249788
1.23475e-05;-0.011333675327461306
1.23478e-05;-0.01132281482567275
1.23480e-05;-0.011311954323884193
1.23483e-05;-0.011301093822095636
1.23485e-05;-0.011289958000944865
1.23488e-05;-0.011278065244497669
1.23490e-05;-0.011266172488050473
1.23493e-05;-0.011254279731603358
1.23495e-05;-0.011242386975156162
1.23498e-05;-0.011230494218708966
1.23500e-05;-0.01121860146226185
1.23503e-05;-0.011206708705814654
1.23505e-05;-0.011195060201591188
1.23508e-05;-0.011184083219805699
1.23510e-05;-0.011173106238020137
1.23513e-05;-0.011162129256234575
1.23515e-05;-0.011151152274449086
1.23518e-05;-0.011141640861956592
1.23520e-05;-0.011132575368015285
1.23523e-05;-0.011123509874074039
1.23525e-05;-0.011114444380132732
1.23528e-05;-0.01110629448530658
1.23530e-05;-0.011100661846375344
1.23533e-05;-0.01109502920744407
1.23535e-05;-0.011090399355715125
1.23538e-05;-0.011088526466017577
1.23540e-05;-0.011086653576320016
1.23543e-05;-0.011086411656063428
1.23545e-05;-0.011090653758750579
1.23548e-05;-0.011094895861437758
1.23550e-05;-0.01109913796412494
1.23552e-05;-0.01110338006681209
1.23555e-05;-0.01110762216949927
1.23558e-05;-0.01111186427218645
1.23560e-05;-0.011122177316361483
1.23563e-05;-0.01113433752357805
1.23565e-05;-0.01114649773079462
1.23568e-05;-0.011158657938011188
1.23570e-05;-0.011170818145227674
1.23573e-05;-0.011182978352444244
1.23575e-05;-0.011196626418459088
1.23578e-05;-0.011214365053445505
1.23580e-05;-0.011232103688432043
1.23583e-05;-0.01124984232341858
1.23585e-05;-0.011267580958404995
1.23588e-05;-0.011285319593391532
1.23590e-05;-0.01130305822837807
1.23593e-05;-0.011321135608777717
1.23595e-05;-0.011340144301663864
1.23598e-05;-0.011359152994550013
1.23600e-05;-0.011378161687436033
1.23603e-05;-0.01139717038032218
1.23605e-05;-0.011416179073208329
1.23608e-05;-0.011435187766094347
1.23610e-05;-0.011453593156687895
1.23613e-05;-0.011470339888783772
1.23615e-05;-0.011487086620879536
1.23618e-05;-0.011501978698772489
1.23620e-05;-0.011511771777388049
1.23623e-05;-0.01152156485600354
1.23625e-05;-0.011531357934619098
1.23628e-05;-0.011541151013234656
1.23630e-05;-0.011550944091850148
1.23633e-05;-0.011560737170465706
1.23635e-05;-0.011570530249081265
1.23637e-05;-0.011580323327696757
1.23640e-05;-0.011590116406312315
1.23643e-05;-0.011599909484927872
1.23645e-05;-0.011602427376199433
1.23648e-05;-0.011602731696937863
1.23650e-05;-0.011603036017676293
1.23653e-05;-0.011603340338414722
1.23655e-05;-0.01160364465915315
1.23658e-05;-0.011603948979891579
1.23660e-05;-0.011604253300630009
1.23663e-05;-0.011604557621368436
1.23665e-05;-0.011604861942106866
1.23668e-05;-0.011605166262845294
1.23670e-05;-0.011603789920356714
1.23673e-05;-0.011597792931837336
1.23675e-05;-0.011591795943317959
1.23678e-05;-0.01158579895479862
1.23680e-05;-0.011579801966279241
1.23683e-05;-0.011573804977759864
1.23685e-05;-0.011567807989240526
1.23688e-05;-0.011561811000721147
1.23690e-05;-0.01155581401220177
1.23693e-05;-0.011549817023682431
1.23695e-05;-0.011543820035163053
1.23698e-05;-0.011537823046643674
1.23700e-05;-0.011530974773947843
1.23703e-05;-0.01152386748695038
1.23705e-05;-0.011516760199952916
1.23708e-05;-0.0115096529129555
1.23710e-05;-0.011502545625958037
1.23713e-05;-0.011495438338960573
1.23715e-05;-0.011488331051963159
1.23718e-05;-0.011481223764965695
1.23720e-05;-0.011474116477968232
1.23723e-05;-0.011467009190970816
1.23725e-05;-0.011459901903973353
1.23728e-05;-0.011453148255246822
1.23730e-05;-0.011447366863928634
1.23733e-05;-0.011441585472610406
1.23735e-05;-0.011435804081292179
1.23738e-05;-0.011430022689973951
1.23740e-05;-0.011424241298655763
1.23743e-05;-0.011418459907337536
1.23745e-05;-0.011412678516019308
1.23748e-05;-0.01140689712470112
1.23750e-05;-0.011401115733382892
1.23753e-05;-0.011395334342064665
1.23755e-05;-0.011389552950746477
1.23758e-05;-0.01138377155942825
1.23760e-05;-0.011377957362286637
1.23763e-05;-0.011372000876548343
1.23765e-05;-0.011366044390810008
1.23768e-05;-0.011360087905071673
1.23770e-05;-0.011354131419333379
1.23773e-05;-0.011348174933595044
1.23775e-05;-0.01134221844785671
1.23778e-05;-0.011336261962118415
1.23780e-05;-0.01133030547638008
1.23783e-05;-0.011324348990641745
1.23785e-05;-0.011318392504903452
1.23788e-05;-0.011312436019165116
1.23790e-05;-0.011306479533426781
1.23793e-05;-0.011301111092113113
1.23795e-05;-0.013586493231631303
1.23798e-05;-0.021822906800435932
1.23800e-05;-0.024846337992384483
1.23803e-05;-0.022579861354299034
1.23805e-05;-0.01982019612814012
1.23808e-05;-0.013950693315205622
1.23810e-05;-0.010178118611648435
1.23813e-05;-0.010790741839220793
1.23815e-05;-0.012284304408666308
1.23818e-05;-0.016270716307490454
1.23820e-05;-0.01939921233923462
1.23823e-05;-0.01828100528946623
1.23825e-05;-0.016166861446730674
1.23828e-05;-0.013250222682128842
1.23830e-05;-0.010100491269464402
1.23833e-05;-0.010202610791618747
1.23835e-05;-0.01143572645188973
1.23838e-05;-0.013008827847583282
1.23840e-05;-0.014790542675640823
1.23843e-05;-0.014953381729007566
1.23845e-05;-0.0138343666219706
1.23848e-05;-0.012304355650876581
1.23850e-05;-0.010827564074656671
1.23853e-05;-0.010416109139873352
1.23855e-05;-0.010961396499511495
1.23858e-05;-0.012055591112369313
1.23860e-05;-0.013188613730191522
1.23863e-05;-0.013307148248131997
1.23865e-05;-0.012622418520052522
1.23868e-05;-0.01167999801563766
1.23870e-05;-0.010770691139274471
1.23873e-05;-0.010528456654186951
1.23875e-05;-0.010885209188144982
1.23878e-05;-0.011585428051889848
1.23880e-05;-0.012309567314133936
1.23883e-05;-0.012397837318795903
1.23885e-05;-0.011982575033770908
1.23888e-05;-0.011405527815496162
1.23890e-05;-0.010848829053085847
1.23893e-05;-0.010709534297645202
1.23895e-05;-0.010944920539932006
1.23898e-05;-0.011394863459697577
1.23900e-05;-0.011859145865229511
1.23903e-05;-0.01192445061710482
1.23905e-05;-0.011673659841229665
1.23908e-05;-0.011320815822818988
1.23910e-05;-0.01097996358458212
1.23913e-05;-0.010899755854522195
1.23915e-05;-0.011053358215754806
1.23918e-05;-0.011340401358456426
1.23920e-05;-0.011635411757137542
1.23923e-05;-0.011679448472335322
1.23925e-05;-0.011524600139527542
1.23928e-05;-0.011305696721655491
1.23930e-05;-0.011095278929116026
1.23933e-05;-0.011049760970807496
1.23935e-05;-0.011152403461772679
1.23938e-05;-0.011340227539644388
1.23940e-05;-0.011534534925938573
1.23943e-05;-0.011573035026443863
1.23945e-05;-0.01148827159041932
1.23948e-05;-0.011364611239405055
1.23950e-05;-0.011247396435606944
1.23953e-05;-0.011234501777216828
1.23955e-05;-0.01131533475113483
1.23958e-05;-0.011450339580788822
1.23960e-05;-0.011590119112851174
1.23963e-05;-0.011632920480575036
1.23965e-05;-0.011599037985039107
1.23968e-05;-0.011541224578319164
1.23970e-05;-0.01148778524596554
1.23973e-05;-0.011499926683789316
1.23975e-05;-0.011570908801510724
