Time(s);Current(A)
7.25000e-06;-0.002088159253630854
7.25025e-06;-0.0020542732050530706
7.25050e-06;-0.002021420199919138
7.25075e-06;-0.001989504075037427
7.25100e-06;-0.0019587209946241666
7.25125e-06;-0.001929295070221389
7.25150e-06;-0.0019014506221065402
7.25175e-06;-0.0018754116975904752
7.25200e-06;-0.0018514280767091345
7.25225e-06;-0.001829869376007683
7.25250e-06;-0.0018112298864155247
7.25275e-06;-0.0017958827761692274
7.25300e-06;-0.0017844005028317539
7.25325e-06;-0.0017765985807935564
7.25350e-06;-0.0017706564007627151
7.25375e-06;-0.0017695957989732071
7.25400e-06;-0.001770937352568911
7.25425e-06;-0.001778584248203542
7.25450e-06;-0.0017862311438381995
7.25475e-06;-0.001796379395015282
7.25500e-06;-0.0018130933756006753
7.25525e-06;-0.0018312108459838184
7.25550e-06;-0.0018538898871620494
7.25575e-06;-0.0018797066729489623
7.25600e-06;-0.0019085136693603518
7.25625e-06;-0.0019402100654979377
7.25650e-06;-0.001974744236987734
7.25675e-06;-0.0020120168843709703
7.25700e-06;-0.0020518241236411596
7.25725e-06;-0.002093916255980755
7.25750e-06;-0.0021380437270756953
7.25775e-06;-0.002183956605277783
7.25800e-06;-0.00223141146235858
7.25825e-06;-0.0022801941588300205
7.25850e-06;-0.002330121545167301
7.25875e-06;-0.002380980532397955
7.25900e-06;-0.0024324922371956495
7.25925e-06;-0.0024843495960779776
7.25950e-06;-0.0025362451039957937
7.25975e-06;-0.0025878714887311222
7.26000e-06;-0.0026389255005535273
7.26025e-06;-0.0026891221630793573
7.26050e-06;-0.002738195792381565
7.26075e-06;-0.0027858621660029315
7.26100e-06;-0.002831796003222718
7.26125e-06;-0.0028756539029369454
7.26150e-06;-0.0029170928815123974
7.26175e-06;-0.0029557694093817095
7.26200e-06;-0.0029913918078175203
7.26225e-06;-0.003023937473016861
7.26250e-06;-0.0030531510194235704
7.26275e-06;-0.003079013769710428
7.26300e-06;-0.0031048765199973728
7.26325e-06;-0.003128833081427992
7.26350e-06;-0.0031477861477472707
7.26375e-06;-0.003166739214066485
7.26400e-06;-0.003180336753251333
7.26425e-06;-0.0031923872291765893
7.26450e-06;-0.003202991572028931
7.26475e-06;-0.0032098000057106573
7.26500e-06;-0.0032151550310346904
7.26525e-06;-0.0032166950505220313
7.26550e-06;-0.0032182350700093727
7.26575e-06;-0.0032180179519142476
7.26600e-06;-0.003213188578703579
7.26625e-06;-0.0032083592054929105
7.26650e-06;-0.0032023491293478147
7.26675e-06;-0.0031932398632455007
7.26700e-06;-0.003183185281146376
7.26725e-06;-0.0031706493688511512
7.26750e-06;-0.0031581134565559685
7.26775e-06;-0.0031445820848940834
7.26800e-06;-0.003128437763283553
7.26825e-06;-0.0031122934416730227
7.26850e-06;-0.0030956198099049365
7.26875e-06;-0.0030775568085702693
7.26900e-06;-0.0030592682905343253
7.26925e-06;-0.003040387820809725
7.26950e-06;-0.0030213901286471846
7.26975e-06;-0.0030020847429979803
7.27000e-06;-0.0029827965713834425
7.27025e-06;-0.0029635535843467375
7.27050e-06;-0.0029445458129637196
7.27075e-06;-0.0029261554517440126
7.27100e-06;-0.002908310223034709
7.27125e-06;-0.002891895895487755
7.27150e-06;-0.0028754815679407453
7.27175e-06;-0.002859888889394894
7.27200e-06;-0.002846452931441515
7.27225e-06;-0.002833016973488181
7.27250e-06;-0.002819900909680293
7.27275e-06;-0.0028076245259425286
7.27300e-06;-0.0027953481422048057
7.27325e-06;-0.0027833769007842616
7.27350e-06;-0.0027722066178242897
7.27375e-06;-0.002761036334864356
7.27400e-06;-0.002749866051904422
7.27425e-06;-0.0027386957689444504
7.27450e-06;-0.0027280511280133885
7.27475e-06;-0.002717558330486336
7.27500e-06;-0.002707065532959248
7.27525e-06;-0.002696572735432196
7.27550e-06;-0.002686157633722113
7.27575e-06;-0.0026759464733156083
7.27600e-06;-0.002665735312909138
7.27625e-06;-0.002655524152502633
7.27650e-06;-0.002645312992096163
7.27675e-06;-0.002635123747468242
7.27700e-06;-0.002624992028877352
7.27725e-06;-0.0026148603102864963
7.27750e-06;-0.0026047285916956406
7.27775e-06;-0.0025945968731047506
7.27800e-06;-0.002584632674477288
7.27825e-06;-0.002575108193727127
7.27850e-06;-0.0025655837129769333
7.27875e-06;-0.002556059232226772
7.27900e-06;-0.002546534751476611
7.27925e-06;-0.0025370102707264175
7.27950e-06;-0.002527485789976256
7.27975e-06;-0.002517961309226095
7.28000e-06;-0.0025097074739437036
7.28025e-06;-0.002501820692896914
7.28050e-06;-0.0024939339118500974
7.28075e-06;-0.0024860471308033078
7.28100e-06;-0.002478160349756518
7.28125e-06;-0.002470273568709702
7.28150e-06;-0.0024623867876629123
7.28175e-06;-0.0024551058464326444
7.28200e-06;-0.0024494151550608664
7.28225e-06;-0.0024437244636891075
7.28250e-06;-0.0024390419884440517
7.28275e-06;-0.002437005947964559
7.28300e-06;-0.002434969907485073
7.28325e-06;-0.002432933867005587
7.28350e-06;-0.002430897826526094
7.28375e-06;-0.002428861786046608
7.28400e-06;-0.0024308838280086226
7.28425e-06;-0.0024340781374410326
7.28450e-06;-0.002437272446873432
7.28475e-06;-0.002440466756305842
7.28500e-06;-0.002443661065738241
7.28525e-06;-0.0024483086044592953
7.28550e-06;-0.002456770678982495
7.28575e-06;-0.0024652327535056658
7.28600e-06;-0.0024736948280288363
7.28625e-06;-0.002482156902552036
7.28650e-06;-0.0024906189770752068
7.28675e-06;-0.0025002139556121127
7.28700e-06;-0.0025127826582229855
7.28725e-06;-0.002525351360833816
7.28750e-06;-0.0025379200634446466
7.28775e-06;-0.0025504887660555194
7.28800e-06;-0.00256305746866635
7.28825e-06;-0.0025760793778447167
7.28850e-06;-0.0025902908946721097
7.28875e-06;-0.0026046126648226887
7.28900e-06;-0.002619223835449915
7.28925e-06;-0.002633848494686401
7.28950e-06;-0.002648508559748745
7.28975e-06;-0.00266308399984559
7.29000e-06;-0.0026774373105349202
7.29025e-06;-0.002691619058960128
7.29050e-06;-0.0027053504790003056
7.29075e-06;-0.0027188191923162627
7.29100e-06;-0.002731598335023849
7.29125e-06;-0.002743890945734723
7.29150e-06;-0.002754906473926846
7.29175e-06;-0.0027659220021189683
7.29200e-06;-0.0027758367206232436
7.29225e-06;-0.002782861958439319
7.29250e-06;-0.0027898871962553943
7.29275e-06;-0.002796912434071494
7.29300e-06;-0.0028039376718875693
7.29325e-06;-0.0028109629097036685
7.29350e-06;-0.0028164715568024645
7.29375e-06;-0.002817999352681014
7.29400e-06;-0.0028195271485595684
7.29425e-06;-0.002821054944438118
7.29450e-06;-0.0028225827403166675
7.29475e-06;-0.002824110536195222
7.29500e-06;-0.002824043354872705
7.29525e-06;-0.0028197895681169793
7.29550e-06;-0.002815535781361239
7.29575e-06;-0.002811281994605513
7.29600e-06;-0.0028070282078497873
7.29625e-06;-0.0028027744210940473
7.29650e-06;-0.0027985206343383215
7.29675e-06;-0.002794266847582596
7.29700e-06;-0.002788779688084035
7.29725e-06;-0.0027800550873088676
7.29750e-06;-0.002771330486533671
7.29775e-06;-0.0027626058857585034
7.29800e-06;-0.002753881284983336
7.29825e-06;-0.0027451566842081393
7.29850e-06;-0.002736432083432972
7.29875e-06;-0.0027277074826578046
7.29900e-06;-0.002718623241836836
7.29925e-06;-0.00270859499318402
7.29950e-06;-0.0026985667445312044
7.29975e-06;-0.0026885626897331523
7.30000e-06;-0.0026786221406227793
7.30025e-06;-0.0026686815915124063
7.30050e-06;-0.0026589072434792123
7.30075e-06;-0.002649569151420309
7.30100e-06;-0.002640231059361406
7.30125e-06;-0.0026316693149675643
7.30150e-06;-0.0026233318358828395
7.30175e-06;-0.0026152491758974364
7.30200e-06;-0.0026079361617232146
7.30225e-06;-0.0026007624282756957
7.30250e-06;-0.00259266074315011
7.30275e-06;-0.0025829862806603264
7.30300e-06;-0.002572496528084814
7.30325e-06;-0.002559866746235089
7.30350e-06;-0.0025464278084053314
7.30375e-06;-0.0025308649425222194
7.30400e-06;-0.002515302076639055
7.30425e-06;-0.0024986186027868293
7.30450e-06;-0.002478993680362288
7.30475e-06;-0.0024593687579376796
7.30500e-06;-0.0024360962154336167
7.30525e-06;-0.0024117699766523864
7.30550e-06;-0.0023861598727672136
7.30575e-06;-0.002357179791797582
7.30600e-06;-0.002328199710827852
7.30625e-06;-0.00229921962985822
7.30650e-06;-0.002268771426169915
7.30675e-06;-0.0022344695933858316
7.30700e-06;-0.0022001677606018643
7.30725e-06;-0.002165865927817897
7.30750e-06;-0.0021323742391901605
7.30775e-06;-0.0021025922656465576
7.30800e-06;-0.026608765424438893
7.30825e-06;-0.03322802515576323
7.30850e-06;-0.022971124445117126
7.30875e-06;-0.016629581993578203
7.30900e-06;-0.0051630546035758874
7.30925e-06;0.0077058715848085215
7.30950e-06;0.009523929514982304
7.30975e-06;0.004637988901369116
7.31000e-06;-0.004502852035649717
7.31025e-06;-0.012578326155336567
7.31050e-06;-0.012636160039078905
7.31075e-06;-0.007577095179695775
7.31100e-06;-0.0003745742646326655
7.31125e-06;0.0058390863650507
7.31150e-06;0.006645106237774884
7.31175e-06;0.0034212619492579094
7.31200e-06;-0.0024184941198817046
7.31225e-06;-0.007558156027086904
7.31250e-06;-0.007654400398037451
7.31275e-06;-0.004532198252184932
7.31300e-06;-5.9293182055769524e-05
7.31325e-06;0.0037989346797274153
7.31350e-06;0.004272591940868918
7.31375e-06;0.0022235720256577737
7.31400e-06;-0.0014631489309859893
7.31425e-06;-0.0047109487802925246
7.31450e-06;-0.004799687765877175
7.31475e-06;-0.002872956041591293
7.31500e-06;-0.00010092896403273029
7.31525e-06;0.002285237957309752
7.31550e-06;0.002550625367681531
7.31575e-06;0.0012353463630919647
7.31600e-06;-0.0011060560215920248
7.31625e-06;-0.003172663774882238
7.31650e-06;-0.003260587788493517
7.31675e-06;-0.0020862135208862824
7.31700e-06;-0.0003825079540746408
7.31725e-06;0.0010794352523275084
7.31750e-06;0.0012130525954704592
7.31775e-06;0.000356893474371208
7.31800e-06;-0.0011414843649112934
7.31825e-06;-0.0024670472875529333
7.31850e-06;-0.0025524264816042938
7.31875e-06;-0.0018463381149039153
7.31900e-06;-0.0008078430946004821
7.31925e-06;8.015866157986113e-05
7.31950e-06;0.00013721020338674781
7.31975e-06;-0.0004244348139158288
7.32000e-06;-0.0013868994786730468
7.32025e-06;-0.002239513896036841
7.32050e-06;-0.002313599498213758
7.32075e-06;-0.0018901687942725165
7.32100e-06;-0.0012566883608808696
7.32125e-06;-0.0007155306463551184
7.32150e-06;-0.0006927838782335001
7.32175e-06;-0.0010553302290355903
7.32200e-06;-0.0016666450797894366
7.32225e-06;-0.0022073140824418656
7.32250e-06;-0.002259649285474611
7.32275e-06;-0.00200077255396009
7.32300e-06;-0.0016111053074585077
7.32325e-06;-0.0012800184850349234
7.32350e-06;-0.0012743491284296258
7.32375e-06;-0.0015106399723473487
7.32400e-06;-0.001903307340784511
7.32425e-06;-0.0022522187661058145
7.32450e-06;-0.0022957042297273166
7.32475e-06;-0.0021446886431566122
7.32500e-06;-0.001912153801623421
7.32525e-06;-0.0017166765110901156
7.32550e-06;-0.0017253452012362008
7.32575e-06;-0.0018858191971008313
7.32600e-06;-0.002144430632805655
7.32625e-06;-0.002375766415639174
7.32650e-06;-0.002415879866793219
7.32675e-06;-0.0023342214730247817
7.32700e-06;-0.0022015234430056746
7.32725e-06;-0.002092016503514904
7.32750e-06;-0.002110310426483385
7.32775e-06;-0.002223561454220147
7.32800e-06;-0.0023980979108962504
7.32825e-06;-0.0025553120069551584
7.32850e-06;-0.002592466458383113
7.32875e-06;-0.002553026560058717
7.32900e-06;-0.00248125673838729
7.32925e-06;-0.0024236080903373867
7.32950e-06;-0.0024455565113338
7.32975e-06;-0.0025264746543000533
7.33000e-06;-0.0026452188576125807
7.33025e-06;-0.002752500499692957
7.33050e-06;-0.002783921586456103
7.33075e-06;-0.002766666561033622
7.33100e-06;-0.002728418233445902
7.33125e-06;-0.002698226518501251
7.33150e-06;-0.0027170549964518663
7.33175e-06;-0.0027719314256676327
7.33200e-06;-0.0028495601100061575
7.33225e-06;-0.00291902057775322
7.33250e-06;-0.0029399506949548612
7.33275e-06;-0.002929395059000959
7.33300e-06;-0.0029047385446856143
7.33325e-06;-0.002884230315621074
7.33350e-06;-0.0028935799284475513
7.33375e-06;-0.002924711179906737
7.33400e-06;-0.002969345987204101
7.33425e-06;-0.003008167184754807
7.33450e-06;-0.003015945220103519
7.33475e-06;-0.0030034110197619834
7.33500e-06;-0.002981507481241855
7.33525e-06;-0.0029617178350003883
7.33550e-06;-0.002960197496610565
7.33575e-06;-0.0029719376738622824
7.33600e-06;-0.0029918035776223106
7.33625e-06;-0.0030077463235877906
7.33650e-06;-0.003004015310858081
7.33675e-06;-0.002987384992949845
7.33700e-06;-0.0029647625965916473
7.33725e-06;-0.002943393032604183
7.33750e-06;-0.0029334470992329166
7.33775e-06;-0.0029318378825033153
7.33800e-06;-0.002935400094560684
7.33825e-06;-0.0029366374615589492
7.33850e-06;-0.002925735977232023
7.33875e-06;-0.0029065365626409602
7.33900e-06;-0.0028839294056341004
7.33925e-06;-0.0028637015357245712
7.33950e-06;-0.002850167185347464
7.33975e-06;-0.002842774162117133
7.34000e-06;-0.0028390555074920025
7.34025e-06;-0.002833115216205754
7.34050e-06;-0.0028210619752915647
7.34075e-06;-0.002804587561663906
7.34100e-06;-0.0027866636766388218
7.34125e-06;-0.002770630989722509
7.34150e-06;-0.0027598340976413495
7.34175e-06;-0.002753440224568284
7.34200e-06;-0.0027502112335548038
7.34225e-06;-0.002746837199663452
7.34250e-06;-0.00273860789849717
7.34275e-06;-0.0027264491283703427
7.34300e-06;-0.0027123062758176017
7.34325e-06;-0.0026976295633642363
7.34350e-06;-0.0026839798655885244
7.34375e-06;-0.0026726961491780315
7.34400e-06;-0.0026622362325118814
7.34425e-06;-0.002650414815107634
7.34450e-06;-0.0026347056707135856
7.34475e-06;-0.002615257137923443
7.34500e-06;-0.0025934859981476556
7.34525e-06;-0.0025717148583719422
7.34550e-06;-0.002550071242081338
7.34575e-06;-0.0025283348576073082
7.34600e-06;-0.0025059755100155104
7.34625e-06;-0.002483616162423713
7.34650e-06;-0.002459625723078133
7.34675e-06;-0.0024317059123212547
7.34700e-06;-0.002402155512689993
7.34725e-06;-0.002372605113058631
7.34750e-06;-0.0023431364730887934
7.34775e-06;-0.002313748269330232
7.34800e-06;-0.002284223170628814
7.34825e-06;-0.002254698071927496
7.34850e-06;-0.0022243818742974683
7.34875e-06;-0.0021923113900678306
7.34900e-06;-0.0021597343084843903
7.34925e-06;-0.0021274261838068694
7.34950e-06;-0.002095953930090987
7.34975e-06;-0.002065595145911276
7.35000e-06;-0.002036159415371914
7.35025e-06;-0.0020068886207833037
7.35050e-06;-0.001978009608993033
7.35075e-06;-0.0019497175965962257
7.35100e-06;-0.0019222371195947077
7.35125e-06;-0.001895583811563873
7.35150e-06;-0.001871167173213715
7.35175e-06;-0.0018493827662633769
7.35200e-06;-0.0018301266631004125
7.35225e-06;-0.0018108705599373831
7.35250e-06;-0.0017925989996016778
7.35275e-06;-0.0017772573417413626
7.35300e-06;-0.0017639470347253874
7.35325e-06;-0.0017506367277094121
7.35350e-06;-0.0017386779105951933
7.35375e-06;-0.0017305904124557086
7.35400e-06;-0.001725008841045609
7.35425e-06;-0.0017194272696354903
7.35450e-06;-0.0017148927615594565
7.35475e-06;-0.0017133457440846273
7.35500e-06;-0.001713718040283831
7.35525e-06;-0.0017140903364830336
7.35550e-06;-0.0017155927778636894
7.35575e-06;-0.0017200304467503208
7.35600e-06;-0.001725996906616934
7.35625e-06;-0.001732622563872628
7.35650e-06;-0.0017410115217177777
7.35675e-06;-0.00175038831022965
7.35700e-06;-0.0017604563523939435
7.35725e-06;-0.0017718213399796371
7.35750e-06;-0.001783711552439894
7.35775e-06;-0.001796897121136258
7.35800e-06;-0.001810940082884675
7.35825e-06;-0.0018256764315841072
7.35850e-06;-0.0018408730499566127
7.35875e-06;-0.0018564228769032472
7.35900e-06;-0.0018722570925121366
7.35925e-06;-0.0018883298210971503
7.35950e-06;-0.0019046126997816473
7.35975e-06;-0.0019210001152149317
7.36000e-06;-0.0019373817874135996
7.36025e-06;-0.0019536024056911187
7.36050e-06;-0.0019694631685305314
7.36075e-06;-0.0019848444355200835
7.36100e-06;-0.0019993979834849996
7.36125e-06;-0.002013059942383107
7.36150e-06;-0.0020267219012812606
7.36175e-06;-0.002039796431852782
7.36200e-06;-0.002051446634743974
7.36225e-06;-0.0020622361865287354
7.36250e-06;-0.002072545112522476
7.36275e-06;-0.0020827990733577177
7.36300e-06;-0.0020929499073444172
7.36325e-06;-0.0021029423893267696
7.36350e-06;-0.002112637767769408
7.36375e-06;-0.002122333146212013
7.36400e-06;-0.0021317720475648454
7.36425e-06;-0.002140729740918171
7.36450e-06;-0.0021497347901149755
7.36475e-06;-0.0021588286893948084
7.36500e-06;-0.002167922588674672
7.36525e-06;-0.0021770388841653968
7.36550e-06;-0.002186197199923311
7.36575e-06;-0.0021953555156812555
7.36600e-06;-0.0022045138314391696
7.36625e-06;-0.0022136721471971146
7.36650e-06;-0.0022228755500028363
7.36675e-06;-0.002232087054627782
7.36700e-06;-0.0022412985592527596
7.36725e-06;-0.0022505100638777055
7.36750e-06;-0.0022596939716937143
7.36775e-06;-0.002268826101765266
7.36800e-06;-0.002277958231836787
7.36825e-06;-0.002287090361908308
7.36850e-06;-0.0022962224919798593
7.36875e-06;-0.00230519427597475
7.36900e-06;-0.0023138652151073213
7.36925e-06;-0.0023225361542399217
7.36950e-06;-0.002331207093372493
7.36975e-06;-0.0023398780325050643
7.37000e-06;-0.0023482376858929726
7.37025e-06;-0.0023560132980684372
7.37050e-06;-0.002363788910243928
7.37075e-06;-0.0023713280670024646
7.37100e-06;-0.0023784235808678163
7.37125e-06;-0.0023853376044748018
7.37150e-06;-0.002391765401749346
7.37175e-06;-0.0023977549996275884
7.37200e-06;-0.0024031945421152663
7.37225e-06;-0.0024077065770243193
7.37250e-06;-0.002410584901596782
7.37275e-06;-0.0024112453078456984
7.37300e-06;-0.002409171846027112
7.37325e-06;-0.002404880777264571
7.37350e-06;-0.0023987631221116545
7.37375e-06;-0.0023892183850954935
7.37400e-06;-0.002379673648079332
7.37425e-06;-0.002367662062875071
7.37450e-06;-0.0023510221224344163
7.37475e-06;-0.002334382181993705
7.37500e-06;-0.002315099137883564
7.37525e-06;-0.002290857044096967
7.37550e-06;-0.002266614950310287
7.37575e-06;-0.0022402105428369593
7.37600e-06;-0.002209749154507294
7.37625e-06;-0.002179287766177526
7.37650e-06;-0.0021467636058743484
7.37675e-06;-0.0021103692270830958
7.37700e-06;-0.0020739748482917196
7.37725e-06;-0.0020361999994410007
7.37750e-06;-0.001995835082073304
7.37775e-06;-0.001954737849084297
7.37800e-06;-0.0019122666292987855
7.37825e-06;-0.0018692567873871053
7.37850e-06;-0.0018252363707062327
7.37875e-06;-0.0017809104278846547
7.37900e-06;-0.0017359220025957211
7.37925e-06;-0.0016907705408572712
7.37950e-06;-0.0016457251443983006
7.37975e-06;-0.0016010543024159545
7.38000e-06;-0.0015570175691350014
7.38025e-06;-0.0015138336132740659
7.38050e-06;-0.0014716705355264884
7.38075e-06;-0.0014307152415423247
7.38100e-06;-0.001391224136261512
7.38125e-06;-0.0013534870074794615
7.38150e-06;-0.0013182334764572203
7.38175e-06;-0.0012852605827795684
7.38200e-06;-0.0012540115025185849
7.38225e-06;-0.0012259966791898812
7.38250e-06;-0.0011993099714048452
7.38275e-06;-0.0011751151034337204
7.38300e-06;-0.0011509202354626777
7.38325e-06;-0.0011283535855154108
7.38350e-06;-0.0011088418343057147
7.38375e-06;-0.0010893300830960187
7.38400e-06;-0.0010714006106944058
7.38425e-06;-0.0010564398448557827
7.38450e-06;-0.0010425105054791065
7.38475e-06;-0.0010305163512865586
7.38500e-06;-0.0010185221970940514
7.38525e-06;-0.0010077284528222253
7.38550e-06;-0.0009991869442444322
7.38575e-06;-0.0009906454356666682
7.38600e-06;-0.0009831963494963322
7.38625e-06;-0.000977796890454659
7.38650e-06;-0.0009730957074920379
7.38675e-06;-0.0009697046455825411
7.38700e-06;-0.0009663135836730329
7.38725e-06;-0.0009636782454726984
7.38750e-06;-0.0009624608128421354
7.38775e-06;-0.0009612433802115766
7.38800e-06;-0.0009607443735040269
7.38825e-06;-0.0009615932934333454
7.38850e-06;-0.000962442213362661
7.38875e-06;-0.0009636551459233804
7.38900e-06;-0.000965551047049553
7.38925e-06;-0.0009674469481757192
7.38950e-06;-0.0009696365971945232
7.38975e-06;-0.0009723773825188577
7.39000e-06;-0.0009751181678431828
7.39025e-06;-0.0009779750289509199
7.39050e-06;-0.0009810496740157014
7.39075e-06;-0.0009841243190804726
7.39100e-06;-0.0009870694034143652
7.39125e-06;-0.0009897714030339775
7.39150e-06;-0.0009924734026535806
7.39175e-06;-0.0009947370139840467
7.39200e-06;-0.0009961781114919206
7.39225e-06;-0.0009976192089997944
7.39250e-06;-0.0009990603065076732
7.39275e-06;-0.001000501404015547
7.39300e-06;-0.001001942501523421
7.39325e-06;-0.0010033835990312997
7.39350e-06;-0.0010048246965391734
7.39375e-06;-0.0010043010601497812
7.39400e-06;-0.0010034243751662066
7.39425e-06;-0.0010025476901826351
