Time(s);Current(A)
1.50000e-06;-0.01516357550095508
1.50025e-06;-0.015180401589495351
1.50050e-06;-0.015202391370565805
1.50075e-06;-0.01522506025873732
1.50100e-06;-0.015247729146908853
1.50125e-06;-0.015270398035080368
1.50150e-06;-0.015293066923251903
1.50175e-06;-0.015315735811423418
1.50200e-06;-0.015338404699594953
1.50225e-06;-0.015362601079479954
1.50250e-06;-0.015389250191982685
1.50275e-06;-0.01541589930448544
1.50300e-06;-0.015442548416988174
1.50325e-06;-0.015469197529490927
1.50350e-06;-0.01549584664199366
1.50375e-06;-0.015522495754496393
1.50400e-06;-0.015549144866999147
1.50425e-06;-0.015575631849366901
1.50450e-06;-0.015602097509061936
1.50475e-06;-0.015628563168756947
1.50500e-06;-0.01565502882845196
1.50525e-06;-0.015681494488146996
1.50550e-06;-0.015707960147842006
1.50575e-06;-0.01573442580753704
1.50600e-06;-0.015755280093327127
1.50625e-06;-0.015775396394846673
1.50650e-06;-0.015795512696366202
1.50675e-06;-0.015815628997885734
1.50700e-06;-0.01583574529940528
1.50725e-06;-0.015855861600924812
1.50750e-06;-0.01587597790244436
1.50775e-06;-0.015885098054811315
1.50800e-06;-0.015892772039938562
1.50825e-06;-0.015900446025065816
1.50850e-06;-0.015908120010193063
1.50875e-06;-0.015915793995320317
1.50900e-06;-0.015923467980447564
1.50925e-06;-0.01593114196557481
1.50950e-06;-0.015938815950702064
1.50975e-06;-0.01594648993582931
1.51000e-06;-0.01595416392095656
1.51025e-06;-0.01596183790608381
1.51050e-06;-0.015969511891211062
1.51075e-06;-0.01597718587633831
1.51100e-06;-0.015984859861465556
1.51125e-06;-0.01599253384659281
1.51150e-06;-0.016000207831720056
1.51175e-06;-0.016004339130234996
1.51200e-06;-0.016002781846002654
1.51225e-06;-0.016001224561770312
1.51250e-06;-0.015999667277537967
1.51275e-06;-0.015998109993305625
1.51300e-06;-0.015996552709073283
1.51325e-06;-0.01599499542484094
1.51350e-06;-0.0159934381406086
1.51375e-06;-0.015991880856376255
1.51400e-06;-0.015990323572143913
1.51425e-06;-0.01598876628791157
1.51450e-06;-0.01598720900367923
1.51475e-06;-0.015985651719446884
1.51500e-06;-0.015984094435214542
1.51525e-06;-0.0159825371509822
1.51550e-06;-0.01598097986674986
1.51575e-06;-0.015979422582517517
1.51600e-06;-0.01597625011298973
1.51625e-06;-0.01597286522109229
1.51650e-06;-0.01596948032919485
1.51675e-06;-0.015966095437297406
1.51700e-06;-0.015962250446368256
1.51725e-06;-0.015958344945151602
1.51750e-06;-0.015954439443934952
1.51775e-06;-0.015950533942718302
1.51800e-06;-0.01594141028197055
1.51825e-06;-0.01593160035085127
1.51850e-06;-0.015921790419731977
1.51875e-06;-0.015905916619322943
1.51900e-06;-0.015889245324355594
1.51925e-06;-0.015872574029388263
1.51950e-06;-0.015846693520701654
1.51975e-06;-0.015819601855000195
1.52000e-06;-0.01579251018929876
1.52025e-06;-0.015765418523597304
1.52050e-06;-0.01573832685789587
1.52075e-06;-0.015705964376865958
1.52100e-06;-0.01566513841249095
1.52125e-06;-0.015624312448115978
1.52150e-06;-0.015583486483740971
1.52175e-06;-0.015542660519366
1.52200e-06;-0.015501834554991026
1.52225e-06;-0.015452160615452702
1.52250e-06;-0.015401323027473593
1.52275e-06;-0.015350485439494441
1.52300e-06;-0.015299647851515332
1.52325e-06;-0.015246969264231403
1.52350e-06;-0.015191334537150747
1.52375e-06;-0.015135699810070088
1.52400e-06;-0.015080065082989383
1.52425e-06;-0.015024430355908726
1.52450e-06;-0.014967682693990712
1.52475e-06;-0.01491078866356874
1.52500e-06;-0.014854345266813788
1.52525e-06;-0.014798643464834633
1.52550e-06;-0.014743958182601581
1.52575e-06;-0.014690471369272247
1.52600e-06;-0.014638350879404918
1.52625e-06;-0.014587867235461845
1.52650e-06;-0.014539357990715653
1.52675e-06;-0.014493169380669416
1.52700e-06;-0.014449648680396
1.52725e-06;-0.014409140803990243
1.52750e-06;-0.014371858648774135
1.52775e-06;-0.014338886713694595
1.52800e-06;-0.014306431984614395
1.52825e-06;-0.01427885397604032
1.52850e-06;-0.014251917333214717
1.52875e-06;-0.014230222033204822
1.52900e-06;-0.01420921605253437
1.52925e-06;-0.01419241598608948
1.52950e-06;-0.014181635380476555
1.52975e-06;-0.014171573681821266
1.53000e-06;-0.01416151198316597
1.53025e-06;-0.014161493173631821
1.53050e-06;-0.014162795162591134
1.53075e-06;-0.014164097151550446
1.53100e-06;-0.014165399140509759
1.53125e-06;-0.014166701129469073
1.53150e-06;-0.014172791814893266
1.53175e-06;-0.014186571833038668
1.53200e-06;-0.014200351851184055
1.53225e-06;-0.014214131869329445
1.53250e-06;-0.014227911887474846
1.53275e-06;-0.014241691905620234
1.53300e-06;-0.014263149419496482
1.53325e-06;-0.014285616645286506
1.53350e-06;-0.014308083871076528
1.53375e-06;-0.014330551096866569
1.53400e-06;-0.014353018322656591
1.53425e-06;-0.014375485548446632
1.53450e-06;-0.014398919221432022
1.53475e-06;-0.014423904743463807
1.53500e-06;-0.014448890265495614
1.53525e-06;-0.0144738757875274
1.53550e-06;-0.014498861309559206
1.53575e-06;-0.014523846831590992
1.53600e-06;-0.014548832353622799
1.53625e-06;-0.014571114896727596
1.53650e-06;-0.014593041955424343
1.53675e-06;-0.014614969014121107
1.53700e-06;-0.014628982421455865
1.53725e-06;-0.014641955058682585
1.53750e-06;-0.014654927695909292
1.53775e-06;-0.014667900333135999
1.53800e-06;-0.014680872970362718
1.53825e-06;-0.014693845607589425
1.53850e-06;-0.014706818244816145
1.53875e-06;-0.014719790882042852
1.53900e-06;-0.01473276351926956
1.53925e-06;-0.014741144667000328
1.53950e-06;-0.014742153142297704
1.53975e-06;-0.01474316161759508
1.54000e-06;-0.014744170092892455
1.54025e-06;-0.014745178568189831
1.54050e-06;-0.014746187043487208
1.54075e-06;-0.014747195518784584
1.54100e-06;-0.01474820399408196
1.54125e-06;-0.014749212469379335
1.54150e-06;-0.014750220944676713
1.54175e-06;-0.01474384418769792
1.54200e-06;-0.01473649615606449
1.54225e-06;-0.014729148124431053
1.54250e-06;-0.014721800092797624
1.54275e-06;-0.014714452061164188
1.54300e-06;-0.014707104029530757
1.54325e-06;-0.014699755997897327
1.54350e-06;-0.014692407966263891
1.54375e-06;-0.014685059934630462
1.54400e-06;-0.014674743436594528
1.54425e-06;-0.014664036538355603
1.54450e-06;-0.01465332964011668
1.54475e-06;-0.014642622741877748
1.54500e-06;-0.014631915843638824
1.54525e-06;-0.01462120894539989
1.54550e-06;-0.014610502047160967
1.54575e-06;-0.014599795148922033
1.54600e-06;-0.01458908825068311
1.54625e-06;-0.014580145423140992
1.54650e-06;-0.014571434598749563
1.54675e-06;-0.014562723774358141
1.54700e-06;-0.014554012949966713
1.54725e-06;-0.014545302125575291
1.54750e-06;-0.01453659130118387
1.54775e-06;-0.01452788047679244
1.54800e-06;-0.014519169652401019
1.54825e-06;-0.01451287898267281
1.54850e-06;-0.014510474417352513
1.54875e-06;-0.014508069852032218
1.54900e-06;-0.01450566528671192
1.54925e-06;-0.014503260721391626
1.54950e-06;-0.014500856156071327
1.54975e-06;-0.014498451590751032
1.55000e-06;-0.014496047025430735
1.55025e-06;-0.01449364246011044
1.55050e-06;-0.01449758178717114
1.55075e-06;-0.014502355436247763
1.55100e-06;-0.014507129085324385
1.55125e-06;-0.014511902734401009
1.55150e-06;-0.01451667638347763
1.55175e-06;-0.014521450032554251
1.55200e-06;-0.014526223681630876
1.55225e-06;-0.014530997330707496
1.55250e-06;-0.014535770979784122
1.55275e-06;-0.014544500602586814
1.55300e-06;-0.014553750498397895
1.55325e-06;-0.014563000394208983
1.55350e-06;-0.014572250290020064
1.55375e-06;-0.014581500185831153
1.55400e-06;-0.014590750081642234
1.55425e-06;-0.014599999977453322
1.55450e-06;-0.014609249873264403
1.55475e-06;-0.014618499769075484
1.55500e-06;-0.014627287828251652
1.55525e-06;-0.014636015148618089
1.55550e-06;-0.014644742468984532
1.55575e-06;-0.014653469789350967
1.55600e-06;-0.014662197109717402
1.55625e-06;-0.014670924430083845
1.55650e-06;-0.014679651750450282
1.55675e-06;-0.014688379070816724
1.55700e-06;-0.01469710639118316
1.55725e-06;-0.014701241683606493
1.55750e-06;-0.014704773051848865
1.55775e-06;-0.014708304420091235
1.55800e-06;-0.014711835788333608
1.55825e-06;-0.014715367156575978
1.55850e-06;-0.01471889852481835
1.55875e-06;-0.01472242989306072
1.55900e-06;-0.01472596126130309
1.55925e-06;-0.014729492629545463
1.55950e-06;-0.014726363057798567
1.55975e-06;-0.014722357467269298
1.56000e-06;-0.014718351876740032
1.56025e-06;-0.014714346286210767
1.56050e-06;-0.014710340695681497
1.56075e-06;-0.014706335105152232
1.56100e-06;-0.014702329514622962
1.56125e-06;-0.014698323924093697
1.56150e-06;-0.014694318333564431
1.56175e-06;-0.014690312743035162
1.56200e-06;-0.014686307152505896
1.56225e-06;-0.014682301561976627
1.56250e-06;-0.014678295971447361
1.56275e-06;-0.014674290380918092
1.56300e-06;-0.014670284790388826
1.56325e-06;-0.01466627919985956
1.56350e-06;-0.014664015176940597
1.56375e-06;-0.01547923572920287
1.56400e-06;-0.05547503732595353
1.56425e-06;-0.03880593973120423
1.56450e-06;-0.02838060974568439
1.56475e-06;-0.014750543763400752
1.56500e-06;-0.0023878766399036133
1.56525e-06;0.0007242978206632756
1.56550e-06;-0.0044669726471480275
1.56575e-06;-0.01460985225420421
1.56600e-06;-0.024604712206567115
1.56625e-06;-0.02666125726616536
1.56650e-06;-0.02143910191588796
1.56675e-06;-0.01309797207444879
1.56700e-06;-0.005671920979011877
1.56725e-06;-0.003930255327524192
1.56750e-06;-0.007315887346213832
1.56775e-06;-0.013759103440157117
1.56800e-06;-0.020083477897825087
1.56825e-06;-0.02142007169128357
1.56850e-06;-0.018188719575692572
1.56875e-06;-0.012999013679322005
1.56900e-06;-0.008380089367322015
1.56925e-06;-0.007320499247491092
1.56950e-06;-0.009471698433426197
1.56975e-06;-0.013537395842790593
1.57000e-06;-0.0175280216496791
1.57025e-06;-0.018393935795823695
1.57050e-06;-0.01639843938629439
1.57075e-06;-0.013176371163815075
1.57100e-06;-0.010311998305208884
1.57125e-06;-0.009677193445621254
1.57150e-06;-0.011053392732706505
1.57175e-06;-0.013628407368973562
1.57200e-06;-0.01615586899200124
1.57225e-06;-0.01672552302975926
1.57250e-06;-0.015502418126735517
1.57275e-06;-0.01351067437908614
1.57300e-06;-0.011742641403832977
1.57325e-06;-0.01137072527993357
1.57350e-06;-0.012257836702316265
1.57375e-06;-0.013895068774833798
1.57400e-06;-0.015501604251351038
1.57425e-06;-0.015880858723084756
1.57450e-06;-0.015136263104145523
1.57475e-06;-0.013909335857299407
1.57500e-06;-0.012821635695466113
1.57525e-06;-0.012607446135365245
1.57550e-06;-0.013180754157074114
1.57575e-06;-0.014222660341930404
1.57600e-06;-0.0152439751478675
1.57625e-06;-0.015495131590950235
1.57650e-06;-0.01504091868854786
1.57675e-06;-0.014283163683965898
1.57700e-06;-0.01361115373840081
1.57725e-06;-0.013484745306507473
1.57750e-06;-0.013849861892487832
1.57775e-06;-0.014506417517090945
1.57800e-06;-0.01514772391262468
1.57825e-06;-0.015304243018823866
1.57850e-06;-0.015016701285889859
1.57875e-06;-0.01453695724184997
1.57900e-06;-0.014108991337329888
1.57925e-06;-0.01402096397017836
1.57950e-06;-0.014239096662714773
1.57975e-06;-0.014638155934370158
1.58000e-06;-0.015026150595517066
1.58025e-06;-0.015109100190886545
1.58050e-06;-0.014912666419064925
1.58075e-06;-0.014594753133863728
1.58100e-06;-0.01430831747567229
1.58125e-06;-0.01423397463053141
1.58150e-06;-0.014350669505710843
1.58175e-06;-0.014580066014212134
1.58200e-06;-0.014802016960658394
1.58225e-06;-0.014832505484247293
1.58250e-06;-0.014687744254714747
1.58275e-06;-0.014466778218871525
1.58300e-06;-0.014265543335059663
1.58325e-06;-0.014197290988412643
1.58350e-06;-0.0142489434500644
1.58375e-06;-0.014371541956803143
1.58400e-06;-0.014489945857279127
1.58425e-06;-0.014489013274340882
1.58450e-06;-0.014379031724579057
1.58475e-06;-0.014222170227629113
1.58500e-06;-0.01407864642060082
1.58525e-06;-0.014019516288917842
1.58550e-06;-0.014036699995983993
1.58575e-06;-0.014099646362084254
1.58600e-06;-0.014161405735595937
1.58625e-06;-0.01414997591200113
1.58650e-06;-0.014071928091312132
1.58675e-06;-0.0139737963874658
1.58700e-06;-0.013873888292612636
1.58725e-06;-0.01383062738105202
1.58750e-06;-0.013839932836716506
1.58775e-06;-0.01387544281766148
1.58800e-06;-0.013916470836702303
1.58825e-06;-0.013910778464378706
1.58850e-06;-0.013861869310107187
1.58875e-06;-0.013800274470187028
1.58900e-06;-0.013737535459286715
1.58925e-06;-0.013710203082995608
1.58950e-06;-0.01371571684543548
1.58975e-06;-0.013737552324639819
1.59000e-06;-0.013762816312121413
1.59025e-06;-0.013750811592370535
1.59050e-06;-0.013724498470008636
1.59075e-06;-0.013688331571576576
1.59100e-06;-0.01364838155841587
1.59125e-06;-0.013636578653871159
1.59150e-06;-0.013635582138716318
1.59175e-06;-0.013640019080142693
1.59200e-06;-0.013646542063455305
1.59225e-06;-0.013653065046767911
1.59250e-06;-0.013637354869499603
1.59275e-06;-0.013616502092206204
1.59300e-06;-0.013596952079160734
1.59325e-06;-0.013577402066115248
1.59350e-06;-0.013574609136445683
1.59375e-06;-0.013577873717623853
1.59400e-06;-0.013580993958689674
1.59425e-06;-0.013584114199755493
1.59450e-06;-0.013573304675038882
1.59475e-06;-0.013559282452945815
1.59500e-06;-0.013546080024128056
1.59525e-06;-0.013532877595310307
1.59550e-06;-0.013530188104158188
1.59575e-06;-0.0135313243853108
1.59600e-06;-0.013532379884228698
1.59625e-06;-0.013533435383146596
1.59650e-06;-0.013525798742312724
1.59675e-06;-0.013516207222542598
1.59700e-06;-0.013507146385214157
1.59725e-06;-0.013498085547885723
1.59750e-06;-0.013495740823596808
1.59775e-06;-0.013496639242975731
1.59800e-06;-0.013497792841204823
1.59825e-06;-0.013498946439433914
1.59850e-06;-0.013495482766028091
1.59875e-06;-0.013490246404852312
1.59900e-06;-0.013489198417244266
1.59925e-06;-0.013489758452552469
1.59950e-06;-0.01349031848786067
1.59975e-06;-0.013494566777363805
1.60000e-06;-0.013500231081262621
1.60025e-06;-0.013505895385161433
1.60050e-06;-0.013509659257875506
1.60075e-06;-0.013512693506823603
1.60100e-06;-0.0135157277557717
1.60125e-06;-0.013523144302125983
1.60150e-06;-0.013532243323679976
1.60175e-06;-0.013541342345233976
1.60200e-06;-0.013550877891703636
1.60225e-06;-0.013560581031167704
1.60250e-06;-0.013570284170631766
1.60275e-06;-0.013580064251537795
1.60300e-06;-0.013589873872216229
1.60325e-06;-0.013599683492894653
1.60350e-06;-0.013611860128429264
1.60375e-06;-0.013624945521043468
1.60400e-06;-0.013638030913657674
1.60425e-06;-0.013649887710710169
1.60450e-06;-0.013661272818743984
1.60475e-06;-0.01367265792677781
1.60500e-06;-0.013684270494351445
1.60525e-06;-0.01369597038941548
1.60550e-06;-0.013707670284479527
1.60575e-06;-0.013719129709497522
1.60600e-06;-0.013730496811961571
1.60625e-06;-0.013741863914425612
1.60650e-06;-0.013751101107293422
1.60675e-06;-0.013759520573808803
1.60700e-06;-0.013767940040324186
1.60725e-06;-0.0137754034589513
1.60750e-06;-0.01378249982652901
1.60775e-06;-0.013789596194106728
1.60800e-06;-0.013795366387326041
1.60825e-06;-0.013800627428550044
1.60850e-06;-0.01380588846977405
1.60875e-06;-0.0138098287202974
1.60900e-06;-0.013813261885748294
1.60925e-06;-0.013816695051199184
1.60950e-06;-0.013819412190169694
1.60975e-06;-0.013821854428401194
1.61000e-06;-0.013824296666632695
1.61025e-06;-0.013825635255026012
1.61050e-06;-0.013826550124235141
1.61075e-06;-0.013827464993444274
1.61100e-06;-0.01382766787391633
1.61125e-06;-0.013827597403841516
1.61150e-06;-0.013827526933766704
1.61175e-06;-0.013826907106282598
1.61200e-06;-0.013826076366546041
1.61225e-06;-0.013825245626809484
1.61250e-06;-0.013823721068180748
1.61275e-06;-0.01382193013486976
1.61300e-06;-0.013820139201558775
1.61325e-06;-0.01381802278127315
1.61350e-06;-0.013815781398276909
1.61375e-06;-0.013813540015280668
1.61400e-06;-0.013810955424103035
1.61425e-06;-0.013808239066593741
1.61450e-06;-0.013805522709084443
1.61475e-06;-0.013802538290283146
1.61500e-06;-0.013799450955948296
1.61525e-06;-0.013796363621613444
1.61550e-06;-0.01379322962891145
1.61575e-06;-0.01379007772287809
1.61600e-06;-0.013786925816844733
1.61625e-06;-0.013783705044856022
1.61650e-06;-0.013780457833479197
1.61675e-06;-0.013777210622102371
1.61700e-06;-0.013774028687575728
1.61725e-06;-0.01377087181448864
1.61750e-06;-0.013767714941401549
1.61775e-06;-0.013763717769067733
1.61800e-06;-0.013759397984525808
1.61825e-06;-0.013755078199983879
1.61850e-06;-0.013749193789909136
1.61875e-06;-0.013742708680381226
1.61900e-06;-0.01373622357085332
1.61925e-06;-0.013728433372959831
1.61950e-06;-0.01372014211851888
1.61975e-06;-0.013711850864077937
1.62000e-06;-0.013701740381956528
1.62025e-06;-0.01369093145215554
1.62050e-06;-0.013680122522354544
1.62075e-06;-0.013667672698535978
1.62100e-06;-0.01365459289385722
1.62125e-06;-0.01364151308917845
1.62150e-06;-0.013627095894187619
1.62175e-06;-0.01361216524111223
1.62200e-06;-0.013597234588036852
1.62225e-06;-0.013580951066633375
1.62250e-06;-0.013564148144742149
1.62275e-06;-0.013547345222850936
1.62300e-06;-0.013529723087705817
1.62325e-06;-0.013511786435800439
1.62350e-06;-0.013493849783895062
1.62375e-06;-0.013475431967578496
1.62400e-06;-0.013456829420032268
1.62425e-06;-0.013438226872486024
1.62450e-06;-0.013419526073185906
1.62475e-06;-0.013400787552543768
1.62500e-06;-0.013382049031901648
1.62525e-06;-0.01336383653948526
1.62550e-06;-0.013345826002655615
1.62575e-06;-0.013327815465825985
1.62600e-06;-0.013310764790308889
1.62625e-06;-0.013294082629911518
1.62650e-06;-0.013277400469514148
1.62675e-06;-0.01326195744767496
1.62700e-06;-0.013246990162578314
1.62725e-06;-0.013233238238218138
1.62750e-06;-0.013219952921691248
1.62775e-06;-0.01320645629659777
1.62800e-06;-0.013192878544782441
1.62825e-06;-0.013177660571906738
1.62850e-06;-0.01316181287653621
1.62875e-06;-0.013145965181165694
1.62900e-06;-0.01312879916260426
1.62925e-06;-0.013111127006310074
1.62950e-06;-0.013093454850015887
1.62975e-06;-0.013073717612337391
1.63000e-06;-0.013053187537502568
1.63025e-06;-0.013032657462667727
1.63050e-06;-0.013009568355850279
1.63075e-06;-0.012985496771705051
1.63100e-06;-0.012961425187559803
1.63125e-06;-0.012935616252195654
1.63150e-06;-0.012909140303603605
1.63175e-06;-0.012882664355011578
1.63200e-06;-0.012854138803051274
1.63225e-06;-0.012824826356337802
1.63250e-06;-0.012795513909624355
1.63275e-06;-0.01276494168699797
1.63300e-06;-0.012733885804424843
1.63325e-06;-0.012702381059386992
1.63350e-06;-0.012670703984656596
1.63375e-06;-0.012638763783653792
1.63400e-06;-0.012606513945058979
1.63425e-06;-0.012574062880904457
1.63450e-06;-0.012541578770130167
1.63475e-06;-0.01250924518542221
1.63500e-06;-0.012477246011919619
1.63525e-06;-0.012445765651492144
1.63550e-06;-0.012414946109704849
1.63575e-06;-0.012384850530083941
1.63600e-06;-0.012355528795493101
1.63625e-06;-0.012327106929064004
1.63650e-06;-0.012299762825481298
1.63675e-06;-0.012273686372411406
1.63700e-06;-0.012249066472110423
1.63725e-06;-0.01222609394356734
1.63750e-06;-0.012205135608109277
1.63775e-06;-0.012186882531713492
1.63800e-06;-0.012171992576308424
1.63825e-06;-0.012160723026459123
1.63850e-06;-0.01215307097374561
1.63875e-06;-0.012148983849511833
1.63900e-06;-0.012148407895413823
1.63925e-06;-0.012151291786571126
1.63950e-06;-0.012157693577676884
1.63975e-06;-0.012169347869808783
1.64000e-06;-0.012182641102577569
1.64025e-06;-0.012202967747714916
1.64050e-06;-0.012225994698372284
1.64075e-06;-0.012249021649029673
1.64100e-06;-0.012279377776753128
1.64125e-06;-0.012312547761570663
1.64150e-06;-0.012345717746388167
1.64175e-06;-0.012385502227705816
1.64200e-06;-0.012427826182109216
1.64225e-06;-0.012470150136512616
1.64250e-06;-0.012517915398665348
1.64275e-06;-0.012567769716966232
1.64300e-06;-0.012617624035267156
1.64325e-06;-0.012671067907371245
1.64350e-06;-0.012725889900285127
1.64375e-06;-0.012780711893199055
1.64400e-06;-0.012837633736953572
1.64425e-06;-0.012895361766741161
1.64450e-06;-0.012953089796528702
1.64475e-06;-0.013011029134882836
1.64500e-06;-0.013069049599958854
1.64525e-06;-0.013126043468798077
1.64550e-06;-0.01318264320128652
1.64575e-06;-0.013237342839068614
1.64600e-06;-0.013291312982267626
1.64625e-06;-0.013342424066723998
1.64650e-06;-0.013392437485964711
1.64675e-06;-0.013438457577071164
1.64700e-06;-0.01348294452815411
1.64725e-06;-0.01352232608929929
1.64750e-06;-0.013559747561669914
