Time(s);Current(A)
8.25000e-06;0.001380143518933149
8.25025e-06;0.0013398890654227238
8.25050e-06;0.001293993760581735
8.25075e-06;0.0012480984557404352
8.25100e-06;0.0011998022119851168
8.25125e-06;0.0011472276556645674
8.25150e-06;0.0010923287193627153
8.25175e-06;0.001033287893393486
8.25200e-06;0.0009742470674246569
8.25225e-06;0.0009134107855707108
8.25250e-06;0.0008493751214133897
8.25275e-06;0.0007853394572565027
8.25300e-06;0.0007201289635964653
8.25325e-06;0.0006528250023371524
8.25350e-06;0.0005855210410782956
8.25375e-06;0.0005182170798189827
8.25400e-06;0.0004509131185596697
8.25425e-06;0.0003836091573008128
8.25450e-06;0.00031693006988542843
8.25475e-06;0.000251364465867381
8.25500e-06;0.00018658944948148187
8.25525e-06;0.00012384963217437956
8.25550e-06;6.298014992300798e-05
8.25575e-06;4.364734576539764e-06
8.25600e-06;-5.156190210271222e-05
8.25625e-06;-0.00010436498334014773
8.25650e-06;-0.00015360979915290455
8.25675e-06;-0.00019899848663243938
8.25700e-06;-0.00024079241405665946
8.25725e-06;-0.00027987471139433704
8.25750e-06;-0.00031695436172869245
8.25775e-06;-0.0003520789321570694
8.25800e-06;-0.00038500742604847984
8.25825e-06;-0.00041549818383671716
8.25850e-06;-0.00044330956916099467
8.25875e-06;-0.00046787398044320747
8.25900e-06;-0.0004898873319971093
8.25925e-06;-0.0005106335380080744
8.25950e-06;-0.000529121775409545
8.25975e-06;-0.0005464604884872652
8.26000e-06;-0.0005617508261019803
8.26025e-06;-0.0005757181106937195
8.26050e-06;-0.0005873278032858147
8.26075e-06;-0.0005973823598583337
8.26100e-06;-0.000604665768053114
8.26125e-06;-0.0006119491762478451
8.26150e-06;-0.0006180440971529134
8.26175e-06;-0.0006220212131950496
8.26200e-06;-0.0006259983292371588
8.26225e-06;-0.0006287741179608198
8.26250e-06;-0.0006294092217490481
8.26275e-06;-0.0006300443255372721
8.26300e-06;-0.000629520838170095
8.26325e-06;-0.0006269328188518344
8.26350e-06;-0.0006243447995335912
8.26375e-06;-0.0006217567802153305
8.26400e-06;-0.0006191687608970699
8.26425e-06;-0.0006165807415788267
8.26450e-06;-0.0006133575662807442
8.26475e-06;-0.0006090025855065155
8.26500e-06;-0.0006046476047322869
8.26525e-06;-0.0006002926239580877
8.26550e-06;-0.0005959376431838589
8.26575e-06;-0.0005915826624096302
8.26600e-06;-0.0005875120018913327
8.26625e-06;-0.0005839479810534016
8.26650e-06;-0.0005803839602154706
8.26675e-06;-0.0005768199393775637
8.26700e-06;-0.0005732559185396325
8.26725e-06;-0.0005696918977017015
8.26750e-06;-0.0005661278768637946
8.26775e-06;-0.0005625638560258636
8.26800e-06;-0.0005589998351879324
8.26825e-06;-0.0005547905623828808
8.26850e-06;-0.0005504757791344879
8.26875e-06;-0.0005461609958860949
8.26900e-06;-0.0005418462126377311
8.26925e-06;-0.0005375314293893382
8.26950e-06;-0.0005332166461409452
8.26975e-06;-0.0005289018628925815
8.27000e-06;-0.0005245870796441885
8.27025e-06;-0.0005197241650439523
8.27050e-06;-0.0005138845170341966
8.27075e-06;-0.0005080448690244013
8.27100e-06;-0.0005022052210146061
8.27125e-06;-0.0004963655730048504
8.27150e-06;-0.0004905259249950551
8.27175e-06;-0.0004846862769852598
8.27200e-06;-0.00047884662897550406
8.27225e-06;-0.00047300698096570883
8.27250e-06;-0.0004669223843573877
8.27275e-06;-0.0004604013057288405
8.27300e-06;-0.0004538802271002492
8.27325e-06;-0.0004473591484716578
8.27350e-06;-0.0004408380698430664
8.27375e-06;-0.00043431699121451923
8.27400e-06;-0.0004277959125859279
8.27425e-06;-0.00042127483395733653
8.27450e-06;-0.00041475375532878933
8.27475e-06;-0.00040851806896934984
8.27500e-06;-0.00040279093254638515
8.27525e-06;-0.00039706379612345933
8.27550e-06;-0.00039133665970049464
8.27575e-06;-0.00038560952327753
8.27600e-06;-0.00037988238685460413
8.27625e-06;-0.0003750520123177075
8.27650e-06;-0.00037036827467464445
8.27675e-06;-0.0003656845370316131
8.27700e-06;-0.00036100079938855003
8.27725e-06;-0.00035631706174548696
8.27750e-06;-0.0003509884387148357
8.27775e-06;-0.00034451067305348184
8.27800e-06;-0.00033803290739212795
8.27825e-06;-0.00033104860399141663
8.27850e-06;-0.0003231616842163702
8.27875e-06;-0.0003148899663553067
8.27900e-06;-0.00030593256404037666
8.27925e-06;-0.00029633228324614096
8.27950e-06;-0.0002855864359976687
8.27975e-06;-0.000274211687140009
8.28000e-06;-0.0002617162776755454
8.28025e-06;-0.0002487298443440277
8.28050e-06;-0.00023486843932121358
8.28075e-06;-0.00022058826697817822
8.28100e-06;-0.00020556187927783285
8.28125e-06;-0.0001900257386001737
8.28150e-06;-0.00017358125220890875
8.28175e-06;-0.00015670645136411733
8.28200e-06;-0.0001390648589425484
8.28225e-06;-0.00012114999046648056
8.28250e-06;-0.00010274816233763606
8.28275e-06;-8.418896561156944e-05
8.28300e-06;-6.53493485701754e-05
8.28325e-06;-4.636601287237424e-05
8.28350e-06;-2.712658014096375e-05
8.28375e-06;-7.848537602290745e-06
8.28400e-06;1.1467721701659638e-05
8.28425e-06;3.0656640296379115e-05
8.28450e-06;4.9600692140779206e-05
8.28475e-06;6.819068754023291e-05
8.28500e-06;8.635051394591031e-05
8.28525e-06;0.00010403768970482761
8.28550e-06;0.00012119261291335002
8.28575e-06;0.00013771116561811446
8.28600e-06;0.00015347068596944735
8.28625e-06;0.00016834848210974573
8.28650e-06;0.00018222187207247496
8.28675e-06;0.00019492345234613362
8.28700e-06;0.0002067730575140391
8.28725e-06;0.00021862266268194458
8.28750e-06;0.00023046065765538684
8.28775e-06;0.00024227796403900322
8.28800e-06;0.0002540952704226196
8.28825e-06;0.00026591257680615594
8.28850e-06;0.00027772988318977234
8.28875e-06;0.00028944488376841585
8.28900e-06;0.0003011431554853849
8.28925e-06;0.00031284142720243327
8.28950e-06;0.00032453969891948163
8.28975e-06;0.0003367077487659723
8.29000e-06;0.0003497129118208856
8.29025e-06;0.00036271807487579886
8.29050e-06;0.00037572323793071214
8.29075e-06;0.0003887284009855373
8.29100e-06;0.00040173356404045056
8.29125e-06;0.00041473872709536384
8.29150e-06;0.000427743890150189
8.29175e-06;0.00044158008317549206
8.29200e-06;0.00045555216472992476
8.29225e-06;0.0004695242462842628
8.29250e-06;0.0004834963278386955
8.29275e-06;0.0004974684093931283
8.29300e-06;0.0005114404909474662
8.29325e-06;0.000525412572501899
8.29350e-06;0.0005391695274301867
8.29375e-06;0.0005525431410980809
8.29400e-06;0.0005659167547660657
8.29425e-06;0.0005792903684340505
8.29450e-06;0.0005926639821019447
8.29475e-06;0.0006060375957699294
8.29500e-06;0.0006194112094379142
8.29525e-06;0.0006327848231058084
8.29550e-06;0.0006432163319375932
8.29575e-06;0.000653166753067257
8.29600e-06;0.0006631171741968534
8.29625e-06;0.0006730675953265172
8.29650e-06;0.000683018016456181
8.29675e-06;0.0006929684375857774
8.29700e-06;0.0007029188587154412
8.29725e-06;0.0007110283783381763
8.29750e-06;0.0007158575345929909
8.29775e-06;0.0007206866908478385
8.29800e-06;0.0007255158471026859
8.29825e-06;0.0007303450033575007
8.29850e-06;0.0007351741596123482
8.29875e-06;0.0007400033158671956
8.29900e-06;0.0007448324721220431
8.29925e-06;0.0007496616283768578
8.29950e-06;0.0007544907846317053
8.29975e-06;0.0007593199408865528
8.30000e-06;0.0007625649250696773
8.30025e-06;0.0007629870205685946
8.30050e-06;0.0007634091160675119
8.30075e-06;0.0007638312115664264
8.30100e-06;0.0007642533070653436
8.30125e-06;0.0007646754025642609
8.30150e-06;0.0007650974980631754
8.30175e-06;0.0007655195935620927
8.30200e-06;0.00076594168906101
8.30225e-06;0.0007663637845599243
8.30250e-06;0.0007667858800588417
8.30275e-06;0.0007664764015891601
8.30300e-06;0.00076486330723419
8.30325e-06;0.0007632502128792089
8.30350e-06;0.0007616371185242279
8.30375e-06;0.0007600240241692577
8.30400e-06;0.0007584109298142766
8.30425e-06;0.0007567978354592956
8.30450e-06;0.0007551847411043255
8.30475e-06;0.0007535055024676404
8.30500e-06;0.000751708399144598
8.30525e-06;0.0007499112958215678
8.30550e-06;0.0007481141924985254
8.30575e-06;0.000746317089175483
8.30600e-06;0.0007445199858524529
8.30625e-06;0.0007427228825294105
8.30650e-06;0.0007409257792063681
8.30675e-06;0.0007405480223512513
8.30700e-06;0.0007426994459782158
8.30725e-06;0.0007448508696051804
8.30750e-06;0.0007470022932321449
8.30775e-06;0.0007491537168590949
8.30800e-06;0.0007513051404860595
8.30825e-06;0.000753456564113024
8.30850e-06;0.000755607987739974
8.30875e-06;0.0007577594113669386
8.30900e-06;0.0007674887273458927
8.30925e-06;0.0007784571666816063
8.30950e-06;0.0007894256060173942
8.30975e-06;0.0008003940453531822
8.31000e-06;0.0008113624846888958
8.31025e-06;0.0008223309240246838
8.31050e-06;0.0008332993633604717
8.31075e-06;0.0008442678026961853
8.31100e-06;0.0008578029421453812
8.31125e-06;0.0008759117695399475
8.31150e-06;0.0008940205969343912
8.31175e-06;0.0009121294243289576
8.31200e-06;0.000930238251723524
8.31225e-06;0.0009483470791179676
8.31250e-06;0.0009664559065125339
8.31275e-06;0.0009856274692201382
8.31300e-06;0.0010066927551815384
8.31325e-06;0.001027758041143081
8.31350e-06;0.001048823327104624
8.31375e-06;0.001069888613066024
8.31400e-06;0.0010909538990275668
8.31425e-06;0.0011120191849891096
8.31450e-06;0.0011322757055674346
8.31475e-06;0.0011510910603219622
8.31500e-06;0.0011699064150764895
8.31525e-06;0.0011887217698308894
8.31550e-06;0.001207537124585417
8.31575e-06;0.0012263524793399443
8.31600e-06;0.0012451678340944716
8.31625e-06;0.0012639831888488716
8.31650e-06;0.0012785886872447025
8.31675e-06;0.0012925057974841685
8.31700e-06;0.0013064229077235402
8.31725e-06;0.0013203400179630062
8.31750e-06;0.0013342571282024722
8.31775e-06;0.001348174238441844
8.31800e-06;0.0013620913486813101
8.31825e-06;0.001376240786989917
8.31850e-06;0.0013908042183800214
8.31875e-06;0.0014053676497702242
8.31900e-06;0.0014199310811604273
8.31925e-06;0.0014344945125505314
8.31950e-06;0.0014490579439407345
8.31975e-06;0.0014636213753309374
8.32000e-06;0.0014781848067210415
8.32025e-06;0.0014927482381112446
8.32050e-06;0.0015073116695014477
8.32075e-06;0.0015218751008915518
8.32100e-06;0.001536438532281755
8.32125e-06;0.0015510019636719578
8.32150e-06;0.0015663623953301737
8.32175e-06;0.0015831430281647687
8.32200e-06;0.0015999236609993636
8.32225e-06;0.001616704293833845
8.32250e-06;0.0016334849266684398
8.32275e-06;0.0016502655595030348
8.32300e-06;0.001667046192337516
8.32325e-06;0.001683826825172111
8.32350e-06;0.0017006074580067062
8.32375e-06;0.0017173880908411875
8.32400e-06;0.0017341687236757824
8.32425e-06;0.0017509493565103773
8.32450e-06;0.0017677299893449723
8.32475e-06;0.0017832303305363247
8.32500e-06;0.0017964492776423458
8.32525e-06;0.0018096682247483668
8.32550e-06;0.0018228871718542984
8.32575e-06;0.0018361061189603196
8.32600e-06;0.0018493250660663405
8.32625e-06;0.0018625440131722721
8.32650e-06;0.0018757629602782933
8.32675e-06;0.0018889819073843143
8.32700e-06;0.0019011274440526983
8.32725e-06;0.0019072533860883176
8.32750e-06;0.001913379328123937
8.32775e-06;0.001919505270159515
8.32800e-06;0.0019256312121951344
8.32825e-06;0.0019317571542307537
8.32850e-06;0.0019378830962663315
8.32875e-06;0.001944009038301951
8.32900e-06;0.0019501349803375703
8.32925e-06;0.0019562609223731484
8.32950e-06;0.0019595165108136684
8.32975e-06;-0.01199056036827834
8.33000e-06;-0.018156242662616544
8.33025e-06;-0.014053718689234307
8.33050e-06;-0.011071690327562903
8.33075e-06;0.00012905249589691397
8.33100e-06;0.006460144606634902
8.33125e-06;0.0051596838797757045
8.33150e-06;0.004578865901181178
8.33175e-06;-0.002125373047686353
8.33200e-06;-0.0073545634684452545
8.33225e-06;-0.00569303749208123
8.33250e-06;-0.002124160403130007
8.33275e-06;0.0028769346097113576
8.33300e-06;0.0057315871169521596
8.33325e-06;0.005485625526761868
8.33350e-06;0.0030722209026728237
8.33375e-06;-0.0009246432414193439
8.33400e-06;-0.0030225569053344554
8.33425e-06;-0.0022174395868786176
8.33450e-06;6.201559169485339e-05
8.33475e-06;0.003141385624126564
8.33500e-06;0.004884493378494744
8.33525e-06;0.004692289556842695
8.33550e-06;0.0031482365971258705
8.33575e-06;0.0006172548160678589
8.33600e-06;-0.0007200936887724065
8.33625e-06;-0.00023564543484697617
8.33650e-06;0.0011750138114907317
8.33675e-06;0.0030889097287384974
8.33700e-06;0.004167456350249723
8.33725e-06;0.004034931589518112
8.33750e-06;0.0030564718265811025
8.33775e-06;0.001460493163705627
8.33800e-06;0.0006127468245688569
8.33825e-06;0.0009065177953546651
8.33850e-06;0.0017806480386520084
8.33875e-06;0.002970080007632478
8.33900e-06;0.00363628469178384
8.33925e-06;0.0035439317879088026
8.33950e-06;0.0029217743918442196
8.33975e-06;0.0019129157742326299
8.34000e-06;0.0013728460675108902
8.34025e-06;0.0015478591575394736
8.34050e-06;0.002086396456687334
8.34075e-06;0.0028224037553948285
8.34100e-06;0.0032306398460968935
8.34125e-06;0.003163739578687278
8.34150e-06;0.0027650411718738908
8.34175e-06;0.0021242232167201776
8.34200e-06;0.0017771750768740481
8.34225e-06;0.0018781558381118764
8.34250e-06;0.0022069349503255143
8.34275e-06;0.0026594964512913696
8.34300e-06;0.0029068511328964337
8.34325e-06;0.002856730440939729
8.34350e-06;0.002598962312162698
8.34375e-06;0.002189756064674069
8.34400e-06;0.0019648095101729894
8.34425e-06;0.002020747928007254
8.34450e-06;0.0022196190117025182
8.34475e-06;0.0024962767700275803
8.34500e-06;0.0026446641634211496
8.34525e-06;0.0026070181555774567
8.34550e-06;0.002439641104096841
8.34575e-06;0.0021777726507384654
8.34600e-06;0.002031711754451517
8.34625e-06;0.0020619911250640294
8.34650e-06;0.002182205273334086
8.34675e-06;0.0023514673763665103
8.34700e-06;0.0024401253996825536
8.34725e-06;0.002410925900635692
8.34750e-06;0.002298403905309362
8.34775e-06;0.0021245259843276016
8.34800e-06;0.002021131487287897
8.34825e-06;0.0020262558553451626
8.34850e-06;0.0020858931896049417
8.34875e-06;0.002174554460611454
8.34900e-06;0.0022111526569440526
8.34925e-06;0.0021724842976147294
8.34950e-06;0.0020803138584854683
8.34975e-06;0.001948531681840157
8.35000e-06;0.0018598476979844814
8.35025e-06;0.0018382082447219502
8.35050e-06;0.0018499056925913024
8.35075e-06;0.001879097567196107
8.35100e-06;0.0018751180086573867
8.35125e-06;0.0018235621871750156
8.35150e-06;0.00173819337285172
8.35175e-06;0.0016278412884967596
8.35200e-06;0.0015444414651117784
8.35225e-06;0.0015031168917033367
8.35250e-06;0.001482876599375811
8.35275e-06;0.0014739216269744379
8.35300e-06;0.0014446416667989192
8.35325e-06;0.0013861420924925973
8.35350e-06;0.0013071727046547448
8.35375e-06;0.0012133924853538853
8.35400e-06;0.001137459971377047
8.35425e-06;0.0010889724820709137
8.35450e-06;0.0010549055890920927
8.35475e-06;0.0010292466809658028
8.35500e-06;0.0009923214888273102
8.35525e-06;0.0009386862594175534
8.35550e-06;0.0008739495170962013
8.35575e-06;0.0008017832872964537
8.35600e-06;0.0007427709420562501
8.35625e-06;0.0007030492243708785
8.35650e-06;0.0006745847944530832
8.35675e-06;0.0006537366638139501
8.35700e-06;0.0006282865708948756
8.35725e-06;0.0005948583440738383
8.35750e-06;0.0005569035445405524
8.35775e-06;0.0005166056873657136
8.35800e-06;0.00048672911059702495
8.35825e-06;0.0004709874476373638
8.35850e-06;0.0004642183416983521
8.35875e-06;0.0004640111364620355
8.35900e-06;0.0004625828621102666
8.35925e-06;0.0004576896097703694
8.35950e-06;0.0004513644242098816
8.35975e-06;0.0004448459172577153
8.36000e-06;0.0004460000298859466
8.36025e-06;0.000457022928790589
8.36050e-06;0.0004745509374081582
8.36075e-06;0.0004969442392602334
8.36100e-06;0.0005191981306303816
8.36125e-06;0.0005397778557468798
8.36150e-06;0.000559827707977762
8.36175e-06;0.0005799944188829162
8.36200e-06;0.0006050756576766196
8.36225e-06;0.0006363172879110639
8.36250e-06;0.0006724113514313883
8.36275e-06;0.0007097972007135338
8.36300e-06;0.0007468499084601904
8.36325e-06;0.0007824167469772261
8.36350e-06;0.0008174284512898636
8.36375e-06;0.0008528436242686676
8.36400e-06;0.0008884248614392718
8.36425e-06;0.0009271341817565663
8.36450e-06;0.0009671309938766463
8.36475e-06;0.0010071278059964554
8.36500e-06;0.0010459236807308194
8.36525e-06;0.0010801584000817534
8.36550e-06;0.0011143931194324554
8.36575e-06;0.0011486278387833895
8.36600e-06;0.0011805609579431942
8.36625e-06;0.0012115467584923722
8.36650e-06;0.0012402977603468116
8.36675e-06;0.0012681289385053332
8.36700e-06;0.0012908272876292401
8.36725e-06;0.001311413008987897
8.36750e-06;0.001326567686237921
8.36775e-06;0.0013394869929929869
8.36800e-06;0.0013488144822647792
8.36825e-06;0.0013566636107160042
8.36850e-06;0.0013604764855570679
8.36875e-06;0.001362628073535066
8.36900e-06;0.0013592965782142103
8.36925e-06;0.0013537082935205329
8.36950e-06;0.0013428191451647679
8.36975e-06;0.0013297482074529781
8.37000e-06;0.0013128970885329752
8.37025e-06;0.0012944900799224343
8.37050e-06;0.0012723931545943563
8.37075e-06;0.0012487774916545098
8.37100e-06;0.0012199668440496594
8.37125e-06;0.001189017985962398
8.37150e-06;0.0011580691278751365
8.37175e-06;0.0011224470240511844
8.37200e-06;0.0010849014529474923
8.37225e-06;0.0010473558818438003
8.37250e-06;0.001006775461040301
8.37275e-06;0.0009649459225086997
8.37300e-06;0.0009231163839770982
8.37325e-06;0.0008788567606178489
8.37350e-06;0.0008335969354892526
8.37375e-06;0.0007883371103606563
8.37400e-06;0.0007430772852323668
8.37425e-06;0.0006978174601037705
8.37450e-06;0.0006525576349751742
8.37475e-06;0.0006072978098468846
8.37500e-06;0.0005620379847182883
8.37525e-06;0.0005185561051202443
8.37550e-06;0.00047580601243158604
8.37575e-06;0.00043456625208808093
8.37600e-06;0.0003954136201438984
8.37625e-06;0.00035851189961922584
8.37650e-06;0.0003240703823951391
8.37675e-06;0.00029233804206211064
8.37700e-06;0.0002634592007837894
8.37725e-06;0.00023758747139522455
8.37750e-06;0.00021485548401917586
8.37775e-06;0.00019534071955232274
8.37800e-06;0.0001792105233228768
8.37825e-06;0.00016654774372307598
8.37850e-06;0.0001573526711320142
8.37875e-06;0.00015165038063784847
8.37900e-06;0.00014940042799893347
8.37925e-06;0.00015056819901062174
8.37950e-06;0.00015510591250360718
8.37975e-06;0.00016293125159382913
8.38000e-06;0.00017401818489238576
8.38025e-06;0.00018828777481785943
8.38050e-06;0.00020560933921648153
8.38075e-06;0.00022586776014597653
8.38100e-06;0.0002489068741764866
8.38125e-06;0.00027457414507565584
8.38150e-06;0.00030270887319716134
8.38175e-06;0.00033312869887022707
8.38200e-06;0.0003656864866592665
8.38225e-06;0.00040079770741665086
8.38250e-06;0.0004367078760790748
8.38275e-06;0.0004747060038513362
8.38300e-06;0.0005135635174243569
8.38325e-06;0.0005542561031464981
8.38350e-06;0.0005957039885974052
8.38375e-06;0.0006371518740483122
8.38400e-06;0.0006785997594989385
8.38425e-06;0.0007202011234490211
8.38450e-06;0.0007618656578138481
8.38475e-06;0.0008035301921786751
8.38500e-06;0.0008451947265432198
8.38525e-06;0.0008845950922346769
8.38550e-06;0.000923063545802152
8.38575e-06;0.0009615319993693663
8.38600e-06;0.0009969119970983029
8.38625e-06;0.001031020813278681
8.38650e-06;0.001061698877805805
8.38675e-06;0.0010909648748058437
8.38700e-06;0.0011157917886804693
8.38725e-06;0.0011387916145676957
8.38750e-06;0.001156607025821783
8.38775e-06;0.0011722885771254974
8.38800e-06;0.0011826735944946338
8.38825e-06;0.0011908786045846849
8.38850e-06;0.0011937157433399702
8.38875e-06;0.00119434351296292
8.38900e-06;0.0011894199133141636
8.38925e-06;0.0011822114183789544
8.38950e-06;0.0011694329569654407
8.38975e-06;0.0011543619458169966
8.39000e-06;0.0011340989327048175
8.39025e-06;0.0011116989367633005
8.39050e-06;0.0010845104693772217
8.39075e-06;0.0010553511088119765
8.39100e-06;0.0010217365420444448
8.39125e-06;0.000986288251171126
8.39150e-06;0.0009468212317722969
8.39175e-06;0.0009057001386819519
8.39200e-06;0.0008612452798142879
8.39225e-06;0.0008154182719617932
8.39250e-06;0.0007664377111753873
8.39275e-06;0.0007161591754417669
8.39300e-06;0.0006658806397081466
8.39325e-06;0.0006131714641860242
8.39350e-06;0.0005594618584776698
8.39375e-06;0.0005057522527689515
8.39400e-06;0.0004514745319494107
8.39425e-06;0.0003969629798941033
8.39450e-06;0.0003424514278384265
8.39475e-06;0.0002889364431130013
8.39500e-06;0.00023583163682940666
8.39525e-06;0.00018396303449794008
8.39550e-06;0.00013373271399378514
8.39575e-06;8.53466011296623e-05
