Time(s);Current(A)
7.50000e-06;-0.0001249558354777944
7.50025e-06;-0.00013094248076803112
7.50050e-06;-0.00013653010399384386
7.50075e-06;-0.0001416169728336816
7.50100e-06;-0.00014587672808359626
7.50125e-06;-0.0001487364281563242
7.50150e-06;-0.00014974600293521693
7.50175e-06;-0.00014880979327491417
7.50200e-06;-0.00014599352478677412
7.50225e-06;-0.00014136736240228628
7.50250e-06;-0.0001350014798604365
7.50275e-06;-0.00012693309214817947
7.50300e-06;-0.00011705872701366363
7.50325e-06;-0.00010512045475091379
7.50350e-06;-9.093734984946582e-05
7.50375e-06;-7.455049165157971e-05
7.50400e-06;-5.610205639029611e-05
7.50425e-06;-3.573699238422563e-05
7.50450e-06;-1.3600237756075522e-05
7.50475e-06;1.018391590636235e-05
7.50500e-06;3.557931628031617e-05
7.50525e-06;6.264654444043006e-05
7.50550e-06;9.139794406703117e-05
7.50575e-06;0.00012170679317827953
7.50600e-06;0.00015338305955032
7.50625e-06;0.0001864203287580666
7.50650e-06;0.00022032226035975799
7.50675e-06;0.00025497620528522054
7.50700e-06;0.00029065031277905324
7.50725e-06;0.00032632442027300684
7.50750e-06;0.0003624838818084648
7.50775e-06;0.00039930176256328955
7.50800e-06;0.00043611964331823907
7.50825e-06;0.0004729375240730638
7.50850e-06;0.000509053937188222
7.50875e-06;0.0005442187567530115
7.50900e-06;0.0005793835763176818
7.50925e-06;0.0006145483958823521
7.50950e-06;0.0006480934729083689
7.50975e-06;0.0006794412474984241
7.51000e-06;0.0007107890220884792
7.51025e-06;0.0007402729594357323
7.51050e-06;0.0007672284615434717
7.51075e-06;0.0007921638405893783
7.51100e-06;0.000814358770941724
7.51125e-06;0.0008365537012939946
7.51150e-06;0.0008572744139125832
7.51175e-06;0.0008759952394257871
7.51200e-06;0.0008947160649389911
7.51225e-06;0.0009117078252338572
7.51250e-06;0.0009263539786652428
7.51275e-06;0.0009410001320966286
7.51300e-06;0.0009540962713951121
7.51325e-06;0.0009650897000786414
7.51350e-06;0.0009760831287621706
7.51375e-06;0.000984887219430397
7.51400e-06;0.0009907213086085753
7.51425e-06;0.0009965553977867533
7.51450e-06;0.001002389486964951
7.51475e-06;0.001008223576143129
7.51500e-06;0.0010140576653213072
7.51525e-06;0.001019891754499505
7.51550e-06;0.001025725843677683
7.51575e-06;0.001031559932855881
7.51600e-06;0.0010350835464539216
7.51625e-06;0.0010354728263550753
7.51650e-06;0.00103586210625623
7.51675e-06;0.0010362513861573834
7.51700e-06;0.001036640666058537
7.51725e-06;0.0010370299459596917
7.51750e-06;0.0010374192258608454
7.51775e-06;0.0010378085057619988
7.51800e-06;0.0010381977856631537
7.51825e-06;0.001037723172413412
7.51850e-06;0.0010360766232053223
7.51875e-06;0.001034430073997227
7.51900e-06;0.0010327835247891373
7.51925e-06;0.0010311369755810476
7.51950e-06;0.0010294904263729524
7.51975e-06;0.0010278438771648627
7.52000e-06;0.0010261973279567674
7.52025e-06;0.0010250752114493065
7.52050e-06;0.0010246645272977315
7.52075e-06;0.0010242538431461552
7.52100e-06;0.0010238431589945803
7.52125e-06;0.0010234324748430053
7.52150e-06;0.0010230217906914288
7.52175e-06;0.0010226111065398539
7.52200e-06;0.0010222004223882789
7.52225e-06;0.0010239521440275374
7.52250e-06;0.0010286373315705178
7.52275e-06;0.0010333225191134982
7.52300e-06;0.0010380077066564943
7.52325e-06;0.0010426928941994747
7.52350e-06;0.001047378081742455
7.52375e-06;0.0010520632692854514
7.52400e-06;0.0010567484568284318
7.52425e-06;0.0010614336443714278
7.52450e-06;0.0010661188319144083
7.52475e-06;0.0010708040194573887
7.52500e-06;0.0010776780677300725
7.52525e-06;0.0010875214700182493
7.52550e-06;0.001097364872306426
7.52575e-06;0.0011072082745946362
7.52600e-06;0.001117051676882813
7.52625e-06;0.0011268950791709898
7.52650e-06;0.0011367384814592
7.52675e-06;0.0011465818837473767
7.52700e-06;0.0011564252860355535
7.52725e-06;0.0011662686883237637
7.52750e-06;0.0011761120906119405
7.52775e-06;0.0011863745671281938
7.52800e-06;0.0011972055493173238
7.52825e-06;0.0012080365315064172
7.52850e-06;0.0012188675136955473
7.52875e-06;0.0012296984958846406
7.52900e-06;0.0012405294780737338
7.52925e-06;0.0012513604602628638
7.52950e-06;0.0012610339248025051
7.52975e-06;0.0012691371296935908
7.53000e-06;0.001277240334584704
7.53025e-06;0.0012853435394757896
7.53050e-06;0.0012934467443668752
7.53075e-06;0.0013015499492579883
7.53100e-06;0.001309653154149074
7.53125e-06;0.001315016326619609
7.53150e-06;0.0013166624392702475
7.53175e-06;0.0013183085519208803
7.53200e-06;0.0013174388926681091
7.53225e-06;0.0013131563998342616
7.53250e-06;0.0013088739070004289
7.53275e-06;0.001302077782939195
7.53300e-06;0.0012918717292848421
7.53325e-06;0.0012816656756304895
7.53350e-06;0.0012685807255462618
7.53375e-06;0.0012515903361818006
7.53400e-06;0.0012345999468173394
7.53425e-06;0.0012151293866388537
7.53450e-06;0.0011922942884318567
7.53475e-06;0.0011694591902248598
7.53500e-06;0.0011444012304659625
7.53525e-06;0.001116327792022719
7.53550e-06;0.0010882543535794755
7.53575e-06;0.0010577412854333242
7.53600e-06;0.001023918676321668
7.53625e-06;0.0009900960672100116
7.53650e-06;0.0009562734580982409
7.53675e-06;0.0009224508489865846
7.53700e-06;0.0008886282398748137
7.53725e-06;0.0008516832414555114
7.53750e-06;0.0008144826830328586
7.53775e-06;0.0007772821246100798
7.53800e-06;0.000740081566187427
7.53825e-06;0.0007028810077647742
7.53850e-06;0.0006660884966291135
7.53875e-06;0.0006298495322924996
7.53900e-06;0.0005936105679558858
7.53925e-06;0.0005583183134891326
7.53950e-06;0.000524310342081287
7.53975e-06;0.000491470086821336
7.54000e-06;0.00046021392623881433
7.54025e-06;0.0004300904447005908
7.54050e-06;0.0004023956952906416
7.54075e-06;0.00037707536096090124
7.54100e-06;0.000353334245959871
7.54125e-06;0.00032993651186521695
7.54150e-06;0.0003070045997662057
7.54175e-06;0.0002842083653624302
7.54200e-06;0.00026159618794474
7.54225e-06;0.00023898401052712643
7.54250e-06;0.0002169619927986249
7.54275e-06;0.0001957405710231449
7.54300e-06;0.00017468966953333422
7.54325e-06;0.00015387009162099987
7.54350e-06;0.0001326506343917628
7.54375e-06;0.0001108887108290275
7.54400e-06;8.894982951495127e-05
7.54425e-06;6.674976694976371e-05
7.54450e-06;4.457252670743244e-05
7.54475e-06;2.2547038852912027e-05
7.54500e-06;6.157137650927016e-07
7.54525e-06;-2.1503767917914313e-05
7.54550e-06;-4.403744665119572e-05
7.54575e-06;-6.699654722397293e-05
7.54600e-06;-9.01828122492608e-05
7.54625e-06;-0.00011336907727462723
7.54650e-06;-0.00013640716789359642
7.54675e-06;-0.0001592442487990432
7.54700e-06;-0.00018208132970456737
7.54725e-06;-0.00020491841061001415
7.54750e-06;-0.00022753147542640888
7.54775e-06;-0.0002498406455892554
7.54800e-06;-0.00027214981575202627
7.54825e-06;-0.00029445898591479717
7.54850e-06;-0.00031605731680487586
7.54875e-06;-0.00033669134082081414
7.54900e-06;-0.00035732536483675236
7.54925e-06;-0.0003771387977359818
7.54950e-06;-0.000395839037139776
7.54975e-06;-0.0004145392765436336
7.55000e-06;-0.0004323180989882968
7.55025e-06;-0.0004488469501080982
7.55050e-06;-0.00046436458496651337
7.55075e-06;-0.00047851042900043264
7.55100e-06;-0.0004913562939810398
7.55125e-06;-0.0005024386397172903
7.55150e-06;-0.0005120273143254068
7.55175e-06;-0.0005195897118389454
7.55200e-06;-0.0005256287054689562
7.55225e-06;-0.0005296010872879958
7.55250e-06;-0.0005320306138881441
7.55275e-06;-0.0005323671414797165
7.55300e-06;-0.0005311082149716191
7.55325e-06;-0.0005276849351218068
7.55350e-06;-0.0005226731419027524
7.55375e-06;-0.0005155064109642731
7.55400e-06;-0.0005068607980875095
7.55425e-06;-0.0004962089707633277
7.55450e-06;-0.0004841943520102068
7.55475e-06;-0.0004703310043065688
7.55500e-06;-0.00045520017671718646
7.55525e-06;-0.0004383499174457361
7.55550e-06;-0.0004203647622951116
7.55575e-06;-0.00040084003562767016
7.55600e-06;-0.00038037731616998255
7.55625e-06;-0.00035864213902736335
7.55650e-06;-0.00033602487984819455
7.55675e-06;-0.00031221101012166084
7.55700e-06;-0.00028839714039504647
7.55725e-06;-0.0002639157502398966
7.55750e-06;-0.00023852881847717645
7.55775e-06;-0.0002131418867143703
7.55800e-06;-0.00018762524233256018
7.55825e-06;-0.00016193263303846593
7.55850e-06;-0.0001362400237444587
7.55875e-06;-0.00011075665318511579
7.55900e-06;-8.57632777923333e-05
7.55925e-06;-6.131720063242801e-05
7.55950e-06;-3.757006574606338e-05
7.55975e-06;-1.4686198407281123e-05
7.56000e-06;7.1651629382734405e-06
7.56025e-06;2.7814671759420095e-05
7.56050e-06;4.7093003017822304e-05
7.56075e-06;6.487175162866946e-05
7.56100e-06;8.120716462448135e-05
7.56125e-06;9.63890840255228e-05
7.56150e-06;0.0001106770487272662
7.56175e-06;0.00012410001315415453
7.56200e-06;0.00013657321666987136
7.56225e-06;0.0001480086459882396
7.56250e-06;0.0001583183283914751
7.56275e-06;0.0001674399137661919
7.56300e-06;0.00017542670013233848
7.56325e-06;0.00018247833711247996
7.56350e-06;0.00018877546358830226
7.56375e-06;0.0001941898754959232
7.56400e-06;0.00019895668274708356
7.56425e-06;0.00020303454222554823
7.56450e-06;0.00020617779229466354
7.56475e-06;0.0002086266543922362
7.56500e-06;0.00021013352704200643
7.56525e-06;0.0002111490188233954
7.56550e-06;0.0002114979155429119
7.56575e-06;0.0002113313127673906
7.56600e-06;0.00021046539620108823
7.56625e-06;0.0002095994796347829
7.56650e-06;0.00020812194310171992
7.56675e-06;0.0002058146981371473
7.56700e-06;0.00020350745317258243
7.56725e-06;0.00020083098687142278
7.56750e-06;0.00019765364409023584
7.56775e-06;0.00019447630130905967
7.56800e-06;0.00019105157870919024
7.56825e-06;0.00018729126680140074
7.56850e-06;0.00018353095489362397
7.56875e-06;0.0001797706429858472
7.56900e-06;0.0001760103310780577
7.56925e-06;0.00017230466304837247
7.56950e-06;0.0001686034674877684
7.56975e-06;0.0001649022719271518
7.57000e-06;0.00016120107636654772
7.57025e-06;0.00015770515242878534
7.57050e-06;0.00015458751418090505
7.57075e-06;0.0001517800848216614
7.57100e-06;0.00014964578634782887
7.57125e-06;0.00014885115417414904
7.57150e-06;0.00014992472129301908
7.57175e-06;0.0001529748161199025
7.57200e-06;0.0001579170493945267
7.57225e-06;0.00016466175001340097
7.57250e-06;0.00017311924510175398
7.57275e-06;0.00018323957912842894
7.57300e-06;0.00019514335647617754
7.57325e-06;0.00020914133348467337
7.57350e-06;0.00022545777770691697
7.57375e-06;0.00024405372060560697
7.57400e-06;0.0002647695204762088
7.57425e-06;0.00028744221922738213
7.57450e-06;0.00031190883497808056
7.57475e-06;0.00033838431909342557
7.57500e-06;0.00036625731945631355
7.57525e-06;0.0003955992414392091
7.57550e-06;0.00042693386594853624
7.57575e-06;0.00045953808837824114
7.57600e-06;0.0004938646157624673
7.57625e-06;0.0005292673453934373
7.57650e-06;0.0005661300242192926
7.57675e-06;0.0006029927030452727
7.57700e-06;0.0006407771460042778
7.57725e-06;0.0006798120312551229
7.57750e-06;0.0007188469165061003
7.57775e-06;0.0007578818017569453
7.57800e-06;0.0007969166870077904
7.57825e-06;0.0008353578756848885
7.57850e-06;0.000873750471735172
7.57875e-06;0.0009121430677854557
7.57900e-06;0.0009505356638358693
7.57925e-06;0.0009874264740858704
7.57950e-06;0.0010222799990800935
7.57975e-06;0.0010571335240741986
7.58000e-06;0.001089815621374365
7.58025e-06;0.0011195520138848997
7.58050e-06;0.0011492884063953339
7.58075e-06;0.0011761628138152768
7.58100e-06;0.0011991547234608524
7.58125e-06;0.0012221466331063502
7.58150e-06;0.0012424830999675546
7.58175e-06;0.0012592172592087313
7.58200e-06;0.0012759514184498514
7.58225e-06;0.0012898040136478635
7.58250e-06;0.0012997475507515303
7.58275e-06;0.0013096910878551634
7.58300e-06;0.0013167969612416159
7.58325e-06;0.00132005333062377
7.58350e-06;0.001323309700005913
7.58375e-06;0.001324086178507275
7.58400e-06;0.001321498498733706
7.58425e-06;0.0013189108189601369
7.58450e-06;0.0013139336507023984
7.58475e-06;0.0013057149618120605
7.58500e-06;0.0012974962729217225
7.58525e-06;0.0012864141650677462
7.58550e-06;0.001271447614283127
7.58575e-06;0.0012564810634985077
7.58600e-06;0.0012415145127138377
7.58625e-06;0.0012265479619292185
7.58650e-06;0.001211581411144599
7.58675e-06;0.001196614860359929
7.58700e-06;0.0011767156969036616
7.58725e-06;0.001156412811046901
7.58750e-06;0.0011361099251900714
7.58775e-06;0.0011158070393333108
7.58800e-06;0.0010955041534764813
7.58825e-06;0.0010752012676197207
7.58850e-06;0.0010549800178378155
7.58875e-06;0.0010348695135240647
7.58900e-06;0.0010147590092103823
7.58925e-06;0.0009946485048966996
7.58950e-06;0.0009745380005829491
7.58975e-06;0.0009544274962692666
7.59000e-06;0.0009361717477936462
7.59025e-06;0.0009204321149455635
7.59050e-06;0.0009046924820975342
7.59075e-06;0.0008889528492495048
7.59100e-06;0.0008732132164014222
7.59125e-06;0.0008574735835533929
7.59150e-06;0.000840629090980916
7.59175e-06;0.0008222857731927596
7.59200e-06;0.0008039424554046653
7.59225e-06;0.0007855991376165089
7.59250e-06;0.0007672558198284146
7.59275e-06;0.0007466633052315083
7.59300e-06;0.0007230195861990214
7.59325e-06;0.0006993758671666146
7.59350e-06;0.0006757321481342078
7.59375e-06;0.0006520884291017208
7.59400e-06;0.000626250142490164
7.59425e-06;0.000597434760097087
7.59450e-06;0.0005675529217079258
7.59475e-06;0.0005362243556459722
7.59500e-06;0.0005048957895840185
7.59525e-06;0.00047227785728122545
7.59550e-06;0.00043791080281320465
7.59575e-06;0.00040242891307024667
7.59600e-06;0.000365434665528048
7.59625e-06;0.00032844041798597466
7.59650e-06;0.00029082631916568845
7.59675e-06;0.0002523713455223533
7.59700e-06;0.00021391637187901806
7.59725e-06;0.00017509007327293409
7.59750e-06;0.0001357600444605331
7.59775e-06;9.64300156481321e-05
7.59800e-06;5.7130869689854675e-05
7.59825e-06;1.8059507027874805e-05
7.59850e-06;-2.04713924054162e-05
7.59875e-06;-5.82373762722795e-05
7.59900e-06;-9.508779109900964e-05
7.59925e-06;-0.00013095854305531247
7.59950e-06;-0.00016575792087909874
7.59975e-06;-0.0001992887328615449
7.60000e-06;-0.0002313042338503367
7.60025e-06;-0.0002615563348484276
7.60050e-06;-0.0002897969706974638
7.60075e-06;-0.00031553116332829666
7.60100e-06;-0.00033954744049438017
7.60125e-06;-0.00036283176699880993
7.60150e-06;-0.00038512314744528967
7.60175e-06;-0.0004067145926871787
7.60200e-06;-0.0004273565232437244
7.60225e-06;-0.00044799845380034
7.60250e-06;-0.0004673518538030497
7.60275e-06;-0.00048495726531272253
7.60300e-06;-0.000502562676822455
7.60325e-06;-0.0005196070912372375
7.60350e-06;-0.00053589047094969
7.60375e-06;-0.0005521738506621977
7.60400e-06;-0.0005673251825820797
7.60425e-06;-0.0005809408066298937
7.60450e-06;-0.0005945564306777538
7.60475e-06;-0.0006081720547255678
7.60500e-06;-0.0006217876787734278
7.60525e-06;-0.0006354033028212417
7.60550e-06;-0.0006490189268690557
7.60575e-06;-0.0006626345509169158
7.60600e-06;-0.0006762501749647298
7.60625e-06;-0.0006898657990125436
7.60650e-06;-0.0007034814230604038
7.60675e-06;-0.0007170970471082178
7.60700e-06;-0.0007307126711560317
7.60725e-06;-0.0007409054048315568
7.60750e-06;-0.0007508179832206067
7.60775e-06;-0.0007607305616096566
7.60800e-06;-0.0007706431399987401
7.60825e-06;-0.0007805557183877901
7.60850e-06;-0.00079046829677684
7.60875e-06;-0.0008003808751659235
7.60900e-06;-0.0008102934535549734
7.60925e-06;-0.0008202060319440569
7.60950e-06;-0.0008301186103331068
7.60975e-06;-0.0008400311887221567
7.61000e-06;-0.0008499437671112402
7.61025e-06;-0.0008585161225595192
7.61050e-06;-0.0008652703649089352
7.61075e-06;-0.0008720246072583741
7.61100e-06;-0.0008773478241285755
7.61125e-06;-0.0008807297474353089
7.61150e-06;-0.0008819719621031822
7.61175e-06;-0.0008803115012641342
7.61200e-06;-0.0008765841847558878
7.61225e-06;-0.0008700530232669004
7.61250e-06;-0.0008615922522609467
7.61275e-06;-0.0008505138209899301
7.61300e-06;-0.0008372390437314493
7.61325e-06;-0.0008209847581481767
7.61350e-06;-0.0008022333410075744
7.61375e-06;-0.000780094377321272
7.61400e-06;-0.000755731280025595
7.61425e-06;-0.0007283509784084162
7.61450e-06;-0.0006990598517067207
7.61475e-06;-0.000667176547233708
7.61500e-06;-0.0006334426365402004
7.61525e-06;-0.000597198239488568
7.61550e-06;-0.0005591421759374146
7.61575e-06;-0.0005186284506844553
7.61600e-06;-0.0004767013605298327
7.61625e-06;-0.00043285693471188116
7.61650e-06;-0.0003880226644003667
7.61675e-06;-0.0003418455956751384
7.61700e-06;-0.00029494360964399006
7.61725e-06;-0.0002470582188303654
7.61750e-06;-0.00019867957302750777
7.61775e-06;-0.00014963178977735244
7.61800e-06;-0.00010058400652736328
7.61825e-06;-5.16225111194302e-05
7.61850e-06;-3.0285938791707843e-06
7.61875e-06;4.486128673727168e-05
7.61900e-06;9.181083995755688e-05
7.61925e-06;0.00013763445289547677
7.61950e-06;0.00018212136365385335
7.61975e-06;0.0002249881394833009
7.62000e-06;0.00026591825578410773
7.62025e-06;0.0003045943410293369
7.62050e-06;0.0003406990968826027
7.62075e-06;0.00037363634446060105
7.62100e-06;0.0004044272657612507
7.62125e-06;0.0004344727377908508
7.62150e-06;0.00046350695188523034
7.62175e-06;0.0004919271130516942
7.62200e-06;0.0005195142652932063
7.62225e-06;0.0005471014175346251
7.62250e-06;0.0005731960039766051
7.62275e-06;0.0005972658127882568
7.62300e-06;0.0006213356215998269
7.62325e-06;0.0006454054304113972
7.62350e-06;0.0006694752392230489
7.62375e-06;0.0006935450480346191
7.62400e-06;0.0007169436396341838
7.62425e-06;0.0007394316746630604
7.62450e-06;0.0007619197096918607
7.62475e-06;0.0007844077447206611
7.62500e-06;0.0008068957797495377
7.62525e-06;0.0008293838147783381
7.62550e-06;0.0008517014883897098
7.62575e-06;0.0008667950862576495
7.62600e-06;0.0008869812622773943
7.62625e-06;-0.027341165907693206
7.62650e-06;-0.02251575057313417
7.62675e-06;-0.0163087602559707
7.62700e-06;-0.011733944995014154
7.62725e-06;0.010099491694218954
7.62750e-06;0.009461460447631565
7.62775e-06;0.00798340938906642
7.62800e-06;0.0028676051464078377
7.62825e-06;-0.006162410747330071
7.62850e-06;-0.009308667529965838
7.62875e-06;-0.006908600631822146
7.62900e-06;-0.002016999323360887
7.62925e-06;0.004831699276280622
7.62950e-06;0.007667582481037575
7.62975e-06;0.00684650744079773
7.63000e-06;0.0033591998882492795
7.63025e-06;-0.0024217243026945345
7.63050e-06;-0.004486868908492293
7.63075e-06;-0.0030559587456703233
7.63100e-06;-4.8798275824159156e-05
7.63125e-06;0.0041950652894700525
7.63150e-06;0.005932759512619039
7.63175e-06;0.005385066011250633
7.63200e-06;0.0031710960915524887
7.63225e-06;-0.00047679941076023266
7.63250e-06;-0.0017952452495921204
7.63275e-06;-0.0009226976569571559
7.63300e-06;0.0009377016344824434
7.63325e-06;0.003572881340274845
7.63350e-06;0.0046381458010736724
7.63375e-06;0.004271802293373807
7.63400e-06;0.002861699838762153
7.63425e-06;0.000553435796459095
7.63450e-06;-0.00029564826517961505
7.63475e-06;0.00022760471057857966
7.63500e-06;0.0013694885201841922
7.63525e-06;0.0029965277047420396
7.63550e-06;0.003640082274617428
7.63575e-06;0.0033869308495619393
7.63600e-06;0.0024801548849111843
7.63625e-06;0.0010110779276238408
7.63650e-06;0.000456387750982656
7.63675e-06;0.000761675096740833
7.63700e-06;0.0014548341806284188
7.63725e-06;0.002452297145890581
7.63750e-06;0.0028341978752584127
7.63775e-06;0.002655022366183967
7.63800e-06;0.0020671549430543324
7.63825e-06;0.0011279106913934915
7.63850e-06;0.0007623498394504822
7.63875e-06;0.0009364151643164328
7.63900e-06;0.0013544200460604788
7.63925e-06;0.001964073502375625
7.63950e-06;0.0021892574188148396
7.63975e-06;0.0020642113423213052
7.64000e-06;0.0016844923506692381
7.64025e-06;0.0010861003083478466
7.64050e-06;0.000848561500384475
7.64075e-06;0.0009505844535260541
7.64100e-06;0.0012069703552203745
7.64125e-06;0.00158492408770003
7.64150e-06;0.0017234978487815603
7.64175e-06;0.001644081208535451
7.64200e-06;0.0014064727786538612
7.64225e-06;0.0010331610552614728
7.64250e-06;0.0008870815833189526
7.64275e-06;0.0009548023519659771
7.64300e-06;0.001120225950692255
7.64325e-06;0.0013627269825009526
7.64350e-06;0.0014561365367069977
7.64375e-06;0.0014137915544611063
7.64400e-06;0.0012730855269434752
7.64425e-06;0.0010480390703651696
7.64450e-06;0.0009659170876671117
7.64475e-06;0.0010182186648392832
7.64500e-06;0.0011321370729043198
7.64525e-06;0.0012946728515177209
