Time(s);Current(A)
7.00000e-06;0.0013973254121310954
7.00025e-06;0.0014103797735945164
7.00050e-06;0.0014234341350579372
7.00075e-06;0.0014364884965214024
7.00100e-06;0.0014495428579848232
7.00125e-06;0.0014625972194482442
7.00150e-06;0.0014756515809117093
7.00175e-06;0.0014887059423751303
7.00200e-06;0.0015017603038385513
7.00225e-06;0.001511918100227855
7.00250e-06;0.0015141939421593569
7.00275e-06;0.0015164697840908668
7.00300e-06;0.0015187456260223687
7.00325e-06;0.0015210214679538708
7.00350e-06;0.0015232973098853804
7.00375e-06;0.0015255731518168825
7.00400e-06;0.0015278489937483846
7.00425e-06;0.0015301248356798943
7.00450e-06;0.0015307312226785735
7.00475e-06;0.0015267947917490502
7.00500e-06;0.0015228583608195134
7.00525e-06;0.0015189219298899898
7.00550e-06;0.0015149854989604664
7.00575e-06;0.0015110490680309296
7.00600e-06;0.001507112637101406
7.00625e-06;0.0015031762061718827
7.00650e-06;0.0014992397752423459
7.00675e-06;0.0014953033443128223
7.00700e-06;0.0014907287751341476
7.00725e-06;0.0014859622294345332
7.00750e-06;0.0014811956837349188
7.00775e-06;0.0014764291380352883
7.00800e-06;0.0014716625923356739
7.00825e-06;0.0014668960466360597
7.00850e-06;0.001462129500936429
7.00875e-06;0.0014573629552368146
7.00900e-06;0.0014525964095372004
7.00925e-06;0.0014492650264588567
7.00950e-06;0.0014498389195020348
7.00975e-06;0.0014504128125452129
7.01000e-06;0.0014509867055883926
7.01025e-06;0.0014515605986315707
7.01050e-06;0.0014521344916747488
7.01075e-06;0.0014527083847179288
7.01100e-06;0.0014532822777611068
7.01125e-06;0.0014538561708042868
7.01150e-06;0.0014544300638474647
7.01175e-06;0.0014550039568906427
7.01200e-06;0.0014555778499338228
7.01225e-06;0.0014561517429770008
7.01250e-06;0.0014567256360201789
7.01275e-06;0.001462298522038646
7.01300e-06;0.001469375297348863
7.01325e-06;0.00147645207265908
7.01350e-06;0.0014835288479693209
7.01375e-06;0.0014906056232795379
7.01400e-06;0.001497682398589755
7.01425e-06;0.0015047591738999958
7.01450e-06;0.0015118359492102128
7.01475e-06;0.0015189127245204298
7.01500e-06;0.001525989499830671
7.01525e-06;0.001533066275140888
7.01550e-06;0.0015401430504511288
7.01575e-06;0.0015472198257613459
7.01600e-06;0.0015546720829782347
7.01625e-06;0.0015631460784303912
7.01650e-06;0.001571620073882519
7.01675e-06;0.0015800940693346467
7.01700e-06;0.0015885680647868031
7.01725e-06;0.001597042060238931
7.01750e-06;0.0016055160556910587
7.01775e-06;0.0016139900511432154
7.01800e-06;0.001619876638613865
7.01825e-06;0.0016249848342813295
7.01850e-06;0.0016300930299488112
7.01875e-06;0.0016352012256162754
7.01900e-06;0.0016403094212837398
7.01925e-06;0.0016454176169512216
7.01950e-06;0.001650525812618686
7.01975e-06;0.001651634603076124
7.02000e-06;0.0016418604584352472
7.02025e-06;0.0016320863137943703
7.02050e-06;0.0016223121691534602
7.02075e-06;0.0016125380245125833
7.02100e-06;0.0016027638798717064
7.02125e-06;0.0015929897352307966
7.02150e-06;0.0015832155905899196
7.02175e-06;0.0015734414459490427
7.02200e-06;0.0015636673013081327
7.02225e-06;0.0015394112213719595
7.02250e-06;0.0015107984184884423
7.02275e-06;0.0014821856156048282
7.02300e-06;0.001453572812721311
7.02325e-06;0.0014249600098377938
7.02350e-06;0.0013963472069541797
7.02375e-06;0.0013677344040706626
7.02400e-06;0.0013391216011870483
7.02425e-06;0.001310508798303531
7.02450e-06;0.00127933207299367
7.02475e-06;0.0012411785599128343
7.02500e-06;0.0012030250468321282
7.02525e-06;0.001164871533751422
7.02550e-06;0.0011267180206705864
7.02575e-06;0.0010885645075898803
7.02600e-06;0.0010497241963033804
7.02625e-06;0.0010106772697100214
7.02650e-06;0.0009716303431167948
7.02675e-06;0.0009325834165235682
7.02700e-06;0.0008935364899302093
7.02725e-06;0.0008553751924307678
7.02750e-06;0.0008196238142670725
7.02775e-06;0.0007838724361032561
7.02800e-06;0.0007491390049584327
7.02825e-06;0.0007171755485362338
7.02850e-06;0.000686337463546824
7.02875e-06;0.0006585616699776616
7.02900e-06;0.0006316682217761717
7.02925e-06;0.000607175757437432
7.02950e-06;0.0005826832930986923
7.02975e-06;0.0005583154103164231
7.03000e-06;0.0005342865311917519
7.03025e-06;0.0005102576520670806
7.03050e-06;0.000486228772942328
7.03075e-06;0.0004625107832778932
7.03100e-06;0.0004396387668619619
7.03125e-06;0.0004167667504459531
7.03150e-06;0.0003938947340300218
7.03175e-06;0.00037066388018378764
7.03200e-06;0.0003464565800264194
7.03225e-06;0.00032224927986913317
7.03250e-06;0.0002980419797117649
7.03275e-06;0.00027370742346763106
7.03300e-06;0.00024902658579891975
7.03325e-06;0.00022434574813012478
7.03350e-06;0.00019966491046141346
7.03375e-06;0.00017466421337434426
7.03400e-06;0.0001487931345412503
7.03425e-06;0.00012292205570824398
7.03450e-06;9.705523063956667e-05
7.03475e-06;7.11999806522624e-05
7.03500e-06;4.54304409366726e-05
7.03525e-06;1.989757304556234e-05
7.03550e-06;-5.641232001457345e-06
7.03575e-06;-3.1204338254086736e-05
7.03600e-06;-5.6659679385823594e-05
7.03625e-06;-8.184641012132843e-05
7.03650e-06;-0.00010660372400892511
7.03675e-06;-0.00013077344156240466
7.03700e-06;-0.0001541424306239441
7.03725e-06;-0.00017672166978143823
7.03750e-06;-0.00019902644875164488
7.03775e-06;-0.00022023555338336018
7.03800e-06;-0.0002404954428081387
7.03825e-06;-0.0002601519605463485
7.03850e-06;-0.00027816662041862706
7.03875e-06;-0.00029547347971651736
7.03900e-06;-0.00031085431569208977
7.03925e-06;-0.0003258740265313207
7.03950e-06;-0.00033991106589507746
7.03975e-06;-0.0003537090784428045
7.04000e-06;-0.00036685666594269626
7.04025e-06;-0.00038000425344258796
7.04050e-06;-0.00039267012698086486
7.04075e-06;-0.0004040251901603727
7.04100e-06;-0.000415380253339919
7.04125e-06;-0.00042620415365892756
7.04150e-06;-0.00043558268632178223
7.04175e-06;-0.0004449612189846687
7.04200e-06;-0.0004543397516475233
7.04225e-06;-0.000463718284310378
7.04250e-06;-0.00047309681697326443
7.04275e-06;-0.0004824753496361191
7.04300e-06;-0.0004918538822989738
7.04325e-06;-0.0005012324149618602
7.04350e-06;-0.0005106109476247149
7.04375e-06;-0.0005199894802875695
7.04400e-06;-0.0005293680129504559
7.04425e-06;-0.0005387465456133106
7.04450e-06;-0.0005481250782761653
7.04475e-06;-0.0005568301287469296
7.04500e-06;-0.0005637025409633801
7.04525e-06;-0.0005705749531798539
7.04550e-06;-0.0005774473653963044
7.04575e-06;-0.0005843197776127548
7.04600e-06;-0.0005911921898292287
7.04625e-06;-0.0005980646020456791
7.04650e-06;-0.0006049370142621296
7.04675e-06;-0.0006118094264786034
7.04700e-06;-0.0006186818386950539
7.04725e-06;-0.0006255542509115043
7.04750e-06;-0.0006324266631279782
7.04775e-06;-0.0006392990753444286
7.04800e-06;-0.0006461714875608791
7.04825e-06;-0.0006525258201366503
7.04850e-06;-0.0006574703863082666
7.04875e-06;-0.0006620732669780871
7.04900e-06;-0.0006657463741085526
7.04925e-06;-0.0006685224424114837
7.04950e-06;-0.0006679038247291064
7.04975e-06;-0.0006637362233910989
7.05000e-06;-0.0006560641742122354
7.05025e-06;-0.0006450540346873615
7.05050e-06;-0.0006308722092387493
7.05075e-06;-0.0006136744836322455
7.05100e-06;-0.0005934726640709796
7.05125e-06;-0.0005698537778637886
7.05150e-06;-0.0005422028410505703
7.05175e-06;-0.0005103296685809454
7.05200e-06;-0.00047445580088410316
7.05225e-06;-0.00043487902489402976
7.05250e-06;-0.0003918972374168729
7.05275e-06;-0.00034580153388451414
7.05300e-06;-0.0002967929148280491
7.05325e-06;-0.0002448062735577632
7.05350e-06;-0.00018964996278741198
7.05375e-06;-0.00013139847037702996
7.05400e-06;-7.0384128527736e-05
7.05425e-06;-6.987085470533763e-06
7.05450e-06;5.841254330541351e-05
7.05475e-06;0.00012543887363549838
7.05500e-06;0.00019392445829979478
7.05525e-06;0.00026367420360752134
7.05550e-06;0.00033394061589503546
7.05575e-06;0.0004056129505412207
7.05600e-06;0.00047728528518764876
7.05625e-06;0.000548710636233048
7.05650e-06;0.0006194639107185169
7.05675e-06;0.0006902171852042255
7.05700e-06;0.000760071919188407
7.05725e-06;0.000827481600111854
7.05750e-06;0.000893798915137502
7.05775e-06;0.0009571437513725484
7.05800e-06;0.0010189290213192198
7.05825e-06;0.0010764704955537276
7.05850e-06;0.0011319572735438124
7.05875e-06;0.0011818529386866665
7.05900e-06;0.0012294158633249944
7.05925e-06;0.001270631078203315
7.05950e-06;0.00130961923285988
7.05975e-06;0.0013425472484309676
7.06000e-06;0.0013731570866035003
7.06025e-06;0.001397458843242616
7.06050e-06;0.0014192938662896328
7.06075e-06;0.001434416565840917
7.06100e-06;0.0014470599396410263
7.06125e-06;0.001452956724937526
7.06150e-06;0.001456601969603237
7.06175e-06;0.0014541204606031658
7.06200e-06;0.0014494919337146826
7.06225e-06;0.0014390210740082808
7.06250e-06;0.0014264717259157079
7.06275e-06;0.001408266523265429
7.06300e-06;0.001387720904889722
7.06325e-06;0.001360806691416124
7.06350e-06;0.0013338924779425258
7.06375e-06;0.0013047195491749817
7.06400e-06;0.0012694003434910153
7.06425e-06;0.001234081137807049
7.06450e-06;0.0011969851080718616
7.06475e-06;0.0011550540941847342
7.06500e-06;0.001113123080297607
7.06525e-06;0.0010699267186583875
7.06550e-06;0.0010232871706646305
7.06575e-06;0.0009766476226708734
7.06600e-06;0.0009300080746769584
7.06625e-06;0.0008833685266832014
7.06650e-06;0.0008363981347554439
7.06675e-06;0.0007893282122518043
7.06700e-06;0.0007422582897483242
7.06725e-06;0.0006951883672446845
7.06750e-06;0.000649027569087146
7.06775e-06;0.0006053406240957959
7.06800e-06;0.0005627228707369108
7.06825e-06;0.000523014535784318
7.06850e-06;0.00048432190316208344
7.06875e-06;0.0004491827750292486
7.06900e-06;0.00041704384890638
7.06925e-06;0.0003880966019671267
7.06950e-06;0.00036241300296146046
7.06975e-06;0.00034003291957774223
7.07000e-06;0.0003210173481920795
7.07025e-06;0.00030543504769440073
7.07050e-06;0.00029335478043392165
7.07075e-06;0.0002848442638006078
7.07100e-06;0.0002799547786108784
7.07125e-06;0.00027867560673340883
7.07150e-06;0.0002809211859529231
7.07175e-06;0.00028658585712410884
7.07200e-06;0.0002955771787427974
7.07225e-06;0.0003078075504604005
7.07250e-06;0.00032318942577377896
7.07275e-06;0.0003416345786369831
7.07300e-06;0.00036304448397473315
7.07325e-06;0.0003872818120284832
7.07350e-06;0.0004141623313168888
7.07375e-06;0.0004437744023393898
7.07400e-06;0.00047585001037214536
7.07425e-06;0.0005089666106401516
7.07450e-06;0.0005449158948510745
7.07475e-06;0.0005818640423124007
7.07500e-06;0.0006215302349184922
7.07525e-06;0.0006611964275247182
7.07550e-06;0.0007016064978065779
7.07575e-06;0.000744040762195055
7.07600e-06;0.0007864750265833883
7.07625e-06;0.0008289092909717216
7.07650e-06;0.0008713435553601987
7.07675e-06;0.0009128555296376276
7.07700e-06;0.0009540900435893155
7.07725e-06;0.0009953245575411431
7.07750e-06;0.0010365590714928312
7.07775e-06;0.0010764318559676237
7.07800e-06;0.0011125991860763292
7.07825e-06;0.0011487665161849122
7.07850e-06;0.0011830390157216344
7.07875e-06;0.001212155419033224
7.07900e-06;0.001241271822344715
7.07925e-06;0.0012683538645751234
7.07950e-06;0.0012899001287542474
7.07975e-06;0.0013096792984755295
7.08000e-06;0.0013246499596165585
7.08025e-06;0.0013378044872698863
7.08050e-06;0.0013460170643558283
7.08075e-06;0.0013523657359613998
7.08100e-06;0.0013536424627958758
7.08125e-06;0.0013530413310990329
7.08150e-06;0.0013473302864484887
7.08175e-06;0.0013393971141559794
7.08200e-06;0.0013254172250139627
7.08225e-06;0.0013114373358718988
7.08250e-06;0.0012950174564844992
7.08275e-06;0.0012719580259523417
7.08300e-06;0.0012488985954201063
7.08325e-06;0.0012236975801373786
7.08350e-06;0.0011926690163597728
7.08375e-06;0.001161640452582062
7.08400e-06;0.0011289122445209616
7.08425e-06;0.0010915590691390155
7.08450e-06;0.0010542058937571962
7.08475e-06;0.0010154428102023033
7.08500e-06;0.0009728431713816206
7.08525e-06;0.0009302435325610822
7.08550e-06;0.0008876438937405438
7.08575e-06;0.0008450442549198611
7.08600e-06;0.000800866683837703
7.08625e-06;0.0007562144100627449
7.08650e-06;0.0007115621362876355
7.08675e-06;0.0006669098625126774
7.08700e-06;0.00062283961588948
7.08725e-06;0.0005803531456966653
7.08750e-06;0.0005378666755039944
7.08775e-06;0.0004963577674778905
7.08800e-06;0.00045750894139812945
7.08825e-06;0.000419484068785466
7.08850e-06;0.0003843563927148479
7.08875e-06;0.00035173758745097325
7.08900e-06;0.00032179845862302414
7.08925e-06;0.0002943455678847192
7.08950e-06;0.0002689411678199455
7.08975e-06;0.0002453831179061502
7.09000e-06;0.00022374874733134783
7.09025e-06;0.00020417104886904437
7.09050e-06;0.00018678297554738932
7.09075e-06;0.0001717122971088047
7.09100e-06;0.0001590139446835745
7.09125e-06;0.00014851473346471844
7.09150e-06;0.00013988841588897342
7.09175e-06;0.00013295637304719903
7.09200e-06;0.00012771504518799037
7.09225e-06;0.00012419573348099603
7.09250e-06;0.0001224297273640681
7.09275e-06;0.0001224450463673177
7.09300e-06;0.00012422407672974746
7.09325e-06;0.00012760633749694938
7.09350e-06;0.00013233548563610438
7.09375e-06;0.00013824763402323943
7.09400e-06;0.00014528860169990104
7.09425e-06;0.00015342603866804822
7.09450e-06;0.0001626275601855426
7.09475e-06;0.00017297630261329914
7.09500e-06;0.00018437649128196879
7.09525e-06;0.00019613212101787732
7.09550e-06;0.00020885495508948744
7.09575e-06;0.0002218518240701203
7.09600e-06;0.0002355943799633794
7.09625e-06;0.00024933693585663856
7.09650e-06;0.0002630794917499442
7.09675e-06;0.00027685675918139453
7.09700e-06;0.00029072848151224644
7.09725e-06;0.0003046002038430513
7.09750e-06;0.0003184719261738562
7.09775e-06;0.00033192369021932036
7.09800e-06;0.0003442326896497086
7.09825e-06;0.0003565416890800968
7.09850e-06;0.0003683332915498628
7.09875e-06;0.0003787169852840467
7.09900e-06;0.00038846053979036516
7.09925e-06;0.0003964621868650991
7.09950e-06;0.00040355439066149966
7.09975e-06;0.00040817187343452797
7.10000e-06;0.00041185666436205966
7.10025e-06;0.0004130034716973768
7.10050e-06;0.00041323888827137146
7.10075e-06;0.00041099428445121874
7.10100e-06;0.0004077955156345881
7.10125e-06;0.0004020003318101932
7.10150e-06;0.00039517010378549753
7.10175e-06;0.00038552337724613903
7.10200e-06;0.000374914887398033
7.10225e-06;0.00036168930648315564
7.10250e-06;0.00034760312578938264
7.10275e-06;0.0003311751339939734
7.10300e-06;0.00031394756746447143
7.10325e-06;0.00029454424742578027
7.10350e-06;0.00027455464114797525
7.10375e-06;0.0002524602358678022
7.10400e-06;0.00022897959287340207
7.10425e-06;0.0002050653240169772
7.10450e-06;0.0001797325559739966
7.10475e-06;0.00015354913000987567
7.10500e-06;0.00012664347234074287
7.10525e-06;9.911094706780282e-05
7.10550e-06;7.103603769169054e-05
7.10575e-06;4.25450755894012e-05
7.10600e-06;1.3801428110455866e-05
7.10625e-06;-1.5024926824574211e-05
7.10650e-06;-4.376403144002263e-05
7.10675e-06;-7.224650941434128e-05
7.10700e-06;-0.00010031032743993977
7.10725e-06;-0.000127814171362082
7.10750e-06;-0.00015462356530632847
7.10775e-06;-0.00018057782437839247
7.10800e-06;-0.00020549306133972763
7.10825e-06;-0.00022918127717749766
7.10850e-06;-0.00025145450089216083
7.10875e-06;-0.0002721237262632358
7.10900e-06;-0.0002909892674402501
7.10925e-06;-0.0003078320448593067
7.10950e-06;-0.0003224655216539975
7.10975e-06;-0.00033479780200496506
7.11000e-06;-0.0003447988456592436
7.11025e-06;-0.0003524478008128733
7.11050e-06;-0.0003577238660483065
7.11075e-06;-0.0003606056120695633
7.11100e-06;-0.00036106491575715037
7.11125e-06;-0.0003590615129821289
7.11150e-06;-0.0003545754812274663
7.11175e-06;-0.00034764628962959614
7.11200e-06;-0.00033835205566079747
7.11225e-06;-0.00032677670130677755
7.11250e-06;-0.0003130041832971578
7.11275e-06;-0.0002971180225544215
7.11300e-06;-0.00027919753828446585
7.11325e-06;-0.0002593144951218402
7.11350e-06;-0.00023755340345193738
7.11375e-06;-0.0002140358938952748
7.11400e-06;-0.00018890786151513954
7.11425e-06;-0.0001623188020474541
7.11450e-06;-0.00013441821795858255
7.11475e-06;-0.00010535535274992863
7.11500e-06;-7.527682769486233e-05
7.11525e-06;-4.4324468891538204e-05
7.11550e-06;-1.2648088687127844e-05
7.11575e-06;1.9579226343859207e-05
7.11600e-06;5.2160998491957236e-05
7.11625e-06;8.488372534439073e-05
7.11650e-06;0.00011760645219671334
7.11675e-06;0.0001501389197478671
7.11700e-06;0.00018215367894720372
7.11725e-06;0.0002137797608178472
7.11750e-06;0.00024434819788657033
7.11775e-06;0.0002743061576923642
7.11800e-06;0.00030260292437861745
7.11825e-06;0.000330296851220218
7.11850e-06;0.00035587106760106126
7.11875e-06;0.00037938453565366424
7.11900e-06;0.0004008394429089842
7.11925e-06;0.00042172484043524744
7.11950e-06;0.00044106052317195715
7.11975e-06;0.0004599469421752653
7.12000e-06;0.00047761085238415615
7.12025e-06;0.000495274762593047
7.12050e-06;0.0005121438442427128
7.12075e-06;0.0005268500873827149
7.12100e-06;0.0005415563305227171
7.12125e-06;0.0005557564679320121
7.12150e-06;0.0005685794216057125
7.12175e-06;0.000581402375279413
7.12200e-06;0.0005934337502956886
7.12225e-06;0.0006033111302350019
7.12250e-06;0.0006131885101743486
7.12275e-06;0.0006230658901136619
7.12300e-06;0.0006329432700529752
7.12325e-06;0.0006428206499923219
7.12350e-06;0.0006526980299316351
7.12375e-06;0.0006625754098709485
7.12400e-06;0.0006724527898102952
7.12425e-06;0.0006823301697496084
7.12450e-06;0.0006922075496889217
7.12475e-06;0.0006995595655366094
7.12500e-06;0.0007061518547708116
7.12525e-06;0.0007127441440050137
7.12550e-06;0.0007193364332392382
7.12575e-06;0.0007259287224734404
7.12600e-06;0.0007325210117076425
7.12625e-06;0.0007391133009418671
7.12650e-06;0.0007457055901760693
7.12675e-06;0.0007522978794102938
7.12700e-06;0.000758890168644496
7.12725e-06;0.0007646515526528816
7.12750e-06;0.0007681519285495856
7.12775e-06;0.0007716523044462779
7.12800e-06;0.0007751526803429702
7.12825e-06;0.0007786530562396743
7.12850e-06;0.0007821534321363666
7.12875e-06;0.0007856538080330588
7.12900e-06;0.000789154183929763
7.12925e-06;0.0007926545598264553
7.12950e-06;0.0007961549357231476
7.12975e-06;0.0007996553116198517
7.13000e-06;0.000803155687516544
7.13025e-06;0.0008066560634132362
7.13050e-06;0.0008101564393099404
7.13075e-06;0.0008136568152066327
7.13100e-06;0.0008164872527780398
7.13125e-06;0.0008174946954510871
7.13150e-06;0.0008185021381241344
7.13175e-06;0.0008195095807971853
7.13200e-06;0.0008205170234702327
7.13225e-06;0.00082152446614328
7.13250e-06;0.0008225319088163308
7.13275e-06;0.0008235393514893783
7.13300e-06;0.0008245467941624256
7.13325e-06;0.0008255542368354764
7.13350e-06;0.0008265616795085238
7.13375e-06;0.0008275691221815712
7.13400e-06;0.000828576564854622
7.13425e-06;0.0008295840075276694
7.13450e-06;0.0008305914502007168
7.13475e-06;0.0008313230085963878
7.13500e-06;0.0008313038476927362
7.13525e-06;0.0008312846867890845
7.13550e-06;0.0008312655258854329
7.13575e-06;0.0008312463649817813
7.13600e-06;0.0008312272040781297
7.13625e-06;0.0008312080431744782
7.13650e-06;0.0008311888822708264
7.13675e-06;0.0008311697213671749
7.13700e-06;0.0008311505604635233
7.13725e-06;0.0008311313995598717
7.13750e-06;0.0008311553861767511
7.13775e-06;0.000831296783168321
7.13800e-06;0.0008314381801598909
7.13825e-06;0.0008315795771514613
7.13850e-06;0.0008317209741430312
7.13875e-06;0.0008318623711346011
7.13900e-06;0.0008320037681261714
7.13925e-06;0.0008321451651177413
7.13950e-06;0.0008322865621093117
7.13975e-06;0.0008324279591008816
7.14000e-06;0.0008325693560924514
7.14025e-06;0.0008334848886566256
7.14050e-06;0.0008365069512488344
7.14075e-06;0.0008395290138410432
7.14100e-06;0.0008425510764332621
7.14125e-06;0.000845573139025471
7.14150e-06;0.0008485952016176797
7.14175e-06;0.0008516172642098988
7.14200e-06;0.0008546393268021076
7.14225e-06;0.0008576613893943164
7.14250e-06;0.0008606834519865354
7.14275e-06;0.0008637055145787442
7.14300e-06;0.000866727577170953
7.14325e-06;0.0008697496397631721
7.14350e-06;0.0008749469900858085
7.14375e-06;0.0008807987505924576
7.14400e-06;0.0008866505110990867
7.14425e-06;0.0008925022716057159
7.14450e-06;0.0008983540321123648
7.14475e-06;0.0009042057926189939
7.14500e-06;0.0009100575531256231
7.14525e-06;0.0009159093136322721
7.14550e-06;0.0009217610741389012
