Time(s);Current(A)
4.75000e-06;-0.0013554822472534893
4.75025e-06;-0.0013803884941865105
4.75050e-06;-0.0014053133638357073
4.75075e-06;-0.001430024269390628
4.75100e-06;-0.0014547235843537006
4.75125e-06;-0.0014786452295613467
4.75150e-06;-0.001502524747828114
4.75175e-06;-0.0015252743148114617
4.75200e-06;-0.0015479626715052958
4.75225e-06;-0.0015691397514873725
4.75250e-06;-0.0015902349645020766
4.75275e-06;-0.0016085711726406898
4.75300e-06;-0.001626757923462459
4.75325e-06;-0.0016449446742842898
4.75350e-06;-0.0016605142715224131
4.75375e-06;-0.001675052115433438
4.75400e-06;-0.0016888604315722186
4.75425e-06;-0.0017026318402753968
4.75450e-06;-0.0017153850007563677
4.75475e-06;-0.0017280830019846835
4.75500e-06;-0.001739368564108561
4.75525e-06;-0.0017505776133706673
4.75550e-06;-0.0017603460078762475
4.75575e-06;-0.0017700363610574606
4.75600e-06;-0.0017789582288344032
4.75625e-06;-0.0017878384671935763
4.75650e-06;-0.0017967187055527494
4.75675e-06;-0.0018045186507037916
4.75700e-06;-0.0018122600755797465
4.75725e-06;-0.001820001500455701
4.75750e-06;-0.0018265784453048621
4.75775e-06;-0.001833092309417259
4.75800e-06;-0.0018396061735296563
4.75825e-06;-0.001845568571647201
4.75850e-06;-0.0018515010964475016
4.75875e-06;-0.0018574336212478022
4.75900e-06;-0.0018624654262322142
4.75925e-06;-0.001867448438563864
4.75950e-06;-0.0018724314508955136
4.75975e-06;-0.0018774144632271801
4.76000e-06;-0.0018816805163894988
4.76025e-06;-0.0018859077313480319
4.76050e-06;-0.0018901349463065506
4.76075e-06;-0.0018943621612650694
4.76100e-06;-0.0018969468428930829
4.76125e-06;-0.001899442547286451
4.76150e-06;-0.0019019382516798193
4.76175e-06;-0.001904433956073196
4.76200e-06;-0.0019069296604665642
4.76225e-06;-0.0019094253648599324
4.76250e-06;-0.001911921069253309
4.76275e-06;-0.0019144167736466773
4.76300e-06;-0.0019169124780400455
4.76325e-06;-0.0019194081824334222
4.76350e-06;-0.0019219038868267904
4.76375e-06;-0.0019243995912201586
4.76400e-06;-0.0019268952956135353
4.76425e-06;-0.0019293910000069035
4.76450e-06;-0.0019318867044002801
4.76475e-06;-0.0019343824087936484
4.76500e-06;-0.0019351717495357185
4.76525e-06;-0.0019358686553079226
4.76550e-06;-0.0019365655610801243
4.76575e-06;-0.001937262466852326
4.76600e-06;-0.0019379593726245301
4.76625e-06;-0.0019386562783967319
4.76650e-06;-0.0019393531841689336
4.76675e-06;-0.0019400500899411377
4.76700e-06;-0.0019407469957133394
4.76725e-06;-0.0019414439014855411
4.76750e-06;-0.0019421408072577452
4.76775e-06;-0.001942837713029947
4.76800e-06;-0.0019435346188021486
4.76825e-06;-0.0019442315245743527
4.76850e-06;-0.0019449284303465545
4.76875e-06;-0.0019456253361187586
4.76900e-06;-0.001945731295149365
4.76925e-06;-0.0019458052421617894
4.76950e-06;-0.0019458791891742142
4.76975e-06;-0.0019459531361866386
4.77000e-06;-0.0019460270831990632
4.77025e-06;-0.0019461010302114878
4.77050e-06;-0.0019461749772239124
4.77075e-06;-0.0019461620838080096
4.77100e-06;-0.0019460424554232998
4.77125e-06;-0.0019459228270385905
4.77150e-06;-0.0019458031986538812
4.77175e-06;-0.0019456835702691714
4.77200e-06;-0.0019455639418844621
4.77225e-06;-0.0019454443134997528
4.77250e-06;-0.001945324685115043
4.77275e-06;-0.0019451482499535263
4.77300e-06;-0.0019449562585891285
4.77325e-06;-0.001944749124497909
4.77350e-06;-0.0019443091868301854
4.77375e-06;-0.0019430229107135534
4.77400e-06;-0.0019403233132387222
4.77425e-06;-0.0019360727801901855
4.77450e-06;-0.0019303463724911268
4.77475e-06;-0.001923229643438642
4.77500e-06;-0.001914808047861178
4.77525e-06;-0.0019051667033056804
4.77550e-06;-0.0018942557601476229
4.77575e-06;-0.0018817775352137885
4.77600e-06;-0.001866592791820816
4.77625e-06;-0.0018512658415873863
4.77650e-06;-0.0018334608282353892
4.77675e-06;-0.001814046632159429
4.77700e-06;-0.001792605657274036
4.77725e-06;-0.0017710592184719293
4.77750e-06;-0.001747114780534954
4.77775e-06;-0.0017230404412271094
4.77800e-06;-0.0016969938775275983
4.77825e-06;-0.0016695910371100756
4.77850e-06;-0.0016410366129296547
4.77875e-06;-0.0016115046698213303
4.77900e-06;-0.0015811693591245121
4.77925e-06;-0.0015502050590267184
4.77950e-06;-0.0015187325996357081
4.77975e-06;-0.0014867758206877863
4.78000e-06;-0.0014543700300117955
4.78025e-06;-0.001421656123333396
4.78050e-06;-0.001388827049436963
4.78075e-06;-0.0013560783800808144
4.78100e-06;-0.00132360569300551
4.78125e-06;-0.0012916045659519403
4.78150e-06;-0.001260237115437154
4.78175e-06;-0.001229604784527089
4.78200e-06;-0.001199815877163938
4.78225e-06;-0.0011710450597896167
4.78250e-06;-0.0011434997185953962
4.78275e-06;-0.0011173885982176926
4.78300e-06;-0.0010929206521946213
4.78325e-06;-0.0010712234283958852
4.78350e-06;-0.0010496716926967084
4.78375e-06;-0.0010306939312468778
4.78400e-06;-0.00101400689550115
4.78425e-06;-0.000997436396799965
4.78450e-06;-0.0009830764922954776
4.78475e-06;-0.000970415364706096
4.78500e-06;-0.0009612343030402063
4.78525e-06;-0.0009522371254902276
4.78550e-06;-0.0009432399479402792
4.78575e-06;-0.0009382539943765547
4.78600e-06;-0.0009334853317562028
4.78625e-06;-0.0009314265312913521
4.78650e-06;-0.00092951452604566
4.78675e-06;-0.000930298744469979
4.78700e-06;-0.0009312290193066981
4.78725e-06;-0.0009348475942398804
4.78750e-06;-0.000938611796359663
4.78775e-06;-0.0009447013878638195
4.78800e-06;-0.0009509169474153328
4.78825e-06;-0.0009590060317924599
4.78850e-06;-0.0009671966063825767
4.78875e-06;-0.0009770716167556014
4.78900e-06;-0.0009870378742495444
4.78925e-06;-0.0009985030951670055
4.78950e-06;-0.0010100495160318057
4.78975e-06;-0.0010226870157358057
4.79000e-06;-0.0010353836199802167
4.79025e-06;-0.0010487078154233973
4.79050e-06;-0.0010620660079417507
4.79075e-06;-0.0010757530701750561
4.79100e-06;-0.0010894579475218102
4.79125e-06;-0.0011031949608951049
4.79150e-06;-0.0011169337151005572
4.79175e-06;-0.00113026900204491
4.79200e-06;-0.001143582432872021
4.79225e-06;-0.0011560217858638832
4.79250e-06;-0.001168413789418734
4.79275e-06;-0.001179919622715933
4.79300e-06;-0.0011906669250783335
4.79325e-06;-0.0012005748769998873
4.79350e-06;-0.0012094813283003553
4.79375e-06;-0.0012163960653960451
4.79400e-06;-0.0012232057214386508
4.79425e-06;-0.0012270715628437845
4.79450e-06;-0.001230777935652462
4.79475e-06;-0.0012308291023220169
4.79500e-06;-0.0012306822637960853
4.79525e-06;-0.0012305354252701542
4.79550e-06;-0.0012258726099560419
4.79575e-06;-0.001220965160869518
4.79600e-06;-0.001216057711783011
4.79625e-06;-0.00120716585554321
4.79650e-06;-0.0011980581610477098
4.79675e-06;-0.0011867311481419617
4.79700e-06;-0.0011739038309194075
4.79725e-06;-0.001159696324182621
4.79750e-06;-0.0011441605998836724
4.79775e-06;-0.001127305438567611
4.79800e-06;-0.001109158010478525
4.79825e-06;-0.0010898084470650417
4.79850e-06;-0.0010693758503052993
4.79875e-06;-0.0010479808204903968
4.79900e-06;-0.0010257436325946468
4.79925e-06;-0.0010027847645115108
4.79950e-06;-0.0009792080307040177
4.79975e-06;-0.0009550900040267925
4.80000e-06;-0.000930518972106618
4.80025e-06;-0.0009056226412520521
4.80050e-06;-0.0008805467169104998
4.80075e-06;-0.0008554377107555155
4.80100e-06;-0.0008304423523359509
4.80125e-06;-0.000805707051865641
4.80150e-06;-0.0007813680417682582
4.80175e-06;-0.0007575444391394228
4.80200e-06;-0.0007343626357863533
4.80225e-06;-0.0007119735958302812
4.80250e-06;-0.0006905396951392134
4.80275e-06;-0.0006702239673890492
4.80300e-06;-0.0006511891209387002
4.80325e-06;-0.000633597735767472
4.80350e-06;-0.000617355628959075
4.80375e-06;-0.0006018751532334875
4.80400e-06;-0.0005865669787070989
4.80425e-06;-0.0005713063583636958
4.80450e-06;-0.0005562093717114414
4.80475e-06;-0.000541403563699827
4.80500e-06;-0.0005272787734892814
4.80525e-06;-0.0005131900457226334
4.80550e-06;-0.0004998478731911623
4.80575e-06;-0.000486690119233078
4.80600e-06;-0.00047335910958550085
4.80625e-06;-0.0004598023401642228
4.80650e-06;-0.0004461181386019859
4.80675e-06;-0.00043241206897863023
4.80700e-06;-0.0004188819163138663
4.80725e-06;-0.0004053613389734337
4.80750e-06;-0.0003921168029229029
4.80775e-06;-0.0003788820850930308
4.80800e-06;-0.00036537165518108877
4.80825e-06;-0.00035184630481250705
4.80850e-06;-0.0003381351369811212
4.80875e-06;-0.0003244061177494466
4.80900e-06;-0.00031083898579044767
4.80925e-06;-0.0002972806462299973
4.80950e-06;-0.0002840433908523262
4.80975e-06;-0.0002708235288401336
4.81000e-06;-0.000257676587171632
4.81025e-06;-0.0002445335956516332
4.81050e-06;-0.00023152030088309113
4.81075e-06;-0.00021870561947381407
4.81100e-06;-0.0002061717257075326
4.81125e-06;-0.00019400165580361615
4.81150e-06;-0.00018223890794735352
4.81175e-06;-0.00017085100036318338
4.81200e-06;-0.00015980526134084104
4.81225e-06;-0.0001491405101112534
4.81250e-06;-0.00013893265399496471
4.81275e-06;-0.00012925935880685646
4.81300e-06;-0.00012019830192270498
4.81325e-06;-0.0001118269544039381
4.81350e-06;-0.0001041293911212479
4.81375e-06;-9.690741072634197e-05
4.81400e-06;-8.995590367607814e-05
4.81425e-06;-8.32337889365097e-05
4.81450e-06;-7.694107973119647e-05
4.81475e-06;-7.067099779132225e-05
4.81500e-06;-6.491221756500103e-05
4.81525e-06;-5.958429849733472e-05
4.81550e-06;-5.466954216893441e-05
4.81575e-06;-5.004449523231904e-05
4.81600e-06;-4.558135978502737e-05
4.81625e-06;-4.125511718009454e-05
4.81650e-06;-3.7094767472172776e-05
4.81675e-06;-3.3131925257915693e-05
4.81700e-06;-2.9398189043492295e-05
4.81725e-06;-2.5925087473182126e-05
4.81750e-06;-2.270748857153007e-05
4.81775e-06;-1.96687587340738e-05
4.81800e-06;-1.6729552920016764e-05
4.81825e-06;-1.3874910469867267e-05
4.81850e-06;-1.1123707221550516e-05
4.81875e-06;-8.496452841445606e-06
4.81900e-06;-6.013648238862633e-06
4.81925e-06;-3.695748584300745e-06
4.81950e-06;-1.5402429844884921e-06
4.81975e-06;5.001650006390389e-07
4.82000e-06;2.474466466892997e-06
4.82025e-06;4.391319938583411e-06
4.82050e-06;6.238187308339722e-06
4.82075e-06;8.001509475459391e-06
4.82100e-06;9.667734163623206e-06
4.82125e-06;1.1223337918061325e-05
4.82150e-06;1.2669184891969163e-05
4.82175e-06;1.4034190336713152e-05
4.82200e-06;1.5348328398901235e-05
4.82225e-06;1.6616309696987115e-05
4.82250e-06;1.7829563702137203e-05
4.82275e-06;1.897888399488521e-05
4.82300e-06;2.0055066395368665e-05
4.82325e-06;2.1048698029666128e-05
4.82350e-06;2.181428907937709e-05
4.82375e-06;2.195783969121948e-05
4.82400e-06;2.111746653023602e-05
4.82425e-06;1.9204424114305576e-05
4.82450e-06;1.6264823066439127e-05
4.82475e-06;1.2351278029007847e-05
4.82500e-06;7.516409741221382e-06
4.82525e-06;1.8127025455639417e-06
4.82550e-06;-4.792592059247421e-06
4.82575e-06;-1.2487881125517734e-05
4.82600e-06;-2.1441432435329028e-05
4.82625e-06;-3.165040733692085e-05
4.82650e-06;-4.3027500188654465e-05
4.82675e-06;-5.548133540950013e-05
4.82700e-06;-6.892053788580583e-05
4.82725e-06;-8.325381532859611e-05
4.82750e-06;-9.84432915854986e-05
4.82775e-06;-0.00011454856978616321
4.82800e-06;-0.00013161662473166235
4.82825e-06;-0.00014958728817069902
4.82850e-06;-0.00016866423468613965
4.82875e-06;-0.00018779860622758013
4.82900e-06;-0.0002079807875470262
4.82925e-06;-0.0002282197294898335
4.82950e-06;-0.0002491644837631175
4.82975e-06;-0.0002701474724075799
4.83000e-06;-0.0002916834685087989
4.83025e-06;-0.0003132494214291538
4.83050e-06;-0.00033496434857573955
4.83075e-06;-0.000356687345765239
4.83100e-06;-0.0003780630447193879
4.83125e-06;-0.0003994199302737292
4.83150e-06;-0.0004199939281091007
4.83175e-06;-0.00044052551634310807
4.83200e-06;-0.00045995717728710333
4.83225e-06;-0.00047932925436379925
4.83250e-06;-0.000497127066459599
4.83275e-06;-0.0005148395994679663
4.83300e-06;-0.0005304457594991
4.83325e-06;-0.0005459378157627632
4.83350e-06;-0.0005588711099332079
4.83375e-06;-0.0005716657940862581
4.83400e-06;-0.0005817588985642772
4.83425e-06;-0.0005917056564918141
4.83450e-06;-0.0005988611354742999
4.83475e-06;-0.0006058654088311934
4.83500e-06;-0.0006099581416178803
4.83525e-06;-0.0006138931541186134
4.83550e-06;-0.0006141244619514549
4.83575e-06;-0.0006141551373887563
4.83600e-06;-0.0006141858128260577
4.83625e-06;-0.0006107123085643945
4.83650e-06;-0.000607048980320975
4.83675e-06;-0.0006013941847210424
4.83700e-06;-0.0005943496578884762
4.83725e-06;-0.0005859884057621518
4.83750e-06;-0.0005763562531496268
4.83775e-06;-0.0005655239390599335
4.83800e-06;-0.0005535792612912856
4.83825e-06;-0.0005406065080045138
4.83850e-06;-0.0005266847615734207
4.83875e-06;-0.0005118929456039234
4.83900e-06;-0.0004963099344676271
4.83925e-06;-0.0004800146547617136
4.83950e-06;-0.00046309183381107964
4.83975e-06;-0.0004456419184230493
4.84000e-06;-0.00042777604608020133
4.84025e-06;-0.0004096030997446474
4.84050e-06;-0.0003912287468089161
4.84075e-06;-0.000372758461050267
4.84100e-06;-0.0003542977423584841
4.84125e-06;-0.00033595206451064047
4.84150e-06;-0.00031783062690491764
4.84175e-06;-0.00030005238330137966
4.84200e-06;-0.00028274296156843474
4.84225e-06;-0.0002660266389797543
4.84250e-06;-0.00025002561378438645
4.84275e-06;-0.00023486200415947847
4.84300e-06;-0.0002206578745610298
4.84325e-06;-0.0002075352588456615
4.84350e-06;-0.00019558764242315224
4.84375e-06;-0.0001848391583821792
4.84400e-06;-0.00017527782699799965
4.84425e-06;-0.0001669143997984015
4.84450e-06;-0.00015977855514526048
4.84475e-06;-0.0001539009110159775
4.84500e-06;-0.00014931208464023685
4.84525e-06;-0.00014604266563938477
4.84550e-06;-0.00014410533817597993
4.84575e-06;-0.00014346931360977705
4.84600e-06;-0.00014408123641518843
4.84625e-06;-0.00014590197591540744
4.84650e-06;-0.00014890424716937348
4.84675e-06;-0.00015306138957284226
4.84700e-06;-0.0001583466888005502
4.84725e-06;-0.00016473342753614838
4.84750e-06;-0.00017218370711385915
4.84775e-06;-0.00018063238118516719
4.84800e-06;-0.00019040101866133263
4.84825e-06;-0.00020023838984213128
4.84850e-06;-0.00021156051999183034
4.84875e-06;-0.00022296308062264358
4.84900e-06;-0.00023561298290257488
4.84925e-06;-0.00024833045459342335
4.84950e-06;-0.00026203551552287394
4.84975e-06;-0.0002757940748849521
4.85000e-06;-0.000290203485413569
4.85025e-06;-0.00030464815302675167
4.85050e-06;-0.00031940947369531305
4.85075e-06;-0.00033418794769187035
4.85100e-06;-0.00034896058253932363
4.85125e-06;-0.0003637329010757393
4.85150e-06;-0.0003781628770612752
4.85175e-06;-0.0003925743081000762
4.85200e-06;-0.00040625881338361084
4.85225e-06;-0.00041990394056643724
4.85250e-06;-0.0004324391048528848
4.85275e-06;-0.0004449141416360287
4.85300e-06;-0.00045632198073333757
4.85325e-06;-0.00046683586487795216
4.85350e-06;-0.0004767076188996913
4.85375e-06;-0.0004867959856731907
4.85400e-06;-0.0004979230986366251
4.85425e-06;-0.0005102770868056673
4.85450e-06;-0.000524171238266588
4.85475e-06;-0.0005381453842527278
4.85500e-06;-0.0005536212820981773
4.85525e-06;-0.0005691785309420638
4.85550e-06;-0.000585720704826454
4.85575e-06;-0.000603444141093924
4.85600e-06;-0.0006235327527794012
4.85625e-06;-0.0006437461779388555
4.85650e-06;-0.0006667066259864868
4.85675e-06;-0.0006898158822764644
4.85700e-06;-0.0007149952342767068
4.85725e-06;-0.0007402867248780825
4.85750e-06;-0.000767923013478714
4.85775e-06;-0.0007956863215046106
4.85800e-06;-0.0008234496295305071
4.85825e-06;-0.0008539467912998028
4.85850e-06;-0.0008845920479290165
4.85875e-06;-0.0009167353016929242
4.85900e-06;-0.0009489597030588898
4.85925e-06;-0.0009821224359080323
4.85950e-06;-0.0010153359988611201
4.85975e-06;-0.0010485495618140956
4.86000e-06;-0.0010825047565275949
4.86025e-06;-0.0011165001259769679
4.86050e-06;-0.0011505182998574387
4.86075e-06;-0.0011845377090706538
4.86100e-06;-0.0012177848597490091
4.86125e-06;-0.0012509901766166885
4.86150e-06;-0.0012827776431582499
4.86175e-06;-0.0013144883037091008
4.86200e-06;-0.0013444483238443238
4.86225e-06;-0.0013743135105058057
4.86250e-06;-0.0014017411629884445
4.86275e-06;-0.0014290367724589014
4.86300e-06;-0.0014521165438481907
4.86325e-06;-0.0014749679402002434
4.86350e-06;-0.001497819336552296
4.86375e-06;-0.0015151694721665687
4.86400e-06;-0.0015322216004567053
4.86425e-06;-0.0015492737287468418
4.86450e-06;-0.00156091194886618
4.86475e-06;-0.0015722568936139656
4.86500e-06;-0.0015836018383617514
4.86525e-06;-0.0015890649331637434
4.86550e-06;-0.0015942094038454901
4.86575e-06;-0.0015993538745272368
4.86600e-06;-0.0015999694661542507
4.86625e-06;-0.0016003397250853213
4.86650e-06;-0.0015973676163887449
4.86675e-06;-0.0015942144491893906
4.86700e-06;-0.001588600667297135
4.86725e-06;-0.0015812378456972805
4.86750e-06;-0.0015722271889304267
4.86775e-06;-0.0015617047719440106
4.86800e-06;-0.001549828323627581
4.86825e-06;-0.0015367056084145529
4.86850e-06;-0.0015224146872534286
4.86875e-06;-0.0015070318301266758
4.86900e-06;-0.0014906336203694347
4.86925e-06;-0.001473296438397257
4.86950e-06;-0.001455119843608197
4.86975e-06;-0.0014362534630928524
4.87000e-06;-0.0014168602801009652
4.87025e-06;-0.0013970720534323246
4.87050e-06;-0.0013770015914409183
4.87075e-06;-0.0013567613214163605
4.87100e-06;-0.0013364631483940629
4.87125e-06;-0.0013162189474984387
4.87150e-06;-0.001296155612752635
4.87175e-06;-0.0012764308895628488
4.87200e-06;-0.0012572108869225297
4.87225e-06;-0.0012386424216534202
4.87250e-06;-0.0012208603128635628
4.87275e-06;-0.0012039991187182016
4.87300e-06;-0.0011881928631639106
4.87325e-06;-0.0011735759819685471
4.87350e-06;-0.0011602714497883466
4.87375e-06;-0.0011483627466820174
4.87400e-06;-0.001137889503255006
4.87425e-06;-0.0011295815042430778
4.87450e-06;-0.0011213867969090084
4.87475e-06;-0.001116799791085234
4.87500e-06;-0.001112408217094849
4.87525e-06;-0.0011080166431044495
4.87550e-06;-0.0011080845041666263
4.87575e-06;-0.0011083939360920431
4.87600e-06;-0.0011087033680174591
4.87625e-06;-0.001112738985383512
4.87650e-06;-0.0011169764529442366
4.87675e-06;-0.001121273181147592
4.87700e-06;-0.001129088069200135
4.87725e-06;-0.008979392298927738
4.87750e-06;-0.016767136550447818
4.87775e-06;-0.014522485014652775
4.87800e-06;-0.012129507591194029
4.87825e-06;-0.006136743202067778
4.87850e-06;0.00035901677684922143
4.87875e-06;0.0005706075133625828
4.87900e-06;-0.00018191510169948298
4.87925e-06;-0.0045551104939659075
4.87950e-06;-0.009692819391264044
4.87975e-06;-0.008959372422713307
4.88000e-06;-0.006999930494817311
4.88025e-06;-0.0033602872785239266
4.88050e-06;0.00041418796098335566
4.88075e-06;0.0015270749441030581
4.88100e-06;0.00039358643841483267
4.88125e-06;-0.002290560435675093
4.88150e-06;-0.005148747427275218
4.88175e-06;-0.005678758442665512
4.88200e-06;-0.004392188859285657
4.88225e-06;-0.0021478737273315633
4.88250e-06;0.00015855109140345126
4.88275e-06;0.0008252255923730698
4.88300e-06;8.914566927774195e-05
4.88325e-06;-0.0016142307005588483
4.88350e-06;-0.0034229160938381705
4.88375e-06;-0.003769919272629404
4.88400e-06;-0.002976144232876671
4.88425e-06;-0.0015799540538687553
4.88450e-06;-0.00014268523499312916
4.88475e-06;0.00026941679057072756
4.88500e-06;-0.00019532664216054046
4.88525e-06;-0.0012642726567493445
4.88550e-06;-0.0023976175081570537
4.88575e-06;-0.002613996303800393
4.88600e-06;-0.00211463978774369
4.88625e-06;-0.0012369581822377078
4.88650e-06;-0.0003327095389706671
4.88675e-06;-6.987097249980522e-05
4.88700e-06;-0.0003555825127679785
4.88725e-06;-0.001019114953893674
4.88750e-06;-0.0017224076976718947
4.88775e-06;-0.0018508456599403498
4.88800e-06;-0.0015306083074940937
4.88825e-06;-0.0009731590363872269
4.88850e-06;-0.00039892642594216746
4.88875e-06;-0.00022638620901016047
4.88900e-06;-0.0003974085144511826
4.88925e-06;-0.0008050920455324206
4.88950e-06;-0.001237732395474594
4.88975e-06;-0.0013104177714453008
4.89000e-06;-0.0011022822854950493
4.89025e-06;-0.0007458707943746362
4.89050e-06;-0.0003793310495497214
4.89075e-06;-0.0002648482700747073
4.89100e-06;-0.0003660517590818148
4.89125e-06;-0.0006160246726980965
4.89150e-06;-0.0008822103074562857
4.89175e-06;-0.0009235718972076739
4.89200e-06;-0.0007897586996746865
4.89225e-06;-0.0005638704144812828
4.89250e-06;-0.000332508124715604
4.89275e-06;-0.0002599583332078967
