Time(s);Current(A)
1.15000e-05;0.003758086491897179
1.15003e-05;0.003786837517405764
1.15005e-05;0.003815588542914349
1.15007e-05;0.003844339568422739
1.15010e-05;0.003873090593931324
1.15013e-05;0.0039018416194399087
1.15015e-05;0.003930463720990108
1.15018e-05;0.003947994404950341
1.15020e-05;0.003965525088910574
1.15023e-05;0.003983055772870808
1.15025e-05;0.0040005864568309225
1.15028e-05;0.004018117140791156
1.15030e-05;0.004035647824751389
1.15033e-05;0.004052762041114181
1.15035e-05;0.004034047261028202
1.15038e-05;0.0040153324809422235
1.15040e-05;0.003996617700856372
1.15043e-05;0.003977902920770393
1.15045e-05;0.003959188140684415
1.15048e-05;0.003940473360598563
1.15050e-05;0.003921758580512585
1.15053e-05;0.003903043800426606
1.15055e-05;0.0038843290203407544
1.15058e-05;0.003842917077670433
1.15060e-05;0.0037798277179226067
1.15063e-05;0.0037167383581752085
1.15065e-05;0.0036536489984273822
1.15068e-05;0.003590559638679556
1.15070e-05;0.0035274702789321578
1.15073e-05;0.0034643809191843315
1.15075e-05;0.0034012915594365057
1.15078e-05;0.003338202199689107
1.15080e-05;0.00327489199833765
1.15083e-05;0.0031925826405157084
1.15085e-05;0.0031102141577583806
1.15088e-05;0.0030227591157131555
1.15090e-05;0.002935304073667931
1.15092e-05;0.0028478490316232986
1.15095e-05;0.002760393989578074
1.15098e-05;0.002672938947532849
1.15100e-05;0.002586972364668824
1.15103e-05;0.0025024273670065183
1.15105e-05;0.0024178823693442124
1.15108e-05;0.0023333373716819066
1.15110e-05;0.0022487923740201737
1.15113e-05;0.002164381015033636
1.15115e-05;0.002091466684123987
1.15118e-05;0.0020185523532148314
1.15120e-05;0.0019457700165813122
1.15123e-05;0.0018843432391886863
1.15125e-05;0.0018230279140085226
1.15128e-05;0.0017713009000356241
1.15130e-05;0.0017195738860627259
1.15133e-05;0.0016679321663996532
1.15135e-05;0.0016236283754230494
1.15138e-05;0.0015793245844464455
1.15140e-05;0.001535130981616779
1.15143e-05;0.001500416941580776
1.15145e-05;0.0014657029015447734
1.15148e-05;0.001431067378466633
1.15150e-05;0.001403186723796335
1.15153e-05;0.001375306069126037
1.15155e-05;0.0013474890569099458
1.15158e-05;0.001325147249226637
1.15160e-05;0.0013028054415433281
1.15163e-05;0.0012805358839967384
1.15165e-05;0.001264482055896375
1.15168e-05;0.0012484282277960116
1.15170e-05;0.001232416662726124
1.15173e-05;0.00122004101552399
1.15175e-05;0.0012076653683218558
1.15177e-05;0.001195360465803594
1.15180e-05;0.0011891417775903275
1.15183e-05;0.001182923089377061
1.15185e-05;0.001176704401163837
1.15188e-05;0.0011704857129505705
1.15190e-05;0.001164267024737304
1.15193e-05;0.0011580483365240376
1.15195e-05;0.0011518296483108133
1.15198e-05;0.0011456649060894854
1.15200e-05;0.001144141175045923
1.15203e-05;0.0011426174440023712
1.15205e-05;0.0011410937129588089
1.15208e-05;0.0011395699819152466
1.15210e-05;0.0011380462508716945
1.15213e-05;0.0011365225198281322
1.15215e-05;0.00113499878878457
1.15218e-05;0.0011335062735021635
1.15220e-05;0.0011346992718501761
1.15223e-05;0.0011358922701981888
1.15225e-05;0.0011370852685461934
1.15228e-05;0.0011382782668942063
1.15230e-05;0.001139471265242219
1.15233e-05;0.0011406642635902237
1.15235e-05;0.0011418572619382363
1.15238e-05;0.001143050260286249
1.15240e-05;0.0011443440935889415
1.15243e-05;0.0011543128281422473
1.15245e-05;0.001164281562695553
1.15248e-05;0.0011742502972487913
1.15250e-05;0.001184219031802097
1.15253e-05;0.0011941877663554027
1.15255e-05;0.0012041565009086408
1.15258e-05;0.0012141252354619467
1.15260e-05;0.0012240939700152525
1.15262e-05;0.0012341589067536355
1.15265e-05;0.0012525001843632147
1.15268e-05;0.001270841461972794
1.15270e-05;0.001289182739582249
1.15273e-05;0.0013075240171918283
1.15275e-05;0.0013258652948014075
1.15278e-05;0.0013442065724109868
1.15280e-05;0.0013625478500204418
1.15283e-05;0.001380931363795965
1.15285e-05;0.0014029484842960603
1.15288e-05;0.0014249656047960063
1.15290e-05;0.0014469827252961015
1.15293e-05;0.0014689998457961967
1.15295e-05;0.0014910169662961427
1.15298e-05;0.0015130340867962379
1.15300e-05;0.001535051207296333
1.15303e-05;0.0015570214209984325
1.15305e-05;0.0015749562102586611
1.15308e-05;0.0015928909995188895
1.15310e-05;0.0016108257887789965
1.15313e-05;0.001628760578039225
1.15315e-05;0.0016466953672994533
1.15318e-05;0.0016646301565595603
1.15320e-05;0.001682564945819789
1.15323e-05;0.0017004997350800173
1.15325e-05;0.0017184345243401243
1.15328e-05;0.0017363693136003527
1.15330e-05;0.0017506765013438027
1.15333e-05;0.0017615190696291375
1.15335e-05;0.0017723616379145461
1.15338e-05;0.0017832042061999545
1.15340e-05;0.0017940467744852896
1.15343e-05;0.001804889342770698
1.15345e-05;0.0018157319110561065
1.15347e-05;0.0018265744793414414
1.15350e-05;0.00183741704762685
1.15353e-05;0.0018482596159122584
1.15355e-05;0.0018590680508331753
1.15358e-05;0.001866939968661541
1.15360e-05;0.0018748118864899065
1.15362e-05;0.0018826838043182188
1.15365e-05;0.0018905557221465844
1.15368e-05;0.00189842763997495
1.15370e-05;0.0019062995578033157
1.15373e-05;0.001914171475631628
1.15375e-05;0.0019220433934599933
1.15378e-05;0.0019299153112883592
1.15380e-05;0.0019377872291166712
1.15383e-05;0.0019456591469450368
1.15385e-05;0.0019535310647734025
1.15388e-05;0.001961402982601715
1.15390e-05;0.001968053216206029
1.15393e-05;0.0019735366538115072
1.15395e-05;0.001979020091416948
1.15398e-05;0.0019845035290224264
1.15400e-05;0.0019899869666279045
1.15403e-05;0.0019954704042333456
1.15405e-05;0.0020009538418388237
1.15408e-05;0.0020064372794443017
1.15410e-05;0.002011920717049743
1.15413e-05;0.002017404154655221
1.15415e-05;0.002022887592260699
1.15418e-05;0.00202837102986614
1.15420e-05;0.002033854467471618
1.15423e-05;0.0020392231940040144
1.15425e-05;0.0020347232470503125
1.15428e-05;0.00203022330009658
1.15430e-05;0.002025723353142847
1.15432e-05;0.0020212234061891448
1.15435e-05;0.0020167234592354125
1.15438e-05;0.00201222351228168
1.15440e-05;0.0020077235653279775
1.15443e-05;0.0020029673094142937
1.15445e-05;0.001976160615191634
1.15447e-05;0.001949353920969156
1.15450e-05;0.0019225472267464965
1.15453e-05;0.0018957405325238368
1.15455e-05;0.0018689338383011773
1.15458e-05;0.0018421271440786993
1.15460e-05;0.0018153204498560398
1.15463e-05;0.001788341322530498
1.15465e-05;0.0017465276552880555
1.15468e-05;0.0017047139880453299
1.15470e-05;0.001662793265886261
1.15473e-05;0.0016116625347198437
1.15475e-05;0.00156053180355308
1.15478e-05;0.0015094010723863162
1.15480e-05;0.001458270341219899
1.15483e-05;0.0014071396100531351
1.15485e-05;0.0013528758111076085
1.15488e-05;0.0012956197078687203
1.15490e-05;0.001238363604629444
1.15493e-05;0.001181107501390168
1.15495e-05;0.0011238513981512797
1.15498e-05;0.001066603007625268
1.15500e-05;0.0010100181471942376
1.15503e-05;0.0009534332867635908
1.15505e-05;0.0008968484263325604
1.15508e-05;0.0008403307262231822
1.15510e-05;0.0007895908753746129
1.15513e-05;0.0007388510245256997
1.15515e-05;0.0006881111736767865
1.15517e-05;0.0006374400799517875
1.15520e-05;0.0005927203343199362
1.15523e-05;0.0005511476643970767
1.15525e-05;0.0005129851793618436
1.15528e-05;0.00047787490724398375
1.15530e-05;0.00044494390685718483
1.15532e-05;0.00041378858683416265
1.15535e-05;0.0003845411927067515
1.15538e-05;0.0003573988738226765
1.15540e-05;0.0003325587778574076
1.15543e-05;0.00031021717059923
1.15545e-05;0.00029050234465100564
1.15548e-05;0.00027315346713387525
1.15550e-05;0.0002575872062752467
1.15553e-05;0.00024351425206625734
1.15555e-05;0.000230980987984776
1.15558e-05;0.00022007441959760678
1.15560e-05;0.00021088152286591054
1.15563e-05;0.00020348873917293829
1.15565e-05;0.00019793990205164858
1.15568e-05;0.00019403512589339421
1.15570e-05;0.0001913725330551889
1.15573e-05;0.00018973443773239812
1.15575e-05;0.00018911345196392042
1.15578e-05;0.00018952760540553215
1.15580e-05;0.00019099491332828146
1.15583e-05;0.00019353829134609025
1.15585e-05;0.00019757971472694454
1.15588e-05;0.00020163591044905271
1.15590e-05;0.00020696298098840427
1.15593e-05;0.00021230135072716766
1.15595e-05;0.00021861179846718298
1.15598e-05;0.0002249222462072411
1.15600e-05;0.00023124337071440273
1.15602e-05;0.00023848302493802113
1.15605e-05;0.0002457226791616886
1.15608e-05;0.0002529623333853561
1.15610e-05;0.00026019547211344216
1.15613e-05;0.00026686807821842704
1.15615e-05;0.0002735406843234119
1.15617e-05;0.0002802132904283516
1.15620e-05;0.00028686832134478744
1.15623e-05;0.0002920113465362882
1.15625e-05;0.000297154371727789
1.15628e-05;0.0003022754282679905
1.15630e-05;0.0003055065064214666
1.15633e-05;0.0003087161862578752
1.15635e-05;0.00031008495395616593
1.15638e-05;0.00031143276458980103
1.15640e-05;0.0003109776243372019
1.15643e-05;0.0003105015240102617
1.15645e-05;0.00030822221387228916
1.15648e-05;0.00030591970195061345
1.15650e-05;0.0003016211243998439
1.15653e-05;0.00029729971508868537
1.15655e-05;0.0002910140735134532
1.15658e-05;0.0002847078763313672
1.15660e-05;0.0002766332659537053
1.15663e-05;0.00026854009789448115
1.15665e-05;0.00025885039954951893
1.15668e-05;0.0002491427390213976
1.15670e-05;0.0002378897793550896
1.15673e-05;0.00022662108884844408
1.15675e-05;0.00021399906316957846
1.15678e-05;0.000201364731832358
1.15680e-05;0.0001876717361244807
1.15683e-05;0.00017396790097351357
1.15685e-05;0.0001593315409810765
1.15687e-05;0.00014469518098873861
1.15690e-05;0.00013005136719152613
1.15693e-05;0.00011476629737012372
1.15695e-05;9.948122754882487e-05
1.15698e-05;8.419615772742242e-05
1.15700e-05;6.891108790601999e-05
1.15702e-05;5.362935703238797e-05
1.15705e-05;3.863791189808704e-05
1.15708e-05;2.3938840764144232e-05
1.15710e-05;9.601077818917824e-06
1.15713e-05;-4.290792743435509e-06
1.15715e-05;-1.7638217529447617e-05
1.15718e-05;-3.0341109459180516e-05
1.15720e-05;-4.2299388989929503e-05
1.15723e-05;-5.3413571503048856e-05
1.15725e-05;-6.36361535974335e-05
1.15728e-05;-7.321064090494566e-05
1.15730e-05;-8.260498322247983e-05
1.15733e-05;-9.203594632639273e-05
1.15735e-05;-0.0001014091332391825
1.15738e-05;-0.00011077663445016742
1.15740e-05;-0.00011965499076163769
1.15743e-05;-0.0001285333470730478
1.15745e-05;-0.00013740944244668282
1.15748e-05;-0.0001460910277604351
1.15750e-05;-0.0001547726130741286
1.15753e-05;-0.00016345419838788088
1.15755e-05;-0.00017213578370163318
1.15758e-05;-0.0001809597401642071
1.15760e-05;-0.00018991967127868862
1.15763e-05;-0.00019887960239317018
1.15765e-05;-0.00020783953350759102
1.15768e-05;-0.0002168029685945339
1.15770e-05;-0.00022606785287830006
1.15772e-05;-0.00023533273716200344
1.15775e-05;-0.00024459762144576956
1.15778e-05;-0.0002538625057295357
1.15780e-05;-0.0002631273900132391
1.15783e-05;-0.00027239227429700524
1.15785e-05;-0.0002816571585807714
1.15787e-05;-0.00029074727245839455
1.15790e-05;-0.0002996704680713218
1.15793e-05;-0.00030859366368424907
1.15795e-05;-0.0003175168592971764
1.15798e-05;-0.0003264400549100432
1.15800e-05;-0.00033536325052297046
1.15803e-05;-0.0003442864461358977
1.15805e-05;-0.00035319751809251667
1.15808e-05;-0.0003610655834360655
1.15810e-05;-0.00036893364877961434
1.15813e-05;-0.00037679106242288925
1.15815e-05;-0.0003837321028574534
1.15818e-05;-0.0003906731432920176
1.15820e-05;-0.0003976043262471945
1.15823e-05;-0.00040367953286571547
1.15825e-05;-0.00040905090161040634
1.15828e-05;-0.0004125235597186779
1.15830e-05;-0.0004122491547168322
1.15833e-05;-0.0004073647574235181
1.15835e-05;-0.00039797264794530805
1.15838e-05;-0.0003842860710508783
1.15840e-05;-0.0003665183571489333
1.15843e-05;-0.0003448815685493231
1.15845e-05;-0.0003194766862823672
1.15848e-05;-0.0002898031455744551
1.15850e-05;-0.00025495115349920305
1.15853e-05;-0.00021462825037957107
1.15855e-05;-0.00016914661055794604
1.15857e-05;-0.00011888783685250673
1.15860e-05;-6.423358882497136e-05
1.15863e-05;-5.564698738317192e-06
1.15865e-05;5.6807562758705365e-05
1.15868e-05;0.00012294874835151482
1.15870e-05;0.0001931807573918759
1.15872e-05;0.00026743871665045593
1.15875e-05;0.0003452791008245569
1.15878e-05;0.0004262270061893935
1.15880e-05;0.000510810086213852
1.15883e-05;0.0005954414587124448
1.15885e-05;0.0006842274665489059
1.15888e-05;0.0007730134743853671
1.15890e-05;0.0008618332769045177
1.15893e-05;0.0009535604596392753
1.15895e-05;0.001045287642374033
1.15898e-05;0.001137014825108169
1.15900e-05;0.001228697393697737
1.15903e-05;0.0013165417762036008
1.15905e-05;0.0014043861587088695
1.15908e-05;0.0014922305412147334
1.15910e-05;0.0015799701398481697
1.15913e-05;0.0016586951087156337
1.15915e-05;0.0017374200775836309
1.15918e-05;0.0018160240054075354
1.15920e-05;0.0018842146876208268
1.15923e-05;0.0019522786349236093
1.15925e-05;0.002009439489263209
1.15928e-05;0.002066463289505178
1.15930e-05;0.0021116962299703897
1.15933e-05;0.002156788397712647
1.15935e-05;0.0021897697897085683
1.15938e-05;0.002222604210380572
1.15940e-05;0.0022427945853063726
1.15942e-05;0.0022628329286341325
1.15945e-05;0.0022697918873270046
1.15948e-05;0.002276603167086654
1.15950e-05;0.0022707095250038634
1.15953e-05;0.0022646766886075522
1.15955e-05;0.0022466688681353703
1.15957e-05;0.0022285287930009774
1.15960e-05;0.0021990107568291835
1.15963e-05;0.0021693396363405342
1.15965e-05;0.0021264985650775786
1.15968e-05;0.0020836574938149135
1.15970e-05;0.0020406619836566674
1.15973e-05;0.001984379987386647
1.15975e-05;0.0019280979911170074
1.15978e-05;0.0018716963523007246
1.15980e-05;0.00180500178159543
1.15983e-05;0.0017383072108905872
1.15985e-05;0.0016715197325068746
1.15988e-05;0.001596739341598554
1.15990e-05;0.0015219589506907398
1.15993e-05;0.0014471785597824191
1.15995e-05;0.0013723981688740982
1.15998e-05;0.0012967430311026263
1.16000e-05;0.0012202524473765247
1.16003e-05;0.0011437618636504234
1.16005e-05;0.00106727127992484
1.16008e-05;0.000990829939378704
1.16010e-05;0.0009186250240377144
1.16013e-05;0.0008464837680912699
1.16015e-05;0.0007798191743313458
1.16018e-05;0.0007132170173669577
1.16020e-05;0.000652035795961998
1.16023e-05;0.000595163258533313
1.16025e-05;0.0005429951676769525
1.16027e-05;0.0004952652956382471
1.16030e-05;0.00045113293796892007
1.16033e-05;0.0004102109546161748
1.16035e-05;0.00037265874263515313
1.16038e-05;0.0003387029041148957
1.16040e-05;0.00030857001237576294
1.16042e-05;0.0002824858642408104
1.16045e-05;0.0002606046842629991
1.16048e-05;0.0002426661381612141
1.16050e-05;0.00022805004925598803
1.16053e-05;0.00021642037110853807
1.16055e-05;0.00020778339984173574
1.16058e-05;0.00020218757794552842
1.16060e-05;0.00019968127581887328
1.16063e-05;0.00020031236341290523
1.16065e-05;0.00020408390688352466
1.16068e-05;0.0002107393162532781
1.16070e-05;0.00021979653435689803
1.16073e-05;0.00023095161529909286
1.16075e-05;0.00024411499427465716
1.16078e-05;0.00025922358722642807
1.16080e-05;0.0002762141816377909
1.16083e-05;0.0002950318331128738
1.16085e-05;0.00031628966378018325
1.16088e-05;0.00033757296903988475
1.16090e-05;0.00036104787130356817
1.16093e-05;0.00038454232519500084
1.16095e-05;0.0004097188192862844
1.16098e-05;0.0004348953133773973
1.16100e-05;0.00046007180746868083
1.16103e-05;0.0004852483115922279
1.16105e-05;0.0005104256787982545
1.16108e-05;0.0005356030460044517
1.16110e-05;0.000560780413210649
1.16113e-05;0.0005859234719425739
1.16115e-05;0.000608114948640297
1.16118e-05;0.0006303064253380201
1.16120e-05;0.0006524569826621358
1.16123e-05;0.0006710872176524048
1.16125e-05;0.0006896771219401456
1.16127e-05;0.0007047973476657386
1.16130e-05;0.0007198752445964488
1.16133e-05;0.0007313115656705919
1.16135e-05;0.0007427039792058832
1.16138e-05;0.000750318996444836
1.16140e-05;0.0007578884073483961
1.16143e-05;0.0007615342732935539
1.16145e-05;0.000765133979791115
1.16148e-05;0.0007647625567068248
1.16150e-05;0.0007643365705936782
1.16153e-05;0.0007592164889218657
1.16155e-05;0.0007540964072500185
1.16158e-05;0.0007489155334054014
1.16160e-05;0.0007385046663949183
1.16163e-05;0.0007280937993843646
1.16165e-05;0.0007176286966196839
1.16168e-05;0.0007024976539704379
1.16170e-05;0.0006873666113210893
1.16173e-05;0.0006721916884429655
1.16175e-05;0.0006532417187714273
1.16178e-05;0.0006342917490997607
1.16180e-05;0.0006153087871034411
1.16183e-05;0.0005934874723241682
1.16185e-05;0.0005716661575447475
1.16188e-05;0.0005498222191937262
1.16190e-05;0.000526031959141372
1.16193e-05;0.0005022416990888565
1.16195e-05;0.00047845143903634115
1.16198e-05;0.00045466117898398695
1.16200e-05;0.0004309449337344532
1.16203e-05;0.00040729937792696866
1.16205e-05;0.00038365382211964436
1.16208e-05;0.0003600082663121598
1.16210e-05;0.00033638411838884306
1.16212e-05;0.00031460170572961376
1.16215e-05;0.00029284285634904
1.16218e-05;0.00027311117234322073
1.16220e-05;0.0002534017459171152
1.16223e-05;0.0002356238767700908
1.16225e-05;0.00021929923437831713
1.16228e-05;0.0002042413394521736
1.16230e-05;0.000190023771274571
1.16233e-05;0.00017644917922997571
1.16235e-05;0.0001635774262581107
1.16238e-05;0.000151499360133027
1.16240e-05;0.0001403058425116389
1.16243e-05;0.00013008734043333926
1.16245e-05;0.00012090196487605996
1.16248e-05;0.00011262372773697151
1.16250e-05;0.00010497638482861211
1.16253e-05;9.782720830862875e-05
1.16255e-05;9.120458169161752e-05
1.16258e-05;8.515629346723688e-05
1.16260e-05;7.973013179072026e-05
1.16263e-05;7.497363592319777e-05
1.16265e-05;7.091407996762546e-05
1.16268e-05;6.746341050790053e-05
1.16270e-05;6.443947943536727e-05
1.16273e-05;6.175004208059699e-05
1.16275e-05;5.9403767320841205e-05
1.16278e-05;5.7421493331472995e-05
1.16280e-05;5.582404377779679e-05
1.16283e-05;5.463209355115023e-05
1.16285e-05;5.3853615052800907e-05
1.16288e-05;5.342435278924985e-05
1.16290e-05;5.322110157135812e-05
1.16293e-05;5.3177895730731614e-05
1.16295e-05;5.3367128836361934e-05
1.16297e-05;5.3560115868656394e-05
1.16300e-05;5.407605584206929e-05
1.16303e-05;5.459565818938586e-05
1.16305e-05;5.543033712939519e-05
1.16308e-05;5.626501606939886e-05
1.16310e-05;5.7121323349560585e-05
1.16313e-05;5.79982872448405e-05
1.16315e-05;5.8874447890224325e-05
1.16318e-05;5.968095428230366e-05
1.16320e-05;6.043950896248855e-05
1.16323e-05;6.114536885418778e-05
1.16325e-05;6.196484425898945e-05
1.16328e-05;6.399550064804445e-05
1.16330e-05;6.898224296646842e-05
1.16333e-05;7.773905151045665e-05
1.16335e-05;9.015701023150961e-05
1.16338e-05;0.00010602059757099742
1.16340e-05;0.00012511425651049333
1.16343e-05;0.0001472236399375902
1.16345e-05;0.00017224150237979053
1.16348e-05;0.00020064395605834542
1.16350e-05;0.00023331251955726313
1.16353e-05;0.0002705454907728807
1.16355e-05;0.0003120631038897892
1.16358e-05;0.00035751879116347553
1.16360e-05;0.00040656604205375894
1.16363e-05;0.0004588590486040794
1.16365e-05;0.0005141191347982728
1.16368e-05;0.0005724330898761456
1.16370e-05;0.0006341587053974303
1.16373e-05;0.0007006966683910372
1.16375e-05;0.0007672934475345941
1.16378e-05;0.0008389502213327618
1.16380e-05;0.0009106639523772426
1.16382e-05;0.0009872777552534608
1.16385e-05;0.0010638915581301983
1.16388e-05;0.0011405053610069357
1.16390e-05;0.0012171191638836731
1.16393e-05;0.0012949313621554337
1.16395e-05;0.0013738881139291885
1.16398e-05;0.0014528448657029434
1.16400e-05;0.001531801617476163
1.16403e-05;0.001610685777219184
1.16405e-05;0.0016833247936537342
1.16408e-05;0.0017559638100877923
1.16410e-05;0.0018286028265223427
1.16413e-05;0.0019012418429568928
1.16415e-05;0.0019736890821100725
1.16418e-05;0.0020296375872881664
1.16420e-05;0.0020855860924662603
1.16423e-05;0.0021415345976439747
1.16425e-05;0.0021974831028220686
1.16428e-05;0.0022532162995775973
1.16430e-05;0.002290426361723532
1.16433e-05;0.002327492721729943
1.16435e-05;0.0023521962858522624
1.16438e-05;0.0023767532398159983
1.16440e-05;0.0023886972190048385
1.16443e-05;0.0024004913175173334
1.16445e-05;0.002399391076310751
1.16448e-05;0.002398138260430706
1.16450e-05;0.002383759338370525
1.16453e-05;0.0023692342422209837
1.16455e-05;0.002342133686622156
1.16458e-05;0.0023148970440401502
1.16460e-05;0.0022759527428449712
1.16463e-05;0.0022368526406001906
