Time(s);Current(A)
5.00000e-07;-0.0004970390215602487
5.00250e-07;-0.00042856528834849217
5.00500e-07;-0.0003605818654407091
5.00750e-07;-0.0002935001928592078
5.01000e-07;-0.0002276777029862388
5.01250e-07;-0.00016335660223579858
5.01500e-07;-0.00010075931411831427
5.01750e-07;-4.021858007642926e-05
5.02000e-07;1.784515635170801e-05
5.02250e-07;7.299243106779064e-05
5.02500e-07;0.0001247838381811727
5.02750e-07;0.00017277980934129084
5.03000e-07;0.0002164969274012279
5.03250e-07;0.0002554037096169792
5.03500e-07;0.00028908214172247406
5.03750e-07;0.0003173352244070721
5.04000e-07;0.0003400927756340612
5.04250e-07;0.0003573083928801396
5.04500e-07;0.0003689357959605665
5.04750e-07;0.00037492860750705645
5.05000e-07;0.0003752129749051289
5.05250e-07;0.0003696849790206501
5.05500e-07;0.0003583118149219454
5.05750e-07;0.0003411990856330817
5.06000e-07;0.00031853179322506684
5.06250e-07;0.0002905099522127583
5.06500e-07;0.00025733354208396
5.06750e-07;0.0002192025061539097
5.07000e-07;0.00017629958569709197
5.07250e-07;0.00012878865387248414
5.07500e-07;7.687812384023953e-05
5.07750e-07;2.086311505574128e-05
5.08000e-07;-3.891152318394123e-05
5.08250e-07;-0.00010209160453810719
5.08500e-07;-0.0001683229526963718
5.08750e-07;-0.00023725144100655528
5.09000e-07;-0.00030853375581410504
5.09250e-07;-0.0003823715426025677
5.09500e-07;-0.00045704633996335306
5.09750e-07;-0.0005333774313879909
5.10000e-07;-0.0006104551622572118
5.10250e-07;-0.0006875328931264652
5.10500e-07;-0.0007641236975803386
5.10750e-07;-0.0008404950008741926
5.11000e-07;-0.0009168663041680466
5.11250e-07;-0.000989974803277213
5.11500e-07;-0.0010616124655600172
5.11750e-07;-0.0011332501278428515
5.12000e-07;-0.0011999499451633493
5.12250e-07;-0.0012644238353971343
5.12500e-07;-0.0013233073332054382
5.12750e-07;-0.0013796707425904994
5.13000e-07;-0.0014297659489927099
5.13250e-07;-0.001477035517305623
5.13500e-07;-0.0015191334400136785
5.13750e-07;-0.0015589000408348457
5.14000e-07;-0.0015934464893053346
5.14250e-07;-0.0016256397495726979
5.14500e-07;-0.001652038560086856
5.14750e-07;-0.0016758252953421272
5.15000e-07;-0.0016924458844306612
5.15250e-07;-0.0017058360523574097
5.15500e-07;-0.0017192262202841584
5.15750e-07;-0.0017254475781825502
5.16000e-07;-0.0017284373140791602
5.16250e-07;-0.0017314270499757705
5.16500e-07;-0.0017328604121897592
5.16750e-07;-0.0017270387356620087
5.17000e-07;-0.03859260106514762
5.17250e-07;-0.026838598160901
5.17500e-07;-0.0187182571152833
5.17750e-07;-0.012610088865900235
5.18000e-07;0.0036273638816139656
5.18250e-07;0.00983573668967228
5.18500e-07;0.008287287145964379
5.18750e-07;0.0014379068960731697
5.19000e-07;-0.008092569734697744
5.19250e-07;-0.012105229234081073
5.19500e-07;-0.009616752264604424
5.19750e-07;-0.0037439233472242074
5.20000e-07;0.0034846050026616686
5.20250e-07;0.007010860128789793
5.20500e-07;0.005949977304146852
5.20750e-07;0.00152546612913846
5.21000e-07;-0.004537234408570357
5.21250e-07;-0.007115852997386102
5.21500e-07;-0.005603932776304624
5.21750e-07;-0.0019603503225144327
5.22000e-07;0.0025397391436462204
5.22250e-07;0.00472515655372444
5.22500e-07;0.004039828619326037
5.22750e-07;0.0012489680105577414
5.23000e-07;-0.0025670541406770464
5.23250e-07;-0.004199054165560623
5.23500e-07;-0.0032662678591578037
5.23750e-07;-0.000995499531719489
5.24000e-07;0.001814238508851789
5.24250e-07;0.003176320058466131
5.24500e-07;0.002742364090602913
5.24750e-07;0.0009916642329216474
5.25000e-07;-0.0013991057539562619
5.25250e-07;-0.0024198963223016645
5.25500e-07;-0.0018324695306787858
5.25750e-07;-0.00040553658894138694
5.26000e-07;0.0013602225145121624
5.26250e-07;0.002220290639687554
5.26500e-07;0.0019564139894493178
5.26750e-07;0.0008687908487750966
5.27000e-07;-0.0006187733670096681
5.27250e-07;-0.0012473246757758424
5.27500e-07;-0.0008678334304208211
5.27750e-07;3.799451159690369e-05
5.28000e-07;0.0011563842321917596
5.28250e-07;0.0017076727407252944
5.28500e-07;0.0015550890190952752
5.28750e-07;0.0008866180808381287
5.29000e-07;-3.2348477829182115e-05
5.29250e-07;-0.00041333092701790114
5.29500e-07;-0.00016314470576796056
5.29750e-07;0.0004163126973417975
5.30000e-07;0.00112835851097627
5.30250e-07;0.001484509667246049
5.30500e-07;0.0013990164617593815
5.30750e-07;0.0009895544768707433
5.31000e-07;0.000422273979191366
5.31250e-07;0.00019095693695699614
5.31500e-07;0.00035382830956896653
5.31750e-07;0.0007216403491005342
5.32000e-07;0.0011710661619292754
5.32250e-07;0.0013960152669621863
5.32500e-07;0.001342685337370921
5.32750e-07;0.001084698833185807
5.33000e-07;0.0007259655728735052
5.33250e-07;0.0005754794360894094
5.33500e-07;0.000669434911345575
5.33750e-07;0.0008892380175102787
5.34000e-07;0.0011577438244101752
5.34250e-07;0.0012833645680249142
5.34500e-07;0.0012325559139787035
5.34750e-07;0.0010515916708552758
5.35000e-07;0.0008057125968361561
5.35250e-07;0.0006886123296234637
5.35500e-07;0.0007230933442272515
5.35750e-07;0.0008350014959614458
5.36000e-07;0.0009761517636315206
5.36250e-07;0.0010266801605380812
5.36500e-07;0.0009657274569325987
5.36750e-07;0.0008224320617852332
5.37000e-07;0.000637810203231262
5.37250e-07;0.0005333335268043249
5.37500e-07;0.0005234214619170669
5.37750e-07;0.0005617615208434245
5.38000e-07;0.0006183118498267084
5.38250e-07;0.0006181358309049781
5.38500e-07;0.0005483174355295871
5.38750e-07;0.00042725893242961303
5.39000e-07;0.0002808008115208751
5.39250e-07;0.0001851761435664818
5.39500e-07;0.00014955690403410874
5.39750e-07;0.00014507358127657658
5.40000e-07;0.0001530508304004496
5.40250e-07;0.00012669434254659843
5.40500e-07;5.806196821977726e-05
5.40750e-07;-4.1170831459077614e-05
5.41000e-07;-0.0001546704278661638
5.41250e-07;-0.00023454029251579985
5.41500e-07;-0.00027489326003270057
5.41750e-07;-0.0002936707007565056
5.42000e-07;-0.0003024269543386719
5.42250e-07;-0.0003303281488488318
5.42500e-07;-0.00038220181968703595
5.42750e-07;-0.00045058714578544243
5.43000e-07;-0.0005249617718223087
5.43250e-07;-0.000574752376499202
5.43500e-07;-0.0005957480152481558
5.43750e-07;-0.0005990783812520855
5.44000e-07;-0.0005921571661410054
5.44250e-07;-0.0005934833303571545
5.44500e-07;-0.0006063092421742428
5.44750e-07;-0.000626189822842343
5.45000e-07;-0.0006467627272856701
5.45250e-07;-0.0006491068999111801
5.45500e-07;-0.0006308155015752159
5.45750e-07;-0.0005990909158095292
5.46000e-07;-0.000558807140213754
5.46250e-07;-0.0005217812895548449
5.46500e-07;-0.0004902793500002735
5.46750e-07;-0.0004617455721132982
5.47000e-07;-0.00043242356387099176
5.47250e-07;-0.00039069086507827715
5.47500e-07;-0.0003352700602466869
5.47750e-07;-0.0002709027597316172
5.48000e-07;-0.00020087172752937893
5.48250e-07;-0.0001328083257948232
5.48500e-07;-6.836067904886705e-05
5.48750e-07;-6.156607867276019e-06
5.49000e-07;5.592805059633447e-05
5.49250e-07;0.00012494433559444564
5.49500e-07;0.0002014627800745734
5.49750e-07;0.0002822838096478431
5.50000e-07;0.00036512187107802735
5.50250e-07;0.00044496781268105006
5.50500e-07;0.0005205606788567252
5.50750e-07;0.0005925314174124814
5.51000e-07;0.0006619820040384562
5.51250e-07;0.0007331003757232532
5.51500e-07;0.0008060147937874423
5.51750e-07;0.0008784921430403943
5.52000e-07;0.0009488719576232581
5.52250e-07;0.001013787966316451
5.52500e-07;0.0010722220336491287
5.52750e-07;0.0011243410681346495
5.53000e-07;0.0011705326540251172
5.53250e-07;0.0012130119774343138
5.53500e-07;0.001251585187848843
5.53750e-07;0.0012849024165549738
5.54000e-07;0.0013121645028233652
5.54250e-07;0.001331538388576105
5.54500e-07;0.0013426619385758282
5.54750e-07;0.0013459152465769694
5.55000e-07;0.0013418170588869655
5.55250e-07;0.0013320303535129029
5.55500e-07;0.0013167093184097442
5.55750e-07;0.0012952839385969022
5.56000e-07;0.0012675291957805533
5.56250e-07;0.0012325725820879188
5.56500e-07;0.0011904631027782413
5.56750e-07;0.0011417145920678883
5.57000e-07;0.001086927588496036
5.57250e-07;0.0010274195865358552
5.57500e-07;0.0009635626761115048
5.57750e-07;0.0008952754596111004
5.58000e-07;0.0008226925862456983
5.58250e-07;0.000745543122400719
5.58500e-07;0.0006641334726383077
5.58750e-07;0.0005790611462750873
5.59000e-07;0.0004909779216983787
5.59250e-07;0.0004009845685737748
5.59500e-07;0.00030958970809024766
5.59750e-07;0.00021675385155508293
5.60000e-07;0.00012353685829116033
5.60250e-07;2.9528017593308205e-05
5.60500e-07;-6.481673500353522e-05
5.60750e-07;-0.00015875590372277465
5.61000e-07;-0.0002516058330876565
5.61250e-07;-0.0003424016773384609
5.61500e-07;-0.00043054958554874574
5.61750e-07;-0.0005156337908329453
5.62000e-07;-0.0005971535944236645
5.62250e-07;-0.0006747676132176394
5.62500e-07;-0.0007479079073924778
5.62750e-07;-0.0008158925452507636
5.63000e-07;-0.0008783508714210392
5.63250e-07;-0.000935542110743446
5.63500e-07;-0.0009882947279261434
5.63750e-07;-0.0010370344002454096
5.64000e-07;-0.0010800840824205123
5.64250e-07;-0.0011215096597853743
5.64500e-07;-0.0011561814086476733
5.64750e-07;-0.001188504588414209
5.65000e-07;-0.0012136847193117198
5.65250e-07;-0.0012363809340397772
5.65500e-07;-0.0012532319330115494
5.65750e-07;-0.001268050322911578
5.66000e-07;-0.0012775672049107664
5.66250e-07;-0.001285240546226006
5.66500e-07;-0.0012875498849810336
5.66750e-07;-0.0012879939512261424
5.67000e-07;-0.0012820754680166245
5.67250e-07;-0.0012739444786687296
5.67500e-07;-0.0012658134893208345
5.67750e-07;-0.001251990576806618
5.68000e-07;-0.0012361883610218299
5.68250e-07;-0.0012203861452370417
5.68500e-07;-0.0011997883821143333
5.68750e-07;-0.0011775230204923574
5.69000e-07;-0.0011552576588703815
5.69250e-07;-0.0011295194887501767
5.69500e-07;-0.0011025736879192562
5.69750e-07;-0.0010756278870883355
5.70000e-07;-0.0010470858738979433
5.70250e-07;-0.0010179887955298755
5.70500e-07;-0.0009888917171618078
5.70750e-07;-0.0009593845148923074
5.71000e-07;-0.0009297346965762053
5.71250e-07;-0.0009000848782601033
5.71500e-07;-0.0008714527684121614
5.71750e-07;-0.0008431745554178243
5.72000e-07;-0.0008172465072837611
5.72250e-07;-0.0007921357029631377
5.72500e-07;-0.0007670248986425142
5.72750e-07;-0.0007451364706968598
5.73000e-07;-0.0007243685884633742
5.73250e-07;-0.0007062867025037616
5.73500e-07;-0.0006891388420139832
5.73750e-07;-0.0006745300699999684
5.74000e-07;-0.0006608042378952855
5.74250e-07;-0.0006498230097028753
5.74500e-07;-0.0006397961871377519
5.74750e-07;-0.000632690849533592
5.75000e-07;-0.0006266014259833017
5.75250e-07;-0.0006232651577914138
5.75500e-07;-0.0006208862688975414
5.75750e-07;-0.0006209893940548639
5.76000e-07;-0.000621955612122197
5.76250e-07;-0.000625353593697407
5.76500e-07;-0.0006295971941124729
5.76750e-07;-0.0006367421749522603
5.77000e-07;-0.0006448960787160015
5.77250e-07;-0.0006530499824797428
5.77500e-07;-0.0006640538068294766
5.77750e-07;-0.0006760486595139097
5.78000e-07;-0.0006880435121983479
5.78250e-07;-0.0007031531211641912
5.78500e-07;-0.0007193458521460478
5.78750e-07;-0.0007355385831279044
5.79000e-07;-0.0007517313141097541
5.79250e-07;-0.0007679240450916107
5.79500e-07;-0.0007841167760734673
5.79750e-07;-0.000802052087348866
5.80000e-07;-0.0008205933616307055
5.80250e-07;-0.000839134635912545
5.80500e-07;-0.0008576759101943767
5.80750e-07;-0.0008762171844762163
5.81000e-07;-0.0008947584587580558
5.81250e-07;-0.0009119802608683509
5.81500e-07;-0.0009287432311377552
5.81750e-07;-0.0009455062014071594
5.82000e-07;-0.0009622691716765567
5.82250e-07;-0.000979032141945961
5.82500e-07;-0.0009942087216949932
5.82750e-07;-0.0010044159112806677
5.83000e-07;-0.0010146231008663423
5.83250e-07;-0.0010248302904520125
5.83500e-07;-0.0010350374800376868
5.83750e-07;-0.0010452446696233614
5.84000e-07;-0.001048931100148412
5.84250e-07;-0.0010503500088959459
5.84500e-07;-0.0010517689176434799
5.84750e-07;-0.0010483348663137635
5.85000e-07;-0.001043213251840202
5.85250e-07;-0.0010380916373666407
5.85500e-07;-0.0010276694219638408
5.85750e-07;-0.0010154039812663694
5.86000e-07;-0.001003138540568898
5.86250e-07;-0.0009860075573633418
5.86500e-07;-0.0009671846356128957
5.86750e-07;-0.0009483617138624495
5.87000e-07;-0.0009252830368158409
5.87250e-07;-0.0009007244679768571
5.87500e-07;-0.0008761658991378837
5.87750e-07;-0.0008478512299538544
5.88000e-07;-0.000818230418455441
5.88250e-07;-0.0007886096069570274
5.88500e-07;-0.0007563347807295154
5.88750e-07;-0.0007231370502603084
5.89000e-07;-0.0006899393197911156
5.89250e-07;-0.0006550669743098501
5.89500e-07;-0.0006196122999963844
5.89750e-07;-0.0005841576256829185
5.90000e-07;-0.0005481665712683603
5.90250e-07;-0.0005119889966114566
5.90500e-07;-0.0004758114219545682
5.90750e-07;-0.00044048933742400775
5.91000e-07;-0.00040546474011447797
5.91250e-07;-0.0003704401428049482
5.91500e-07;-0.000337057963017109
5.91750e-07;-0.0003042469157406409
5.92000e-07;-0.0002728947322178277
5.92250e-07;-0.00024325608140070057
5.92500e-07;-0.00021541814705895422
5.92750e-07;-0.00018961668992570964
5.93000e-07;-0.00016584217249519906
5.93250e-07;-0.0001435176219283349
5.93500e-07;-0.00012189425601524639
5.93750e-07;-0.00010067852174390004
5.94000e-07;-7.995981992187593e-05
5.94250e-07;-5.990558665186417e-05
5.94500e-07;-4.068310005988337e-05
5.94750e-07;-2.245948888692782e-05
5.95000e-07;-5.248222320696042e-06
5.95250e-07;1.1292654457074991e-05
5.95500e-07;2.761268589461585e-05
5.95750e-07;4.387622458856325e-05
5.96000e-07;6.000773705983739e-05
5.96250e-07;7.588282531975807e-05
5.96500e-07;9.137719383983857e-05
5.96750e-07;0.00010616950469347095
5.97000e-07;0.00012075471834185912
5.97250e-07;0.00013493866455811354
5.97500e-07;0.00014898307446692754
5.97750e-07;0.00016294696005753564
5.98000e-07;0.00017688284420790161
5.98250e-07;0.0001908187283582676
5.98500e-07;0.00020415267132051825
5.98750e-07;0.00021727729589817406
5.99000e-07;0.00023040192047583542
5.99250e-07;0.00024297526110626192
5.99500e-07;0.0002553568988468317
5.99750e-07;0.0002677385365874015
6.00000e-07;0.000279381786466897
6.00250e-07;0.0002907682701417611
6.00500e-07;0.0003021547538166301
6.00750e-07;0.00031354123749149904
6.01000e-07;0.00032492772116636797
6.01250e-07;0.00033487560110465037
6.01500e-07;0.00034432322251908823
6.01750e-07;0.00035377084393352213
6.02000e-07;0.00036321846534796004
6.02250e-07;0.00037266608676239795
6.02500e-07;0.0003808490162368089
6.02750e-07;0.000388592163089399
6.03000e-07;0.00039609902225614177
6.03250e-07;0.00040352371499587433
6.03500e-07;0.0004130038968162974
6.03750e-07;0.0004231988522099694
6.04000e-07;0.0004357744567857391
6.04250e-07;0.0004491779057604528
6.04500e-07;0.00046450598077653235
6.04750e-07;0.00048050332319261765
6.05000e-07;0.0004984661593566602
6.05250e-07;0.0005171124742132565
6.05500e-07;0.0005388337573726856
6.05750e-07;0.0005616243267190837
6.06000e-07;0.0005873672828431074
6.06250e-07;0.0006141368987857197
6.06500e-07;0.0006432470628107549
6.06750e-07;0.0006731711265212507
6.07000e-07;0.0007057414093243247
6.07250e-07;0.0007392318855228051
6.07500e-07;0.0007727223617212995
6.07750e-07;0.0008095493559456773
6.08000e-07;0.0008475365873778271
6.08250e-07;0.0008855238188099769
6.08500e-07;0.0009252793568559197
6.08750e-07;0.0009656498039513861
6.09000e-07;0.0010066154835247157
6.09250e-07;0.0010481618640745967
6.09500e-07;0.0010902149819420157
6.09750e-07;0.0011326459905646078
6.10000e-07;0.0011752172634498532
6.10250e-07;0.0012176691681259717
6.10500e-07;0.0012597420683882476
6.10750e-07;0.0013011766172037202
6.11000e-07;0.0013417548464512046
6.11250e-07;0.0013813514907999288
6.11500e-07;0.0014198617046676395
6.11750e-07;0.0014570951736724573
6.12000e-07;0.0014927931265277165
6.12250e-07;0.0015266832940997517
6.12500e-07;0.0015584934973661318
6.12750e-07;0.0015879513845479375
6.13000e-07;0.0016144639077511948
6.13250e-07;0.0016367580662259547
6.13500e-07;0.001653509337200031
6.13750e-07;0.00166416078730415
6.14000e-07;0.0016687270944484868
6.14250e-07;0.0016673352076749983
6.14500e-07;0.0016601119633433141
6.14750e-07;0.0016471842241171425
6.15000e-07;0.001628477966902258
6.15250e-07;0.0016009186181170061
6.15500e-07;0.0015708024982293263
6.15750e-07;0.0015306446483682374
6.16000e-07;0.001486994898072211
6.16250e-07;0.0014343213422165137
6.16500e-07;0.00137850985787221
6.16750e-07;0.0013147304988092472
6.17000e-07;0.0012481803995183398
6.17250e-07;0.0011739235469397334
6.17500e-07;0.001096986756220105
6.17750e-07;0.0010128930097343686
6.18000e-07;0.0009263105111094479
6.18250e-07;0.0008340917025109319
6.18500e-07;0.0007399129295138608
6.18750e-07;0.0006416419872179762
6.19000e-07;0.0005419480383493141
6.19250e-07;0.00043920787433573283
6.19500e-07;0.00033540842272752197
6.19750e-07;0.0002297154448448026
6.20000e-07;0.0001233640141617613
6.20250e-07;1.7012583478674995e-05
6.20500e-07;-8.901113902258564e-05
6.20750e-07;-0.0001939762569527514
6.21000e-07;-0.00029724922878691473
6.21250e-07;-0.0003983528951421589
6.21500e-07;-0.0004968180416695764
6.21750e-07;-0.0005920572576832536
6.22000e-07;-0.0006833952146978633
6.22250e-07;-0.0007701394443421004
6.22500e-07;-0.0008515975946599823
6.22750e-07;-0.0009270773437325731
6.23000e-07;-0.0009959903258574146
6.23250e-07;-0.0010580508450265499
6.23500e-07;-0.0011132230930400574
6.23750e-07;-0.001161454753507204
6.24000e-07;-0.0012026040621803539
6.24250e-07;-0.0012365064115274203
6.24500e-07;-0.0012629973330027802
6.24750e-07;-0.001281912534550241
6.25000e-07;-0.001293152710590022
6.25250e-07;-0.0012968081989484976
6.25500e-07;-0.0012931259867371423
6.25750e-07;-0.0012823426758214644
6.26000e-07;-0.0012646385683665446
6.26250e-07;-0.0012401800481713634
6.26500e-07;-0.0012091333300114021
6.26750e-07;-0.0011716647976856393
6.27000e-07;-0.0011279816092571236
6.27250e-07;-0.001078409587927578
6.27500e-07;-0.0010233726622075204
6.27750e-07;-0.0009632883369455221
6.28000e-07;-0.000898538803864664
6.28250e-07;-0.0008294974350726279
6.28500e-07;-0.0007565375031468393
6.28750e-07;-0.0006800324083655019
6.29000e-07;-0.0006003810062847354
6.29250e-07;-0.0005180565444486017
6.29500e-07;-0.00043359359324012805
6.29750e-07;-0.0003475227359575947
6.30000e-07;-0.0002603523582057746
6.30250e-07;-0.00017258528264213648
6.30500e-07;-8.472429131239051e-05
6.30750e-07;2.727848989640623e-06
6.31000e-07;8.925244002447032e-05
6.31250e-07;0.00017428420664724272
6.31500e-07;0.00025721950128913796
6.31750e-07;0.0003374572477668591
6.32000e-07;0.0004144102854036119
6.32250e-07;0.00048749500917253904
6.32500e-07;0.0005561278506598828
6.32750e-07;0.0006197253353393729
6.33000e-07;0.0006778438866931277
6.33250e-07;0.0007304109293475821
6.33500e-07;0.0007775861384415846
6.33750e-07;0.0008194030945727838
6.34000e-07;0.0008557319653332025
6.34250e-07;0.0008864063068496936
6.34500e-07;0.0009112596452120722
6.34750e-07;0.0009301257224557202
6.35000e-07;0.00094292581368055
6.35250e-07;0.0009498136020510664
6.35500e-07;0.000951088334267374
6.35750e-07;0.0009469702406607264
6.36000e-07;0.0009375771029904263
6.36250e-07;0.000923003756554641
6.36500e-07;0.000903345151200364
6.36750e-07;0.0008786962818302063
6.37000e-07;0.0008492069935315873
6.37250e-07;0.0008151727058744594
6.37500e-07;0.0007769799470615981
6.37750e-07;0.0007349657239218478
6.38000e-07;0.0006882071021644252
6.38250e-07;0.0006401342681309264
6.38500e-07;0.0005876616718725915
6.38750e-07;0.0005336591070064956
6.39000e-07;0.0004761323745781487
6.39250e-07;0.00041738015189300535
6.39500e-07;0.00035632409187907335
6.39750e-07;0.0002944668979378491
6.40000e-07;0.00023138212158975343
6.40250e-07;0.00016787046704916744
6.40500e-07;0.00010435881250858147
6.40750e-07;4.0935875622537185e-05
6.41000e-07;-2.1944189206032906e-05
6.41250e-07;-8.379540139317497e-05
6.41500e-07;-0.00014414272197911448
6.41750e-07;-0.00020253056561720807
6.42000e-07;-0.00025852860388676243
6.42250e-07;-0.0003117121339765093
6.42500e-07;-0.00036165655166137757
6.42750e-07;-0.00040793741983007314
6.43000e-07;-0.00045055411809080285
6.43250e-07;-0.0004904879961426227
6.43500e-07;-0.0005290228303689508
6.43750e-07;-0.0005662419441191429
6.44000e-07;-0.000603099238736348
6.44250e-07;-0.0006378476949101022
