Time(s);Current(A)
5.25000e-06;-0.0021869206319499743
5.25025e-06;-0.0021975914226698883
5.25050e-06;-0.0022120232463031047
5.25075e-06;-0.00222645506993637
5.25100e-06;-0.0022408868935695865
5.25125e-06;-0.002255318717202803
5.25150e-06;-0.0022697505408360683
5.25175e-06;-0.0022841823644692847
5.25200e-06;-0.00229861418810255
5.25225e-06;-0.002313046011735767
5.25250e-06;-0.002327484275762149
5.25275e-06;-0.0023426125632489323
5.25300e-06;-0.0023577408507356643
5.25325e-06;-0.0023728691382223963
5.25350e-06;-0.002387977528305732
5.25375e-06;-0.0024009541113991367
5.25400e-06;-0.0024139306944925415
5.25425e-06;-0.0024269072775859905
5.25450e-06;-0.0024398553015593247
5.25475e-06;-0.0024497435025799827
5.25500e-06;-0.002459571912350028
5.25525e-06;-0.002462994289981096
5.25550e-06;-0.002466313734639733
5.25575e-06;-0.002458604944858971
5.25600e-06;-0.002450896155078235
5.25625e-06;-0.0024430734338323594
5.25650e-06;-0.0024230441001018206
5.25675e-06;-0.0024030147663712817
5.25700e-06;-0.002382875278283254
5.25725e-06;-0.0023509338568777657
5.25750e-06;-0.002318992435472277
5.25775e-06;-0.002290524804141394
5.25800e-06;-0.006783556583040548
5.25825e-06;-0.012533502751165927
5.25850e-06;-0.013331191101083254
5.25875e-06;-0.011674801374757914
5.25900e-06;-0.008153043321064823
5.25925e-06;-0.0034576863655193207
5.25950e-06;-0.0015320735123689588
5.25975e-06;-0.0021629382237196267
5.26000e-06;-0.004323451906077209
5.26025e-06;-0.00753910125178669
5.26050e-06;-0.008876044612974173
5.26075e-06;-0.007481488260714956
5.26100e-06;-0.005136882081028991
5.26125e-06;-0.002555749069872203
5.26150e-06;-0.0008914527756965237
5.26175e-06;-0.0008616961648769705
5.26200e-06;-0.0022454177641851344
5.26225e-06;-0.0036719550544155838
5.26250e-06;-0.004208716350431233
5.26275e-06;-0.0035409060085884476
5.26300e-06;-0.0021753372170521643
5.26325e-06;-0.0008642201847420608
5.26350e-06;-0.0001368691075865511
5.26375e-06;-0.00025082076905872264
5.26400e-06;-0.0009735268030146082
5.26425e-06;-0.0017421784821604145
5.26450e-06;-0.002033004411382277
5.26475e-06;-0.0016133090650107555
5.26500e-06;-0.000759736953177435
5.26525e-06;5.824966415271331e-05
5.26550e-06;0.0005105849124180343
5.26575e-06;0.00043644378517607304
5.26600e-06;-1.8473183101132263e-05
5.26625e-06;-0.0005016425330410813
5.26650e-06;-0.0006850229975466934
5.26675e-06;-0.00042292290321774447
5.26700e-06;0.00011130240133164286
5.26725e-06;0.0006235394161140651
5.26750e-06;0.0009070163264274607
5.26775e-06;0.000860988642209762
5.26800e-06;0.0005767205053780523
5.26825e-06;0.0002750162192037074
5.26850e-06;0.00016132560970855405
5.26875e-06;0.00032686215693349975
5.26900e-06;0.0006629900151359073
5.26925e-06;0.0009854445260074455
5.26950e-06;0.0011646865162382076
5.26975e-06;0.0011376013839724246
5.27000e-06;0.0009613491374092478
5.27025e-06;0.0007742249035092407
5.27050e-06;0.0007048938806040558
5.27075e-06;0.0008104555700680525
5.27100e-06;0.0010228248470148561
5.27125e-06;0.0012265512713134405
5.27150e-06;0.0013404736671475193
5.27175e-06;0.001325044837972684
5.27200e-06;0.001216057563033349
5.27225e-06;0.0011001221068191996
5.27250e-06;0.0010578092006833858
5.27275e-06;0.0011248555763774825
5.27300e-06;0.0012585828626547953
5.27325e-06;0.00138664853538254
5.27350e-06;0.0014581944691440221
5.27375e-06;0.001448433001846859
5.27400e-06;0.0013797695014267123
5.27425e-06;0.0013064378992615258
5.27450e-06;0.0012788841144576197
5.27475e-06;0.0013193129121226365
5.27500e-06;0.0014000548772177253
5.27525e-06;0.001474049873345057
5.27550e-06;0.001508131342445843
5.27575e-06;0.0014865468700633073
5.27600e-06;0.0014235740486851886
5.27625e-06;0.0013534557653186218
5.27650e-06;0.0013080590415982779
5.27675e-06;0.0013015587632120454
5.27700e-06;0.0013168887602804877
5.27725e-06;0.0013248386478947143
5.27750e-06;0.0013049033608564205
5.27775e-06;0.001247487341148193
5.27800e-06;0.0011618058901604897
5.27825e-06;0.001069579051928771
5.27850e-06;0.0009910368574223313
5.27875e-06;0.0009353255545184987
5.27900e-06;0.0008920221995650621
5.27925e-06;0.0008430981389598364
5.27950e-06;0.0007759788941429713
5.27975e-06;0.0006849247010591618
5.28000e-06;0.000575978851557045
5.28025e-06;0.00046301675252064266
5.28050e-06;0.00035897921499465093
5.28075e-06;0.00026986332914287107
5.28100e-06;0.00018940811257205933
5.28125e-06;0.00010658913239093722
5.28150e-06;1.3799389261056156e-05
5.28175e-06;-9.228639413148924e-05
5.28200e-06;-0.00020761263135050186
5.28225e-06;-0.00032321825136519245
5.28250e-06;-0.00043072839830649473
5.28275e-06;-0.0005261183586490457
5.28300e-06;-0.0006130417973836209
5.28325e-06;-0.0006981357575321958
5.28350e-06;-0.0007858960269270543
5.28375e-06;-0.0008781360891280137
5.28400e-06;-0.0009720460797243145
5.28425e-06;-0.0010617437245859752
5.28450e-06;-0.0011417144506541185
5.28475e-06;-0.0012092899849192092
5.28500e-06;-0.0012672427418503123
5.28525e-06;-0.0013209986344872328
5.28550e-06;-0.0013745177039934055
5.28575e-06;-0.0014293704878819346
5.28600e-06;-0.0014839000376384978
5.28625e-06;-0.0015345027288027266
5.28650e-06;-0.0015778055539686828
5.28675e-06;-0.0016122185613747567
5.28700e-06;-0.0016395597855108643
5.28725e-06;-0.0016632515173266604
5.28750e-06;-0.0016859850431654403
5.28775e-06;-0.0017082752931590988
5.28800e-06;-0.0017302295348334922
5.28825e-06;-0.0017476643031308252
5.28850e-06;-0.0017616732572981913
5.28875e-06;-0.0017694169835167203
5.28900e-06;-0.0017724115930477457
5.28925e-06;-0.0017732832044142872
5.28950e-06;-0.0017725455581300844
5.28975e-06;-0.0017718079118458792
5.29000e-06;-0.0017703578942168216
5.29025e-06;-0.0017648856744178676
5.29050e-06;-0.0017567738935980741
5.29075e-06;-0.0017486621127782806
5.29100e-06;-0.0017372907027448756
5.29125e-06;-0.0017232805658612643
5.29150e-06;-0.001709143166788816
5.29175e-06;-0.0016950057677163196
5.29200e-06;-0.0016805895388224048
5.29225e-06;-0.0016659619536348604
5.29250e-06;-0.0016511387934996923
5.29275e-06;-0.0016336695568724593
5.29300e-06;-0.0016162003202452265
5.29325e-06;-0.0016002354667443526
5.29350e-06;-0.0015854109533983958
5.29375e-06;-0.001570586440052439
5.29400e-06;-0.001555761926706432
5.29425e-06;-0.0015409374133604752
5.29450e-06;-0.0015276443405819338
5.29475e-06;-0.0015153503426624502
5.29500e-06;-0.001502933717267033
5.29525e-06;-0.0014872860917172826
5.29550e-06;-0.0014691893299392856
5.29575e-06;-0.0014468689982965394
5.29600e-06;-0.0014213471508770122
5.29625e-06;-0.0013917816529939134
5.29650e-06;-0.0013591510203624327
5.29675e-06;-0.001322487597326704
5.29700e-06;-0.001282767271595963
5.29725e-06;-0.0012376056587140238
5.29750e-06;-0.0011883194859885966
5.29775e-06;-0.0011335731203377152
5.29800e-06;-0.001074687864043554
5.29825e-06;-0.0010110580695705945
5.29850e-06;-0.0009438318591943466
5.29875e-06;-0.000872470714256051
5.29900e-06;-0.0007979752401466248
5.29925e-06;-0.0007201733579998426
5.29950e-06;-0.000637649131433764
5.29975e-06;-0.000551548841900721
5.30000e-06;-0.00046237315728038227
5.30025e-06;-0.0003705654815864383
5.30050e-06;-0.0002765779532088345
5.30075e-06;-0.00018087708657306284
5.30100e-06;-8.379451521078078e-05
5.30125e-06;1.4569177301361861e-05
5.30150e-06;0.00011401964124638103
5.30175e-06;0.0002140598279544993
5.30200e-06;0.0003141113328921353
5.30225e-06;0.0004136316932365184
5.30250e-06;0.0005120730297316578
5.30275e-06;0.0006088784122460176
5.30300e-06;0.0007035755186124849
5.30325e-06;0.0007958367723980338
5.30350e-06;0.0008852758388349165
5.30375e-06;0.000971316815831802
5.30400e-06;0.0010533329784927362
5.30425e-06;0.0011307200048562651
5.30450e-06;0.0012028702526773627
5.30475e-06;0.0012692775438472243
5.30500e-06;0.0013300492015057392
5.30525e-06;0.0013860907286640822
5.30550e-06;0.0014381811115672652
5.30575e-06;0.0014863676922784736
5.30600e-06;0.0015303767449416199
5.30625e-06;0.0015699288942220737
5.30650e-06;0.0016047426829956866
5.30675e-06;0.0016332893207595205
5.30700e-06;0.001658674147345171
5.30725e-06;0.0016796532331888377
5.30750e-06;0.0016972927155826985
5.30775e-06;0.001710006410480631
5.30800e-06;0.0017189863003553186
5.30825e-06;0.0017279661902299755
5.30850e-06;0.001730812243423951
5.30875e-06;0.0017290087760633093
5.30900e-06;0.0017272053087026736
5.30925e-06;0.001720608007984192
5.30950e-06;0.001710376925035612
5.30975e-06;0.0017001458420870662
5.31000e-06;0.0016861103831570844
5.31025e-06;0.0016691911623593096
5.31050e-06;0.001652271941561592
5.31075e-06;0.0016321007951285904
5.31100e-06;0.001609464650706519
5.31125e-06;0.0015868285062845243
5.31150e-06;0.001562489407403131
5.31175e-06;0.0015368594489548204
5.31200e-06;0.0015112294905065095
5.31225e-06;0.0014848242739048955
5.31250e-06;0.0014578314024788497
5.31275e-06;0.0014306376530611362
5.31300e-06;0.0014032916357562355
5.31325e-06;0.0013764813041325236
5.31350e-06;0.0013500770285736347
5.31375e-06;0.0013270366812915932
5.31400e-06;0.0013065462313219364
5.31425e-06;0.0012860557813522797
5.31450e-06;0.0012655653313825535
5.31475e-06;0.0012450748814128968
5.31500e-06;0.00122458443144324
5.31525e-06;0.0012040939814735138
5.31550e-06;0.001183603531503857
5.31575e-06;0.0011680026246853393
5.31600e-06;0.0011561080492487397
5.31625e-06;0.0011442134738121402
5.31650e-06;0.0011323188983755003
5.31675e-06;0.0011204243229389007
5.31700e-06;0.0011085297475023012
5.31725e-06;0.0010966351720656613
5.31750e-06;0.0010847405966290617
5.31775e-06;0.0010766561952760612
5.31800e-06;0.0010714599508201696
5.31825e-06;0.0010662637063642956
5.31850e-06;0.0010610674619084216
5.31875e-06;0.00105587121745253
5.31900e-06;0.001050674972996656
5.31925e-06;0.0010454787285407822
5.31950e-06;0.0010402824840848907
5.31975e-06;0.0010350862396290167
5.32000e-06;0.001029889995173125
5.32025e-06;0.0010272108476407301
5.32050e-06;0.0010264396892658843
5.32075e-06;0.0010256685308910355
5.32100e-06;0.0010248973725161896
5.32125e-06;0.0010241262141413437
5.32150e-06;0.001023355055766495
5.32175e-06;0.0010225838973916491
5.32200e-06;0.001021812739016803
5.32225e-06;0.0010210415806419545
5.32250e-06;0.0010202704222671086
5.32275e-06;0.0010201806906895907
5.32300e-06;0.0010206074886619633
5.32325e-06;0.0010210342866343346
5.32350e-06;0.0010214610846067057
5.32375e-06;0.0010218878825790784
5.32400e-06;0.0010223146805514495
5.32425e-06;0.001022684330771448
5.32450e-06;0.0010230106623210827
5.32475e-06;0.0010233369938707172
5.32500e-06;0.001023663325420353
5.32525e-06;0.0010239896569699874
5.32550e-06;0.0010243159885196219
5.32575e-06;0.0010256967350773573
5.32600e-06;0.0010278767406481323
5.32625e-06;0.0010300567462189075
5.32650e-06;0.0010322367517896901
5.32675e-06;0.0010344167573604654
5.32700e-06;0.0010365967629312406
5.32725e-06;0.0010387767685020232
5.32750e-06;0.0010409567740727983
5.32775e-06;0.0010431367796435735
5.32800e-06;0.001045509038720025
5.32825e-06;0.001050482436065161
5.32850e-06;0.0010554558334103137
5.32875e-06;0.0010604292307554498
5.32900e-06;0.0010654026281005857
5.32925e-06;0.0010703760254457385
5.32950e-06;0.0010753494227908745
5.32975e-06;0.0010803228201360104
5.33000e-06;0.0010852962174811634
5.33025e-06;0.0010902696148262993
5.33050e-06;0.001096059748197531
5.33075e-06;0.0011024689771099744
5.33100e-06;0.001108878206022396
5.33125e-06;0.0011152874349348175
5.33150e-06;0.001121696663847261
5.33175e-06;0.0011281058927596825
5.33200e-06;0.0011345151216721043
5.33225e-06;0.0011407139038208667
5.33250e-06;0.0011467531648405224
5.33275e-06;0.0011527924258601984
5.33300e-06;0.0011588316868798541
5.33325e-06;0.0011648709478995097
5.33350e-06;0.0011709102089191858
5.33375e-06;0.0011769494699388414
5.33400e-06;0.001182468517078172
5.33425e-06;0.0011873904707021823
5.33450e-06;0.00119192867802212
5.33475e-06;0.001195924654953544
5.33500e-06;0.001198679025412584
5.33525e-06;0.0011989126877471367
5.33550e-06;0.001195659911459377
5.33575e-06;0.0011877503998316032
5.33600e-06;0.0011775342568493587
5.33625e-06;0.0011635825513719167
5.33650e-06;0.0011467992454623752
5.33675e-06;0.001126385037570575
5.33700e-06;0.0011032185631499193
5.33725e-06;0.0010753900439588384
5.33750e-06;0.0010440276398433403
5.33775e-06;0.0010079753951645488
5.33800e-06;0.0009683681960227932
5.33825e-06;0.0009247591642672077
5.33850e-06;0.0008781166961889878
5.33875e-06;0.0008279929002718714
5.33900e-06;0.0007752302167908934
5.33925e-06;0.0007187952273503052
5.33950e-06;0.0006595765866782622
5.33975e-06;0.0005971232375377184
5.34000e-06;0.0005322179412248534
5.34025e-06;0.0004654395660745191
5.34050e-06;0.00039628981201945507
5.34075e-06;0.00032566282895992414
5.34100e-06;0.0002537902610623455
5.34125e-06;0.00018076128314560637
5.34150e-06;0.00010674210425831853
5.34175e-06;3.209004626595776e-05
5.34200e-06;-4.275494996061499e-05
5.34225e-06;-0.00011734768371445255
5.34250e-06;-0.00019124301719744034
5.34275e-06;-0.00026401286316285434
5.34300e-06;-0.0003353124212295617
5.34325e-06;-0.00040488617819945175
5.34350e-06;-0.0004724303426882689
5.34375e-06;-0.0005375214528912991
5.34400e-06;-0.0005996843381805687
5.34425e-06;-0.0006584405521446388
5.34450e-06;-0.0007133117522379355
5.34475e-06;-0.0007629613040873051
5.34500e-06;-0.0008099899508918567
5.34525e-06;-0.0008544789164837742
5.34550e-06;-0.0008970427737617736
5.34575e-06;-0.0009370944090020967
5.34600e-06;-0.0009752417503068659
5.34625e-06;-0.0010133890916117641
5.34650e-06;-0.0010474170820970504
5.34675e-06;-0.0010783225560743778
5.34700e-06;-0.0011092280300518099
5.34725e-06;-0.0011375497810812187
5.34750e-06;-0.0011639130396417171
5.34775e-06;-0.0011902762982023052
5.34800e-06;-0.00121454884078649
5.34825e-06;-0.0012372365960011612
5.34850e-06;-0.0012599243512159096
5.34875e-06;-0.0012786358108723384
5.34900e-06;-0.0012943331915962575
5.34925e-06;-0.0013100305723202298
5.34950e-06;-0.0013257279530441489
5.34975e-06;-0.001341425333768121
5.35000e-06;-0.0013571227144920403
5.35025e-06;-0.0013728200952159593
5.35050e-06;-0.0013885174759399315
5.35075e-06;-0.0014042148566638505
5.35100e-06;-0.0014194653767932747
5.35125e-06;-0.00142866999317132
5.35150e-06;-0.001437874609549334
5.35175e-06;-0.0014470792259273482
5.35200e-06;-0.0014562838423053935
5.35225e-06;-0.0014654884586834075
5.35250e-06;-0.0014746930750614215
5.35275e-06;-0.001483897691439467
5.35300e-06;-0.001493102307817481
5.35325e-06;-0.001502306924195495
5.35350e-06;-0.001509940546226537
5.35375e-06;-0.0015163833360131685
5.35400e-06;-0.0015228261257998216
5.35425e-06;-0.0015291418006605237
5.35450e-06;-0.0015337376447356053
5.35475e-06;-0.0015383334888107022
5.35500e-06;-0.0015429293328857838
5.35525e-06;-0.0015432293832833377
5.35550e-06;-0.0015402731714059617
5.35575e-06;-0.0015373169595285958
5.35600e-06;-0.001529067307405608
5.35625e-06;-0.0015168051651422137
5.35650e-06;-0.0015045430228788608
5.35675e-06;-0.0014871576475226835
5.35700e-06;-0.0014658888010554742
5.35725e-06;-0.0014446199545883368
5.35750e-06;-0.001418018156683248
5.35775e-06;-0.0013873739186879967
5.35800e-06;-0.0013528303233353895
5.35825e-06;-0.0013153309691143356
5.35850e-06;-0.0012737528899670102
5.35875e-06;-0.0012290830892185823
5.35900e-06;-0.0011844132884700034
5.35925e-06;-0.001135683359543468
5.35950e-06;-0.0010838758055704192
5.35975e-06;-0.001029170453298735
5.36000e-06;-0.0009722685357387088
5.36025e-06;-0.000913254982239883
5.36050e-06;-0.0008526407837934039
5.36075e-06;-0.0007906090495863346
5.36100e-06;-0.0007275028065533725
5.36125e-06;-0.0006632833411963755
5.36150e-06;-0.0005982200401881808
5.36175e-06;-0.0005326944416754846
5.36200e-06;-0.0004668184162015624
5.36225e-06;-0.00040137728975895843
5.36250e-06;-0.0003362658219111373
5.36275e-06;-0.00027202824120303227
5.36300e-06;-0.00020925414736285925
5.36325e-06;-0.00014800552029189755
5.36350e-06;-8.855462644275319e-05
5.36375e-06;-3.1278803694747886e-05
5.36400e-06;2.3399224433682035e-05
5.36425e-06;7.505387163328084e-05
5.36450e-06;0.0001232596166702439
5.36475e-06;0.00016753537314134585
5.36500e-06;0.00020714996698749396
5.36525e-06;0.00024116589161223679
5.36550e-06;0.00026892811668173116
5.36575e-06;0.0002902546754193819
5.36600e-06;0.00030515390078879887
5.36625e-06;0.00031364577003601643
5.36650e-06;0.0003157503357001588
5.36675e-06;0.00031145281866601376
5.36700e-06;0.00030058179907374073
5.36725e-06;0.0002828366740263945
5.36750e-06;0.00025809383407479706
5.36775e-06;0.00022652595124187172
5.36800e-06;0.0001884249282904679
5.36825e-06;0.00014408995259752167
5.36850e-06;9.382022395665345e-05
5.36875e-06;3.789312384629285e-05
5.36900e-06;-2.3512094815650924e-05
5.36925e-06;-9.029708758685528e-05
5.36950e-06;-0.00016225268872328513
5.36975e-06;-0.00023898409927674733
5.37000e-06;-0.0003200218700439843
5.37025e-06;-0.00040489204714931306
5.37050e-06;-0.0004931206809884799
5.37075e-06;-0.0005849142580106901
5.37100e-06;-0.0006783792304623361
5.37125e-06;-0.0007744115474796126
5.37150e-06;-0.000872389941958172
5.37175e-06;-0.0009703683364370635
5.37200e-06;-0.0010689740980143574
5.37225e-06;-0.0011680554112519052
5.37250e-06;-0.0012671367244897888
5.37275e-06;-0.0013645636665823321
5.37300e-06;-0.0014607365758346777
5.37325e-06;-0.0015541815904336529
5.37350e-06;-0.0016455588287109988
5.37375e-06;-0.0017328298387398876
5.37400e-06;-0.0018169882793263523
5.37425e-06;-0.0018955596497022924
5.37450e-06;-0.0019698959549629504
5.37475e-06;-0.0020376257019231515
5.37500e-06;-0.002100347599771102
5.37525e-06;-0.0021576494008245708
5.37550e-06;-0.0022108427045809866
5.37575e-06;-0.0022575542524283345
5.37600e-06;-0.0022993525528487205
5.37625e-06;-0.002341150853268965
5.37650e-06;-0.0023740999268710484
5.37675e-06;-0.0024003411821743614
5.37700e-06;-0.0024265824374775855
5.37725e-06;-0.002445151678759411
5.37750e-06;-0.0024579054429268825
5.37775e-06;-0.0024706592070943105
5.37800e-06;-0.0024765449548198237
5.37825e-06;-0.002477224665078866
5.37850e-06;-0.0024779043753379065
5.37875e-06;-0.0024719119033996
5.37900e-06;-0.0024608618386619645
5.37925e-06;-0.0024498117739243665
5.37950e-06;-0.002433799235876883
5.37975e-06;-0.002414025084531789
5.38000e-06;-0.002394250933186695
5.38025e-06;-0.0023702783534530958
5.38050e-06;-0.002343123315483745
5.38075e-06;-0.002315968277514394
5.38100e-06;-0.002285741431968601
5.38125e-06;-0.0022531861200503424
5.38150e-06;-0.0022206308081320837
5.38175e-06;-0.0021866376419875885
5.38200e-06;-0.0021515545653813944
5.38225e-06;-0.0021164714887752
5.38250e-06;-0.0020809360862738616
5.38275e-06;-0.002045057815409375
5.38300e-06;-0.002009549846087683
5.38325e-06;-0.001974322569702733
5.38350e-06;-0.0019407356258494869
5.38375e-06;-0.0019083920734015217
5.38400e-06;-0.0018760485209536662
5.38425e-06;-0.0018472690049704693
5.38450e-06;-0.0018211910706624032
5.38475e-06;-0.0017951131363544257
5.38500e-06;-0.0017690352020464481
5.38525e-06;-0.0017451259355452564
5.38550e-06;-0.00172286054481945
5.38575e-06;-0.0017005951540936437
5.38600e-06;-0.001678329763367762
5.38625e-06;-0.0016574677087547933
5.38650e-06;-0.0016376693994665577
5.38675e-06;-0.001617871090178255
5.38700e-06;-0.0015980727808900194
5.38725e-06;-0.0015782744716017838
5.38750e-06;-0.00155854152887217
5.38775e-06;-0.0015396929781122308
5.38800e-06;-0.001520844427352292
5.38825e-06;-0.0015019958765922889
5.38850e-06;-0.00148314732583235
5.38875e-06;-0.001464298775072347
5.38900e-06;-0.0014458143900534463
5.38925e-06;-0.0014276060469612744
5.38950e-06;-0.001409397703869041
5.38975e-06;-0.001391189360776869
5.39000e-06;-0.0013729810176846974
5.39025e-06;-0.0013547726745924639
5.39050e-06;-0.001336564331500292
5.39075e-06;-0.0013183559884081201
5.39100e-06;-0.0013001476453158866
5.39125e-06;-0.0012819393022237148
5.39150e-06;-0.0012639184304504903
5.39175e-06;-0.0012484339952327143
5.39200e-06;-0.0012329495600149907
5.39225e-06;-0.0012174651247972672
5.39250e-06;-0.001201980689579491
5.39275e-06;-0.0011864962543617673
5.39300e-06;-0.0011710118191439914
5.39325e-06;-0.0011555273839262677
5.39350e-06;-0.001140042948708544
5.39375e-06;-0.001124558513490768
5.39400e-06;-0.0011090740782730443
5.39425e-06;-0.001097319674737371
5.39450e-06;-0.0010883926792089064
5.39475e-06;-0.0010794656836804722
