Time(s);Current(A)
1.38000e-05;-0.008354045357034623
1.38003e-05;-0.008340298858438615
1.38005e-05;-0.008326552359842514
1.38008e-05;-0.008312805861246414
1.38010e-05;-0.00829986443335964
1.38013e-05;-0.008289357695559755
1.38015e-05;-0.008278850957759869
1.38018e-05;-0.008268344219960056
1.38020e-05;-0.00825783748216017
1.38023e-05;-0.008247330744360286
1.38025e-05;-0.008236824006560471
1.38028e-05;-0.008226317268760587
1.38030e-05;-0.008215810530960701
1.38033e-05;-0.008205303793160887
1.38035e-05;-0.008194797055361002
1.38038e-05;-0.008191438432897461
1.38040e-05;-0.008190481654172478
1.38043e-05;-0.008189524875447489
1.38045e-05;-0.008188568096722498
1.38048e-05;-0.008187611317997516
1.38050e-05;-0.008186654539272526
1.38053e-05;-0.008185697760547537
1.38055e-05;-0.008184740981822553
1.38058e-05;-0.008183784203097564
1.38060e-05;-0.008182827424372575
1.38063e-05;-0.008183911495266722
1.38065e-05;-0.008191167491533723
1.38068e-05;-0.008198423487800723
1.38070e-05;-0.008205679484067675
1.38073e-05;-0.008212935480334676
1.38075e-05;-0.008220191476601676
1.38078e-05;-0.008227447472868629
1.38080e-05;-0.008234703469135629
1.38083e-05;-0.008244870057350627
1.38085e-05;-0.00825601463580743
1.38088e-05;-0.008267159214264309
1.38090e-05;-0.008278303792721188
1.38093e-05;-0.008289448371178065
1.38095e-05;-0.00830059294963487
1.38098e-05;-0.008311737528091749
1.38100e-05;-0.008323059984283487
1.38103e-05;-0.008334384278276288
1.38105e-05;-0.008344087304852777
1.38108e-05;-0.008353790331429264
1.38110e-05;-0.008363493358005685
1.38113e-05;-0.008373196384582173
1.38115e-05;-0.00838289941115866
1.38118e-05;-0.008392602437735083
1.38120e-05;-0.00840230546431157
1.38123e-05;-0.008412008490888058
1.38125e-05;-0.00842171151746448
1.38128e-05;-0.008431414544040967
1.38130e-05;-0.008438966862888244
1.38133e-05;-0.008440015024113123
1.38135e-05;-0.00844106318533801
1.38138e-05;-0.008442111346562895
1.38140e-05;-0.008443159507787774
1.38143e-05;-0.00844420766901266
1.38145e-05;-0.008445255830237546
1.38148e-05;-0.008446303991462425
1.38150e-05;-0.00844735215268731
1.38153e-05;-0.008448400313912197
1.38155e-05;-0.008449448475137076
1.38158e-05;-0.008448192847659415
1.38160e-05;-0.008439970115982447
1.38163e-05;-0.008431747384305533
1.38165e-05;-0.008423524652628566
1.38168e-05;-0.008415301920951596
1.38170e-05;-0.008407079189274684
1.38173e-05;-0.008398856457597715
1.38175e-05;-0.008390633725920747
1.38178e-05;-0.008382410994243777
1.38180e-05;-0.008374188262566865
1.38183e-05;-0.008365965530889896
1.38185e-05;-0.008356711964224245
1.38188e-05;-0.008344340952468646
1.38190e-05;-0.008331969940712962
1.38193e-05;-0.00831959892895728
1.38195e-05;-0.00830722791720168
1.38198e-05;-0.008294856905445997
1.38200e-05;-0.008282485893690314
1.38203e-05;-0.008270114881934715
1.38205e-05;-0.008257743870179031
1.38208e-05;-0.008245372858423347
1.38210e-05;-0.008233001846667748
1.38213e-05;-0.008220913342825
1.38215e-05;-0.008209679197745661
1.38218e-05;-0.008198445052666398
1.38220e-05;-0.008187210907587058
1.38223e-05;-0.008177022799019804
1.38225e-05;-0.008167186169986781
1.38228e-05;-0.008157349540953693
1.38230e-05;-0.008146372883659367
1.38233e-05;-0.00813194855962382
1.38235e-05;-0.008115507855923037
1.38238e-05;-0.008092969228735626
1.38240e-05;-0.008070430601548368
1.38243e-05;-0.008045861477415334
1.38245e-05;-0.008015151736399106
1.38248e-05;-0.007984441995383085
1.38250e-05;-0.007950973830322077
1.38253e-05;-0.007909163655539007
1.38255e-05;-0.007867353480756218
1.38258e-05;-0.007822271516921794
1.38260e-05;-0.007767295027940812
1.38263e-05;-0.007712318538959829
1.38265e-05;-0.00765734204997922
1.38268e-05;-0.007602365560998237
1.38270e-05;-0.007537488814879509
1.38273e-05;-0.007469285475733728
1.38275e-05;-0.007401082136587484
1.38278e-05;-0.007332878797441241
1.38280e-05;-0.007262815397298011
1.38283e-05;-0.007187126811659011
1.38285e-05;-0.007110846110245383
1.38288e-05;-0.007032774735799758
1.38290e-05;-0.006954315367569693
1.38293e-05;-0.0068744709873345715
1.38295e-05;-0.006793888313711456
1.38298e-05;-0.006713029827677767
1.38300e-05;-0.00663237632591301
1.38303e-05;-0.006552407905204936
1.38305e-05;-0.0064735966779760935
1.38308e-05;-0.006396349647128783
1.38310e-05;-0.006320922278742188
1.38313e-05;-0.006247527712233185
1.38315e-05;-0.006176542319498981
1.38318e-05;-0.006108462238844788
1.38320e-05;-0.0060437955067341445
1.38323e-05;-0.005983049928201141
1.38325e-05;-0.0059266960423171216
1.38328e-05;-0.0058748958161827045
1.38330e-05;-0.00582705520226287
1.38333e-05;-0.005782254659473195
1.38335e-05;-0.00574019041239026
1.38338e-05;-0.005701064807172238
1.38340e-05;-0.005665130463667908
1.38343e-05;-0.005633112010499153
1.38345e-05;-0.005605250564356956
1.38348e-05;-0.005579057155910559
1.38350e-05;-0.005557908217225046
1.38353e-05;-0.005538292199203159
1.38355e-05;-0.005523312030810899
1.38358e-05;-0.00550833186241874
1.38360e-05;-0.005495878232094503
1.38363e-05;-0.005491065343293392
1.38365e-05;-0.005486252454492314
1.38368e-05;-0.0054814395656912025
1.38370e-05;-0.005476626676890092
1.38373e-05;-0.005474202177381214
1.38375e-05;-0.005479000630682418
1.38378e-05;-0.005483799083983622
1.38380e-05;-0.005488597537284794
1.38383e-05;-0.0054933959905859985
1.38385e-05;-0.00549964151142799
1.38388e-05;-0.005510263245391407
1.38390e-05;-0.005520884979354897
1.38393e-05;-0.0055320666216359
1.38395e-05;-0.005544941535348156
1.38398e-05;-0.005557816449060498
1.38400e-05;-0.005571015365932595
1.38403e-05;-0.005585194131249303
1.38405e-05;-0.005599372896566108
1.38408e-05;-0.005613611872470098
1.38410e-05;-0.005628032936876633
1.38413e-05;-0.005642192970451933
1.38415e-05;-0.005655563596126658
1.38418e-05;-0.005668934221801292
1.38420e-05;-0.00568089923093395
1.38423e-05;-0.00569239193776922
1.38425e-05;-0.005703467849254058
1.38428e-05;-0.005713283290698574
1.38430e-05;-0.00572346728573727
1.38433e-05;-0.005734765858381861
1.38435e-05;-0.005746824970586089
1.38438e-05;-0.005761184102041511
1.38440e-05;-0.005775543233496932
1.38443e-05;-0.0057905595127893785
1.38445e-05;-0.005807563134695421
1.38448e-05;-0.005824566756601463
1.38450e-05;-0.005843203450861751
1.38453e-05;-0.005866778872905353
1.38455e-05;-0.005890354294948955
1.38458e-05;-0.005913929716992396
1.38460e-05;-0.005937505139035998
1.38463e-05;-0.005961080561079599
1.38465e-05;-0.005986545172260676
1.38468e-05;-0.006017723058091078
1.38470e-05;-0.00604890094392148
1.38473e-05;-0.006080078829751672
1.38475e-05;-0.006111256715582074
1.38478e-05;-0.006142434601412477
1.38480e-05;-0.006174803964356377
1.38483e-05;-0.006210776585361693
1.38485e-05;-0.006246749206367008
1.38488e-05;-0.0062827218273720795
1.38490e-05;-0.006318694448377394
1.38493e-05;-0.006354667069382709
1.38495e-05;-0.006390639690387781
1.38498e-05;-0.006426135661253421
1.38500e-05;-0.006461471472538294
1.38503e-05;-0.006496807283822926
1.38505e-05;-0.006532143095107799
1.38508e-05;-0.006567478906392671
1.38510e-05;-0.006602814717677304
1.38513e-05;-0.006637004937460899
1.38515e-05;-0.0066677306661813256
1.38518e-05;-0.006698456394901752
1.38520e-05;-0.006728112797479834
1.38523e-05;-0.00675453535024425
1.38525e-05;-0.006779457382661611
1.38528e-05;-0.00679984155029294
1.38530e-05;-0.006820225717924407
1.38533e-05;-0.006838382440977213
1.38535e-05;-0.006849802939268812
1.38538e-05;-0.006861223437560489
1.38540e-05;-0.006870311653108278
1.38543e-05;-0.006872346592933804
1.38545e-05;-0.006874381532759343
1.38548e-05;-0.006873022329096363
1.38550e-05;-0.006861398576708341
1.38553e-05;-0.006849774824320239
1.38555e-05;-0.006838151071932138
1.38558e-05;-0.006826527319544115
1.38560e-05;-0.006814903567156014
1.38563e-05;-0.006791477981878948
1.38565e-05;-0.006764086853637084
1.38568e-05;-0.006736695725395034
1.38570e-05;-0.006709304597152985
1.38573e-05;-0.006681913468911121
1.38575e-05;-0.0066521194715227
1.38578e-05;-0.0066150587314293095
1.38580e-05;-0.006577997991336171
1.38583e-05;-0.006539782179978886
1.38585e-05;-0.006498073208915591
1.38588e-05;-0.006456364237852577
1.38590e-05;-0.0064140162091288365
1.38593e-05;-0.006369735545996169
1.38595e-05;-0.006325210781197697
1.38598e-05;-0.006279947805579454
1.38600e-05;-0.006234661166159021
1.38603e-05;-0.006189372160625173
1.38605e-05;-0.006144425032588378
1.38608e-05;-0.006100072302978949
1.38610e-05;-0.006056559369696339
1.38613e-05;-0.006014140215977672
1.38615e-05;-0.00597309095096944
1.38618e-05;-0.005935508959025631
1.38620e-05;-0.005904803856361257
1.38623e-05;-0.005874098753696674
1.38625e-05;-0.005843393651032091
1.38628e-05;-0.005812688548367717
1.38630e-05;-0.005781983445703133
1.38633e-05;-0.005751278343038551
1.38635e-05;-0.005720573240374176
1.38638e-05;-0.005689868137709593
1.38640e-05;-0.00566627932040914
1.38643e-05;-0.005645081651639503
1.38645e-05;-0.005623883982869724
1.38648e-05;-0.005602686314099943
1.38650e-05;-0.0055814886453303065
1.38653e-05;-0.005560290976560526
1.38655e-05;-0.005539093307790745
1.38658e-05;-0.005517895639021109
1.38660e-05;-0.0054977504106941836
1.38663e-05;-0.005480787966550548
1.38665e-05;-0.005463825522407027
1.38668e-05;-0.005446863078263391
1.38670e-05;-0.0054299006341197555
1.38673e-05;-0.005412938189976234
1.38675e-05;-0.005395975745832599
1.38678e-05;-0.005379635767962937
1.38680e-05;-0.00536517824892991
1.38683e-05;-0.005350720729896784
1.38685e-05;-0.005336263210863659
1.38688e-05;-0.005321805691830533
1.38690e-05;-0.005307348172797505
1.38693e-05;-0.00529289065376438
1.38695e-05;-0.005278791808432873
1.38698e-05;-0.005265777661995714
1.38700e-05;-0.005252763515558466
1.38703e-05;-0.005240074683722023
1.38705e-05;-0.0052283696663839065
1.38708e-05;-0.00521666464904571
1.38710e-05;-0.005205207764127115
1.38713e-05;-0.005194501279809408
1.38715e-05;-0.005183927636786993
1.38718e-05;-0.005173866124132076
1.38720e-05;-0.005164265978226598
1.38723e-05;-0.005155195769794708
1.38725e-05;-0.005146755651469888
1.38728e-05;-0.005139306115055327
1.38730e-05;-0.005133797083433861
1.38733e-05;-0.0051313102822006795
1.38735e-05;-0.005132248300290051
1.38738e-05;-0.0051365201947079645
1.38740e-05;-0.005143988361144236
1.38743e-05;-0.00515451577946484
1.38745e-05;-0.0051683894658713925
1.38748e-05;-0.005185664801138579
1.38750e-05;-0.005204803386003132
1.38753e-05;-0.005229576799318548
1.38755e-05;-0.005257226197106825
1.38758e-05;-0.005293573130186669
1.38760e-05;-0.005329920063266759
1.38763e-05;-0.005366266996346849
1.38765e-05;-0.005402613929426694
1.38768e-05;-0.005448975132927997
1.38770e-05;-0.005498701239154441
1.38773e-05;-0.005548427345380885
1.38775e-05;-0.005598153451606993
1.38778e-05;-0.005650115449635874
1.38780e-05;-0.005708839218476108
1.38783e-05;-0.005767562987315944
1.38785e-05;-0.005827301233191288
1.38788e-05;-0.005890107454537349
1.38790e-05;-0.005952913675882984
1.38793e-05;-0.006016278069814676
1.38795e-05;-0.0060813304859902795
1.38798e-05;-0.006146382902165443
1.38800e-05;-0.006211185064472242
1.38803e-05;-0.006275230410503828
1.38805e-05;-0.006339275756534981
1.38808e-05;-0.00640253130629383
1.38810e-05;-0.006463398358819112
1.38813e-05;-0.006523296410466704
1.38815e-05;-0.0065802640153720705
1.38818e-05;-0.006635853276122947
1.38820e-05;-0.006687274156604199
1.38823e-05;-0.006736890397345989
1.38825e-05;-0.006781049057221382
1.38828e-05;-0.006823004842759273
1.38830e-05;-0.006858298708708188
1.38833e-05;-0.006891176089665572
1.38835e-05;-0.006916745550951466
1.38838e-05;-0.006939183405987287
1.38840e-05;-0.006952150675854975
1.38843e-05;-0.006965117945722575
1.38845e-05;-0.006974202770590076
1.38848e-05;-0.0069715463281664015
1.38850e-05;-0.006968889885742746
1.38853e-05;-0.00696153997469627
1.38855e-05;-0.006939996103498802
1.38858e-05;-0.006918452232301334
1.38860e-05;-0.0068969083611040115
1.38863e-05;-0.006875364489906543
1.38865e-05;-0.00683897031046536
1.38868e-05;-0.0067975862675005985
1.38870e-05;-0.006756202224535558
1.38873e-05;-0.0067148181815705164
1.38875e-05;-0.006670144645101763
1.38878e-05;-0.0066155230417618525
1.38880e-05;-0.006560901438421942
1.38883e-05;-0.00650466375360996
1.38885e-05;-0.00644353872473151
1.38888e-05;-0.006381668257155833
1.38890e-05;-0.006317154981620069
1.38893e-05;-0.0062511705906119494
1.38895e-05;-0.0061840898005560965
1.38898e-05;-0.006116299460267312
1.38900e-05;-0.0060481861843285495
1.38903e-05;-0.0059801368215546095
1.38905e-05;-0.005912538217960652
1.38908e-05;-0.005845778847975159
1.38910e-05;-0.005780253911520157
1.38913e-05;-0.005716378863383818
1.38915e-05;-0.005654587683087263
1.38918e-05;-0.005595322633138457
1.38920e-05;-0.005539025741814834
1.38923e-05;-0.005486139271623168
1.38925e-05;-0.005437118558113525
1.38928e-05;-0.005392518313987491
1.38930e-05;-0.005353082711706222
1.38933e-05;-0.0053194860829536405
1.38935e-05;-0.005292005972133159
1.38938e-05;-0.005270674670382737
1.38940e-05;-0.005255502537966316
1.38943e-05;-0.005246500169378186
1.38945e-05;-0.005243686487822655
1.38948e-05;-0.00524714288136917
1.38950e-05;-0.0052578874049250355
1.38953e-05;-0.005276096623903856
1.38955e-05;-0.005298195423666084
1.38958e-05;-0.00533205707071567
1.38960e-05;-0.005365918717765027
1.38963e-05;-0.005403948781173786
1.38965e-05;-0.005454584944776059
1.38968e-05;-0.005505221108377988
1.38970e-05;-0.005559565526709588
1.38973e-05;-0.005625124427145353
1.38975e-05;-0.005690683327580675
1.38978e-05;-0.005759163116496925
1.38980e-05;-0.0058364762391469125
1.38983e-05;-0.005913789361796377
1.38985e-05;-0.005992840452821164
1.38988e-05;-0.006077147497565656
1.38990e-05;-0.00616240670659372
1.38993e-05;-0.006250545445240823
1.38995e-05;-0.006339162435694011
1.38998e-05;-0.0064292257524409474
1.39000e-05;-0.006519236476532829
1.39003e-05;-0.006609088150225294
1.39005e-05;-0.006698364313305625
1.39008e-05;-0.006785900020585665
1.39010e-05;-0.00687236426098978
1.39013e-05;-0.00695558817757943
1.39015e-05;-0.0070371792918204525
1.39018e-05;-0.0071138324948161104
1.39020e-05;-0.00718758141449315
1.39023e-05;-0.007252547217669315
1.39025e-05;-0.007317513020845479
1.39028e-05;-0.007378432911714993
1.39030e-05;-0.007427117178420971
1.39033e-05;-0.0074758014451272795
1.39035e-05;-0.007520536730472166
1.39038e-05;-0.007553329529646729
1.39040e-05;-0.007586122328821515
1.39043e-05;-0.0076125934985007086
1.39045e-05;-0.007619946833498766
1.39048e-05;-0.0076273001684968745
1.39050e-05;-0.007634653503494982
1.39053e-05;-0.0076420068384930396
1.39055e-05;-0.007649360173491148
1.39058e-05;-0.007649267240885107
1.39060e-05;-0.007626655349655263
1.39063e-05;-0.007604043458425264
1.39065e-05;-0.007581431567195265
1.39068e-05;-0.00755881967596542
1.39070e-05;-0.007536207784735422
1.39073e-05;-0.007508362717908422
1.39075e-05;-0.007464691512268879
1.39078e-05;-0.007421020306629039
1.39080e-05;-0.007377349100989201
1.39083e-05;-0.0073336778953496575
1.39085e-05;-0.007287105819996748
1.39088e-05;-0.007231760951545391
1.39090e-05;-0.0071764160830944095
1.39093e-05;-0.007121071214643052
1.39095e-05;-0.007065726346191696
1.39098e-05;-0.0070095533256659855
1.39100e-05;-0.0069508758125136245
1.39103e-05;-0.006892225839629789
1.39105e-05;-0.006833659153864204
1.39108e-05;-0.006775338131922082
1.39110e-05;-0.006718075716718367
1.39113e-05;-0.006662193208003458
1.39115e-05;-0.00660811874260584
1.39118e-05;-0.006556597206828096
1.39120e-05;-0.006508022215303877
1.39123e-05;-0.006461056304468869
1.39125e-05;-0.006418956565975307
1.39128e-05;-0.006378550496138236
1.39130e-05;-0.006343266409076593
1.39133e-05;-0.006309844144453543
1.39135e-05;-0.006282052392284014
1.39138e-05;-0.006254260640114672
1.39140e-05;-0.006228923134731585
1.39143e-05;-0.0062110077480249945
1.39145e-05;-0.006193092361318525
1.39148e-05;-0.006178696632500494
1.39150e-05;-0.006174945032339291
1.39153e-05;-0.006171193432178113
1.39155e-05;-0.006167441832016909
1.39158e-05;-0.006163690231855707
1.39160e-05;-0.0061599386316945285
1.39163e-05;-0.006160111153365473
1.39165e-05;-0.006172150981169271
1.39168e-05;-0.0061841908089729876
1.39170e-05;-0.0061962306367767854
1.39173e-05;-0.006208270464580583
1.39175e-05;-0.0062203102923843
1.39178e-05;-0.006235202979024252
1.39180e-05;-0.006258723264554002
1.39183e-05;-0.006282243550083592
1.39185e-05;-0.006305763835613341
1.39188e-05;-0.006329284121143091
1.39190e-05;-0.006352804406672682
1.39193e-05;-0.006376324692202432
1.39195e-05;-0.006400883226018449
1.39198e-05;-0.006428581624187047
1.39200e-05;-0.006456280022355457
1.39203e-05;-0.006483978420524055
1.39205e-05;-0.006511676818692653
1.39208e-05;-0.006539375216861063
1.39210e-05;-0.006567073615029661
1.39213e-05;-0.006594088344491656
1.39215e-05;-0.0066190355270772825
1.39218e-05;-0.006643982709663079
1.39220e-05;-0.006668053733706331
1.39223e-05;-0.006689475084244917
1.39225e-05;-0.006709898505053863
1.39228e-05;-0.006727303992650852
1.39230e-05;-0.006742737458163483
1.39233e-05;-0.006752207146102195
1.39235e-05;-0.006761676834040907
1.39238e-05;-0.0067685705425781836
1.39240e-05;-0.0067676739893796824
1.39243e-05;-0.006766777436181182
1.39245e-05;-0.0067632868519766735
1.39248e-05;-0.006751951414480145
1.39250e-05;-0.006740615976983616
1.39253e-05;-0.006725636414242775
1.39255e-05;-0.006699636309398204
1.39258e-05;-0.006673636204553635
1.39260e-05;-0.00664763609970924
1.39263e-05;-0.0066216359948646705
1.39265e-05;-0.006591786987064948
1.39268e-05;-0.006550298149614486
1.39270e-05;-0.006508809312163743
1.39273e-05;-0.006467320474713
1.39275e-05;-0.006425831637262539
1.39278e-05;-0.0063819437415641046
1.39280e-05;-0.006330800628040383
1.39283e-05;-0.006279657514516661
1.39285e-05;-0.006227548061571612
1.39288e-05;-0.006172516210637583
1.39290e-05;-0.006117053204071275
1.39293e-05;-0.006060073729965752
1.39295e-05;-0.006002320762588114
1.39298e-05;-0.005944125725861371
1.39300e-05;-0.0058858251771812245
1.39303e-05;-0.0058277554397117345
1.39305e-05;-0.005770250872255742
1.39308e-05;-0.005713627378872622
1.39310e-05;-0.005658160780354691
1.39313e-05;-0.005604125145896932
1.39315e-05;-0.005551851253654082
1.39318e-05;-0.005501708248911962
1.39320e-05;-0.005454069126362065
1.39323e-05;-0.005409730341253005
1.39325e-05;-0.005369044816088997
1.39328e-05;-0.0053298042871561604
1.39330e-05;-0.005294933707317644
1.39333e-05;-0.005261010315999406
1.39335e-05;-0.005229951406627911
1.39338e-05;-0.005200246386885174
1.39340e-05;-0.005174635792185394
1.39343e-05;-0.005149025197485614
1.39345e-05;-0.005125211586020236
1.39348e-05;-0.005106832400671487
1.39350e-05;-0.005088453215322738
1.39353e-05;-0.005071975735657866
1.39355e-05;-0.005061249383125149
1.39358e-05;-0.005050523030592433
1.39360e-05;-0.005039796678059788
1.39363e-05;-0.0050290703255270715
1.39365e-05;-0.005018343972994354
1.39368e-05;-0.005009778470814814
1.39370e-05;-0.00500774779955109
1.39373e-05;-0.005005717128287354
1.39375e-05;-0.005003686457023617
1.39378e-05;-0.005001655785759894
1.39380e-05;-0.004999625114496157
1.39383e-05;-0.004999052482667485
1.39385e-05;-0.005002889245114087
1.39388e-05;-0.005006726007560715
1.39390e-05;-0.005010562770007342
1.39393e-05;-0.005014399532453944
1.39395e-05;-0.0050182362949005715
1.39398e-05;-0.005022073057347199
1.39400e-05;-0.005027706065306949
1.39403e-05;-0.005033942631107769
1.39405e-05;-0.005040179196908589
1.39408e-05;-0.005046415762709367
1.39410e-05;-0.005052652328510187
1.39413e-05;-0.005058888894311007
1.39415e-05;-0.0050648523112069585
1.39418e-05;-0.005069989672793052
1.39420e-05;-0.005075127034379146
1.39423e-05;-0.005080264395965205
1.39425e-05;-0.005085401757551299
1.39428e-05;-0.005090539119137393
1.39430e-05;-0.005095676480723452
1.39433e-05;-0.005100813842309546
1.39435e-05;-0.005107499584901611
1.39438e-05;-0.005114705600190392
1.39440e-05;-0.005121911615479222
1.39443e-05;-0.005129117630768051
1.39445e-05;-0.005136323646056832
1.39448e-05;-0.005143529661345662
1.39450e-05;-0.005150735676634492
1.39453e-05;-0.005159156826096678
1.39455e-05;-0.005171252777172661
1.39458e-05;-0.005183348728248725
1.39460e-05;-0.0051954446793247904
1.39463e-05;-0.005207540630400773
1.39465e-05;-0.005219636581476838
