Time(s);Current(A)
1.00000e-05;0.0036547292979669725
1.00003e-05;0.003696826155181319
1.00005e-05;0.00373892301239538
1.00008e-05;0.0037811577069616943
1.00010e-05;0.0038241110162908114
1.00013e-05;0.0038670643256196375
1.00015e-05;0.003910017634948754
1.00018e-05;0.003952970944277871
1.00020e-05;0.003995924253606698
1.00023e-05;0.004038877562935814
1.00025e-05;0.004081830872264931
1.00028e-05;0.004124784181593758
1.00030e-05;0.00415849677141869
1.00033e-05;0.004187468901906636
1.00035e-05;0.004216441032394387
1.00038e-05;0.0042454131628823335
1.00040e-05;0.004274385293370281
1.00042e-05;0.004303357423858031
1.00045e-05;0.004332329554345978
1.00048e-05;0.004361301684833925
1.00050e-05;0.004388102356023717
1.00053e-05;0.004403582128440375
1.00055e-05;0.004419061900857034
1.00057e-05;0.004434541673273587
1.00060e-05;0.004450021445690245
1.00063e-05;0.004465501218106903
1.00065e-05;0.0044809809905234565
1.00068e-05;0.004496460762940115
1.00070e-05;0.004511940535356773
1.00073e-05;0.004527420307773432
1.00075e-05;0.004542900080189985
1.00078e-05;0.004558379852606643
1.00080e-05;0.004573859625023301
1.00083e-05;0.004589339397439854
1.00085e-05;0.004604819169856512
1.00088e-05;0.00462029894227317
1.00090e-05;0.004635778714689724
1.00093e-05;0.004651258487106382
1.00095e-05;0.00466673825952304
1.00098e-05;0.0046822180319395935
1.00100e-05;0.0046976978043562516
1.00103e-05;0.00471317757677291
1.00105e-05;0.00472310896871579
1.00108e-05;0.004730194059348839
1.00110e-05;0.004737279149981888
1.00113e-05;0.004744364240614888
1.00115e-05;0.004751449331247937
1.00118e-05;0.004758534421880985
1.00120e-05;0.004765619512513986
1.00123e-05;0.004772704603147034
1.00125e-05;0.004779789693780082
1.00127e-05;0.004786874784413083
1.00130e-05;0.004793959875046132
1.00133e-05;0.004801044965679181
1.00135e-05;0.004808130056312181
1.00138e-05;0.00481521514694523
1.00140e-05;0.004822300237578278
1.00142e-05;0.004829385328211279
1.00145e-05;0.004836470418844327
1.00148e-05;0.0048435555094773755
1.00150e-05;0.004850640600110376
1.00153e-05;0.004857725690743425
1.00155e-05;0.004864810781376474
1.00157e-05;0.004871988706457908
1.00160e-05;0.004879650623753802
1.00163e-05;0.004887312541049698
1.00165e-05;0.004894974458345592
1.00168e-05;0.004902636375641436
1.00170e-05;0.004910298292937331
1.00173e-05;0.004917960210233226
1.00175e-05;0.004925622127529069
1.00178e-05;0.0049332840448249645
1.00180e-05;0.00494094596212086
1.00183e-05;0.0049486078794167025
1.00185e-05;0.004956269796712598
1.00188e-05;0.004963931714008493
1.00190e-05;0.004971593631304336
1.00193e-05;0.004979255548600231
1.00195e-05;0.004986917465896127
1.00198e-05;0.004994579383191969
1.00200e-05;0.005002241300487865
1.00203e-05;0.00500990321778376
1.00205e-05;0.005017257369737675
1.00208e-05;0.005023006987686019
1.00210e-05;0.005028756605634363
1.00212e-05;0.005034506223582668
1.00215e-05;0.005040255841531012
1.00218e-05;0.005046005459479356
1.00220e-05;0.00505175507742766
1.00223e-05;0.005057504695376004
1.00225e-05;0.005063254313324349
1.00227e-05;0.0050690039312726535
1.00230e-05;0.005074753549220997
1.00233e-05;0.005080503167169341
1.00235e-05;0.005086252785117646
1.00238e-05;0.005092002403065989
1.00240e-05;0.005097752021014334
1.00242e-05;0.005103501638962639
1.00245e-05;0.0051092512569109825
1.00248e-05;0.005115000874859326
1.00250e-05;0.00512075049280767
1.00253e-05;0.005125437100128088
1.00255e-05;0.005124581703626368
1.00258e-05;0.005123726307124647
1.00260e-05;0.005122870910622932
1.00263e-05;0.0051220155141212115
1.00265e-05;0.005121160117619491
1.00268e-05;0.005120304721117777
1.00270e-05;0.005119449324616056
1.00273e-05;0.005118593928114336
1.00275e-05;0.00511773853161262
1.00278e-05;0.0051168831351109
1.00280e-05;0.0051160277386091794
1.00283e-05;0.005115172342107465
1.00285e-05;0.005114316945605745
1.00288e-05;0.005113461549104024
1.00290e-05;0.005112606152602309
1.00293e-05;0.005111750756100588
1.00295e-05;0.005110895359598868
1.00297e-05;0.0051100399630971535
1.00300e-05;0.005109184566595433
1.00303e-05;0.005107907077062846
1.00305e-05;0.005104429006341838
1.00308e-05;0.0051009509356208065
1.00310e-05;0.0050974728648997755
1.00312e-05;0.005093994794178767
1.00315e-05;0.005090516723457736
1.00318e-05;0.005087038652736704
1.00320e-05;0.005083560582015697
1.00323e-05;0.005080082511294665
1.00325e-05;0.005076604440573633
1.00327e-05;0.005073126369852626
1.00330e-05;0.005069648299131595
1.00333e-05;0.005066170228410563
1.00335e-05;0.005062692157689531
1.00338e-05;0.005059214086968524
1.00340e-05;0.005055736016247492
1.00343e-05;0.005052257945526461
1.00345e-05;0.0050487798748054535
1.00348e-05;0.005045301804084422
1.00350e-05;0.00504182373336339
1.00353e-05;0.00503720438556011
1.00355e-05;0.005026634991925314
1.00358e-05;0.005016065598290518
1.00360e-05;0.005005496204655793
1.00363e-05;0.004994926811020997
1.00365e-05;0.0049843574173862
1.00368e-05;0.004973788023751476
1.00370e-05;0.00496321863011668
1.00373e-05;0.0049526492364818835
1.00375e-05;0.0049420798428471595
1.00378e-05;0.0049315104492123635
1.00380e-05;0.004920941055577567
1.00382e-05;0.004910371661942843
1.00385e-05;0.004899802268308047
1.00388e-05;0.00488923287467325
1.00390e-05;0.004878025591948239
1.00393e-05;0.004863492675700395
1.00395e-05;0.00484895975945255
1.00397e-05;0.004834426843204804
1.00400e-05;0.004819893926956959
1.00403e-05;0.004805361010709114
1.00405e-05;0.004790828094461368
1.00408e-05;0.004776295178213524
1.00410e-05;0.004761762261965678
1.00412e-05;0.004747229345717932
1.00415e-05;0.004732696429470088
1.00418e-05;0.004718163513222243
1.00420e-05;0.004703630596974398
1.00423e-05;0.004689097680726652
1.00425e-05;0.0046745647644788075
1.00428e-05;0.004660263565460518
1.00430e-05;0.00464717042376498
1.00433e-05;0.004634077282069352
1.00435e-05;0.004620984140373724
1.00438e-05;0.004607890998678184
1.00440e-05;0.004594797856982556
1.00443e-05;0.004581704715286929
1.00445e-05;0.00456861157359139
1.00448e-05;0.004555518431895762
1.00450e-05;0.004542425290200134
1.00453e-05;0.004529332148504595
1.00455e-05;0.0045162390068089675
1.00458e-05;0.0045031458651133395
1.00460e-05;0.004488354105942892
1.00463e-05;0.004464706607890038
1.00465e-05;0.004441059109837184
1.00467e-05;0.004417411611784491
1.00470e-05;0.004393764113731637
1.00473e-05;0.004370116615678783
1.00475e-05;0.00434646911762609
1.00478e-05;0.004322821619573236
1.00480e-05;0.004299174121520382
1.00482e-05;0.004275526623467688
1.00485e-05;0.004251879125414835
1.00488e-05;0.004228231627361981
1.00490e-05;0.004204584129309287
1.00493e-05;0.0041801348705009615
1.00495e-05;0.004151505633561683
1.00497e-05;0.004122876396622599
1.00500e-05;0.00409424715968332
1.00503e-05;0.0040656179227440414
1.00505e-05;0.004036988685804763
1.00508e-05;0.0040083594488656785
1.00510e-05;0.0039797302119264
1.00513e-05;0.003951100974987121
1.00515e-05;0.003922471738048037
1.00518e-05;0.0038938425011087584
1.00520e-05;0.0038664839925199404
1.00523e-05;0.0038457504237027038
1.00525e-05;0.0038250168548853267
1.00528e-05;0.0038042832860679496
1.00530e-05;0.003783549717250713
1.00533e-05;0.003762816148433336
1.00535e-05;0.003742082579615959
1.00538e-05;0.0037213490107987223
1.00540e-05;0.003700615441981345
1.00543e-05;0.003679881873163968
1.00545e-05;0.0036591483043467315
1.00548e-05;0.003639390279469877
1.00550e-05;0.0036247182510212254
1.00552e-05;0.003610046222572673
1.00555e-05;0.0035953741941240213
1.00558e-05;0.0035807021656753695
1.00560e-05;0.003566030137226817
1.00563e-05;0.0035513581087781654
1.00565e-05;0.0035366860803295133
1.00567e-05;0.003522014051880961
1.00570e-05;0.003507342023432309
1.00573e-05;0.0034926699949836574
1.00575e-05;0.003477997966535105
1.00578e-05;0.0034633259380864533
1.00580e-05;0.003448653909637801
1.00582e-05;0.0034339818811892488
1.00585e-05;0.003419309852740597
1.00588e-05;0.0034046378242919453
1.00590e-05;0.0033904072769772404
1.00593e-05;0.0033784783906925984
1.00595e-05;0.003366549504407875
1.00598e-05;0.0033546206181231525
1.00600e-05;0.00334269173183851
1.00603e-05;0.0033307628455537873
1.00605e-05;0.003318833959269064
1.00608e-05;0.003306905072984422
1.00610e-05;0.003294976186699699
1.00613e-05;0.0032830473004149758
1.00615e-05;0.0032711184141303337
1.00618e-05;0.003259189527845611
1.00620e-05;0.003247260641560888
1.00623e-05;0.0032353317552762458
1.00625e-05;0.0032234028689915226
1.00628e-05;0.0032114739827067995
1.00630e-05;0.0031995450964221574
1.00633e-05;0.0031901533052653545
1.00635e-05;0.0031939886546090766
1.00637e-05;0.003197824003952773
1.00640e-05;0.0032016593532964953
1.00643e-05;0.003205494702640218
1.00645e-05;0.003209330051983914
1.00648e-05;0.0032131654013276365
1.00650e-05;0.0032170007506713586
1.00652e-05;0.0032208361000150548
1.00655e-05;0.0032246714493587773
1.00658e-05;0.0032335189937116354
1.00660e-05;0.0032684976069688536
1.00663e-05;0.0033034762202263095
1.00665e-05;0.003338454833483765
1.00667e-05;0.0033734334467409835
1.00670e-05;0.003408412059998439
1.00673e-05;0.0034433906732558943
1.00675e-05;0.00347836928651335
1.00678e-05;0.003513347899770569
1.00680e-05;0.0035483265130280242
1.00683e-05;0.0035866667918940695
1.00685e-05;0.003642533107854575
1.00688e-05;0.003698399423815459
1.00690e-05;0.003754265739776343
1.00693e-05;0.0038101320557368487
1.00695e-05;0.0038659983716977328
1.00698e-05;0.003921864687658616
1.00700e-05;0.003980073543646553
1.00703e-05;0.004039484115125433
1.00705e-05;0.004098894686604313
1.00708e-05;0.004158305258082791
1.00710e-05;0.0042177158295616714
1.00713e-05;0.0042771264010405515
1.00715e-05;0.004329976823350939
1.00718e-05;0.004376510595892409
1.00720e-05;0.0018358923089883314
1.00722e-05;-0.021382872517020795
1.00725e-05;-0.015231018111111997
1.00728e-05;-0.010444051762777445
1.00730e-05;-0.004749648861177713
1.00733e-05;0.012834389052559328
1.00735e-05;0.011018646131360265
1.00737e-05;0.009099908762632612
1.00740e-05;0.004204389514027429
1.00743e-05;-0.0020768713514427474
1.00745e-05;-0.0038427993850056984
1.00748e-05;-0.0015374037818402585
1.00750e-05;0.0029807918647308555
1.00752e-05;0.007960549573174875
1.00755e-05;0.009850212980435664
1.00758e-05;0.008807694508028072
1.00760e-05;0.005457947199162697
1.00763e-05;0.0013813957322010538
1.00765e-05;0.00015699092082352434
1.00768e-05;0.0015005018623635024
1.00770e-05;0.004243165600739127
1.00773e-05;0.007284629465875215
1.00775e-05;0.008397751178117144
1.00778e-05;0.007679792030353222
1.00780e-05;0.005521028084230984
1.00783e-05;0.00291054637106375
1.00785e-05;0.002089440261758498
1.00788e-05;0.0028790293991061595
1.00790e-05;0.004546766571499987
1.00793e-05;0.006403144432881047
1.00795e-05;0.00705302427416497
1.00798e-05;0.0065574029036128325
1.00800e-05;0.005160861245017966
1.00803e-05;0.00348307545592769
1.00805e-05;0.0029279158231304988
1.00808e-05;0.0033834741943599414
1.00810e-05;0.004390944696281496
1.00813e-05;0.005518536055179697
1.00815e-05;0.005892521365174816
1.00818e-05;0.005551339611278698
1.00820e-05;0.004648424719693768
1.00822e-05;0.0035721499070145916
1.00825e-05;0.0032020514883959158
1.00828e-05;0.00346814997579871
1.00830e-05;0.004083188311613027
1.00833e-05;0.0047768572789704845
1.00835e-05;0.005002026290447551
1.00837e-05;0.004782840009384506
1.00840e-05;0.0042152981535248735
1.00843e-05;0.0035424850309791994
1.00845e-05;0.0033151367186035506
1.00848e-05;0.0034892060631272655
1.00850e-05;0.0038845538497706204
1.00853e-05;0.004331673360491203
1.00855e-05;0.004487680646661786
1.00858e-05;0.004367553069389284
1.00860e-05;0.004031274740085321
1.00863e-05;0.0036309536225586805
1.00865e-05;0.0035113871823392777
1.00868e-05;0.0036447877993875427
1.00870e-05;0.003918126196823157
1.00873e-05;0.004225042853172002
1.00875e-05;0.0043505901297684665
1.00878e-05;0.0043039937213681856
1.00880e-05;0.004122669038865591
1.00883e-05;0.0039017321051796265
1.00885e-05;0.0038569851960999152
1.00888e-05;0.0039708342871488415
1.00890e-05;0.0041722943692005365
1.00893e-05;0.004394564869979074
1.00895e-05;0.004502834849515637
1.00898e-05;0.00450272080480886
1.00900e-05;0.00441749699243696
1.00903e-05;0.0043065760611904124
1.00905e-05;0.004304960405895899
1.00907e-05;0.00440144734353351
1.00910e-05;0.004551392834172738
1.00913e-05;0.004712778029257733
1.00915e-05;0.004800988221521056
1.00918e-05;0.004819375650004984
1.00920e-05;0.004782352431543482
1.00922e-05;0.004726966457105574
1.00925e-05;0.004737607757235805
1.00928e-05;0.004807081921139816
1.00930e-05;0.004907247236426946
1.00933e-05;0.005011612694428186
1.00935e-05;0.005067124291542473
1.00938e-05;0.0050762209060179735
1.00940e-05;0.00504858965300651
1.00943e-05;0.005007919172557467
1.00945e-05;0.005007241083214183
1.00948e-05;0.005042125048486314
1.00950e-05;0.0050950211513363965
1.00953e-05;0.0051494141762485025
1.00955e-05;0.005172152482368726
1.00958e-05;0.005164846974706058
1.00960e-05;0.005133648182289392
1.00963e-05;0.005093476454803336
1.00965e-05;0.005077629701812665
1.00968e-05;0.005083411056708121
1.00970e-05;0.005096697673889516
1.00973e-05;0.005110140849592849
1.00975e-05;0.0051135554270875004
1.00978e-05;0.00508933884844908
1.00980e-05;0.005051192341454031
1.00983e-05;0.005013045834458983
1.00985e-05;0.004981747012869515
1.00988e-05;0.004967089396584539
1.00990e-05;0.004957289399572696
1.00992e-05;0.00494748940256092
1.00995e-05;0.004931576058938083
1.00998e-05;0.004898982321840156
1.01000e-05;0.004858238511405204
1.01003e-05;0.004817494700969976
1.01005e-05;0.004781402288777667
1.01007e-05;0.004756973229267055
1.01010e-05;0.004736595580893611
1.01013e-05;0.004716217932520165
1.01015e-05;0.00469257992636121
1.01018e-05;0.0046603744463398
1.01020e-05;0.004624509213991358
1.01023e-05;0.004588643981642916
1.01025e-05;0.004556470078531543
1.01028e-05;0.004534125345275237
1.01030e-05;0.0045161942813053075
1.01033e-05;0.004498263217335499
1.01035e-05;0.00447873290880222
1.01038e-05;0.004455858695047089
1.01040e-05;0.004433902567993945
1.01043e-05;0.004413866094123668
1.01045e-05;0.0043938296202533905
1.01048e-05;0.004373793146383249
1.01050e-05;0.004353756672512972
1.01053e-05;0.004333720198642694
1.01055e-05;0.004315139851590522
1.01058e-05;0.004296871535960996
1.01060e-05;0.004278603220331471
1.01063e-05;0.004260334904702069
1.01065e-05;0.004242066589072543
1.01068e-05;0.004224393931879067
1.01070e-05;0.004207966753582828
1.01073e-05;0.0041915395752864775
1.01075e-05;0.0041751123969901265
1.01077e-05;0.004158685218693887
1.01080e-05;0.004142258040397536
1.01083e-05;0.004125830862101186
1.01085e-05;0.004109403683804947
1.01088e-05;0.004092976505508596
1.01090e-05;0.004076549327212246
1.01092e-05;0.004060122148916006
1.01095e-05;0.004043694970619655
1.01098e-05;0.004027267792323304
1.01100e-05;0.004010840614026954
1.01103e-05;0.003994413435730714
1.01105e-05;0.003977986257434364
1.01108e-05;0.003964335360968492
1.01110e-05;0.003951279390136356
1.01113e-05;0.003938223419304131
1.01115e-05;0.003925167448471906
1.01118e-05;0.00391211147763977
1.01120e-05;0.003899055506807545
1.01123e-05;0.00388599953597532
1.01125e-05;0.0038729435651431838
1.01128e-05;0.0038598875943109587
1.01130e-05;0.003846831623478734
1.01133e-05;0.0038337756526465976
1.01135e-05;0.003820719681814373
1.01138e-05;0.003807663710982148
1.01140e-05;0.0037946077401500118
1.01143e-05;0.0037815517693177867
1.01145e-05;0.003767087434228514
1.01148e-05;0.0037496783108915926
1.01150e-05;0.003732269187554553
1.01153e-05;0.003714860064217513
1.01155e-05;0.003697450940880592
1.01158e-05;0.003680041817543552
1.01160e-05;0.0036626326942065125
1.01162e-05;0.0036452235708695907
1.01165e-05;0.0036278144475325514
1.01168e-05;0.0036104053241955117
1.01170e-05;0.00359299620085859
1.01173e-05;0.0035755870775215507
1.01175e-05;0.003558177954184511
1.01177e-05;0.003538084474292442
1.01180e-05;0.003512378198138153
1.01183e-05;0.0034866719219838645
1.01185e-05;0.0034609656458295755
1.01188e-05;0.003435259369675461
1.01190e-05;0.0034095530935211718
1.01193e-05;0.003383846817366883
1.01195e-05;0.0033581405412127685
1.01198e-05;0.0033324342650584795
1.01200e-05;0.0033067279889041905
1.01203e-05;0.003281021712750076
1.01205e-05;0.0032553154365957872
1.01208e-05;0.0032296091604414982
1.01210e-05;0.003204670731849175
1.01213e-05;0.003181337817217541
1.01215e-05;0.0031580049025859065
1.01218e-05;0.0031346719879544304
1.01220e-05;0.003111339073322796
1.01223e-05;0.0030880061586911617
1.01225e-05;0.003064673244059685
1.01228e-05;0.003041340329428051
1.01230e-05;0.0030180074147964165
1.01233e-05;0.0029946745001649404
1.01235e-05;0.0029827426707008478
1.01238e-05;0.0029732539641748375
1.01240e-05;0.002963765257648892
1.01243e-05;0.0029542765511228817
1.01245e-05;0.0029447878445968715
1.01247e-05;0.0029352991380709255
1.01250e-05;0.0029258104315449153
1.01253e-05;0.0029163217250189055
1.01255e-05;0.0029068330184929595
1.01258e-05;0.0029035868182531897
1.01260e-05;0.002913393249151803
1.01262e-05;0.0029231996800503503
1.01265e-05;0.0029330061109489637
1.01268e-05;0.002942812541847577
1.01270e-05;0.0029526189727461906
1.01273e-05;0.0029624254036447373
1.01275e-05;0.0029722318345433507
1.01278e-05;0.002982038265441964
1.01280e-05;0.0029918446963405113
1.01283e-05;0.003005994954883869
1.01285e-05;0.0030292278442455643
1.01288e-05;0.0030524607336071025
1.01290e-05;0.0030756936229687976
1.01293e-05;0.003098926512330493
1.01295e-05;0.003122159401692031
1.01298e-05;0.003145392291053726
1.01300e-05;0.0031686251804154213
1.01303e-05;0.003191858069776959
1.01305e-05;0.0032150909591386547
1.01308e-05;0.003237895929728217
1.01310e-05;0.0032598061529782742
1.01313e-05;0.00328171637622848
1.01315e-05;0.0033036265994786855
1.01318e-05;0.003325536822728743
1.01320e-05;0.0033474470459789484
1.01323e-05;0.0033693572692291545
1.01325e-05;0.0033912674924792114
1.01328e-05;0.003413177715729417
1.01330e-05;0.003435087938979623
1.01332e-05;0.00345699816222968
1.01335e-05;0.003478908385479886
1.01338e-05;0.0035008186087300917
1.01340e-05;0.0035185193102385175
1.01343e-05;0.003527418204899265
1.01345e-05;0.003536317099560013
1.01347e-05;0.003545215994220701
1.01350e-05;0.003554114888881449
1.01353e-05;0.0035630137835421967
1.01355e-05;0.0035719126782029448
1.01358e-05;0.0035808115728636325
1.01360e-05;0.0035897104675243806
1.01363e-05;0.0035986093621851283
1.01365e-05;0.003607508256845816
1.01368e-05;0.003616407151506564
1.01370e-05;0.003625306046167312
1.01373e-05;0.0036312324771532794
1.01375e-05;0.0036309437006321076
1.01378e-05;0.0036306549241109354
1.01380e-05;0.0036303661475897654
1.01383e-05;0.0036300773710685936
1.01385e-05;0.003629788594547422
1.01388e-05;0.0036294998180262518
1.01390e-05;0.0036292110415050796
1.01393e-05;0.003628922264983908
1.01395e-05;0.0036286334884627377
1.01398e-05;0.003628344711941566
1.01400e-05;0.0036280559354203937
1.01403e-05;0.0036277671588992237
1.01405e-05;0.003627478382378052
1.01408e-05;0.0036271896058568797
1.01410e-05;0.00362690082933571
1.01413e-05;0.003626612052814538
1.01415e-05;0.003626323276293366
1.01417e-05;0.0036243324844644556
1.01420e-05;0.003621976970104128
1.01423e-05;0.0036196214557438007
1.01425e-05;0.003617265941383489
1.01428e-05;0.0036149104270231614
1.01430e-05;0.0036125549126628342
1.01432e-05;0.0036101993983025226
1.01435e-05;0.003607843883942195
1.01438e-05;0.0036054883695818677
1.01440e-05;0.00360313285522154
1.01443e-05;0.0036007773408612284
1.01445e-05;0.003598421826500901
1.01448e-05;0.0035960663121405736
1.01450e-05;0.003593710797780262
1.01453e-05;0.0035913552834199343
1.01455e-05;0.003588999769059607
1.01458e-05;0.0035866442546992955
1.01460e-05;0.0035842909140638684
1.01463e-05;0.0035819421185306873
1.01465e-05;0.003579593322997522
1.01468e-05;0.0035772445274643407
1.01470e-05;0.0035748957319311596
1.01473e-05;0.0035725469363979945
1.01475e-05;0.0035701981408648134
1.01478e-05;0.003567849345331632
1.01480e-05;0.003565500549798467
1.01483e-05;0.0035631517542652857
1.01485e-05;0.0035608029587321046
1.01488e-05;0.003558454163198939
1.01490e-05;0.003556105367665758
1.01493e-05;0.003553756572132577
1.01495e-05;0.0035514077765994114
1.01498e-05;0.0035490589810662303
