Time(s);Current(A)
1.75000e-06;-0.008669693140582125
1.75025e-06;-0.008626673604630809
1.75050e-06;-0.008583654068679492
1.75075e-06;-0.00854063453272814
1.75100e-06;-0.008497614996776823
1.75125e-06;-0.008463360141962493
1.75150e-06;-0.008433724642730976
1.75175e-06;-0.008404089143499433
1.75200e-06;-0.008374453644267916
1.75225e-06;-0.008344818145036398
1.75250e-06;-0.008315182645804857
1.75275e-06;-0.00828554714657334
1.75300e-06;-0.008255911647341796
1.75325e-06;-0.008239370185912602
1.75350e-06;-0.008229729833112114
1.75375e-06;-0.008220089480311617
1.75400e-06;-0.008210449127511128
1.75425e-06;-0.008200808774710633
1.75450e-06;-0.008191168421910144
1.75475e-06;-0.008181528069109656
1.75500e-06;-0.008171887716309159
1.75525e-06;-0.008174266628551053
1.75550e-06;-0.008182980198974484
1.75575e-06;-0.008191693769397908
1.75600e-06;-0.00820040733982134
1.75625e-06;-0.008209120910244764
1.75650e-06;-0.008217834480668188
1.75675e-06;-0.00822654805109162
1.75700e-06;-0.008235261621515045
1.75725e-06;-0.008251972667053261
1.75750e-06;-0.00827289871833334
1.75775e-06;-0.008293824769613418
1.75800e-06;-0.008314750820893514
1.75825e-06;-0.008335676872173594
1.75850e-06;-0.00835660292345369
1.75875e-06;-0.008377528974733768
1.75900e-06;-0.008398455026013848
1.75925e-06;-0.008419724096124395
1.75950e-06;-0.008442865161188992
1.75975e-06;-0.008466006226253608
1.76000e-06;-0.008489147291318206
1.76025e-06;-0.008512288356382822
1.76050e-06;-0.008535429421447421
1.76075e-06;-0.008558570486512018
1.76100e-06;-0.008581711551576634
1.76125e-06;-0.008604852616641233
1.76150e-06;-0.008624652399721646
1.76175e-06;-0.008642691186669374
1.76200e-06;-0.0086607299736171
1.76225e-06;-0.00867115014358141
1.76250e-06;-0.008677554981973123
1.76275e-06;-0.00868395982036484
1.76300e-06;-0.008690364658756554
1.76325e-06;-0.008696769497148267
1.76350e-06;-0.008703174335539984
1.76375e-06;-0.008709579173931697
1.76400e-06;-0.008702627668804426
1.76425e-06;-0.008688636808904223
1.76450e-06;-0.008674645949004021
1.76475e-06;-0.008660655089103807
1.76500e-06;-0.008646664229203606
1.76525e-06;-0.008632673369303392
1.76550e-06;-0.008618682509403189
1.76575e-06;-0.008594200207823977
1.76600e-06;-0.008564188475233055
1.76625e-06;-0.008534176742642131
1.76650e-06;-0.008508818042299852
1.76675e-06;-0.008484741049375334
1.76700e-06;-0.008460664056450795
1.76725e-06;-0.008423134864039944
1.76750e-06;-0.02672501048041958
1.76775e-06;-0.06663213114668017
1.76800e-06;-0.02461298396661183
1.76825e-06;-0.007255212879506062
1.76850e-06;0.0067668573610989696
1.76875e-06;0.015683522169144787
1.76900e-06;0.00756842713420284
1.76925e-06;-0.004230377765054187
1.76950e-06;-0.01669504043309329
1.76975e-06;-0.025070269610055197
1.77000e-06;-0.017181244824891008
1.77025e-06;-0.006476440452492049
1.77050e-06;0.002237974341389158
1.77075e-06;0.007784242757598078
1.77100e-06;0.002671342919102624
1.77125e-06;-0.004745416270413592
1.77150e-06;-0.01257766433740305
1.77175e-06;-0.01784761465319469
1.77200e-06;-0.012929946931070368
1.77225e-06;-0.0062492848233609705
1.77250e-06;-0.0008154184807177649
1.77275e-06;0.002635160209563231
1.77300e-06;-0.000589084331149521
1.77325e-06;-0.005254112223054419
1.77350e-06;-0.010177093595387142
1.77375e-06;-0.01349292428446087
1.77400e-06;-0.010425588481244301
1.77425e-06;-0.006252708286344902
1.77450e-06;-0.0028597277604984154
1.77475e-06;-0.0007079891985601865
1.77500e-06;-0.0027361094817773286
1.77525e-06;-0.005665350900163026
1.77550e-06;-0.008754828123433133
1.77575e-06;-0.010836362884513335
1.77600e-06;-0.008918576051863596
1.77625e-06;-0.006307652654410942
1.77650e-06;-0.004184717173041019
1.77675e-06;-0.002838767739105227
1.77700e-06;-0.004110464698994648
1.77725e-06;-0.0059459330974286
1.77750e-06;-0.007881118135874436
1.77775e-06;-0.009184362877312731
1.77800e-06;-0.007982075668814608
1.77825e-06;-0.006345441817404449
1.77850e-06;-0.005014379187953628
1.77875e-06;-0.004169936909155731
1.77900e-06;-0.004965060214418047
1.77925e-06;-0.0061131684753367435
1.77950e-06;-0.0073236113907455425
1.77975e-06;-0.008138147458438594
1.78000e-06;-0.007383302316308552
1.78025e-06;-0.006356596696603747
1.78050e-06;-0.005521566708839954
1.78075e-06;-0.004991645912555142
1.78100e-06;-0.005489024658313474
1.78125e-06;-0.006207779070465182
1.78150e-06;-0.006965880074199589
1.78175e-06;-0.007476339390346958
1.78200e-06;-0.007004219953360274
1.78225e-06;-0.006362621745924516
1.78250e-06;-0.005842684582742661
1.78275e-06;-0.005516336270486558
1.78300e-06;-0.005836216310134129
1.78325e-06;-0.006297339998406984
1.78350e-06;-0.006785525602918855
1.78375e-06;-0.00712085700474219
1.78400e-06;-0.006842853782699222
1.78425e-06;-0.006460720320455714
1.78450e-06;-0.006156674054438952
1.78475e-06;-0.0059756084113088016
1.78500e-06;-0.006200877780963209
1.78525e-06;-0.006515983918278973
1.78550e-06;-0.006849243427886376
1.78575e-06;-0.00708780658488811
1.78600e-06;-0.006943096056601277
1.78625e-06;-0.006733941586281378
1.78650e-06;-0.006574329991922143
1.78675e-06;-0.006492220592075053
1.78700e-06;-0.006664934834935863
1.78725e-06;-0.006894049419190638
1.78750e-06;-0.007134502745447713
1.78775e-06;-0.007315451679887675
1.78800e-06;-0.007255988563344059
1.78825e-06;-0.007155684638079985
1.78850e-06;-0.007085784773463189
1.78875e-06;-0.00706364268503073
1.78900e-06;-0.007200165962991096
1.78925e-06;-0.007370895806019756
1.78950e-06;-0.0075474477356303055
1.78975e-06;-0.0076852894449920784
1.79000e-06;-0.007670951873824762
1.79025e-06;-0.007629297422307436
1.79050e-06;-0.007604796859694478
1.79075e-06;-0.007608160600422456
1.79100e-06;-0.007708697617472935
1.79125e-06;-0.007828283924780513
1.79150e-06;-0.00794898131627561
1.79175e-06;-0.008042738187036463
1.79200e-06;-0.008038373752772148
1.79225e-06;-0.008014414495003858
1.79250e-06;-0.008000050615543482
1.79275e-06;-0.008003695630133482
1.79300e-06;-0.008069493198903549
1.79325e-06;-0.008148487355247038
1.79350e-06;-0.008229367874713034
1.79375e-06;-0.008294489387855816
1.79400e-06;-0.008299193993865741
1.79425e-06;-0.008292599263087203
1.79450e-06;-0.008292915661548623
1.79475e-06;-0.008305338856201362
1.79500e-06;-0.008357444380896526
1.79525e-06;-0.00841848965586005
1.79550e-06;-0.008481314447619775
1.79575e-06;-0.008534792111434087
1.79600e-06;-0.00855087764523237
1.79625e-06;-0.008560264741141374
1.79650e-06;-0.00857428691578841
1.79675e-06;-0.008596123317643868
1.79700e-06;-0.008642972073936757
1.79725e-06;-0.008695499156542679
1.79750e-06;-0.0087491454037735
1.79775e-06;-0.008796867657998196
1.79800e-06;-0.008821023964068987
1.79825e-06;-0.008840768800575759
1.79850e-06;-0.008863126602660436
1.79875e-06;-0.008890013689484087
1.79900e-06;-0.008932128264330645
1.79925e-06;-0.008977284333780469
1.79950e-06;-0.009020715224382326
1.79975e-06;-0.00905616648384638
1.80000e-06;-0.00908883009452096
1.80025e-06;-0.009110645544398712
1.80050e-06;-0.009134251621611288
1.80075e-06;-0.009161777791626623
1.80100e-06;-0.009190593426266946
1.80125e-06;-0.00922433033668539
1.80150e-06;-0.009255668321887272
1.80175e-06;-0.009280486205855646
1.80200e-06;-0.009303109392139889
1.80225e-06;-0.009316642429446357
1.80250e-06;-0.009328004549913322
1.80275e-06;-0.009336893092565452
1.80300e-06;-0.00934527901980506
1.80325e-06;-0.009350742363682435
1.80350e-06;-0.009350370976641542
1.80375e-06;-0.009341487090602285
1.80400e-06;-0.009330210199864688
1.80425e-06;-0.009308591028338111
1.80450e-06;-0.009282367087106252
1.80475e-06;-0.009251344732145785
1.80500e-06;-0.009219287315882257
1.80525e-06;-0.00918213025365374
1.80550e-06;-0.009139156044106752
1.80575e-06;-0.00908878266869095
1.80600e-06;-0.009036488135445907
1.80625e-06;-0.008975404872343974
1.80650e-06;-0.008909671193704984
1.80675e-06;-0.008843237530704645
1.80700e-06;-0.008773395893431072
1.80725e-06;-0.008700111424396502
1.80750e-06;-0.008623129231701361
1.80775e-06;-0.008544572214902787
1.80800e-06;-0.008459772500516324
1.80825e-06;-0.008374276272610233
1.80850e-06;-0.008286019023165435
1.80875e-06;-0.008197686822299542
1.80900e-06;-0.008109057509486185
1.80925e-06;-0.008020405495491522
1.80950e-06;-0.007931663492646637
1.80975e-06;-0.007842893582357773
1.81000e-06;-0.007754013045279989
1.81025e-06;-0.007665631699676171
1.81050e-06;-0.007579671383143047
1.81075e-06;-0.00749620806334667
1.81100e-06;-0.007416379739797143
1.81125e-06;-0.007340031581278114
1.81150e-06;-0.007267961250813441
1.81175e-06;-0.007200858527989821
1.81200e-06;-0.007135741642601053
1.81225e-06;-0.007078496736399095
1.81250e-06;-0.0070234218567627954
1.81275e-06;-0.006976949093120087
1.81300e-06;-0.006932653860565858
1.81325e-06;-0.006896990492385433
1.81350e-06;-0.006863478436367057
1.81375e-06;-0.006838494311319114
1.81400e-06;-0.0068157344799171645
1.81425e-06;-0.00680179188248324
1.81450e-06;-0.006790041965893114
1.81475e-06;-0.006786983968219364
1.81500e-06;-0.006785976440682924
1.81525e-06;-0.0067930971002577905
1.81550e-06;-0.006802104818986636
1.81575e-06;-0.006818592953847643
1.81600e-06;-0.006836866977515019
1.81625e-06;-0.006862220371963797
1.81650e-06;-0.006889192961006898
1.81675e-06;-0.006922584134935874
1.81700e-06;-0.0069573584393148175
1.81725e-06;-0.0069976155560945025
1.81750e-06;-0.007039006606264906
1.81775e-06;-0.007084892636685567
1.81800e-06;-0.007131702426956101
1.81825e-06;-0.007182174056903525
1.81850e-06;-0.007233318232801027
1.81875e-06;-0.007287128421347849
1.81900e-06;-0.007341316462616145
1.81925e-06;-0.007397002334828244
1.81950e-06;-0.007452763252268006
1.81975e-06;-0.007508821653509905
1.82000e-06;-0.007564676729088023
1.82025e-06;-0.007619725809489682
1.82050e-06;-0.007674072028796188
1.82075e-06;-0.007725632064392479
1.82100e-06;-0.00777719209998877
1.82125e-06;-0.007827242069259338
1.82150e-06;-0.007871306044672977
1.82175e-06;-0.007915370020086654
1.82200e-06;-0.007957587820360908
1.82225e-06;-0.007992487271199503
1.82250e-06;-0.00802738672203807
1.82275e-06;-0.008061360239842054
1.82300e-06;-0.00809166330333406
1.82325e-06;-0.008121966366826041
1.82350e-06;-0.008151156321978005
1.82375e-06;-0.008175933848634792
1.82400e-06;-0.008200711375291578
1.82425e-06;-0.008224492801625882
1.82450e-06;-0.008244325626293177
1.82475e-06;-0.008264158450960488
1.82500e-06;-0.008283434690188914
1.82525e-06;-0.008300504591218182
1.82550e-06;-0.008317574492247466
1.82575e-06;-0.008333457295492317
1.82600e-06;-0.008344634371628691
1.82625e-06;-0.008355811447765057
1.82650e-06;-0.008366988523901431
1.82675e-06;-0.008378165600037797
1.82700e-06;-0.008389342676174161
1.82725e-06;-0.008400519752310537
1.82750e-06;-0.008411696828446901
1.82775e-06;-0.008422873904583275
1.82800e-06;-0.008430348836512919
1.82825e-06;-0.008436248052835256
1.82850e-06;-0.0084421472691576
1.82875e-06;-0.008448046485479936
1.82900e-06;-0.008453945701802279
1.82925e-06;-0.008459844918124616
1.82950e-06;-0.008465744134446954
1.82975e-06;-0.008471643350769296
1.83000e-06;-0.008477006418601891
1.83025e-06;-0.008480244161532544
1.83050e-06;-0.008483481904463195
1.83075e-06;-0.008486719647393849
1.83100e-06;-0.008489775780873426
1.83125e-06;-0.00849211200355185
1.83150e-06;-0.008494448226230274
1.83175e-06;-0.008496784448908697
1.83200e-06;-0.00849850820872242
1.83225e-06;-0.00849780412885601
1.83250e-06;-0.008497100048989601
1.83275e-06;-0.008494337978828434
1.83300e-06;-0.008483417911200209
1.83325e-06;-0.008472497843571975
1.83350e-06;-0.008459534919769907
1.83375e-06;-0.008438473991067553
1.83400e-06;-0.008417413062365181
1.83425e-06;-0.00839303742006601
1.83450e-06;-0.008355522053446697
1.83475e-06;-0.008318006686827417
1.83500e-06;-0.008280491320208104
1.83525e-06;-0.008242975953588824
1.83550e-06;-0.008205460586969544
1.83575e-06;-0.008153825585960906
1.83600e-06;-0.008096180951876635
1.83625e-06;-0.008038536317792312
1.83650e-06;-0.00798089168370804
1.83675e-06;-0.007923247049623768
1.83700e-06;-0.007862745528998849
1.83725e-06;-0.007790919138076786
1.83750e-06;-0.007719092747154662
1.83775e-06;-0.0076472663562326
1.83800e-06;-0.007575439965310537
1.83825e-06;-0.007499125942488713
1.83850e-06;-0.007420901882880458
1.83875e-06;-0.007342677823272137
1.83900e-06;-0.007264453763663882
1.83925e-06;-0.007186008497823908
1.83950e-06;-0.0071066863571600455
1.83975e-06;-0.007027600421350434
1.84000e-06;-0.0069497282017309085
1.84025e-06;-0.0068732941043986116
1.84050e-06;-0.006798586825273728
1.84075e-06;-0.006725864546364098
1.84100e-06;-0.006655523255075936
1.84125e-06;-0.006588057684794922
1.84150e-06;-0.0065244016500283835
1.84175e-06;-0.0064654724469501825
1.84200e-06;-0.006408369141165767
1.84225e-06;-0.006358503802214418
1.84250e-06;-0.006310250997593703
1.84275e-06;-0.006268390376171174
1.84300e-06;-0.006228079907733748
1.84325e-06;-0.006193914339083979
1.84350e-06;-0.0061619047260201365
1.84375e-06;-0.0061384414507365415
1.84400e-06;-0.0061149781754529665
1.84425e-06;-0.006095138599699775
1.84450e-06;-0.006089663587114254
1.84475e-06;-0.006084188574528729
1.84500e-06;-0.0060787135619432085
1.84525e-06;-0.006073238549357688
1.84550e-06;-0.006067763536772163
1.84575e-06;-0.006066314997708037
1.84600e-06;-0.006080827642167853
1.84625e-06;-0.006095340286627657
1.84650e-06;-0.006109852931087461
1.84675e-06;-0.006124365575547277
1.84700e-06;-0.006138878220007081
1.84725e-06;-0.006156244331770447
1.84750e-06;-0.006184921759768405
1.84775e-06;-0.0062135991877663626
1.84800e-06;-0.006242276615764345
1.84825e-06;-0.006270954043762302
1.84850e-06;-0.0062996314717602845
1.84875e-06;-0.006328308899758242
1.84900e-06;-0.006361012156104839
1.84925e-06;-0.00639542889528896
1.84950e-06;-0.006429845634473081
1.84975e-06;-0.00646426237365723
1.85000e-06;-0.006498679112841351
1.85025e-06;-0.0065330958520255005
1.85050e-06;-0.006567087173764358
1.85075e-06;-0.0065993921151304745
1.85100e-06;-0.006631697056496618
1.85125e-06;-0.006661820401823883
1.85150e-06;-0.0066832957690719594
1.85175e-06;-0.006704771136320018
1.85200e-06;-0.006726246503568076
1.85225e-06;-0.006747721870816153
1.85250e-06;-0.006769197238064211
1.85275e-06;-0.0067906726053122875
1.85300e-06;-0.006812147972560346
1.85325e-06;-0.006833623339808422
1.85350e-06;-0.0068516181510862645
1.85375e-06;-0.006855815828890628
1.85400e-06;-0.006860013506694997
1.85425e-06;-0.0068642111844993605
1.85450e-06;-0.006868408862303728
1.85475e-06;-0.006872606540108092
1.85500e-06;-0.0068768042179124566
1.85525e-06;-0.006881001895716824
1.85550e-06;-0.006885199573521188
1.85575e-06;-0.0068866339119160284
1.85600e-06;-0.006877114206476713
1.85625e-06;-0.006867594501037398
1.85650e-06;-0.006858074795598074
1.85675e-06;-0.006848555090158758
1.85700e-06;-0.0068390353847194345
1.85725e-06;-0.006829515679280119
1.85750e-06;-0.006819995973840795
1.85775e-06;-0.00681047626840148
1.85800e-06;-0.006796048628004493
1.85825e-06;-0.006779532060413121
1.85850e-06;-0.006763015492821763
1.85875e-06;-0.0067464989252303915
1.85900e-06;-0.006729982357639034
1.85925e-06;-0.006713465790047676
1.85950e-06;-0.006696949222456304
1.85975e-06;-0.006680432654864946
1.86000e-06;-0.006663782096857304
1.86025e-06;-0.0066466003927703856
1.86050e-06;-0.006629418688683467
1.86075e-06;-0.006612236984596533
1.86100e-06;-0.006596363882370869
1.86125e-06;-0.006581047750446978
1.86150e-06;-0.0065657316185231
1.86175e-06;-0.006550930060111625
1.86200e-06;-0.006538168302092098
1.86225e-06;-0.006525406544072571
1.86250e-06;-0.0065122564582683635
1.86275e-06;-0.0064975670177398115
1.86300e-06;-0.006482877577211247
1.86325e-06;-0.006467502598527357
1.86350e-06;-0.006449410105311161
1.86375e-06;-0.006431317612094948
1.86400e-06;-0.006412137979314082
1.86425e-06;-0.0063886488598290415
1.86450e-06;-0.006365159740344021
1.86475e-06;-0.006341670620859
1.86500e-06;-0.00631818150137396
1.86525e-06;-0.006294692381888939
1.86550e-06;-0.00626952654876883
1.86575e-06;-0.006237714121824256
1.86600e-06;-0.006205901694879655
1.86625e-06;-0.006174089267935082
1.86650e-06;-0.006142276840990508
1.86675e-06;-0.006110464414045907
1.86700e-06;-0.006077467592048381
1.86725e-06;-0.006039775756734314
1.86750e-06;-0.006002083921420279
1.86775e-06;-0.005964392086106243
1.86800e-06;-0.005926700250792175
1.86825e-06;-0.005888600582188013
1.86850e-06;-0.005848884237861245
1.86875e-06;-0.005809167893534511
1.86900e-06;-0.005769451549207776
1.86925e-06;-0.005729735204881008
1.86950e-06;-0.005690118877081538
1.86975e-06;-0.005650899020819298
1.87000e-06;-0.005611996840386752
1.87025e-06;-0.00557435394607398
1.87050e-06;-0.005537112074696958
1.87075e-06;-0.005501459882387459
1.87100e-06;-0.005466354816691399
1.87125e-06;-0.005433418593840123
1.87150e-06;-0.005402576767153538
1.87175e-06;-0.005380037252992247
1.87200e-06;-0.005357497738830956
1.87225e-06;-0.0053349582246696465
1.87250e-06;-0.0053124187105083555
1.87275e-06;-0.005289879196347046
1.87300e-06;-0.005267339682185755
1.87325e-06;-0.005244800168024465
1.87350e-06;-0.005222260653863155
1.87375e-06;-0.005199721139701864
1.87400e-06;-0.005177181625540555
1.87425e-06;-0.005163070968211831
1.87450e-06;-0.005152547821395159
1.87475e-06;-0.005142024674578497
1.87500e-06;-0.0051315015277618335
1.87525e-06;-0.005120978380945162
1.87550e-06;-0.005110455234128499
1.87575e-06;-0.005099932087311828
1.87600e-06;-0.0050894089404951645
1.87625e-06;-0.005078885793678501
1.87650e-06;-0.00506836264686183
1.87675e-06;-0.005059168223450062
1.87700e-06;-0.005055240939633191
1.87725e-06;-0.005051313655816323
1.87750e-06;-0.005047386371999456
1.87775e-06;-0.0050434590881825855
1.87800e-06;-0.005039531804365718
1.87825e-06;-0.005035604520548847
1.87850e-06;-0.0050316772367319795
1.87875e-06;-0.005027749952915112
1.87900e-06;-0.005024407333960033
1.87925e-06;-0.005023382361726525
1.87950e-06;-0.0050223573894930176
1.87975e-06;-0.00502133241725951
1.88000e-06;-0.005020307445026002
1.88025e-06;-0.005019282472792494
1.88050e-06;-0.005018257500558987
1.88075e-06;-0.005017232528325479
1.88100e-06;-0.005016207556091972
1.88125e-06;-0.005015259046607174
1.88150e-06;-0.00501460932496237
1.88175e-06;-0.005013937713865677
1.88200e-06;-0.005013304078743149
1.88225e-06;-0.00501329024070765
1.88250e-06;-0.005015725036240661
1.88275e-06;-0.005022766142475814
1.88300e-06;-0.005035187852445516
1.88325e-06;-0.005052764460246829
1.88350e-06;-0.005075626859846256
1.88375e-06;-0.005103889706018136
1.88400e-06;-0.005133929857699293
1.88425e-06;-0.0051710153554511565
1.88450e-06;-0.005211125472935088
1.88475e-06;-0.005263225365183798
1.88500e-06;-0.005315325257432552
1.88525e-06;-0.00537079952707793
1.88550e-06;-0.005439650031933303
1.88575e-06;-0.005508500536788617
1.88600e-06;-0.005580084470257987
1.88625e-06;-0.005662503879364232
1.88650e-06;-0.005744923288470407
1.88675e-06;-0.0058296807472814705
1.88700e-06;-0.005923706375922718
1.88725e-06;-0.006019183613784891
1.88750e-06;-0.006120415118016668
1.88775e-06;-0.006222614987105878
1.88800e-06;-0.006328653512806538
1.88825e-06;-0.0064353777173723654
1.88850e-06;-0.0065448199942526025
1.88875e-06;-0.006654751425307849
1.88900e-06;-0.0067666218929706605
1.88925e-06;-0.006878545267519128
1.88950e-06;-0.006990530341436252
1.88975e-06;-0.007101642893849182
1.89000e-06;-0.007211209371287174
1.89025e-06;-0.007318638034065837
1.89050e-06;-0.007423527654096287
1.89075e-06;-0.007525528018599602
1.89100e-06;-0.007623598478428159
1.89125e-06;-0.007716560769519839
1.89150e-06;-0.007806046191758357
1.89175e-06;-0.007881749096482007
1.89200e-06;-0.007957452001205591
1.89225e-06;-0.00803315490592924
1.89250e-06;-0.008104760223959622
1.89275e-06;-0.008160122461577043
1.89300e-06;-0.008215484699194416
1.89325e-06;-0.00827084693681179
1.89350e-06;-0.008320387974052091
1.89375e-06;-0.008346853422438618
1.89400e-06;-0.008373318870825168
1.89425e-06;-0.008399784319211696
1.89450e-06;-0.008426249767598223
1.89475e-06;-0.008452715215984773
1.89500e-06;-0.0084791806643713
1.89525e-06;-0.00850564611275785
1.89550e-06;-0.008532111561144378
1.89575e-06;-0.008537153299710493
1.89600e-06;-0.008533076626882992
1.89625e-06;-0.008528999954055497
1.89650e-06;-0.008524923281227996
1.89675e-06;-0.0085208466084005
