Time(s);Current(A)
1.27500e-05;-0.0006766231278170176
1.27503e-05;-0.0006800980586504938
1.27505e-05;-0.0006835552241137607
1.27508e-05;-0.0006869515505828163
1.27510e-05;-0.000690347877051849
1.27513e-05;-0.0006937442035209046
1.27515e-05;-0.0006971405299899602
1.27518e-05;-0.0006985623591227934
1.27520e-05;-0.0006992390296484323
1.27523e-05;-0.0006999157001740713
1.27525e-05;-0.0007005923706997057
1.27528e-05;-0.0007000486994046937
1.27530e-05;-0.0006953258656160398
1.27533e-05;-0.0006906030318274178
1.27535e-05;-0.0006849186046717291
1.27538e-05;-0.0006759411207137232
1.27540e-05;-0.0006669636367557781
1.27543e-05;-0.0006570003313631401
1.27545e-05;-0.0006436609981269226
1.27548e-05;-0.0006295368202104423
1.27550e-05;-0.0006127248761317883
1.27553e-05;-0.0005952434349005192
1.27555e-05;-0.0005754692447504519
1.27558e-05;-0.0005550950185501237
1.27560e-05;-0.0005326659187779982
1.27563e-05;-0.0005096083834947514
1.27565e-05;-0.00048439871831270476
1.27568e-05;-0.0004585580215983836
1.27570e-05;-0.00043055630469485205
1.27573e-05;-0.0004025545877911307
1.27575e-05;-0.00037407499253500396
1.27577e-05;-0.0003439588629462514
1.27580e-05;-0.00031384273335729475
1.27583e-05;-0.0002834421520026744
1.27585e-05;-0.00025206744181753153
1.27588e-05;-0.00022069273163260127
1.27590e-05;-0.00018931168103890293
1.27593e-05;-0.000157908917186519
1.27595e-05;-0.0001266301867887505
1.27598e-05;-9.590965896073445e-05
1.27600e-05;-6.580431535139465e-05
1.27603e-05;-3.642490940196947e-05
1.27605e-05;-7.899605184626388e-06
1.27608e-05;1.9590851506633345e-05
1.27610e-05;4.5843275393632996e-05
1.27613e-05;7.065450960434714e-05
1.27615e-05;9.382143627573908e-05
1.27618e-05;0.00011514745058195178
1.27620e-05;0.00013447742782823156
1.27623e-05;0.00015173704413551915
1.27625e-05;0.00016690263793407795
1.27628e-05;0.00017994269255224368
1.27630e-05;0.00019081305279382608
1.27633e-05;0.00019946959725180587
1.27635e-05;0.0002058682143859609
1.27638e-05;0.00020996891123141898
1.27640e-05;0.00021175768134242782
1.27643e-05;0.0002112711041127913
1.27645e-05;0.00020857751699048684
1.27648e-05;0.0002037403229471126
1.27650e-05;0.00019681503893556653
1.27653e-05;0.00018785715001231267
1.27655e-05;0.0001769221895747908
1.27658e-05;0.00016406825116368828
1.27660e-05;0.00014936968870432602
1.27662e-05;0.00013293258161325958
1.27665e-05;0.00011488285422750715
1.27668e-05;9.534335532300141e-05
1.27670e-05;7.443196034640908e-05
1.27673e-05;5.2266559172450595e-05
1.27675e-05;2.8965034872545628e-05
1.27678e-05;4.646873311444062e-06
1.27680e-05;-2.0558257893710367e-05
1.27683e-05;-4.650083593311328e-05
1.27685e-05;-7.305213359913678e-05
1.27688e-05;-0.00010006624354527542
1.27690e-05;-0.00012712831190995715
1.27693e-05;-0.00015435461788413887
1.27695e-05;-0.00018158092385813613
1.27698e-05;-0.0002086448990385904
1.27700e-05;-0.00023515295885688801
1.27703e-05;-0.0002613461447883584
1.27705e-05;-0.0002864610187946074
1.27708e-05;-0.00031109593039631994
1.27710e-05;-0.00033408717065356143
1.27713e-05;-0.0003564346294954437
1.27715e-05;-0.00037657740510646433
1.27718e-05;-0.0003961993572931155
1.27720e-05;-0.0004140377061604872
1.27723e-05;-0.00043225722282744656
1.27725e-05;-0.0004517820804619927
1.27728e-05;-0.0004713069380966712
1.27730e-05;-0.0004912767502225878
1.27733e-05;-0.0005127703461696433
1.27735e-05;-0.0005342639421168443
1.27738e-05;-0.0005561492412359952
1.27740e-05;-0.0005793759605854606
1.27743e-05;-0.0006026026799350833
1.27745e-05;-0.0006267649973596894
1.27747e-05;-0.0006541313485405244
1.27750e-05;-0.0006814976997215447
1.27753e-05;-0.0007094940245120333
1.27755e-05;-0.0007396477465486632
1.27758e-05;-0.0007698014685850888
1.27760e-05;-0.0008005826909949455
1.27763e-05;-0.0008335128408469332
1.27765e-05;-0.0008664429906986978
1.27768e-05;-0.0009001118378875657
1.27770e-05;-0.0009363104158087824
1.27773e-05;-0.0009725089937297538
1.27775e-05;-0.0010087075716509704
1.27778e-05;-0.001044906149572187
1.27780e-05;-0.0010811047274931586
1.27783e-05;-0.0011174325868216236
1.27785e-05;-0.0011542031811279138
1.27788e-05;-0.0011909737754339548
1.27790e-05;-0.001227744369740245
1.27793e-05;-0.001264514964046535
1.27795e-05;-0.001301285558352576
1.27798e-05;-0.0013369121837577202
1.27800e-05;-0.001368621192106396
1.27803e-05;-0.0014003302004548571
1.27805e-05;-0.0014320392088035328
1.27808e-05;-0.0014637482171522087
1.27810e-05;-0.0014954572255006697
1.27813e-05;-0.0015271662338493456
1.27815e-05;-0.0015499494839799823
1.27818e-05;-0.0015693642283913741
1.27820e-05;-0.0015887789728028978
1.27823e-05;-0.0016081937172144213
1.27825e-05;-0.0016276084616258133
1.27828e-05;-0.0016470232060373368
1.27830e-05;-0.0016636730902620626
1.27832e-05;-0.001670854479829783
1.27835e-05;-0.0016780358693975518
1.27838e-05;-0.0016833679623579733
1.27840e-05;-0.0016823669846157934
1.27843e-05;-0.0016813660068736205
1.27845e-05;-0.0016785995769860312
1.27848e-05;-0.0016697872087594633
1.27850e-05;-0.001660974840532955
1.27853e-05;-0.001650545738836927
1.27855e-05;-0.0016345799983300791
1.27858e-05;-0.0016186142578233397
1.27860e-05;-0.0016012216003419336
1.27863e-05;-0.001578942346491553
1.27865e-05;-0.0015566630926413234
1.27868e-05;-0.001533240370474059
1.27870e-05;-0.001505901745542187
1.27873e-05;-0.0014785631206105003
1.27875e-05;-0.0014506172898751727
1.27878e-05;-0.001420150436695825
1.27880e-05;-0.0013881713030106117
1.27883e-05;-0.001356192169325182
1.27885e-05;-0.0013238469879086072
1.27888e-05;-0.0012902482454610414
1.27890e-05;-0.001256649503013248
1.27893e-05;-0.0012230781240300335
1.27895e-05;-0.0011896004535171668
1.27898e-05;-0.0011561227830040734
1.27900e-05;-0.0011229682776387516
1.27903e-05;-0.0010909204783162145
1.27905e-05;-0.0010595246354628712
1.27908e-05;-0.001030361471997113
1.27910e-05;-0.0010011983085315525
1.27913e-05;-0.0009729801624867329
1.27915e-05;-0.0009479983075375864
1.27917e-05;-0.0009235850732758014
1.27920e-05;-0.0009010661244972139
1.27923e-05;-0.0008776481261067243
1.27925e-05;-0.0008517728708740475
1.27928e-05;-0.000824965159541862
1.27930e-05;-0.000794964174407469
1.27933e-05;-0.0007643096958014269
1.27935e-05;-0.0007314172742152108
1.27938e-05;-0.0006978695305410001
1.27940e-05;-0.000662077581637648
1.27943e-05;-0.0006253370019331351
1.27945e-05;-0.0005846294921749472
1.27948e-05;-0.0005405488511504908
1.27950e-05;-0.0004933402844665347
1.27953e-05;-0.00044538234036281435
1.27955e-05;-0.00039446783243197086
1.27958e-05;-0.0003418500965623496
1.27960e-05;-0.00028751528682014073
1.27963e-05;-0.00023104708419181933
1.27965e-05;-0.00017215448813507134
1.27968e-05;-0.00011102451354484612
1.27970e-05;-4.805399254622016e-05
1.27973e-05;1.6360298852198033e-05
1.27975e-05;8.182161458754352e-05
1.27978e-05;0.0001479699088012094
1.27980e-05;0.00021464440350015508
1.27983e-05;0.0002819364259084944
1.27985e-05;0.0003498588074226565
1.27988e-05;0.0004181249515295387
1.27990e-05;0.0004863168502759239
1.27993e-05;0.0005540166045526282
1.27995e-05;0.0006208062777682331
1.27998e-05;0.0006862910304428414
1.28000e-05;0.0007502007850294863
1.28002e-05;0.0008124235101543828
1.28005e-05;0.000872797914475076
1.28008e-05;0.0009309752091753148
1.28010e-05;0.0009865242764217368
1.28013e-05;0.001039014101640452
1.28015e-05;0.0010880137416217819
1.28018e-05;0.0011331617517395967
1.28020e-05;0.0011744846447624328
1.28023e-05;0.0012125480409806997
1.28025e-05;0.0012478780339450321
1.28028e-05;0.0012805102009217058
1.28030e-05;0.0013102487313398409
1.28033e-05;0.0013368979198719935
1.28035e-05;0.0013602623426749267
1.28038e-05;0.0013801898766480675
1.28040e-05;0.0013964840806739787
1.28043e-05;0.0014094514087492104
1.28045e-05;0.00142102918588971
1.28048e-05;0.0014278483297810599
1.28050e-05;0.0014346674736723634
1.28053e-05;0.0014397664203802494
1.28055e-05;0.00143897440814075
1.28058e-05;0.0014381823959012557
1.28060e-05;0.0014359198342406778
1.28063e-05;0.001428621253248936
1.28065e-05;0.001421322672257244
1.28068e-05;0.0014125857500454765
1.28070e-05;0.0013989231081774811
1.28073e-05;0.0013852604663095785
1.28075e-05;0.0013715978244415832
1.28078e-05;0.001357935182573588
1.28080e-05;0.0013430979008429108
1.28083e-05;0.0013242379667811452
1.28085e-05;0.0013053780327193796
1.28087e-05;0.0012865180986577416
1.28090e-05;0.001267658164595976
1.28093e-05;0.0012484853293169547
1.28095e-05;0.0012282409376818944
1.28098e-05;0.0012079920205509095
1.28100e-05;0.001187727605480495
1.28103e-05;0.0011676724419808953
1.28105e-05;0.0011483338779651013
1.28108e-05;0.0011293595111380526
1.28110e-05;0.001111632368006856
1.28113e-05;0.0010942563191748851
1.28115e-05;0.0010783582037594804
1.28118e-05;0.0010635560368796532
1.28120e-05;0.0010492750783129353
1.28123e-05;0.0010343411853841347
1.28125e-05;0.0010171712641908629
1.28128e-05;0.0009992075920373673
1.28130e-05;0.0009785256534152204
1.28133e-05;0.0009571182804055433
1.28135e-05;0.000933226596737807
1.28138e-05;0.0009093349130699088
1.28140e-05;0.0008844787067429429
1.28143e-05;0.0008563194120000428
1.28145e-05;0.000827035373619635
1.28148e-05;0.0007938995566990863
1.28150e-05;0.000759848155623667
1.28153e-05;0.0007226612601265237
1.28155e-05;0.0006847822531533175
1.28158e-05;0.0006445330526157895
1.28160e-05;0.0006035194247535564
1.28163e-05;0.0005598879516630568
1.28165e-05;0.0005154324962465055
1.28168e-05;0.0004681552445223518
1.28170e-05;0.0004203053827025284
1.28172e-05;0.0003704945697778774
1.28175e-05;0.00032037143842490945
1.28178e-05;0.0002691787465260047
1.28180e-05;0.00021774875057186516
1.28183e-05;0.00016550608705788444
1.28185e-05;0.00011311470541592857
1.28188e-05;6.020282913785624e-05
1.28190e-05;7.314321177819112e-06
1.28193e-05;-4.522823220525472e-05
1.28195e-05;-9.710229568306372e-05
1.28198e-05;-0.0001480019640927795
1.28200e-05;-0.00019771143457566565
1.28203e-05;-0.0002461283306139117
1.28205e-05;-0.00029311362339432565
1.28208e-05;-0.00033839195245585714
1.28210e-05;-0.00038162830081299096
1.28213e-05;-0.00042248773500681207
1.28215e-05;-0.00046063533851967554
1.28218e-05;-0.0004957237664757858
1.28220e-05;-0.0005282105679769293
1.28223e-05;-0.0005606567321023379
1.28225e-05;-0.0005929637301391397
1.28228e-05;-0.0006252884768405011
1.28230e-05;-0.0006576740053272554
1.28233e-05;-0.0006900595338140096
1.28235e-05;-0.0007224450623005443
1.28238e-05;-0.0007542977125555301
1.28240e-05;-0.0007859492590689258
1.28243e-05;-0.000817600805582107
1.28245e-05;-0.0008500478527385552
1.28248e-05;-0.0008852191582997272
1.28250e-05;-0.000920390463860661
1.28253e-05;-0.0009555617694218332
1.28255e-05;-0.0009907330749830052
1.28257e-05;-0.001025904380543939
1.28260e-05;-0.0010610756861051112
1.28263e-05;-0.0010969507833571749
1.28265e-05;-0.0011352360740465154
1.28268e-05;-0.0011735213647355966
1.28270e-05;-0.0012118066554249374
1.28273e-05;-0.0012500919461142781
1.28275e-05;-0.0012883772368033593
1.28278e-05;-0.0013266625274926998
1.28280e-05;-0.0013649122419194192
1.28283e-05;-0.0014030401224626311
1.28285e-05;-0.0014411680030061015
1.28288e-05;-0.0014792958835495719
1.28290e-05;-0.001517423764092784
1.28293e-05;-0.0015555516446362544
1.28295e-05;-0.0015936795251797248
1.28298e-05;-0.0016304062647834276
1.28300e-05;-0.0016623346801936483
1.28303e-05;-0.0016942630956038691
1.28305e-05;-0.0017261915110138733
1.28308e-05;-0.001758119926424094
1.28310e-05;-0.0017900483418343146
1.28313e-05;-0.0018219767572443188
1.28315e-05;-0.0018505285948015144
1.28318e-05;-0.0018675170594326777
1.28320e-05;-0.0018845055240637259
1.28323e-05;-0.0019014939886948892
1.28325e-05;-0.0019184824533260525
1.28328e-05;-0.0019354709179571004
1.28330e-05;-0.0019524593825882637
1.28333e-05;-0.001969447847219427
1.28335e-05;-0.001986436311850475
1.28338e-05;-0.0020034247764816383
1.28340e-05;-0.0020167277928917083
1.28342e-05;-0.0020174096839977737
1.28345e-05;-0.0020180915751038435
1.28348e-05;-0.0020187734662099137
1.28350e-05;-0.0020194553573159835
1.28353e-05;-0.002020137248422049
1.28355e-05;-0.002020819139528119
1.28358e-05;-0.002021501030634189
1.28360e-05;-0.0020221829217402544
1.28363e-05;-0.0020228648128463246
1.28365e-05;-0.00202120274373338
1.28368e-05;-0.0020115135870430404
1.28370e-05;-0.0020018244303526347
1.28373e-05;-0.0019921352736622295
1.28375e-05;-0.0019824461169718898
1.28378e-05;-0.001972756960281484
1.28380e-05;-0.0019630678035910784
1.28383e-05;-0.0019533786469007387
1.28385e-05;-0.0019436894902103334
1.28388e-05;-0.0019333689508102961
1.28390e-05;-0.0019208861885771302
1.28393e-05;-0.0019084034263438794
1.28395e-05;-0.0018959206641106288
1.28398e-05;-0.0018834379018774626
1.28400e-05;-0.001870955139644212
1.28403e-05;-0.0018584723774109613
1.28405e-05;-0.0018459896151777953
1.28408e-05;-0.0018335068529445446
1.28410e-05;-0.001821535843043512
1.28413e-05;-0.0018113173717549
1.28415e-05;-0.001801098900466219
1.28418e-05;-0.0017922021590622284
1.28420e-05;-0.0017878317920629896
1.28423e-05;-0.001783461425063721
1.28425e-05;-0.0017790910580644526
1.28427e-05;-0.0017747206910652138
1.28430e-05;-0.0017703503240659453
1.28433e-05;-0.0017684419409360508
1.28435e-05;-0.001774964827235904
1.28438e-05;-0.0017814877135357134
1.28440e-05;-0.0017880105998355667
1.28443e-05;-0.00179453348613542
1.28445e-05;-0.001801056372435229
1.28448e-05;-0.0018105554103058123
1.28450e-05;-0.0018302465278519499
1.28453e-05;-0.0018499376453979541
1.28455e-05;-0.0018696287629440917
1.28458e-05;-0.0018893198804902293
1.28460e-05;-0.0019090109980362336
1.28463e-05;-0.0019287021155823712
1.28465e-05;-0.0019483932331285088
1.28468e-05;-0.001968084350674513
1.28470e-05;-0.0019949384167884396
1.28473e-05;-0.00202449571916349
1.28475e-05;-0.00205405302153834
1.28478e-05;-0.00208361032391339
1.28480e-05;-0.00211316762628844
1.28483e-05;-0.00214272492866329
1.28485e-05;-0.00217228223103834
1.28488e-05;-0.0022018395334133904
1.28490e-05;-0.002231471367179511
1.28493e-05;-0.002261358439921496
1.28495e-05;-0.0022912455126634815
1.28498e-05;-0.0023211325854052643
1.28500e-05;-0.0023510196581472496
1.28503e-05;-0.002380906730889235
1.28505e-05;-0.0024107938036310177
1.28508e-05;-0.002440680876373003
1.28510e-05;-0.002463407097936692
1.28512e-05;-0.002483430874775733
1.28515e-05;-0.00250345465161491
1.28518e-05;-0.002523478428454087
1.28520e-05;-0.0025435022052932637
1.28523e-05;-0.002563525982132305
1.28525e-05;-0.0025835497589714817
1.28528e-05;-0.0025998861826734532
1.28530e-05;-0.0026035949575182404
1.28533e-05;-0.002607303732363052
1.28535e-05;-0.0026110125072078645
1.28538e-05;-0.0026147212820526516
1.28540e-05;-0.0026184300568974635
1.28543e-05;-0.0026221388317422757
1.28545e-05;-0.0026258476065870624
1.28548e-05;-0.0026179037340552627
1.28550e-05;-0.0026055622508695518
1.28553e-05;-0.0025932207676839245
1.28555e-05;-0.0025808792844982135
1.28558e-05;-0.0025685378013125025
1.28560e-05;-0.0025561963181268753
1.28563e-05;-0.0025438548349411643
1.28565e-05;-0.002528870568180251
1.28568e-05;-0.0025048358682896515
1.28570e-05;-0.002480801168398889
1.28573e-05;-0.0024567664685081264
1.28575e-05;-0.0024327317686175264
1.28578e-05;-0.002408697068726764
1.28580e-05;-0.0023846623688360013
1.28583e-05;-0.002360627668945402
1.28585e-05;-0.0023357889831072468
1.28588e-05;-0.0023081969802274185
1.28590e-05;-0.0022806049773477772
1.28593e-05;-0.002253012974467949
1.28595e-05;-0.002225420971588121
1.28597e-05;-0.0021978289687084795
1.28600e-05;-0.0021702369658286513
1.28603e-05;-0.002142644962948823
1.28605e-05;-0.0021157895327887726
1.28608e-05;-0.0020914565574411004
1.28610e-05;-0.002067123582093264
1.28613e-05;-0.002043387358300745
1.28615e-05;-0.002022062272439561
1.28618e-05;-0.002002225511274085
1.28620e-05;-0.0019829087996839937
1.28623e-05;-0.0019619252734914367
1.28625e-05;-0.0019371098315079092
1.28628e-05;-0.0019080066413354455
1.28630e-05;-0.0018772210936198789
1.28633e-05;-0.0018406741719519256
1.28635e-05;-0.0018041272502839724
1.28638e-05;-0.001766032915927736
1.28640e-05;-0.0017226393375473898
1.28643e-05;-0.0016772132852183204
1.28645e-05;-0.001624826856057842
1.28648e-05;-0.001570474901347818
1.28650e-05;-0.0015093918401928863
1.28653e-05;-0.0014467657164391604
1.28655e-05;-0.0013788552459050444
1.28658e-05;-0.001309613029757509
1.28660e-05;-0.001235810139501962
1.28663e-05;-0.0011604060129736453
1.28665e-05;-0.0010795183190618544
1.28668e-05;-0.0009975654759835618
1.28670e-05;-0.0009114162636683032
1.28673e-05;-0.0008229604940808041
1.28675e-05;-0.0007327339874815171
1.28678e-05;-0.0006412283316971009
1.28680e-05;-0.0005486960038675148
1.28682e-05;-0.0004550901837192412
1.28685e-05;-0.0003604652730918061
1.28688e-05;-0.0002652406962630051
1.28690e-05;-0.00016999498575241313
1.28693e-05;-7.530667522860927e-05
1.28695e-05;1.824579906332674e-05
1.28698e-05;0.00011011169729851037
1.28700e-05;0.0001998900470934366
1.28703e-05;0.00028736744862340987
1.28705e-05;0.0003722670335165323
1.28708e-05;0.0004540833593871214
1.28710e-05;0.0005322113482305186
1.28713e-05;0.0006060459896186296
1.28715e-05;0.0006749822994345043
1.28718e-05;0.0007384155678440133
1.28720e-05;0.0007957609754109687
1.28723e-05;0.000846547374086909
1.28725e-05;0.0008905051841089252
1.28728e-05;0.0009275051781433702
1.28730e-05;0.0009574511839787376
1.28733e-05;0.0009802469975074557
1.28735e-05;0.0009957965517620518
1.28738e-05;0.0010040041214512288
1.28740e-05;0.0010047861613035616
1.28743e-05;0.0009981304446062796
1.28745e-05;0.0009841510836432622
1.28748e-05;0.0009630500700919777
1.28750e-05;0.0009350501383596338
1.28753e-05;0.0009003739459052899
1.28755e-05;0.0008592442215499897
1.28758e-05;0.000811883849997494
1.28760e-05;0.0007585234924762384
1.28763e-05;0.000699438390440385
1.28765e-05;0.000634982865525818
1.28767e-05;0.0005655662975016699
1.28770e-05;0.0004916110345768119
1.28773e-05;0.0004135393958577092
1.28775e-05;0.00033177368450204483
1.28778e-05;0.0002467362525051917
1.28780e-05;0.00015885428288262062
1.28783e-05;6.858290930302395e-05
1.28785e-05;-2.3573233472405996e-05
1.28788e-05;-0.00011711744133039792
1.28790e-05;-0.00021152058303245758
1.28793e-05;-0.00030584598717033876
1.28795e-05;-0.0003999051725281031
1.28798e-05;-0.0004933905736618875
1.28800e-05;-0.0005849110027844604
1.28803e-05;-0.0006753351041781042
1.28805e-05;-0.0007620047396714125
1.28808e-05;-0.0008470188724065008
1.28810e-05;-0.0009263635976427974
1.28813e-05;-0.0010041135591193396
1.28815e-05;-0.0010751506613442092
1.28818e-05;-0.001140052272526555
1.28820e-05;-0.0011986191911231804
1.28823e-05;-0.001255290966159345
1.28825e-05;-0.001305472663747759
1.28828e-05;-0.00135378772577013
1.28830e-05;-0.001395710338351248
1.28833e-05;-0.0014355100065307188
1.28835e-05;-0.0014680394742475318
1.28838e-05;-0.001498383903546673
1.28840e-05;-0.0015212454862393856
1.28843e-05;-0.001542383196979963
1.28845e-05;-0.0015576173642017934
1.28848e-05;-0.0015708278234324252
1.28850e-05;-0.0015771079255786221
1.28853e-05;-0.0015833880277247765
1.28855e-05;-0.0015871948848866899
1.28858e-05;-0.0015825319079760087
1.28860e-05;-0.0015778689310653275
1.28863e-05;-0.0015713174365874882
1.28865e-05;-0.0015582985559271236
1.28868e-05;-0.001545279675266759
1.28870e-05;-0.0015307195913205377
1.28873e-05;-0.0015108815279637605
1.28875e-05;-0.0014910434646069836
1.28878e-05;-0.0014699514441788907
1.28880e-05;-0.0014445651429991638
1.28883e-05;-0.0014191788418194367
1.28885e-05;-0.001393233304219478
1.28888e-05;-0.0013653726147768732
1.28890e-05;-0.0013372222979721906
1.28893e-05;-0.001308080128069666
1.28895e-05;-0.001278937958166944
1.28898e-05;-0.0012497489502571323
1.28900e-05;-0.0012203995416792035
1.28903e-05;-0.0011914792878210184
1.28905e-05;-0.0011640287101546563
1.28908e-05;-0.00113657813248848
1.28910e-05;-0.001109864662532001
1.28913e-05;-0.001085675479509174
1.28915e-05;-0.001062064362829367
1.28918e-05;-0.0010406842844647374
1.28920e-05;-0.0010201651526701655
1.28923e-05;-0.0009988241368554403
1.28925e-05;-0.00097466851054913
1.28928e-05;-0.0009495023041394045
1.28930e-05;-0.0009208752817372374
1.28933e-05;-0.0008915090577061026
1.28935e-05;-0.0008596113759408442
1.28938e-05;-0.0008269703682941096
