Time(s);Current(A)
1.45000e-05;0.0028933257159587515
1.45003e-05;0.0028885079842802604
1.45005e-05;0.0028836902526017693
1.45008e-05;0.002890780089342467
1.45010e-05;0.002898264905357191
1.45013e-05;0.0029057497213719656
1.45015e-05;0.0029132345373867404
1.45018e-05;0.0029207193534014643
1.45020e-05;0.0029282041694162395
1.45023e-05;0.0029356889854310142
1.45025e-05;0.002943173801445738
1.45028e-05;0.002950658617460513
1.45030e-05;0.0029581434334752877
1.45033e-05;0.002965628249490012
1.45035e-05;0.002973113065504787
1.45038e-05;0.002981694882994853
1.45040e-05;0.002991524247711793
1.45043e-05;0.0030013536124288
1.45045e-05;0.003011182977145807
1.45048e-05;0.003021012341862747
1.45050e-05;0.0030308417065797533
1.45053e-05;0.00304067107129676
1.45055e-05;0.0030505004360137002
1.45058e-05;0.0030603298007307067
1.45060e-05;0.0030701591654477135
1.45063e-05;0.003079916596963257
1.45065e-05;0.003089592223606259
1.45068e-05;0.003099267850249261
1.45070e-05;0.0031089434768921975
1.45073e-05;0.0031186191035351995
1.45075e-05;0.0031282947301782015
1.45078e-05;0.003137970356821138
1.45080e-05;0.00314764598346414
1.45083e-05;0.003157321610107142
1.45085e-05;0.0031669972367500787
1.45088e-05;0.0031809745298429126
1.45090e-05;0.003199843823696553
1.45093e-05;0.0032187131175501938
1.45095e-05;0.003237582411403707
1.45098e-05;0.0032564517052573474
1.45100e-05;0.003275320999110988
1.45103e-05;0.0032941902929645005
1.45105e-05;0.003313059586818141
1.45108e-05;0.0033319288806717817
1.45110e-05;0.0033507981745252943
1.45113e-05;0.003369667468378935
1.45115e-05;0.0033885367622325754
1.45118e-05;0.003410581580651585
1.45120e-05;0.0034362377131447533
1.45123e-05;0.0034618938456379214
1.45125e-05;0.0034875499781309156
1.45128e-05;0.0035132061106240837
1.45130e-05;0.003538862243117252
1.45133e-05;0.003564518375610246
1.45135e-05;0.003590174508103414
1.45138e-05;0.0036158306405965823
1.45140e-05;0.003641486773089577
1.45143e-05;0.003667142905582745
1.45145e-05;0.003692799038075913
1.45148e-05;0.0037144142990054706
1.45150e-05;0.0037314341439499093
1.45153e-05;0.003748453988894348
1.45155e-05;0.0037654738338386714
1.45158e-05;0.0037824936787831096
1.45160e-05;0.0037995135237275483
1.45163e-05;0.0038165333686718717
1.45165e-05;0.0038335532136163104
1.45168e-05;0.003850573058560749
1.45170e-05;0.0038675929035050724
1.45173e-05;0.0038846127484495107
1.45175e-05;0.0039016325933939494
1.45178e-05;0.003918652438338388
1.45180e-05;0.003935672283282712
1.45183e-05;0.00395269212822715
1.45185e-05;0.003969711973171588
1.45188e-05;0.003974691626095198
1.45190e-05;0.003979271900559821
1.45193e-05;0.003983852175024443
1.45195e-05;0.003988432449489035
1.45198e-05;0.003993012723953657
1.45200e-05;0.00399759299841828
1.45203e-05;0.004002173272882872
1.45205e-05;0.004006753547347495
1.45208e-05;0.004011333821812117
1.45210e-05;0.004015914096276709
1.45213e-05;0.004020494370741331
1.45215e-05;0.004025074645205954
1.45218e-05;0.004029654919670545
1.45220e-05;0.004034235194135168
1.45223e-05;0.00403881546859979
1.45225e-05;0.004041185647455461
1.45228e-05;0.004041042430739542
1.45230e-05;0.004040899214023623
1.45233e-05;0.004040755997307705
1.45235e-05;0.004040612780591787
1.45238e-05;0.004040469563875868
1.45240e-05;0.00404032634715995
1.45243e-05;0.004040183130444032
1.45245e-05;0.004040039913728113
1.45248e-05;0.004039372888414049
1.45250e-05;0.004038110170223298
1.45253e-05;0.004036847452032548
1.45255e-05;0.004035584733841806
1.45258e-05;0.004034322015651056
1.45260e-05;0.004033059297460305
1.45263e-05;0.004031796579269555
1.45265e-05;0.004030533861078813
1.45268e-05;0.0040292711428880626
1.45270e-05;0.004018875873780635
1.45273e-05;0.003998094758495116
1.45275e-05;0.003977313643209456
1.45278e-05;0.003956532527923795
1.45280e-05;0.003935751412638276
1.45283e-05;0.003914970297352617
1.45285e-05;0.0038941891820669563
1.45288e-05;0.003873408066781437
1.45290e-05;0.0038526269514957768
1.45293e-05;0.0038318458362101167
1.45295e-05;0.0037781326436286183
1.45298e-05;0.0037233270795717322
1.45300e-05;0.0036685215155148466
1.45303e-05;0.0036137159514583322
1.45305e-05;0.003558910387401446
1.45308e-05;0.00350410482334456
1.45310e-05;0.0034492992592880457
1.45313e-05;0.00339449369523116
1.45315e-05;0.003339688131174274
1.45318e-05;0.003275223905844431
1.45320e-05;0.003199775523819467
1.45323e-05;0.0031243271417945037
1.45325e-05;0.0030488787597700512
1.45328e-05;0.0029734303777450874
1.45330e-05;0.0028979819957201235
1.45333e-05;0.002820901871354709
1.45335e-05;0.002741966074338883
1.45338e-05;0.002663030277323057
1.45340e-05;0.002584094480307766
1.45343e-05;0.0025051586832919403
1.45345e-05;0.0024262228862761146
1.45348e-05;0.002354213450415395
1.45350e-05;0.0022900809070255414
1.45353e-05;0.0022259483636352536
1.45355e-05;0.0021618158202449654
1.45358e-05;0.002097683276855112
1.45360e-05;0.002033550733464824
1.45363e-05;0.0019694181900745357
1.45365e-05;0.0019052856466846822
1.45368e-05;0.0018411531032943942
1.45370e-05;0.0018058657725991364
1.45373e-05;0.0017715352502865314
1.45375e-05;0.001737204727973694
1.45378e-05;0.0017028742056608565
1.45380e-05;0.0016685436833482517
1.45383e-05;0.0016342131610354142
1.45385e-05;0.0015998826387225767
1.45388e-05;0.001565552116409972
1.45390e-05;0.001539800575657666
1.45393e-05;0.001523805343269289
1.45395e-05;0.0015078101108810201
1.45398e-05;0.001495434198117927
1.45400e-05;0.0014871742982036436
1.45403e-05;0.0014789143982894162
1.45405e-05;0.0014742996186665766
1.45408e-05;0.001473830193283862
1.45410e-05;0.0014733607679011508
1.45413e-05;0.0014769239059689247
1.45415e-05;0.0014850730117583384
1.45418e-05;0.001493222117547697
1.45420e-05;0.001501371223337111
1.45423e-05;0.0015095203291265247
1.45425e-05;0.0015176694349158834
1.45428e-05;0.0015258185407052973
1.45430e-05;0.0015372721679047787
1.45433e-05;0.0015524838087619536
1.45435e-05;0.0015676954496190252
1.45438e-05;0.0015829070904762
1.45440e-05;0.0015981187313333749
1.45443e-05;0.0016133303721904465
1.45445e-05;0.0016285420130476213
1.45448e-05;0.0016430833421057635
1.45450e-05;0.0016568623698853058
1.45453e-05;0.0016706413976649414
1.45455e-05;0.001684420425444577
1.45458e-05;0.0016981994532241193
1.45460e-05;0.001711978481003755
1.45463e-05;0.0017257575087833905
1.45465e-05;0.0017395365365629328
1.45468e-05;0.0017533155643425684
1.45470e-05;0.001767094592122204
1.45473e-05;0.001777523176619259
1.45475e-05;0.0017878406254399817
1.45478e-05;0.0017981580742607044
1.45480e-05;0.0018084755230813572
1.45483e-05;0.00181879297190208
1.45485e-05;0.0018291104207228026
1.45488e-05;0.0018394278695434555
1.45490e-05;0.0018497453183641782
1.45493e-05;0.001860062767184901
1.45495e-05;0.001870893332963573
1.45498e-05;0.0018823074327242023
1.45500e-05;0.001893721532484832
1.45503e-05;0.001905135632245384
1.45505e-05;0.0019165497320060136
1.45508e-05;0.001927963831766643
1.45510e-05;0.0019393779315271952
1.45513e-05;0.0019507920312878248
1.45515e-05;0.0019622061310484544
1.45518e-05;0.001973620230809084
1.45520e-05;0.001985034330569636
1.45523e-05;0.0019964484303302654
1.45525e-05;0.002007862530090895
1.45528e-05;0.002019276629851447
1.45530e-05;0.002029853175020549
1.45533e-05;0.0020404019381356463
1.45535e-05;0.0020509507012506714
1.45538e-05;0.0020614994643657686
1.45540e-05;0.0020720482274808657
1.45543e-05;0.002082596990595891
1.45545e-05;0.002093145753710988
1.45548e-05;0.002103694516826085
1.45550e-05;0.0021142432799411102
1.45553e-05;0.0021247920430562074
1.45555e-05;0.0021353408061713045
1.45558e-05;0.00214588956928633
1.45560e-05;0.002156438332401427
1.45563e-05;0.0021641134068720773
1.45565e-05;0.0021685204252951296
1.45568e-05;0.0021729274437182118
1.45570e-05;0.0021773344621412935
1.45573e-05;0.0021817414805643458
1.45575e-05;0.002186148498987428
1.45578e-05;0.0021905555174105097
1.45580e-05;0.002194962535833562
1.45583e-05;0.002199369554256644
1.45585e-05;0.002203776572679726
1.45588e-05;0.002208183591102778
1.45590e-05;0.0022125906095258603
1.45593e-05;0.002216997627948942
1.45595e-05;0.0022214046463719943
1.45598e-05;0.0022258116647950765
1.45600e-05;0.0022302186832181582
1.45603e-05;0.0022346257016412404
1.45605e-05;0.0022390327200642927
1.45608e-05;0.0022434397384873744
1.45610e-05;0.002246110749261095
1.45613e-05;0.002246807513343591
1.45615e-05;0.0022475042774260925
1.45618e-05;0.0022482010415085935
1.45620e-05;0.0022488978055910896
1.45623e-05;0.002249594569673591
1.45625e-05;0.002250291333756092
1.45628e-05;0.002250988097838588
1.45630e-05;0.0022516848619210895
1.45633e-05;0.0022523816260035905
1.45635e-05;0.0022530783900860866
1.45638e-05;0.0022537751541685876
1.45640e-05;0.002254471918251089
1.45643e-05;0.002255168682333585
1.45645e-05;0.002255865446416086
1.45648e-05;0.0022565622104985875
1.45650e-05;0.0022572589745810836
1.45653e-05;0.0022579557386635846
1.45655e-05;0.0022586525027460855
1.45658e-05;0.0022599113108815014
1.45660e-05;0.002261809294548426
1.45663e-05;0.0022637072782153507
1.45665e-05;0.002265605261882263
1.45668e-05;0.0022675032455491875
1.45670e-05;0.002269401229216112
1.45673e-05;0.0022712992128830238
1.45675e-05;0.002273197196549949
1.45678e-05;0.0022750951802168735
1.45680e-05;0.0022822173902497258
1.45683e-05;0.00229528076743308
1.45685e-05;0.0023083441446164346
1.45688e-05;0.0023214075217997004
1.45690e-05;0.002334470898983055
1.45693e-05;0.0023475342761664097
1.45695e-05;0.002360597653349764
1.45698e-05;0.00237366103053303
1.45700e-05;0.0023867244077163843
1.45703e-05;0.0024055670614863034
1.45705e-05;0.0024309821043153133
1.45708e-05;0.0024563971471444957
1.45710e-05;0.002481812189973678
1.45713e-05;0.0025072272328026885
1.45715e-05;0.002532642275631871
1.45718e-05;0.0025580573184610534
1.45720e-05;0.0025834723612900637
1.45723e-05;0.0026088874041192457
1.45725e-05;0.0026368224148950667
1.45728e-05;0.002667623218562827
1.45730e-05;0.0026984240222307967
1.45733e-05;0.0027292248258987658
1.45735e-05;0.0027600256295665262
1.45738e-05;0.0027908264332344953
1.45740e-05;0.0028216272369024644
1.45743e-05;0.002852428040570225
1.45745e-05;0.002883228844238194
1.45748e-05;0.002911667238932543
1.45750e-05;0.0029374190221344836
1.45753e-05;0.002963170805336599
1.45755e-05;0.002988922588538714
1.45758e-05;0.0030146743717406545
1.45760e-05;0.0030404261549427697
1.45763e-05;0.003066177938144885
1.45765e-05;0.0030919297213468254
1.45768e-05;0.003104844744319431
1.45770e-05;0.0031173339663095397
1.45773e-05;0.0031298231882995633
1.45775e-05;0.003142312410289672
1.45778e-05;0.0031548016322797807
1.45780e-05;0.003167290854269889
1.45783e-05;0.003179780076259913
1.45785e-05;0.0031879837222697992
1.45788e-05;0.003186124050065636
1.45790e-05;0.0031783625707102886
1.45793e-05;0.0031706010913548884
1.45795e-05;0.003162839611999488
1.45798e-05;0.003155078132644141
1.45800e-05;0.0031473166532887406
1.45803e-05;0.0031395551739333404
1.45805e-05;0.003131793694577993
1.45808e-05;0.003124032215222593
1.45810e-05;0.0031162707358671927
1.45813e-05;0.003101840156530496
1.45815e-05;0.0030798252508318687
1.45818e-05;0.0030578103451332416
1.45820e-05;0.0030357954394347633
1.45823e-05;0.003013780533736136
1.45825e-05;0.0029917656280375087
1.45828e-05;0.0029697507223390308
1.45830e-05;0.0029477358166404037
1.45833e-05;0.002925720910941776
1.45835e-05;0.0029037060052432982
1.45838e-05;0.002881616499822955
1.45840e-05;0.0028594421570725987
1.45843e-05;0.002837267814322392
1.45845e-05;0.002815093471572035
1.45848e-05;0.0027929191288216786
1.45850e-05;0.002770744786071472
1.45853e-05;0.002748570443321115
1.45855e-05;0.0027263961005707586
1.45858e-05;0.002704221757820552
1.45860e-05;0.002682047415070195
1.45863e-05;0.0026598730723198386
1.45865e-05;0.0026376987295694816
1.45868e-05;0.002615524386819275
1.45870e-05;0.002599304756244945
1.45873e-05;0.0025898570260269563
1.45875e-05;0.0025804092958090314
1.45878e-05;0.002570961565591043
1.45880e-05;0.0025615138353730542
1.45883e-05;0.0025520661051551294
1.45885e-05;0.0025426183749371408
1.45888e-05;0.002533170644719152
1.45890e-05;0.0025237229145012277
1.45893e-05;0.0025142751842832387
1.45895e-05;0.00250482745406525
1.45898e-05;0.0024953797238473257
1.45900e-05;0.002485931993629337
1.45903e-05;0.002480962207637862
1.45905e-05;0.0024810848914770174
1.45908e-05;0.002481207575316173
1.45910e-05;0.0024813302591553295
1.45913e-05;0.002481452942994485
1.45915e-05;0.002481575626833641
1.45918e-05;0.0024816983106727974
1.45920e-05;0.002481820994511953
1.45923e-05;0.002481943678351109
1.45925e-05;0.002482066362190265
1.45928e-05;0.0024821890460294204
1.45930e-05;0.0024823117298685767
1.45933e-05;0.002482434413707733
1.45935e-05;0.0024838876258734665
1.45938e-05;0.002486853959913818
1.45940e-05;0.0024898202939541694
1.45943e-05;0.002492786627994501
1.45945e-05;0.0024957529620348523
1.45948e-05;0.0024987192960752034
1.45950e-05;0.002501685630115555
1.45953e-05;0.0025046519641558863
1.45955e-05;0.0025076182981962378
1.45958e-05;0.002510584632236589
1.45960e-05;0.0025135509662769207
1.45963e-05;0.002516517300317272
1.45965e-05;0.0025194836343576236
1.45968e-05;0.0025257163972549745
1.45970e-05;0.0025356638536744424
1.45973e-05;0.0025456113100939103
1.45975e-05;0.002555558766513311
1.45978e-05;0.002565506222932779
1.45980e-05;0.002575453679352247
1.45983e-05;0.002585401135771647
1.45985e-05;0.002595348592191115
1.45988e-05;0.002605296048610583
1.45990e-05;0.0026152435050299837
1.45993e-05;0.0026251909614494516
1.45995e-05;0.0026351384178689196
1.45998e-05;0.00264508587428832
1.46000e-05;0.002662024700881819
1.46003e-05;0.0026869143504185664
1.46005e-05;0.0027118039999551448
1.46008e-05;0.002736693649491892
1.46010e-05;0.0027615832990286393
1.46013e-05;0.0027864729485652176
1.46015e-05;0.002811362598101965
1.46018e-05;0.002836252247638712
1.46020e-05;0.002861141897175291
1.46023e-05;0.002886031546712038
1.46025e-05;0.002910921196248785
1.46028e-05;0.0029358108457853637
1.46030e-05;0.0029607004953221107
1.46033e-05;0.0029868449757216196
1.46035e-05;0.0030144164922765995
1.46038e-05;0.003041988008831393
1.46040e-05;0.0030695595253863728
1.46043e-05;0.003097131041941353
1.46045e-05;0.003124702558496146
1.46048e-05;0.003152274075051126
1.46050e-05;0.0031798455916061063
1.46053e-05;0.0032074171081608992
1.46055e-05;0.0032349886247158796
1.46058e-05;0.0032625601412708594
1.46060e-05;0.003282466651851233
1.46063e-05;0.0033021189108107876
1.46065e-05;0.003321771169770342
1.46068e-05;0.0033414234287297635
1.46070e-05;0.003361075687689318
1.46073e-05;0.0033807279466488726
1.46075e-05;0.0034003802056082936
1.46078e-05;0.003420032464567848
1.46080e-05;0.0034396847235274026
1.46083e-05;0.003459336982486824
1.46085e-05;0.003479632267491253
1.46088e-05;0.003500658823491918
1.46090e-05;0.003521685379492441
1.46093e-05;0.0035427119354931066
1.46095e-05;0.003563738491493772
1.46098e-05;0.0035847650474942947
1.46100e-05;0.0036057916034949603
1.46103e-05;0.0036268181594956254
1.46105e-05;0.0036478447154961484
1.46108e-05;0.003668871271496814
1.46110e-05;0.003689897827497479
1.46113e-05;0.003710924383498002
1.46115e-05;0.0037319509394986676
1.46118e-05;0.0037529774954993328
1.46120e-05;0.003776232099620345
1.46123e-05;0.0037995606090778723
1.46125e-05;0.0038228891185355576
1.46128e-05;0.0038462176279932428
1.46130e-05;0.00386954613745077
1.46133e-05;0.0038928746469084554
1.46135e-05;0.003916203156366141
1.46138e-05;0.003939531665823668
1.46140e-05;0.003962860175281353
1.46143e-05;0.003986188684739039
1.46145e-05;0.004009517194196566
1.46148e-05;0.004032845703654251
1.46150e-05;0.004056174213111936
1.46153e-05;0.0040758775272396654
1.46155e-05;0.004091458146459382
1.46158e-05;0.0041070387656790995
1.46160e-05;0.00412261938489871
1.46163e-05;0.004138200004118428
1.46165e-05;0.004153780623338144
1.46168e-05;0.004169361242557756
1.46170e-05;0.0041849418617774725
1.46173e-05;0.004189594119542456
1.46175e-05;0.004181818274536388
1.46178e-05;0.004174042429530267
1.46180e-05;0.004166266584524145
1.46183e-05;0.004158490739518076
1.46185e-05;0.004150714894511955
1.46188e-05;0.0041429390495058335
1.46190e-05;0.004135163204499764
1.46193e-05;0.004112917121269054
1.46195e-05;0.004074214993046841
1.46198e-05;0.004035512864824891
1.46200e-05;0.003996810736602679
1.46203e-05;0.003958108608380467
1.46205e-05;0.003919406480158255
1.46208e-05;0.0038807043519363043
1.46210e-05;0.003842002223714092
1.46213e-05;0.003792830644548515
1.46215e-05;0.0037317528511873095
1.46218e-05;0.0036706750578256904
1.46220e-05;0.0036095972644640713
1.46223e-05;0.003548519471102866
1.46225e-05;0.0034874416777412468
1.46228e-05;0.0034263638843796277
1.46230e-05;0.0033652860910184227
1.46233e-05;0.0033011860844036007
1.46235e-05;0.0032336491145195166
1.46238e-05;0.0031661121446358905
1.46240e-05;0.003098575174751807
1.46243e-05;0.003031038204867723
1.46245e-05;0.0029635012349840967
1.46248e-05;0.002895964265100013
1.46250e-05;0.0028381914984257376
1.46253e-05;0.002780742614670278
1.46255e-05;0.0027232937309144287
1.46258e-05;0.00266584484715858
1.46260e-05;0.00260839596340312
1.46263e-05;0.002550947079647271
1.46265e-05;0.0025008240734712816
1.46268e-05;0.0024590323033965157
1.46270e-05;0.002417240533321467
1.46273e-05;0.0023754487632464184
1.46275e-05;0.002342444119309913
1.46278e-05;0.002309730948215257
1.46280e-05;0.002277017777120601
1.46283e-05;0.0022549421019710846
1.46285e-05;0.0016370106218861979
1.46288e-05;-0.003151178320445036
1.46290e-05;-0.007992287948758866
1.46293e-05;-0.008449659433681428
1.46295e-05;-0.00676786285540023
1.46298e-05;-0.0031248206201594207
1.46300e-05;0.0009656643305987208
1.46303e-05;0.0022854568323691033
1.46305e-05;0.0013685283372992568
1.46308e-05;-0.0010354942092175247
1.46310e-05;-0.0038416150674831133
1.46313e-05;-0.00480156361214354
1.46315e-05;-0.0035991610568227236
1.46318e-05;-0.0013670014864554836
1.46320e-05;0.0009545908205819041
1.46323e-05;0.002114050337221277
1.46325e-05;0.0017015361916948208
1.46328e-05;0.0007558088640161173
1.46330e-05;-0.0009269606471344833
1.46333e-05;-0.0015030361036516217
1.46335e-05;-0.0007904525962573051
1.46338e-05;0.0004920888634773381
1.46340e-05;0.0018423138990659774
1.46343e-05;0.002406305262829768
1.46345e-05;0.0021351136070905437
1.46348e-05;0.00131737793170873
1.46350e-05;0.00034754703564936706
1.46353e-05;6.95082687119936e-05
1.46355e-05;0.0005198345431693132
1.46358e-05;0.001321500972365238
1.46360e-05;0.002165310385772527
1.46363e-05;0.002516368657452308
1.46365e-05;0.002344044287272461
1.46368e-05;0.0018293613368555025
1.46370e-05;0.0012198858446072782
1.46373e-05;0.0010445813244497686
1.46375e-05;0.0013263889473547718
1.46378e-05;0.0018290681489665245
1.46380e-05;0.002358877557429483
1.46383e-05;0.002580723502842353
1.46385e-05;0.0024753990831056115
1.46388e-05;0.0021562733522184573
1.46390e-05;0.0017783856042867612
1.46393e-05;0.0016730199774579897
1.46395e-05;0.0018544732152988637
1.46398e-05;0.002174697103392126
1.46400e-05;0.002512277384436097
1.46403e-05;0.002657272647771781
1.46405e-05;0.0025976223585769094
1.46408e-05;0.0024043083414438857
1.46410e-05;0.002174408026484234
1.46413e-05;0.0021153836421871574
1.46415e-05;0.002236127628695274
1.46418e-05;0.00244384376060506
1.46420e-05;0.0026624266719185302
1.46423e-05;0.0027603274142247824
1.46425e-05;0.0027299552793969345
1.46428e-05;0.002615736689146549
1.46430e-05;0.0024784384808439214
1.46433e-05;0.0024479640848936142
1.46435e-05;0.0025298270767617993
1.46438e-05;0.002665845347437173
1.46440e-05;0.0028082973910813673
1.46443e-05;0.002874737323832908
1.46445e-05;0.0028603710829418396
1.46448e-05;0.0027929864060154247
1.46450e-05;0.0027106042192641512
1.46453e-05;0.0026945469172061334
1.46455e-05;0.0027482149467940387
1.46458e-05;0.002835112164266361
1.46460e-05;0.002925297416099288
1.46463e-05;0.0029670820450734036
1.46465e-05;0.0029574265997096734
1.46468e-05;0.002913875377647045
1.46470e-05;0.0028606459327546927
1.46473e-05;0.0028490183537782485
1.46475e-05;0.0028812160672998717
1.46478e-05;0.002934373158199818
1.46480e-05;0.002989725157849567
1.46483e-05;0.003014888258498974
1.46485e-05;0.0030079526513542526
1.46488e-05;0.0029799023169962847
