Time(s);Current(A)
1.33000e-05;0.004594503583319942
1.33003e-05;0.004570639462365545
1.33005e-05;0.004546775341410986
1.33008e-05;0.004522911220456427
1.33010e-05;0.004499047099502029
1.33013e-05;0.004475182978547471
1.33015e-05;0.004451318857592912
1.33018e-05;0.004427454736638514
1.33020e-05;0.004403590615683955
1.33023e-05;0.0043921217794259445
1.33025e-05;0.004387306801222924
1.33028e-05;0.004382491823019871
1.33030e-05;0.004377676844816817
1.33033e-05;0.004372861866613796
1.33035e-05;0.004368046888410742
1.33038e-05;0.004363231910207689
1.33040e-05;0.004358416932004667
1.33043e-05;0.004353601953801614
1.33045e-05;0.004348786975598561
1.33048e-05;0.004343971997395507
1.33050e-05;0.004343146200441182
1.33053e-05;0.004364802163284169
1.33055e-05;0.0043864581261271575
1.33058e-05;0.004408114088969998
1.33060e-05;0.004429770051812986
1.33063e-05;0.004451426014655973
1.33065e-05;0.004473081977498814
1.33068e-05;0.004494737940341801
1.33070e-05;0.004516393903184789
1.33073e-05;0.0045380498660276295
1.33075e-05;0.004559705828870617
1.33078e-05;0.004581361791713604
1.33080e-05;0.004611519740501304
1.33083e-05;0.004646241602829984
1.33085e-05;0.004680963465158664
1.33088e-05;0.0047156853274871085
1.33090e-05;0.004750407189815788
1.33093e-05;0.004785129052144468
1.33095e-05;0.004819850914472913
1.33098e-05;0.004854572776801593
1.33100e-05;0.004889294639130273
1.33103e-05;0.004923107420563145
1.33105e-05;0.00495179691050813
1.33108e-05;0.004980486400453115
1.33110e-05;0.005009175890397906
1.33113e-05;0.005037865380342891
1.33115e-05;0.005066554870287876
1.33118e-05;0.005095244360232666
1.33120e-05;0.005123933850177651
1.33123e-05;0.005152623340122637
1.33125e-05;0.0051813128300674275
1.33128e-05;0.0052002462527888735
1.33130e-05;0.005213942564133807
1.33133e-05;0.005227638875478741
1.33135e-05;0.005241335186823582
1.33138e-05;0.005255031498168517
1.33140e-05;0.005268727809513451
1.33143e-05;0.005282424120858292
1.33145e-05;0.005296120432203226
1.33148e-05;0.00530981674354816
1.33150e-05;0.005323513054893002
1.33153e-05;0.005337209366237936
1.33155e-05;0.00535090567758287
1.33158e-05;0.005364601988927711
1.33160e-05;0.0053782983002726445
1.33163e-05;0.005391994611617579
1.33165e-05;0.00540569092296242
1.33168e-05;0.005419387234307354
1.33170e-05;0.005433083545652288
1.33173e-05;0.005446779856997129
1.33175e-05;0.005460476168342064
1.33178e-05;0.005474172479686998
1.33180e-05;0.005486580557845195
1.33183e-05;0.005491728562499039
1.33185e-05;0.005496876567152882
1.33188e-05;0.005502024571806691
1.33190e-05;0.005507172576460535
1.33193e-05;0.005512320581114378
1.33195e-05;0.005517468585768187
1.33198e-05;0.005522616590422031
1.33200e-05;0.005527764595075874
1.33203e-05;0.005532912599729683
1.33205e-05;0.005538060604383527
1.33208e-05;0.00554320860903737
1.33210e-05;0.0055483566136911786
1.33213e-05;0.005553504618345022
1.33215e-05;0.005558652622998866
1.33218e-05;0.005563800627652709
1.33220e-05;0.005568948632306518
1.33223e-05;0.005574096636960362
1.33225e-05;0.005579244641614205
1.33228e-05;0.005584392646268014
1.33230e-05;0.005589540650921858
1.33233e-05;0.005594688655575701
1.33235e-05;0.00559415744257678
1.33238e-05;0.0055905775938203854
1.33240e-05;0.005586997745063991
1.33243e-05;0.005583417896307621
1.33245e-05;0.005579838047551227
1.33248e-05;0.005576258198794833
1.33250e-05;0.005572678350038463
1.33253e-05;0.005569098501282069
1.33255e-05;0.005565518652525675
1.33258e-05;0.005561938803769305
1.33260e-05;0.005558358955012911
1.33263e-05;0.005554779106256517
1.33265e-05;0.005551199257500147
1.33268e-05;0.0055476194087437525
1.33270e-05;0.005544039559987358
1.33273e-05;0.005540459711230988
1.33275e-05;0.005536879862474594
1.33278e-05;0.005533300013718201
1.33280e-05;0.005527215012495542
1.33283e-05;0.005519785231436115
1.33285e-05;0.005512355450376688
1.33288e-05;0.005504925669317312
1.33290e-05;0.005497495888257885
1.33293e-05;0.005490066107198458
1.33295e-05;0.005482636326139082
1.33298e-05;0.005475206545079655
1.33300e-05;0.005467776764020228
1.33303e-05;0.005460346982960801
1.33305e-05;0.005452917201901424
1.33308e-05;0.005445487420841997
1.33310e-05;0.00543805763978257
1.33313e-05;0.005430627858723194
1.33315e-05;0.0054231980776637675
1.33318e-05;0.0054157682966043405
1.33320e-05;0.005408338515544964
1.33323e-05;0.005400908734485537
1.33325e-05;0.005393597832773477
1.33328e-05;0.005386350746159156
1.33330e-05;0.005379103659544786
1.33333e-05;0.005371856572930415
1.33335e-05;0.0053646094863160935
1.33338e-05;0.005357362399701723
1.33340e-05;0.005350115313087353
1.33343e-05;0.005342868226473032
1.33345e-05;0.005335621139858662
1.33348e-05;0.005328374053244291
1.33350e-05;0.0053211269666299695
1.33353e-05;0.005313879880015599
1.33355e-05;0.005306632793401229
1.33358e-05;0.005299385706786908
1.33360e-05;0.0052921386201725375
1.33363e-05;0.005284891533558167
1.33365e-05;0.005277644446943846
1.33368e-05;0.005270397360329476
1.33370e-05;0.0052631502737151056
1.33373e-05;0.005255903187100784
1.33375e-05;0.0052486561004864134
1.33378e-05;0.0052407721530110625
1.33380e-05;0.005232546335068216
1.33383e-05;0.005224320517125312
1.33385e-05;0.005216094699182409
1.33388e-05;0.005207868881239506
1.33390e-05;0.005199643063296658
1.33393e-05;0.005191417245353755
1.33395e-05;0.005183191427410852
1.33398e-05;0.005174965609468005
1.33400e-05;0.005166739791525102
1.33403e-05;0.005158513973582198
1.33405e-05;0.005150288155639351
1.33408e-05;0.005142062337696447
1.33410e-05;0.005133836519753545
1.33413e-05;0.005125610701810697
1.33415e-05;0.005117384883867794
1.33418e-05;0.005109159065924891
1.33420e-05;0.005100933247982043
1.33423e-05;0.005092707430039141
1.33425e-05;0.0050844816120962375
1.33428e-05;0.00507625579415339
1.33430e-05;0.005062696306179517
1.33433e-05;0.005046273674339605
1.33435e-05;0.005029851042499806
1.33438e-05;0.0050134284106598944
1.33440e-05;0.004997005778819984
1.33443e-05;0.0049805831469801835
1.33445e-05;0.004964160515140273
1.33448e-05;0.0049477378833003615
1.33450e-05;0.004931315251460562
1.33453e-05;0.0049148926196206505
1.33455e-05;0.004898469987780739
1.33458e-05;0.0048820473559409395
1.33460e-05;0.004865624724101028
1.33463e-05;0.004847169356993479
1.33465e-05;0.004817258138851614
1.33468e-05;0.004787346920709546
1.33470e-05;0.004757435702567478
1.33473e-05;0.004727524484425411
1.33475e-05;0.004697613266283545
1.33478e-05;0.004667702048141477
1.33480e-05;0.00463779082999941
1.33483e-05;0.004607879611857544
1.33485e-05;0.004577968393715476
1.33488e-05;0.004548057175573408
1.33490e-05;0.004518145957431543
1.33493e-05;0.004488234739289475
1.33495e-05;0.004458323521147407
1.33498e-05;0.004429799477221428
1.33500e-05;0.004402020076163167
1.33503e-05;0.0043742406751049075
1.33505e-05;0.004346461274046835
1.33508e-05;0.004318681872988575
1.33510e-05;0.004290902471930314
1.33513e-05;0.004263123070872243
1.33515e-05;0.004235343669813982
1.33518e-05;0.004207564268755721
1.33520e-05;0.00417978486769765
1.33523e-05;0.004154934358069676
1.33525e-05;0.004146590151288051
1.33528e-05;0.004138245944506482
1.33530e-05;0.004129901737724857
1.33533e-05;0.004121557530943232
1.33535e-05;0.004113213324161663
1.33538e-05;0.004104869117380038
1.33540e-05;0.0040965249105984125
1.33543e-05;0.0040881807038168445
1.33545e-05;0.004079836497035219
1.33548e-05;0.004071492290253594
1.33550e-05;0.004079083081545049
1.33553e-05;0.004095227868816867
1.33555e-05;0.0041113726560886845
1.33557e-05;0.0041275174433603925
1.33560e-05;0.00414366223063221
1.33563e-05;0.004159807017904028
1.33565e-05;0.004175951805175845
1.33568e-05;0.004192096592447553
1.33570e-05;0.004208241379719371
1.33573e-05;0.004224386166991188
1.33575e-05;0.00424261548932622
1.33578e-05;0.004272592589917104
1.33580e-05;0.0043025696905079885
1.33583e-05;0.004332546791098669
1.33585e-05;0.004362523891689553
1.33588e-05;0.004392500992280437
1.33590e-05;0.0044224780928711184
1.33593e-05;0.004452455193462003
1.33595e-05;0.004482432294052887
1.33598e-05;0.004512409394643568
1.33600e-05;0.004542386495234452
1.33603e-05;0.004567549759973996
1.33605e-05;0.004590128930737336
1.33608e-05;0.004612708101500829
1.33610e-05;0.0046352872722643206
1.33613e-05;0.004657866443027661
1.33615e-05;0.004680445613791153
1.33618e-05;0.004703024784554645
1.33620e-05;0.004725603955317985
1.33623e-05;0.004748183126081478
1.33625e-05;0.00477076229684497
1.33628e-05;0.00479334146760831
1.33630e-05;0.004815920638371803
1.33633e-05;0.004838499809135295
1.33635e-05;0.004861078979898635
1.33638e-05;0.004883658150662128
1.33640e-05;0.004896471216390046
1.33642e-05;0.004904041782378615
1.33645e-05;0.0049116123483672345
1.33648e-05;0.004919182914355855
1.33650e-05;0.004926753480344475
1.33653e-05;0.004934324046333044
1.33655e-05;0.004941894612321664
1.33658e-05;0.004949465178310284
1.33660e-05;0.004957035744298853
1.33663e-05;0.0049646063102874735
1.33665e-05;0.004972176876276093
1.33668e-05;0.004979747442264662
1.33670e-05;0.004987318008253282
1.33673e-05;0.004994888574241903
1.33675e-05;0.005002459140230471
1.33678e-05;0.005005580090657216
1.33680e-05;0.005006312462593191
1.33683e-05;0.00500704483452916
1.33685e-05;0.005007777206465134
1.33688e-05;0.005008509578401108
1.33690e-05;0.005009241950337077
1.33693e-05;0.0050099743222730515
1.33695e-05;0.0050107066942090255
1.33698e-05;0.005011439066144994
1.33700e-05;0.005012171438080968
1.33703e-05;0.005012903810016942
1.33705e-05;0.005013636181952912
1.33708e-05;0.005014368553888886
1.33710e-05;0.00501510092582486
1.33713e-05;0.005015833297760829
1.33715e-05;0.005016565669696803
1.33718e-05;0.005017298041632777
1.33720e-05;0.005018030413568747
1.33723e-05;0.005019028704521502
1.33725e-05;0.00502152563068581
1.33727e-05;0.0050240225568501
1.33730e-05;0.005026519483014408
1.33733e-05;0.005029016409178715
1.33735e-05;0.005031513335343023
1.33738e-05;0.005034010261507313
1.33740e-05;0.005036507187671621
1.33743e-05;0.005039004113835929
1.33745e-05;0.00504150104000022
1.33748e-05;0.0050439979661645274
1.33750e-05;0.005046494892328835
1.33753e-05;0.005048991818493126
1.33755e-05;0.005051488744657434
1.33758e-05;0.005053985670821741
1.33760e-05;0.005056482596986032
1.33763e-05;0.005058979523150339
1.33765e-05;0.005061476449314647
1.33768e-05;0.005063973375478937
1.33770e-05;0.005069178957934877
1.33773e-05;0.0050758385622199555
1.33775e-05;0.005082498166504988
1.33778e-05;0.005089157770790067
1.33780e-05;0.005095817375075145
1.33783e-05;0.005102476979360178
1.33785e-05;0.0051091365836452565
1.33788e-05;0.005115796187930334
1.33790e-05;0.005122455792215368
1.33793e-05;0.005129115396500446
1.33795e-05;0.005135775000785524
1.33798e-05;0.005142248652625888
1.33800e-05;0.005147674335484168
1.33803e-05;0.005153100018342449
1.33805e-05;0.005158525701200693
1.33808e-05;0.005163951384058973
1.33810e-05;0.005169377066917253
1.33812e-05;0.005174802749775497
1.33815e-05;0.005180228432633778
1.33818e-05;0.005185654115492058
1.33820e-05;0.0051910797983503384
1.33823e-05;0.005196505481208582
1.33825e-05;0.005201931164066863
1.33828e-05;0.005195944533780236
1.33830e-05;0.005183831710042017
1.33833e-05;0.005171718886303717
1.33835e-05;0.005159606062565416
1.33838e-05;0.005147493238827197
1.33840e-05;0.005135380415088897
1.33843e-05;0.005123267591350596
1.33845e-05;0.005111154767612378
1.33848e-05;0.005099041943874077
1.33850e-05;0.005086929120135776
1.33853e-05;0.005074816296397558
1.33855e-05;0.005046235042396154
1.33858e-05;0.005008813443026973
1.33860e-05;0.0049713918436580466
1.33863e-05;0.004933970244288865
1.33865e-05;0.004896548644919685
1.33868e-05;0.004859127045550758
1.33870e-05;0.004821705446181578
1.33873e-05;0.004784283846812397
1.33875e-05;0.00474686224744347
1.33878e-05;0.00470944064807429
1.33880e-05;0.004672019048705109
1.33883e-05;0.004627406063727554
1.33885e-05;0.00457893270277929
1.33888e-05;0.004530459341831025
1.33890e-05;0.004481985980883089
1.33893e-05;0.0044335126199348245
1.33895e-05;0.00438503925898656
1.33897e-05;0.004336565898038623
1.33900e-05;0.004288092537090359
1.33903e-05;0.004243841678140953
1.33905e-05;0.0042018574818543045
1.33908e-05;0.0041598732855679405
1.33910e-05;0.004117889089281292
1.33913e-05;0.0040759048929946435
1.33915e-05;0.0040339206967082795
1.33918e-05;0.003991936500421631
1.33920e-05;0.0039499523041349825
1.33923e-05;0.003922772257503029
1.33925e-05;0.0039035391611120457
1.33928e-05;0.0038843060647210624
1.33930e-05;0.003865072968330209
1.33933e-05;0.0038458398719392255
1.33935e-05;0.003826606775548242
1.33938e-05;0.003807373679157389
1.33940e-05;0.0037881405827664056
1.33943e-05;0.0037689074863754223
1.33945e-05;0.003749674389984569
1.33948e-05;0.0037304412935935853
1.33950e-05;0.003711208197202602
1.33953e-05;0.0036953309865859056
1.33955e-05;0.003698366483506256
1.33958e-05;0.0037014019804266067
1.33960e-05;0.003704437477346937
1.33963e-05;0.0037074729742672874
1.33965e-05;0.0037105084711876375
1.33968e-05;0.0037135439681079676
1.33970e-05;0.003716579465028318
1.33973e-05;0.0037196149619486687
1.33975e-05;0.0037226504588689984
1.33978e-05;0.003725685955789349
1.33980e-05;0.0037287214527096995
1.33983e-05;0.0037317569496300293
1.33985e-05;0.003740588138946666
1.33988e-05;0.00375253048832096
1.33990e-05;0.0037644728376952544
1.33993e-05;0.0037764151870694675
1.33995e-05;0.003788357536443762
1.33998e-05;0.003800299885818056
1.34000e-05;0.0038122422351922697
1.34003e-05;0.003824184584566564
1.34005e-05;0.0038361269339408583
1.34008e-05;0.0038480692833150715
1.34010e-05;0.0038600116326893657
1.34013e-05;0.003870463908823941
1.34015e-05;0.0038801163053185676
1.34018e-05;0.0038897687018132595
1.34020e-05;0.0038994210983079518
1.34023e-05;0.003909073494802578
1.34025e-05;0.00391872589129727
1.34028e-05;0.003928378287791962
1.34030e-05;0.003938030684286589
1.34033e-05;0.0039476830807812805
1.34035e-05;0.003957335477275973
1.34038e-05;0.003966987873770599
1.34040e-05;0.003978145376511453
1.34043e-05;0.0039901108286941305
1.34045e-05;0.004002076280876727
1.34048e-05;0.004014041733059404
1.34050e-05;0.004026007185242081
1.34053e-05;0.004037972637424678
1.34055e-05;0.004049938089607356
1.34058e-05;0.0040619035417900325
1.34060e-05;0.0040738689939726295
1.34063e-05;0.004085834446155307
1.34065e-05;0.004097799898337984
1.34068e-05;0.004109765350520581
1.34070e-05;0.004121730802703258
1.34073e-05;0.004133696254885935
1.34075e-05;0.004145661707068613
1.34078e-05;0.004157887912701835
1.34080e-05;0.004171583642057493
1.34083e-05;0.004185279371413151
1.34085e-05;0.004198975100768717
1.34088e-05;0.004212670830124375
1.34090e-05;0.004226366559480033
1.34093e-05;0.004240062288835599
1.34095e-05;0.0042537580181912565
1.34098e-05;0.004267453747546915
1.34100e-05;0.004281149476902481
1.34103e-05;0.004294845206258138
1.34105e-05;0.004308540935613797
1.34108e-05;0.004322236664969363
1.34110e-05;0.00433593239432502
1.34113e-05;0.004349628123680679
1.34115e-05;0.004363323853036245
1.34118e-05;0.004376826970388462
1.34120e-05;0.004390226692541096
1.34123e-05;0.00440362641469364
1.34125e-05;0.004417026136846275
1.34128e-05;0.004430425858998909
1.34130e-05;0.0044438255811514536
1.34133e-05;0.004457225303304088
1.34135e-05;0.004470625025456723
1.34138e-05;0.004484024747609267
1.34140e-05;0.004500142301552314
1.34143e-05;0.004531576693226557
1.34145e-05;0.004563011084900586
1.34148e-05;0.004594445476574828
1.34150e-05;0.004625879868249071
1.34153e-05;0.0046573142599231005
1.34155e-05;0.004688748651597343
1.34158e-05;0.004720183043271585
1.34160e-05;0.004751617434945828
1.34163e-05;0.004783051826619858
1.34165e-05;0.00482607195505238
1.34168e-05;0.004875311371708122
1.34170e-05;0.00492455078836353
1.34173e-05;0.00497379020501927
1.34175e-05;0.005023029621675012
1.34178e-05;0.0050722690383304195
1.34180e-05;0.00512150845498616
1.34183e-05;0.005170747871641902
1.34185e-05;0.005219987288297309
1.34188e-05;0.005269630789329546
1.34190e-05;0.005321551581711561
1.34193e-05;0.005373472374093223
1.34195e-05;0.005425393166475238
1.34198e-05;0.0054773139588572516
1.34200e-05;0.005529234751238915
1.34203e-05;0.005581155543620929
1.34205e-05;0.005633076336002943
1.34208e-05;0.005684997128384606
1.34210e-05;0.00573691792076662
1.34213e-05;0.005776317830508928
1.34215e-05;0.005808996460492632
1.34218e-05;0.005841675090476558
1.34220e-05;0.005874353720460484
1.34223e-05;0.005907032350444189
1.34225e-05;0.0059397109804281145
1.34228e-05;0.005972389610412041
1.34230e-05;0.0060050682403957455
1.34233e-05;0.006031801896350564
1.34235e-05;0.006025031564718865
1.34238e-05;0.0060182612330872114
1.34240e-05;0.006011490901455511
1.34243e-05;0.006004720569823812
1.34245e-05;0.005997950238192113
1.34248e-05;0.00599117990656046
1.34250e-05;0.00598440957492876
1.34253e-05;0.005977639243297061
1.34255e-05;0.0059445960471499314
1.34258e-05;0.0058974494305367685
1.34260e-05;0.005850302813923605
1.34263e-05;0.00580315619731076
1.34265e-05;0.005756009580697596
1.34268e-05;0.005708862964084433
1.34270e-05;0.005661716347471589
1.34273e-05;0.005614569730858425
1.34275e-05;0.005563815400061462
1.34278e-05;0.0054927291366682895
1.34280e-05;0.005421642873274635
1.34283e-05;0.00535055660988098
1.34285e-05;0.005279470346487808
1.34288e-05;0.005208384083094153
1.34290e-05;0.005137297819700498
1.34293e-05;0.005066211556307326
1.34295e-05;0.004995125292913671
1.34298e-05;0.0049250907142704935
1.34300e-05;0.004855620685877994
1.34303e-05;0.004786150657485023
1.34305e-05;0.004716680629092053
1.34308e-05;0.004647210600699553
1.34310e-05;0.004577740572306583
1.34313e-05;0.004508270543913612
1.34315e-05;0.0044388005155211125
1.34318e-05;0.004386400291290498
1.34320e-05;0.004343163233310348
1.34323e-05;0.004299926175330491
1.34325e-05;0.004256689117350341
1.34328e-05;0.004213452059370191
1.34330e-05;0.004170215001390041
1.34333e-05;0.004126977943410185
1.34335e-05;0.004083740885430035
1.34338e-05;0.004064115339407071
1.34340e-05;0.004057164584930887
1.34343e-05;0.004050213830454657
1.34345e-05;0.004043263075978426
1.34348e-05;0.004036312321502242
1.34350e-05;0.004029361567026011
1.34353e-05;0.00402241081254978
1.34355e-05;0.0040154600580735965
1.34358e-05;0.0040085093035973655
1.34360e-05;0.004006206490821926
1.34363e-05;0.004030098002930274
1.34365e-05;0.004053989515038785
1.34368e-05;0.004077881027147295
1.34370e-05;0.0041017725392556445
1.34373e-05;0.0041256640513641545
1.34375e-05;0.004149555563472665
1.34378e-05;0.004173447075581014
1.34380e-05;0.004197338587689525
1.34383e-05;0.004221230099798036
1.34385e-05;0.004253817050578847
1.34388e-05;0.004291071761424934
1.34390e-05;0.004328326472271022
1.34393e-05;0.004365581183116857
1.34395e-05;0.004402835893962944
1.34398e-05;0.004440090604809032
1.34400e-05;0.0044773453156548675
1.34403e-05;0.004514600026500955
1.34405e-05;0.0045508382682003905
1.34408e-05;0.0045813480122588205
1.34410e-05;0.004611857756317458
1.34413e-05;0.004642367500376094
1.34415e-05;0.004672877244434732
1.34418e-05;0.004703386988493162
1.34420e-05;0.004733896732551799
1.34423e-05;0.004764406476610436
1.34425e-05;0.004794916220668867
1.34428e-05;0.004805983005407937
1.34430e-05;0.004806612700945236
1.34433e-05;0.00480724239648253
1.34435e-05;0.004807872092019828
1.34438e-05;0.004808501787557127
1.34440e-05;0.004809131483094421
1.34443e-05;0.004809761178631719
1.34445e-05;0.004810390874169017
1.34448e-05;0.004811020569706312
1.34450e-05;0.00481165026524361
1.34453e-05;0.004812279960780908
1.34455e-05;0.004807666740795444
1.34458e-05;0.004773506112204508
1.34460e-05;0.0047393454836135735
1.34463e-05;0.00470518485502287
1.34465e-05;0.004671024226431934
1.34468e-05;0.0046368635978409995
1.34470e-05;0.004602702969250296
1.34473e-05;0.004568542340659361
1.34475e-05;0.004534381712068426
1.34478e-05;0.0045002210834777226
1.34480e-05;0.004466060454886787
1.34483e-05;0.0044318998262958525
1.34485e-05;0.004390497116495004
1.34488e-05;0.004373782878611538
1.34490e-05;0.004316511705720429
1.34493e-05;-0.03302002693043731
1.34495e-05;-0.020329454959368855
1.34498e-05;-0.011956323474657521
1.34500e-05;-0.0029141988427464722
1.34503e-05;0.011171073295060074
1.34505e-05;0.016481764485003093
