Time(s);Current(A)
3.80000e-06;0.0022685726931891284
3.80025e-06;0.00224389480560696
3.80050e-06;0.002216603328880428
3.80075e-06;0.0021864873626768946
3.80100e-06;0.0021542967411568668
3.80125e-06;0.0021221061196367848
3.80150e-06;0.002086950645495324
3.80175e-06;0.0020496174159387076
3.80200e-06;0.0020102264926640844
3.80225e-06;0.0019693241439631736
3.80250e-06;0.0019270061052059132
3.80275e-06;0.0018836482081217804
3.80300e-06;0.0018393807806816
3.80325e-06;0.0017944452813636559
3.80350e-06;0.0017489041220131504
3.80375e-06;0.001702636805237425
3.80400e-06;0.0016560597863721528
3.80425e-06;0.0016094825507963532
3.80450e-06;0.0015632147454480861
3.80475e-06;0.0015175659857847496
3.80500e-06;0.0014728185529970985
3.80525e-06;0.0014291732027177676
3.80550e-06;0.001386780951187759
3.80575e-06;0.0013458565296168546
3.80600e-06;0.0013073461073324227
3.80625e-06;0.0012701174769424045
3.80650e-06;0.0012350133883856037
3.80675e-06;0.001203138949068921
3.80700e-06;0.0011740689678890169
3.80725e-06;0.0011469892977615903
3.80750e-06;0.0011204990056643315
3.80775e-06;0.0010937623170862061
3.80800e-06;0.0010667865436988723
3.80825e-06;0.0010398536243952934
3.80850e-06;0.001013246748354779
3.80875e-06;0.0009872490869386615
3.80900e-06;0.0009619681516738354
3.80925e-06;0.0009369710057297426
3.80950e-06;0.0009114573161483273
3.80975e-06;0.0008849808085437622
3.81000e-06;0.0008576232278994012
3.81025e-06;0.000829638486419157
3.81050e-06;0.0008012782716719977
3.81075e-06;0.0007728037824450604
3.81100e-06;0.0007442621430782029
3.81125e-06;0.0007156711803218262
3.81150e-06;0.0006861165912446606
3.81175e-06;0.0006558541955051053
3.81200e-06;0.0006255917997656012
3.81225e-06;0.0005947418990287568
3.81250e-06;0.0005634604617695894
3.81275e-06;0.0005323112106179927
3.81300e-06;0.0005012590533351634
3.81325e-06;0.0004703079568451217
3.81350e-06;0.0004394310919331333
3.81375e-06;0.00040855129906032365
3.81400e-06;0.00037766935552992057
3.81425e-06;0.00034725805024904237
3.81450e-06;0.0003171924400591711
3.81475e-06;0.00028780473251238534
3.81500e-06;0.00025949699572454303
3.81525e-06;0.00023218444965902426
3.81550e-06;0.00020582619091157056
3.81575e-06;0.00018046839981923965
3.81600e-06;0.0001562870156624478
3.81625e-06;0.00013350023639014682
3.81650e-06;0.00011232642358763947
3.81675e-06;9.298389321722554e-05
3.81700e-06;7.575414448630533e-05
3.81725e-06;6.109131445508772e-05
3.81750e-06;4.9508506684627666e-05
3.81775e-06;4.130038328746752e-05
3.81800e-06;3.652200422725718e-05
3.81825e-06;3.5156444553007314e-05
3.81850e-06;3.7186422751746254e-05
3.81875e-06;4.259462597948777e-05
3.81900e-06;5.140330910396304e-05
3.81925e-06;6.374285475495395e-05
3.81950e-06;7.978056012194118e-05
3.81975e-06;9.954688229700939e-05
3.82000e-06;0.00012292217647870516
3.82025e-06;0.00014974171881201555
3.82050e-06;0.00017984056838637392
3.82075e-06;0.00021305377616169665
3.82100e-06;0.0002492411873659865
3.82125e-06;0.0002883303722078353
3.82150e-06;0.00033027202390615375
3.82175e-06;0.0003749311209805968
3.82200e-06;0.0004220786402800474
3.82225e-06;0.0004714573063205067
3.82250e-06;0.0005228097796169775
3.82275e-06;0.000575878681633513
3.82300e-06;0.0006304221644913094
3.82325e-06;0.0006862408836871067
3.82350e-06;0.0007431499393711233
3.82375e-06;0.0008009107754606417
3.82400e-06;0.0008592259381863643
3.82425e-06;0.0009177803494799609
3.82450e-06;0.0009762588641565231
3.82475e-06;0.0010343463548483885
3.82500e-06;0.0010917374418334704
3.82525e-06;0.001148153332865532
3.82550e-06;0.0012033244985899562
3.82575e-06;0.0012569476440180219
3.82600e-06;0.001308682555560316
3.82625e-06;0.001358178124606394
3.82650e-06;0.0014050831083126172
3.82675e-06;0.0014480876397767687
3.82700e-06;0.0014890792790295208
3.82725e-06;0.0015263543711326328
3.82750e-06;0.0015608995701468793
3.82775e-06;0.001592816953640348
3.82800e-06;0.001620992734137433
3.82825e-06;0.0016459629549942384
3.82850e-06;0.0016656069338882255
3.82875e-06;0.0016823502899398265
3.82900e-06;0.0016990936459913707
3.82925e-06;0.0017118827391470668
3.82950e-06;0.0017199676001561585
3.82975e-06;0.0017250011224880164
3.83000e-06;0.0017270583949093535
3.83025e-06;0.0017253496800194573
3.83050e-06;0.0017217951709981155
3.83075e-06;0.0017149802055573915
3.83100e-06;0.001705770356617019
3.83125e-06;0.0016942973365438284
3.83150e-06;0.0016792346431930923
3.83175e-06;0.0016627562872191333
3.83200e-06;0.0016440063034230566
3.83225e-06;0.001623587754466474
3.83250e-06;0.0016012075220618353
3.83275e-06;0.0015773863860789642
3.83300e-06;0.0015519676069866842
3.83325e-06;0.0015253753206830448
3.83350e-06;0.001497737290920796
3.83375e-06;0.001469331137487771
3.83400e-06;0.00144045711436414
3.83425e-06;0.0014110762021960132
3.83450e-06;0.0013815236486074056
3.83475e-06;0.0013519928194477727
3.83500e-06;0.0013226872151703977
3.83525e-06;0.0012938449625541945
3.83550e-06;0.0012657361682356675
3.83575e-06;0.0012386231855301582
3.83600e-06;0.0012127449153787426
3.83625e-06;0.0011883316409509576
3.83650e-06;0.0011656133989226586
3.83675e-06;0.0011448203602030947
3.83700e-06;0.0011261759484074317
3.83725e-06;0.0011098660742538513
3.83750e-06;0.001096006880128606
3.83775e-06;0.0010854003449512332
3.83800e-06;0.0010764098224771827
3.83825e-06;0.0010704342104087587
3.83850e-06;0.0010666731223988222
3.83875e-06;0.0010660222503404743
3.83900e-06;0.0010676559065516717
3.83925e-06;0.0010724273300712326
3.83950e-06;0.001079503518993161
3.83975e-06;0.0010888576446960285
3.84000e-06;0.0011013458962734165
3.84025e-06;0.0011163247357326512
3.84050e-06;0.0011337187081273846
3.84075e-06;0.0011534523941469847
3.84100e-06;0.0011754477884148306
3.84125e-06;0.0011996120272212145
3.84150e-06;0.001225824928487625
3.84175e-06;0.0012539446057479426
3.84200e-06;0.0012838223253650173
3.84225e-06;0.0013153089593113867
3.84250e-06;0.00134825544667647
3.84275e-06;0.0013825127087318649
3.84300e-06;0.001417929939535538
3.84325e-06;0.0014543472480372445
3.84350e-06;0.0014915875654152727
3.84375e-06;0.0015294601398517496
3.84400e-06;0.001567769989345797
3.84425e-06;0.0016063220196360051
3.84450e-06;0.001644920966591726
3.84475e-06;0.0016833717044706501
3.84500e-06;0.0017214781459256984
3.84525e-06;0.0017590383496050388
3.84550e-06;0.001795839678809382
3.84575e-06;0.0018316609646426274
3.84600e-06;0.0018662783719215566
3.84625e-06;0.0018994680518003714
3.84650e-06;0.0019310060526805492
3.84675e-06;0.001960668409300852
3.84700e-06;0.0019884371015534063
3.84725e-06;0.002014925594824458
3.84750e-06;0.002041173427592425
3.84775e-06;0.0020677997267940823
3.84800e-06;0.00209480264691317
3.84825e-06;0.0021219782116868
3.84850e-06;0.002149027772438871
3.84875e-06;0.002175958128837096
3.84900e-06;0.002202618945043425
3.84925e-06;0.0022292170845378844
3.84950e-06;0.002256407514468077
3.84975e-06;0.0022845134376784123
3.85000e-06;0.0023134685792729134
3.85025e-06;0.0023430804512708787
3.85050e-06;0.002373210164514626
3.85075e-06;0.002403541361709381
3.85100e-06;0.002434004845686566
3.85125e-06;0.0024648012109154964
3.85150e-06;0.00249640449520034
3.85175e-06;0.002528473307488684
3.85200e-06;0.002561069723225482
3.85225e-06;0.002594262811627127
3.85250e-06;0.0026277086460942613
3.85275e-06;0.0026612272948007515
3.85300e-06;0.0026946813102389994
3.85325e-06;0.0027280878509904566
3.85350e-06;0.0027615943954486855
3.85375e-06;0.002795174395029665
3.85400e-06;0.0028287131850295113
3.85425e-06;0.0028620552564805088
3.85450e-06;0.0028950039160658874
3.85475e-06;0.0029271536549674315
3.85500e-06;0.002958862860326652
3.85525e-06;0.0029896835092613956
3.85550e-06;0.0030198514921750516
3.85575e-06;0.0030493067641080493
3.85600e-06;0.003077640792442936
3.85625e-06;0.0031048350690854693
3.85650e-06;0.003130711147164944
3.85675e-06;0.0031550909468747433
3.85700e-06;0.0031776544326832497
3.85725e-06;0.003197670565781941
3.85750e-06;0.003214197607899047
3.85775e-06;0.00322668743650554
3.85800e-06;0.003235076859392438
3.85825e-06;0.0032394537332933846
3.85850e-06;0.00323881145555193
3.85875e-06;0.0032357188825275973
3.85900e-06;0.0032293035688953434
3.85925e-06;0.003216650904625778
3.85950e-06;0.0032012094599233316
3.85975e-06;0.00318051292111051
3.86000e-06;0.003155956389539658
3.86025e-06;0.003126669145710944
3.86050e-06;0.0030939070801810097
3.86075e-06;0.0030569756654822513
3.86100e-06;0.003016981763745217
3.86125e-06;0.0029729754314069957
3.86150e-06;0.0029260218724851818
3.86175e-06;0.002875301731000917
3.86200e-06;0.0028218149442179943
3.86225e-06;0.0027653516041554397
3.86250e-06;0.0027067019142649955
3.86275e-06;0.002645888721364694
3.86300e-06;0.0025834863835751585
3.86325e-06;0.002519480227950167
3.86350e-06;0.002454296029630255
3.86375e-06;0.002388254215629947
3.86400e-06;0.0023213207076590455
3.86425e-06;0.0022541786923889434
3.86450e-06;0.0021872540170666567
3.86475e-06;0.002120971857773389
3.86500e-06;0.0020557360914633025
3.86525e-06;0.0019918871227747994
3.86550e-06;0.0019297327787472882
3.86575e-06;0.0018696416168602638
3.86600e-06;0.001812056692251707
3.86625e-06;0.0017574443332197777
3.86650e-06;0.0017074534423367563
3.86675e-06;0.001659871066054094
3.86700e-06;0.0016158519426497668
3.86725e-06;0.001576239979010204
3.86750e-06;0.0015394672002091267
3.86775e-06;0.0015038141929923751
3.86800e-06;0.0014702959628884215
3.86825e-06;0.0014383457778129108
3.86850e-06;0.0014091819040667683
3.86875e-06;0.0013820646428693503
3.86900e-06;0.0013572860254014523
3.86925e-06;0.0013354103424843646
3.86950e-06;0.0013154455508534591
3.86975e-06;0.001296244938993834
3.87000e-06;0.0012784779373185154
3.87025e-06;0.0012617639567331787
3.87050e-06;0.0012468706141001754
3.87075e-06;0.001233314573742377
3.87100e-06;0.0012212667436493432
3.87125e-06;0.0012110909195947228
3.87150e-06;0.0012021502614755466
3.87175e-06;0.0011937045627076462
3.87200e-06;0.0011861690990201958
3.87225e-06;0.0011793022248469123
3.87250e-06;0.0011735669362404068
3.87275e-06;0.0011686628243931254
3.87300e-06;0.0011646837803908749
3.87325e-06;0.0011618426942936507
3.87350e-06;0.001159719824982381
3.87375e-06;0.0011578771450608434
3.87400e-06;0.0011565329735495912
3.87425e-06;0.0011555549684309232
3.87450e-06;0.0011551932277650719
3.87475e-06;0.001155284148131419
3.87500e-06;0.001155984654850711
3.87525e-06;0.001157132917377551
3.87550e-06;0.0011585294105816732
3.87575e-06;0.00116010823517629
3.87600e-06;0.0011618441125719968
3.87625e-06;0.001163695349019695
3.87650e-06;0.0011656975306595467
3.87675e-06;0.0011679287774663434
3.87700e-06;0.0011704567800220039
3.87725e-06;0.0011736154496501234
3.87750e-06;0.001177873649018696
3.87775e-06;0.00118350660834023
3.87800e-06;0.0011905346498908235
3.87825e-06;0.0011988971979126897
3.87850e-06;0.0012085334028281397
3.87875e-06;0.001219382343788201
3.87900e-06;0.0012314322334364798
3.87925e-06;0.00124481685190201
3.87950e-06;0.0012602309759195505
3.87975e-06;0.0012766924516719002
3.88000e-06;0.0012945180048299489
3.88025e-06;0.0013141677508250287
3.88050e-06;0.0013355239797729172
3.88075e-06;0.0013576900391253748
3.88100e-06;0.0013812038329960425
3.88125e-06;0.0014057075702184458
3.88150e-06;0.0014316267961481755
3.88175e-06;0.001458585732508
3.88200e-06;0.0014864891669632274
3.88225e-06;0.001515603558317688
3.88250e-06;0.0015455306805990956
3.88275e-06;0.0015762657150601538
3.88300e-06;0.0016073606549737544
3.88325e-06;0.0016389786008500985
3.88350e-06;0.0016709807071590356
3.88375e-06;0.0017032744350153146
3.88400e-06;0.0017358574022360038
3.88425e-06;0.0017684743437248562
3.88450e-06;0.001800958302092641
3.88475e-06;0.0018331422884692262
3.88500e-06;0.0018648715113841754
3.88525e-06;0.0018960268148389575
3.88550e-06;0.0019265098718316686
3.88575e-06;0.001956192771809969
3.88600e-06;0.0019849079736319877
3.88625e-06;0.002012475803311994
3.88650e-06;0.0020382602529162206
3.88675e-06;0.002063115273372321
3.88700e-06;0.0020865793026732526
3.88725e-06;0.002108263063978386
3.88750e-06;0.002128853792134276
3.88775e-06;0.0021485644581647374
3.88800e-06;0.0021673765788119545
3.88825e-06;0.002185194622240723
3.88850e-06;0.0022015691591900826
3.88875e-06;0.0022172052503106237
3.88900e-06;0.002231776536863025
3.88925e-06;0.0022449742675851067
3.88950e-06;0.0022572952795357603
3.88975e-06;0.002268889921397187
3.89000e-06;0.0022795374192543247
3.89025e-06;0.002289705831954655
3.89050e-06;0.0022989211891952265
3.89075e-06;0.0023074365043255795
3.89100e-06;0.002315206691166249
3.89125e-06;0.002322019749545996
3.89150e-06;0.002328224932806951
3.89175e-06;0.002333932900072164
3.89200e-06;0.002339163613257934
3.89225e-06;0.002343906523713951
3.89250e-06;0.00234800309903688
3.89275e-06;0.002351778098677762
3.89300e-06;0.0023551230823798722
3.89325e-06;0.0023579328720649143
3.89350e-06;0.002360436313184382
3.89375e-06;0.0023627193763408097
3.89400e-06;0.002364811003968078
3.89425e-06;0.002366673152311395
3.89450e-06;0.0023684249700742527
3.89475e-06;0.0023700018820252645
3.89500e-06;0.0023714503214594352
3.89525e-06;0.002372855604931595
3.89550e-06;0.002374229189313831
3.89575e-06;0.0023757184155662903
3.89600e-06;0.0023772925835480394
3.89625e-06;0.0023789926622370034
3.89650e-06;0.002380886571400822
3.89675e-06;0.002382969691016941
3.89700e-06;0.002385102747788898
3.89725e-06;0.002386660207636168
3.89750e-06;0.0023867192832997294
3.89775e-06;0.002384735987269938
3.89800e-06;0.002380682119528397
3.89825e-06;0.002374694028544405
3.89850e-06;0.0023664470223685565
3.89875e-06;0.002357124366981302
3.89900e-06;0.0023463938070602745
3.89925e-06;0.0023334304053183653
3.89950e-06;0.002317374231312105
3.89975e-06;0.00229969307223303
3.90000e-06;0.0022792755030024508
3.90025e-06;0.002256847974837094
3.90050e-06;0.0022316801437585556
3.90075e-06;0.002204499494418403
3.90100e-06;0.002177318845078158
3.90125e-06;0.0021470138741165722
3.90150e-06;0.002114414013935161
3.90175e-06;0.0020818141537536396
3.90200e-06;0.002046792436466802
3.90225e-06;0.002009991807007356
3.90250e-06;0.0019719120026178453
3.90275e-06;0.001932892613539824
3.90300e-06;0.0018930541001405843
3.90325e-06;0.0018526139202673265
3.90350e-06;0.0018114994536562428
3.90375e-06;0.0017698897072521097
3.90400e-06;0.0017280957929479927
3.90425e-06;0.0016861666029009074
3.90450e-06;0.001644505073781414
3.90475e-06;0.0016034348606546263
3.90500e-06;0.001563186807911362
3.90525e-06;0.0015239426028012316
3.90550e-06;0.001485838149546437
3.90575e-06;0.0014490676718834428
3.90600e-06;0.0014139046998717245
3.90625e-06;0.001380648156577075
3.90650e-06;0.001350355496775734
3.90675e-06;0.0013216074897501643
3.90700e-06;0.0012959226499541674
3.90725e-06;0.0012724877800090388
3.90750e-06;0.0012515228002698189
3.90775e-06;0.0012323720141680008
3.90800e-06;0.0012156473582607059
3.90825e-06;0.0012007047532122878
3.90850e-06;0.0011892033271676005
3.90875e-06;0.0011802295296947554
3.90900e-06;0.0011712557322219406
3.90925e-06;0.0011650317905893693
3.90950e-06;0.0011624814702031376
3.90975e-06;0.0011611458954234781
3.91000e-06;0.0011614116216078626
3.91025e-06;0.001163936534946032
3.91050e-06;0.0011683516042024088
3.91075e-06;0.0011746771527596015
3.91100e-06;0.0011828953639639104
3.91125e-06;0.0011928655344486372
3.91150e-06;0.0012043491127629747
3.91175e-06;0.0012171618783234576
3.91200e-06;0.0012312218423785569
3.91225e-06;0.0012464820265918326
3.91250e-06;0.0012628955470693841
3.91275e-06;0.001280415506254406
3.91300e-06;0.001298971077451346
3.91325e-06;0.0013184145881904453
3.91350e-06;0.001338537031502597
3.91375e-06;0.0013591634699107495
3.91400e-06;0.0013801830200147387
3.91425e-06;0.0014015066597291188
3.91450e-06;0.001423045429930246
3.91475e-06;0.0014447104742465217
3.91500e-06;0.0014663979829719809
3.91525e-06;0.0014879558715975795
3.91550e-06;0.001509193669876478
3.91575e-06;0.0015299423045656503
3.91600e-06;0.0015500728509274856
3.91625e-06;0.0015694700084947064
3.91650e-06;0.0015880187274485106
3.91675e-06;0.0016056038373998016
3.91700e-06;0.0016221098365315505
3.91725e-06;0.0016374285743697998
3.91750e-06;0.001651099070729265
3.91775e-06;0.0016639417179949078
3.91800e-06;0.001675238938850691
3.91825e-06;0.001685401006915947
3.91850e-06;0.0016935685155927533
3.91875e-06;0.0017002709725265326
3.91900e-06;0.0017069734294602895
3.91925e-06;0.0017112428879357267
3.91950e-06;0.0017137252506481495
3.91975e-06;0.0017162076133605726
3.92000e-06;0.001716752398662372
3.92025e-06;0.0017158739868515268
3.92050e-06;0.0017135610252236985
3.92075e-06;0.001710194352324113
3.92100e-06;0.0017054928648479353
3.92125e-06;0.0016998109240278672
3.92150e-06;0.0016929244754745156
3.92175e-06;0.0016851532870812804
3.92200e-06;0.0016763552821047998
3.92225e-06;0.001666803055702902
3.92250e-06;0.0016564104625817159
3.92275e-06;0.0016454005999352553
3.92300e-06;0.0016337373909243076
3.92325e-06;0.0016215942833275228
3.92350e-06;0.0016090040450634831
3.92375e-06;0.0015960853785926873
3.92400e-06;0.0015829554962393155
3.92425e-06;0.0015696704707506852
3.92450e-06;0.0015564154463741152
3.92475e-06;0.0015431824585343866
3.92500e-06;0.0015302211921755851
3.92525e-06;0.0015174595117662729
3.92550e-06;0.0015050581802840543
3.92575e-06;0.0014932513446200165
3.92600e-06;0.001482085569693455
3.92625e-06;0.00147168026198884
3.92650e-06;0.0014621548992620184
3.92675e-06;0.0014536289551141484
3.92700e-06;0.0014462670589427096
3.92725e-06;0.0014403598719106875
3.92750e-06;0.0014362493397779895
3.92775e-06;0.0014341327475381675
3.92800e-06;0.0014340424246204995
3.92825e-06;0.0014359605060272104
3.92850e-06;0.0014398688309681111
3.92875e-06;0.001445749305769553
3.92900e-06;0.0014536120079043909
3.92925e-06;0.0014635460624436963
3.92950e-06;0.0014763098163027078
3.92975e-06;0.0014904903666544467
3.93000e-06;0.0015065225292619738
3.93025e-06;0.0015250689493676447
3.93050e-06;0.0015460741256594836
3.93075e-06;0.0015682625949614679
3.93100e-06;0.0015924521787048496
3.93125e-06;0.0016181116290346898
3.93150e-06;0.0016456908149507976
3.93175e-06;0.0016746800927308536
3.93200e-06;0.0017053034914838014
3.93225e-06;0.0017371271913120385
3.93250e-06;0.0017702200657001084
3.93275e-06;0.0018042451792642084
3.93300e-06;0.001839207945032754
3.93325e-06;0.0018748594388503217
3.93350e-06;0.0019111833065834282
3.93375e-06;0.0019480010490950583
3.93400e-06;0.0019850980637031203
3.93425e-06;0.0020224002103689984
3.93450e-06;0.002059538793925159
3.93475e-06;0.002096557236451619
3.93500e-06;0.0021331831812084487
3.93525e-06;0.002169135175054442
3.93550e-06;0.0022043261625111312
3.93575e-06;0.002238576152549413
3.93600e-06;0.0022716796615004074
3.93625e-06;0.002303423819194241
3.93650e-06;0.0023335955143203874
3.93675e-06;0.002361981509645054
3.93700e-06;0.0023883148033976994
3.93725e-06;0.0024121825791882066
3.93750e-06;0.0024331283937096757
3.93775e-06;0.0024508905810954806
3.93800e-06;0.0024654168394556523
3.93825e-06;0.002476717583207424
3.93850e-06;0.0024848032540941006
3.93875e-06;0.0024896842308971094
3.93900e-06;0.0024913374327045997
3.93925e-06;0.0024876197942983918
3.93950e-06;0.002480967434758128
3.93975e-06;0.0024743150752178644
3.94000e-06;0.0024628099407266587
3.94025e-06;0.0024477403265621275
3.94050e-06;0.0024291792407009983
3.94075e-06;0.002408053585079708
3.94100e-06;0.002383720830718528
3.94125e-06;0.002357032385358969
3.94150e-06;0.002327313961918696
3.94175e-06;0.0022953699468553504
3.94200e-06;0.0022608453663421338
3.94225e-06;0.0022244252985698645
3.94250e-06;0.0021859743501519507
3.94275e-06;0.002146031671156385
3.94300e-06;0.0021045681304196354
3.94325e-06;0.0020619874802316066
3.94350e-06;0.0020183288706247457
3.94375e-06;0.0019738784739528545
3.94400e-06;0.0019289951082124151
3.94425e-06;0.0018837305595958847
3.94450e-06;0.0018385253294812274
3.94475e-06;0.0017936725872841819
3.94500e-06;0.0017494571086935993
3.94525e-06;0.0017061412511795288
3.94550e-06;0.0016639805742580285
3.94575e-06;0.0016232606445511209
3.94600e-06;0.001584299307286794
3.94625e-06;0.0015474238552333217
3.94650e-06;0.0015129616660937751
3.94675e-06;0.0014812400819351605
3.94700e-06;0.0014525826548150475
3.94725e-06;0.0014272776738184622
3.94750e-06;0.0014055246835232463
3.94775e-06;0.001388509503307166
