Time(s);Current(A)
2.75000e-06;0.002341802280120474
2.75025e-06;0.0023334725892207885
2.75050e-06;0.0023251428983210886
2.75075e-06;0.0023168132074213887
2.75100e-06;0.0023084835165217026
2.75125e-06;0.0023001538256220027
2.75150e-06;0.00229623809800575
2.75175e-06;0.0022960171916172035
2.75200e-06;0.002295796285228657
2.75225e-06;0.00229557537884011
2.75250e-06;0.0022953544724515634
2.75275e-06;0.0022951335660630168
2.75300e-06;0.00229491265967447
2.75325e-06;0.0022946917532859234
2.75350e-06;0.0022944708468973767
2.75375e-06;0.00229424994050883
2.75400e-06;0.0022940290341202834
2.75425e-06;0.0022938081277317367
2.75450e-06;0.00229358722134319
2.75475e-06;0.0022933663149546433
2.75500e-06;0.0022971987291572206
2.75525e-06;0.002304424079367919
2.75550e-06;0.0023116494295786303
2.75575e-06;0.0023188747797893415
2.75600e-06;0.002326100130000052
2.75625e-06;0.002333325480210751
2.75650e-06;0.002340550830421462
2.75675e-06;0.002347776180632173
2.75700e-06;0.0023550015308428716
2.75725e-06;0.0023622268810535828
2.75750e-06;0.0023694522312642935
2.75775e-06;0.0023766775814749925
2.75800e-06;0.0023839029316857032
2.75825e-06;0.0023911282818964144
2.75850e-06;0.002397924372314992
2.75875e-06;0.002404361139809835
2.75900e-06;0.0024107979073046885
2.75925e-06;0.0024172346747995425
2.75950e-06;0.0024236714422943857
2.75975e-06;0.002430108209789239
2.76000e-06;0.002436544977284093
2.76025e-06;0.0024429817447789467
2.76050e-06;0.00244941851227379
2.76075e-06;0.0024558552797686434
2.76100e-06;0.0024622920472634974
2.76125e-06;0.00246872881475834
2.76150e-06;0.002475165582253194
2.76175e-06;0.002481602349748048
2.76200e-06;0.002488039117242891
2.76225e-06;0.0024944758847377448
2.76250e-06;0.0025009126522325983
2.76275e-06;0.002505980957673357
2.76300e-06;0.0025099037568372317
2.76325e-06;0.002513826556001113
2.76350e-06;0.0025177493551649943
2.76375e-06;0.0025216721543288695
2.76400e-06;0.002525594953492751
2.76425e-06;0.002529517752656632
2.76450e-06;0.002533440551820514
2.76475e-06;0.0025373633509843886
2.76500e-06;0.00254128615014827
2.76525e-06;0.0025452089493121517
2.76550e-06;0.0025491317484760264
2.76575e-06;0.0025530545476399077
2.76600e-06;0.0025569773468037895
2.76625e-06;0.0025609001459676642
2.76650e-06;0.0025648229451315455
2.76675e-06;0.0025687457442954273
2.76700e-06;0.0025720251032066562
2.76725e-06;0.002574765853943816
2.76750e-06;0.0025775066046809804
2.76775e-06;0.0025802473554181445
2.76800e-06;0.002582988106155304
2.76825e-06;0.0025857288568924687
2.76850e-06;0.002588469607629633
2.76875e-06;0.002591210358366793
2.76900e-06;0.002593951109103957
2.76925e-06;0.0025966918598411214
2.76950e-06;0.002599432610578286
2.76975e-06;0.0026021733613154456
2.77000e-06;0.0026049141120526097
2.77025e-06;0.002607654862789774
2.77050e-06;0.002610395613526934
2.77075e-06;0.002613136364264098
2.77100e-06;0.0026158771150012624
2.77125e-06;0.002618617865738427
2.77150e-06;0.0026213586164755866
2.77175e-06;0.0026240993672127506
2.77200e-06;0.002626840117949915
2.77225e-06;0.002629580868687075
2.77250e-06;0.0026323216194242393
2.77275e-06;0.0026350818715628376
2.77300e-06;0.0026378584478499055
2.77325e-06;0.002640635024136978
2.77350e-06;0.0026434116004240508
2.77375e-06;0.0026461881767111234
2.77400e-06;0.0026489647529981913
2.77425e-06;0.002651741329285264
2.77450e-06;0.0026545179055723366
2.77475e-06;0.0026572944818594045
2.77500e-06;0.002660071058146477
2.77525e-06;0.00266284763443355
2.77550e-06;0.0026656242107206225
2.77575e-06;0.0026684007870076904
2.77600e-06;0.002671177363294763
2.77625e-06;0.0026739539395818357
2.77650e-06;0.0026767305158689036
2.77675e-06;0.0026795070921559762
2.77700e-06;0.002682283668443049
2.77725e-06;0.0026850602447301168
2.77750e-06;0.0026878368210171894
2.77775e-06;0.002690613397304262
2.77800e-06;0.0026933899735913347
2.77825e-06;0.0026961665498784026
2.77850e-06;0.002698689018331141
2.77875e-06;0.00270099877930076
2.77900e-06;0.002703308540270375
2.77925e-06;0.002705618301239994
2.77950e-06;0.002707928062209613
2.77975e-06;0.0027102378231792317
2.78000e-06;0.002712547584148847
2.78025e-06;0.0027148573451184657
2.78050e-06;0.002717167106088085
2.78075e-06;0.0027194768670576997
2.78100e-06;0.002721786628027319
2.78125e-06;0.0027237980980030553
2.78150e-06;0.002719381017246947
2.78175e-06;0.002714963936490831
2.78200e-06;0.002710546855734715
2.78225e-06;0.0027061297749785993
2.78250e-06;0.002701712694222491
2.78275e-06;0.002697295613466375
2.78300e-06;0.0026928785327102593
2.78325e-06;0.002688461451954151
2.78350e-06;0.002684044371198035
2.78375e-06;0.002679627290441919
2.78400e-06;0.0026752102096858034
2.78425e-06;0.0026657192363092603
2.78450e-06;0.002651981030918942
2.78475e-06;0.0026382428255286236
2.78500e-06;0.002624504620138329
2.78525e-06;0.0026107664147480107
2.78550e-06;0.0025970282093576926
2.78575e-06;0.0025832900039673974
2.78600e-06;0.0025695517985770792
2.78625e-06;0.002555813593186761
2.78650e-06;0.002542075387796443
2.78675e-06;0.00252818287733071
2.78700e-06;0.002510964896012079
2.78725e-06;0.0024937469146934475
2.78750e-06;0.0024765289333748453
2.78775e-06;0.002459310952056214
2.78800e-06;0.0024420929707375826
2.78825e-06;0.0024248749894189513
2.78850e-06;0.002407657008100349
2.78875e-06;0.0023904390267817177
2.78900e-06;0.0023732210454630864
2.78925e-06;0.002356003064144484
2.78950e-06;0.0023395916239832685
2.78975e-06;0.002323855319793702
2.79000e-06;0.0023084741089075596
2.79025e-06;0.0023002675521957014
2.79050e-06;0.0022920609954838436
2.79075e-06;0.0022731219885840635
2.79100e-06;-0.00038186589378323655
2.79125e-06;-0.008766146606373107
2.79150e-06;-0.0114778410061212
2.79175e-06;-0.009616986186931856
2.79200e-06;-0.0062908337651635705
2.79225e-06;0.000488653208742462
2.79250e-06;0.0034709266999474924
2.79275e-06;0.003321302616020866
2.79300e-06;0.0015511367859083968
2.79325e-06;-0.003804390557063139
2.79350e-06;-0.0056445621066228005
2.79375e-06;-0.004654902992049202
2.79400e-06;-0.0035847481822714735
2.79425e-06;0.0005846029139190905
2.79450e-06;0.003547135965741986
2.79475e-06;0.00434844012726478
2.79500e-06;0.0032339296690880835
2.79525e-06;0.0007169757866105756
2.79550e-06;-0.00108399096657224
2.79575e-06;-0.001172850275801029
2.79600e-06;8.630819730905365e-05
2.79625e-06;0.002200522745203181
2.79650e-06;0.003864458294722394
2.79675e-06;0.004369076313556019
2.79700e-06;0.0036755829980679505
2.79725e-06;0.0021052117743650734
2.79750e-06;0.000984571882183106
2.79775e-06;0.0009372074814311398
2.79800e-06;0.001734643587435309
2.79825e-06;0.003067732428213636
2.79850e-06;0.004118532172270178
2.79875e-06;0.004442698333806944
2.79900e-06;0.004015766706583221
2.79925e-06;0.0030388013178969503
2.79950e-06;0.0023425976109530734
2.79975e-06;0.002317507486604804
2.80000e-06;0.0028201782337994442
2.80025e-06;0.0036567477117931515
2.80050e-06;0.004314684721164918
2.80075e-06;0.004515518206281454
2.80100e-06;0.00424378538766455
2.80125e-06;0.0036253002150331
2.80150e-06;0.0031804182169900535
2.80175e-06;0.0031536968005710852
2.80200e-06;0.0034554215377976425
2.80225e-06;0.003964251706861126
2.80250e-06;0.004359255446599702
2.80275e-06;0.004466139685724769
2.80300e-06;0.004275370106078835
2.80325e-06;0.0038659059158593747
2.80350e-06;0.0035638298681011
2.80375e-06;0.003522443131922514
2.80400e-06;0.0036856565792257245
2.80425e-06;0.003977577591640224
2.80450e-06;0.004197302286179011
2.80475e-06;0.004235797391154386
2.80500e-06;0.004087238723423991
2.80525e-06;0.0038012325926998517
2.80550e-06;0.0035821727636638923
2.80575e-06;0.0035262093440790545
2.80600e-06;0.0035983280904340253
2.80625e-06;0.0037511135569932743
2.80650e-06;0.003858851811476903
2.80675e-06;0.003853385050621569
2.80700e-06;0.0037312099262808876
2.80725e-06;0.0035235428815461327
2.80750e-06;0.0033585520535616875
2.80775e-06;0.003296592994464522
2.80800e-06;0.003315859031821265
2.80825e-06;0.0033867773628296917
2.80850e-06;0.003430734238413027
2.80875e-06;0.003405175091852538
2.80900e-06;0.003308045976146472
2.80925e-06;0.0031590414570827675
2.80950e-06;0.0030385812932685274
2.80975e-06;0.0029846026415204278
2.81000e-06;0.002983575090607316
2.81025e-06;0.0030171052327225842
2.81050e-06;0.003036083517228722
2.81075e-06;0.0030139717590800764
2.81100e-06;0.002950759024413869
2.81125e-06;0.002860351816805723
2.81150e-06;0.0027795300943960505
2.81175e-06;0.0027477086002026347
2.81200e-06;0.002750606516323785
2.81225e-06;0.0027766090802446245
2.81250e-06;0.002794862919867077
2.81275e-06;0.0027886556848785555
2.81300e-06;0.002757986976805424
2.81325e-06;0.002711613748262878
2.81350e-06;0.002671512210305626
2.81375e-06;0.002663441381389753
2.81400e-06;0.0026777719047215054
2.81425e-06;0.0027068921497386414
2.81450e-06;0.0027331489454209133
2.81475e-06;0.0027438752540759523
2.81500e-06;0.002739769977071967
2.81525e-06;0.0027262683608771116
2.81550e-06;0.0027167615560400827
2.81575e-06;0.0027276330381541675
2.81600e-06;0.0027526304703277154
2.81625e-06;0.0027868854459446764
2.81650e-06;0.0028183888604531833
2.81675e-06;0.002837731033344101
2.81700e-06;0.0028547173243395423
2.81725e-06;0.002861291181147782
2.81750e-06;0.0028710292473115534
2.81775e-06;0.002894752361593446
2.81800e-06;0.0029203820435220558
2.81825e-06;0.0029544382981845714
2.81850e-06;0.0029857897102821603
2.81875e-06;0.003005186365543677
2.81900e-06;0.0030245830208051605
2.81925e-06;0.003043819293634131
2.81950e-06;0.003062346714492673
2.81975e-06;0.0030808741353511838
2.82000e-06;0.0031001111195949954
2.82025e-06;0.0031224842041947683
2.82050e-06;0.0031448572887945417
2.82075e-06;0.0031646814144392125
2.82100e-06;0.003173239751498503
2.82125e-06;0.003181798088557794
2.82150e-06;0.00319035642561707
2.82175e-06;0.0031989147626763606
2.82200e-06;0.0032056328862841836
2.82225e-06;0.003211502857251557
2.82250e-06;0.00321737282821892
2.82275e-06;0.0032232427991862934
2.82300e-06;0.003227053018668123
2.82325e-06;0.0032217596295067022
2.82350e-06;0.0032164662403452726
2.82375e-06;0.003211172851183843
2.82400e-06;0.0032058794620224225
2.82425e-06;0.003200586072860993
2.82450e-06;0.0031952926836995633
2.82475e-06;0.0031899992945381337
2.82500e-06;0.0031796194022553114
2.82525e-06;0.0031668951454914486
2.82550e-06;0.003154170888727586
2.82575e-06;0.0031414466319637444
2.82600e-06;0.0031287223751998816
2.82625e-06;0.003115998118436019
2.82650e-06;0.003103273861672156
2.82675e-06;0.0030897115410472354
2.82700e-06;0.0030724451787148546
2.82725e-06;0.0030551788163824737
2.82750e-06;0.0030379124540501224
2.82775e-06;0.0030206460917177416
2.82800e-06;0.0030033797293853607
2.82825e-06;0.0029861133670530094
2.82850e-06;0.0029688470047206286
2.82875e-06;0.0029515806423882477
2.82900e-06;0.0029343142800558673
2.82925e-06;0.0029170479177235155
2.82950e-06;0.0028997815553911347
2.82975e-06;0.0028825151930587543
2.83000e-06;0.0028657121134478365
2.83025e-06;0.002850956632596718
2.83050e-06;0.0028362011517455996
2.83075e-06;0.002821445670894481
2.83100e-06;0.002806690190043388
2.83125e-06;0.0027919347091922694
2.83150e-06;0.0027771792283411514
2.83175e-06;0.0027624237474900577
2.83200e-06;0.002747668266638939
2.83225e-06;0.002732912785787821
2.83250e-06;0.0027181573049367275
2.83275e-06;0.0027034018240856095
2.83300e-06;0.002688646343234491
2.83325e-06;0.0026729807729909735
2.83350e-06;0.002653292825427857
2.83375e-06;0.002633604877864707
2.83400e-06;0.0026139169303015576
2.83425e-06;0.002594228982738441
2.83450e-06;0.0025745410351752916
2.83475e-06;0.0025548530876121417
2.83500e-06;0.002535165140048992
2.83525e-06;0.0025154771924858757
2.83550e-06;0.0024957892449227258
2.83575e-06;0.0024761012973595763
2.83600e-06;0.0024557837927711625
2.83625e-06;0.002432683796790954
2.83650e-06;0.0024095838008107457
2.83675e-06;0.0023864838048305763
2.83700e-06;0.0023633838088503675
2.83725e-06;0.002340283812870159
2.83750e-06;0.0023171838168899502
2.83775e-06;0.002294083820909781
2.83800e-06;0.0022709838249295724
2.83825e-06;0.002247883828949364
2.83850e-06;0.0022247838329691946
2.83875e-06;0.0022021814492215745
2.83900e-06;0.002181778392457886
2.83925e-06;0.002161375335694198
2.83950e-06;0.002140972278930544
2.83975e-06;0.0021205692221668558
2.84000e-06;0.0021001661654031674
2.84025e-06;0.0020797631086395137
2.84050e-06;0.002065161862249346
2.84075e-06;0.002053234664776937
2.84100e-06;0.0020413074673045484
2.84125e-06;0.0020293802698321396
2.84150e-06;0.002017453072359731
2.84175e-06;0.002005525874887322
2.84200e-06;0.0019956136645770213
2.84225e-06;0.0019946072153147194
2.84250e-06;0.001993600766052418
2.84275e-06;0.0019939439922391864
2.84300e-06;0.0020002524609187768
2.84325e-06;0.0020065609295983676
2.84350e-06;0.002014336940495078
2.84375e-06;0.002028599136792501
2.84400e-06;0.0020428613330899475
2.84425e-06;0.0020593246422350147
2.84450e-06;0.0020855163434162034
2.84475e-06;0.0021117080445974363
2.84500e-06;0.0021378997457786693
2.84525e-06;0.002164091446959858
2.84550e-06;0.002190283148141091
2.84575e-06;0.002216474849322324
2.84600e-06;0.0022426665505035567
2.84625e-06;0.002270831379830499
2.84650e-06;0.002307716963370924
2.84675e-06;0.0023446025469113486
2.84700e-06;0.002381488130451711
2.84725e-06;0.0024183737139921355
2.84750e-06;0.0024552592975325602
2.84775e-06;0.0024921448810729225
2.84800e-06;0.002529030464613347
2.84825e-06;0.0025652518319297466
2.84850e-06;0.0025985375224899764
2.84875e-06;0.00263182321305015
2.84900e-06;0.0026651089036103803
2.84925e-06;0.00269839459417061
2.84950e-06;0.002731680284730784
2.84975e-06;0.002764965975291014
2.85000e-06;0.002798251665851244
2.85025e-06;0.002831537356411474
2.85050e-06;0.0028648230469716478
2.85075e-06;0.0028981087375318775
2.85100e-06;0.0029221973274995957
2.85125e-06;0.002942046982496239
2.85150e-06;0.002961896637492917
2.85175e-06;0.002981746292489594
2.85200e-06;0.0030015959474862376
2.85225e-06;0.003021445602482915
2.85250e-06;0.0030412952574795926
2.85275e-06;0.00306114491247627
2.85300e-06;0.0030809945674729134
2.85325e-06;0.0031008442224695907
2.85350e-06;0.003119477500249292
2.85375e-06;0.0031327346818216077
2.85400e-06;0.0031459918633939456
2.85425e-06;0.0031592490449662836
2.85450e-06;0.0031725062265386215
2.85475e-06;0.0031857634081109373
2.85500e-06;0.003199020589683275
2.85525e-06;0.003212277771255613
2.85550e-06;0.003225534952827929
2.85575e-06;0.003238792134400267
2.85600e-06;0.0032520493159726048
2.85625e-06;0.0032653064975449206
2.85650e-06;0.0032785636791172585
2.85675e-06;0.0032918208606895964
2.85700e-06;0.0033050780422619348
2.85725e-06;0.00331833522383425
2.85750e-06;0.003328016125146889
2.85775e-06;0.0033360487222676206
2.85800e-06;0.0033440813193883387
2.85825e-06;0.0033521139165090703
2.85850e-06;0.0033601465136298015
2.85875e-06;0.003368179110750533
2.85900e-06;0.0033762117078712513
2.85925e-06;0.003384244304991983
2.85950e-06;0.0033922769021127144
2.85975e-06;0.003400309499233432
2.86000e-06;0.0034083420963541638
2.86025e-06;0.0034163746934748954
2.86050e-06;0.003424407290595613
2.86075e-06;0.0034324398877163447
2.86100e-06;0.0034404724848370763
2.86125e-06;0.0034451587995094355
2.86150e-06;0.003435055346558736
2.86175e-06;0.003424951893608019
2.86200e-06;0.003414848440657302
2.86225e-06;0.0034047449877066026
2.86250e-06;0.003394641534755886
2.86275e-06;0.0033845380818051693
2.86300e-06;0.0033744346288544524
2.86325e-06;0.003364331175903753
2.86350e-06;0.003354227722953036
2.86375e-06;0.003344124270002319
2.86400e-06;0.0033340208170516195
2.86425e-06;0.003307905979385495
2.86450e-06;0.0032744115096353006
2.86475e-06;0.0032409170398851636
2.86500e-06;0.0032074225701349693
2.86525e-06;0.003173928100384775
2.86550e-06;0.003140433630634581
2.86575e-06;0.0031069391608844438
2.86600e-06;0.00307344469113425
2.86625e-06;0.0030399502213840556
2.86650e-06;0.003006455751633918
2.86675e-06;0.0029729612818837244
2.86700e-06;0.00293782061472025
2.86725e-06;0.002895404148941109
2.86750e-06;0.0028529876831620404
2.86775e-06;0.0028105712173828994
2.86800e-06;0.0027681547516037585
2.86825e-06;0.0027257382858246896
2.86850e-06;0.002683321820045549
2.86875e-06;0.002640905354266408
2.86900e-06;0.002602656095923717
2.86925e-06;0.002566327499550314
2.86950e-06;0.0025299989031769107
2.86975e-06;0.0024936703068035074
2.87000e-06;0.0024573417104301657
2.87025e-06;0.002421013114056763
2.87050e-06;0.0023846845176833595
2.87075e-06;0.0023508120980721406
2.87100e-06;0.0023277953919630936
2.87125e-06;0.0023047786858540467
2.87150e-06;0.0022817619797449997
2.87175e-06;0.002258745273635992
2.87200e-06;0.002235728567526945
2.87225e-06;0.002212711861417898
2.87250e-06;0.00218969515530889
2.87275e-06;0.002166678449199843
2.87300e-06;0.002143661743090796
2.87325e-06;0.002122064670674708
2.87350e-06;0.002106742039449718
2.87375e-06;0.002091419408224728
2.87400e-06;0.0020760967769997384
2.87425e-06;0.0020607741457747742
2.87450e-06;0.0020454515145497845
2.87475e-06;0.0020301288833247944
2.87500e-06;0.0020148062520998307
2.87525e-06;0.0019994836208748405
2.87550e-06;0.001984160989649851
2.87575e-06;0.0019696069060943797
2.87600e-06;0.001958449619317659
2.87625e-06;0.0019472923325409195
2.87650e-06;0.00193613504576418
2.87675e-06;0.0019249777589874595
2.87700e-06;0.00191382047221072
2.87725e-06;0.0019026631854339806
2.87750e-06;0.00189150589865726
2.87775e-06;0.0018803486118805206
2.87800e-06;0.0018691913251037812
2.87825e-06;0.0018580340383270418
2.87850e-06;0.0018476014581872199
2.87875e-06;0.001840371907953601
2.87900e-06;0.0018331423577199822
2.87925e-06;0.0018259128074863758
2.87950e-06;0.0018186832572527568
2.87975e-06;0.001811453707019138
2.88000e-06;0.0018042241567855194
2.88025e-06;0.0017969946065519128
2.88050e-06;0.001789765056318294
2.88075e-06;0.0017825355060846753
2.88100e-06;0.0017753059558510687
2.88125e-06;0.0017707013082131444
2.88150e-06;0.001777698101885589
2.88175e-06;0.0017846948955580217
2.88200e-06;0.0017916916892304663
2.88225e-06;0.001798688482902911
2.88250e-06;0.0018056852765753555
2.88275e-06;0.0018126820702477882
2.88300e-06;0.0018196788639202328
2.88325e-06;0.0018266756575926774
2.88350e-06;0.0018336724512651103
2.88375e-06;0.0018406692449375547
2.88400e-06;0.001851306728288492
2.88425e-06;0.00187803518876904
2.88450e-06;0.0019047636492495424
2.88475e-06;0.0019314921097300904
2.88500e-06;0.0019582205702106384
2.88525e-06;0.0019849490306911408
2.88550e-06;0.0020116774911716883
2.88575e-06;0.0020384059516522363
2.88600e-06;0.0020651344121327387
2.88625e-06;0.0020918628726132866
2.88650e-06;0.0021185913330938346
2.88675e-06;0.0021469106213241234
2.88700e-06;0.002182260987509176
2.88725e-06;0.002217611353694289
2.88750e-06;0.0022529617198794017
2.88775e-06;0.002288312086064455
2.88800e-06;0.0023236624522495674
2.88825e-06;0.0023590128184346804
2.88850e-06;0.002394363184619793
2.88875e-06;0.002427095998665244
2.88900e-06;0.002458622385403064
2.88925e-06;0.002490148772140884
2.88950e-06;0.0025216751588786504
2.88975e-06;0.0025532015456164706
2.89000e-06;0.0025847279323542903
2.89025e-06;0.0026162543190920567
2.89050e-06;0.002644628214990655
2.89075e-06;0.002659068855797812
2.89100e-06;0.0026735094966049686
2.89125e-06;0.002687950137412101
2.89150e-06;0.0027023907782192575
2.89175e-06;0.002716831419026414
2.89200e-06;0.0027312720598335464
2.89225e-06;0.002745712700640703
2.89250e-06;0.00276015334144786
2.89275e-06;0.0027745939822550166
2.89300e-06;0.002789034623062149
2.89325e-06;0.0028034752638693055
2.89350e-06;0.002817915904676462
2.89375e-06;0.0028196419728061355
2.89400e-06;0.0028155079064032225
2.89425e-06;0.0028113738400003096
2.89450e-06;0.0028072397735974036
2.89475e-06;0.0028031057071944906
2.89500e-06;0.0027989716407915777
2.89525e-06;0.0027948375743886648
2.89550e-06;0.0027907035079857588
2.89575e-06;0.0027865694415828454
2.89600e-06;0.0027824353751799325
2.89625e-06;0.0027783013087770265
2.89650e-06;0.0027741672423741135
2.89675e-06;0.0027685117315104147
2.89700e-06;0.0027561318002244373
2.89725e-06;0.002743751868938481
2.89750e-06;0.0027313719376525036
2.89775e-06;0.002718992006366526
2.89800e-06;0.00270661207508057
2.89825e-06;0.0026942321437945925
2.89850e-06;0.002681852212508615
