Time(s);Current(A)
6.00000e-06;-0.0021938544041986995
6.00025e-06;-0.002173401210042341
6.00050e-06;-0.0021522427985319038
6.00075e-06;-0.002130913493707631
6.00100e-06;-0.002109584188883286
6.00125e-06;-0.002088424432089696
6.00150e-06;-0.002067305761387715
6.00175e-06;-0.0020461404243706594
6.00200e-06;-0.002024963778838409
6.00225e-06;-0.002003881403010765
6.00250e-06;-0.0019830248416502307
6.00275e-06;-0.0019625250134020352
6.00300e-06;-0.0019425118377652654
6.00325e-06;-0.001923070348365748
6.00350e-06;-0.0019041933636884717
6.00375e-06;-0.0018858620506355124
6.00400e-06;-0.0018681392740336612
6.00425e-06;-0.0018511427382273472
6.00450e-06;-0.0018349985664257785
6.00475e-06;-0.0018198331175449847
6.00500e-06;-0.0018057740368213912
6.00525e-06;-0.001793390439414613
6.00550e-06;-0.0017841032296969297
6.00575e-06;-0.0017793171248771222
6.00600e-06;-0.001779519947964171
6.00625e-06;-0.001784620426107227
6.00650e-06;-0.0017944379991421237
6.00675e-06;-0.0018087924817345986
6.00700e-06;-0.0018275043416264563
6.00725e-06;-0.0018506704323984348
6.00750e-06;-0.0018812639469084852
6.00775e-06;-0.0019134452746053748
6.00800e-06;-0.001954742745119032
6.00825e-06;-0.0019982493045692115
6.00850e-06;-0.002047929452035547
6.00875e-06;-0.0021028215031237774
6.00900e-06;-0.002162030585756795
6.00925e-06;-0.0022253578533677435
6.00950e-06;-0.0022929387453777678
6.00975e-06;-0.0023649021473748583
6.01000e-06;-0.002441017280514742
6.01025e-06;-0.0025208258830184023
6.01050e-06;-0.002603835336411081
6.01075e-06;-0.002689552454222031
6.01100e-06;-0.0027774848053922488
6.01125e-06;-0.002867248511764046
6.01150e-06;-0.002958668675015773
6.01175e-06;-0.003051566698937213
6.01200e-06;-0.0031455387078834092
6.01225e-06;-0.0032400383434642243
6.01250e-06;-0.0033344974534927773
6.01275e-06;-0.003428347743783953
6.01300e-06;-0.003521021624396583
6.01325e-06;-0.003612019156422546
6.01350e-06;-0.0037009718233759897
6.01375e-06;-0.003787508820223468
6.01400e-06;-0.0038711174660867433
6.01425e-06;-0.0039511966219526054
6.01450e-06;-0.004027130865262384
6.01475e-06;-0.004098305716283251
6.01500e-06;-0.0041618501173143856
6.01525e-06;-0.004223776083607215
6.01550e-06;-0.00427801878785143
6.01575e-06;-0.004330399629076815
6.01600e-06;-0.00437647583240333
6.01625e-06;-0.004421024250776199
6.01650e-06;-0.004457520499572811
6.01675e-06;-0.004492065489039501
6.01700e-06;-0.004522993474991558
6.01725e-06;-0.004545677140147983
6.01750e-06;-0.004568360805304332
6.01775e-06;-0.004582638361561192
6.01800e-06;-0.004594878889379834
6.01825e-06;-0.0046071194171984345
6.01850e-06;-0.00461068013536875
6.01875e-06;-0.004612137499977599
6.01900e-06;-0.004613594864586443
6.01925e-06;-0.004606815593360447
6.01950e-06;-0.0045980403616215325
6.01975e-06;-0.004589265129882647
6.02000e-06;-0.004574517484425593
6.02025e-06;-0.00455832256095512
6.02050e-06;-0.004542127637484703
6.02075e-06;-0.0045207032130377646
6.02100e-06;-0.004498011538507258
6.02125e-06;-0.004475319863976752
6.02150e-06;-0.004449012455871719
6.02175e-06;-0.004421828857343413
6.02200e-06;-0.004394645258815108
6.02225e-06;-0.0043657709278243015
6.02250e-06;-0.00433648688644938
6.02275e-06;-0.004307202845074458
6.02300e-06;-0.004277445518555509
6.02325e-06;-0.004247573502195146
6.02350e-06;-0.004217701485834784
6.02375e-06;-0.004189436864769108
6.02400e-06;-0.004161561759229151
6.02425e-06;-0.004133686653689193
6.02450e-06;-0.004109143910365036
6.02475e-06;-0.004085408688889673
6.02500e-06;-0.00406167346741423
6.02525e-06;-0.004042797789863937
6.02550e-06;-0.00402509971175809
6.02575e-06;-0.004007401633652183
6.02600e-06;-0.003995636737074869
6.02625e-06;-0.003985309611485816
6.02650e-06;-0.003974982485896728
6.02675e-06;-0.003973478672992506
6.02700e-06;-0.003974112988331508
6.02725e-06;-0.003974747303670512
6.02750e-06;-0.003975381619009515
6.02775e-06;-0.003976015934348516
6.02800e-06;-0.003980836437615598
6.02825e-06;-0.0039951986170358045
6.02850e-06;-0.004009560796456011
6.02875e-06;-0.004023922975876266
6.02900e-06;-0.0040382851552964736
6.02925e-06;-0.004052647334716729
6.02950e-06;-0.004074314243482065
6.02975e-06;-0.004097751286513122
6.03000e-06;-0.004121188329544258
6.03025e-06;-0.004148077867754865
6.03050e-06;-0.0041758040392931
6.03075e-06;-0.0042056879188022405
6.03100e-06;-0.004236094669540861
6.03125e-06;-0.004268152733137194
6.03150e-06;-0.004300610954677159
6.03175e-06;-0.004334194977639818
6.03200e-06;-0.004368051812856101
6.03225e-06;-0.00440239817584283
6.03250e-06;-0.004436863164700338
6.03275e-06;-0.004471281299827913
6.03300e-06;-0.004505436945032187
6.03325e-06;-0.004539117921023524
6.03350e-06;-0.004572126628761532
6.03375e-06;-0.004604255314287559
6.03400e-06;-0.004635279629995796
6.03425e-06;-0.004664967744388615
6.03450e-06;-0.004693086826822156
6.03475e-06;-0.004719404046652871
6.03500e-06;-0.0047436861984073465
6.03525e-06;-0.0047643650293072255
6.03550e-06;-0.004784269022541264
6.03575e-06;-0.00479869975045951
6.03600e-06;-0.00481180415757628
6.03625e-06;-0.0048177076461754596
6.03650e-06;-0.004821866156691561
6.03675e-06;-0.0048260246672076484
6.03700e-06;-0.0048183885071198815
6.03725e-06;-0.004807894178084564
6.03750e-06;-0.004797399849049282
6.03775e-06;-0.004786905520013964
6.03800e-06;-0.004776411190978682
6.03825e-06;-0.004751434486469861
6.03850e-06;-0.004722948309144516
6.03875e-06;-0.004694462131819267
6.03900e-06;-0.004665975954494018
6.03925e-06;-0.004637489777168673
6.03950e-06;-0.00459910706754646
6.03975e-06;-0.0045583261594287685
6.04000e-06;-0.004517545251310939
6.04025e-06;-0.0044708572748096975
6.04050e-06;-0.0044227378552448935
6.04075e-06;-0.004374618435679927
6.04100e-06;-0.0043224608493111745
6.04125e-06;-0.004269324705477776
6.04150e-06;-0.0042161885616441965
6.04175e-06;-0.004160891148956373
6.04200e-06;-0.004105070002140169
6.04225e-06;-0.004048604897659929
6.04250e-06;-0.003991983744752319
6.04275e-06;-0.003935773499056047
6.04300e-06;-0.003879662827334649
6.04325e-06;-0.003824969949481084
6.04350e-06;-0.0037706206415787425
6.04375e-06;-0.003717912057591457
6.04400e-06;-0.0036670522192827214
6.04425e-06;-0.0036182892426567075
6.04450e-06;-0.0035719888138234833
6.04475e-06;-0.0035285161474793
6.04500e-06;-0.0034896999388889997
6.04525e-06;-0.003451875087428245
6.04550e-06;-0.003420373709067061
6.04575e-06;-0.003390404679938408
6.04600e-06;-0.0033672453719187285
6.04625e-06;-0.0033457362442272675
6.04650e-06;-0.0033312268763734
6.04675e-06;-0.0033184137403918404
6.04700e-06;-0.0033146071407367758
6.04725e-06;-0.0033129830693870753
6.04750e-06;-0.003311358998037375
6.04775e-06;-0.0033204912936482707
6.04800e-06;-0.0033322301490400115
6.04825e-06;-0.0033439690044317523
6.04850e-06;-0.003364046230725431
6.04875e-06;-0.0033861440706992978
6.04900e-06;-0.003414393243169082
6.04925e-06;-0.003444133050529057
6.04950e-06;-0.0034781966137949595
6.04975e-06;-0.003515983101083722
6.05000e-06;-0.0035568921041861717
6.05025e-06;-0.0036006657823955705
6.05050e-06;-0.003647043921884051
6.05075e-06;-0.0036957665928215367
6.05100e-06;-0.0037465735813800214
6.05125e-06;-0.0037992057073895982
6.05150e-06;-0.0038533958169177005
6.05175e-06;-0.003908847395162155
6.05200e-06;-0.003965236306154103
6.05225e-06;-0.004022227704915445
6.05250e-06;-0.004079485758826774
6.05275e-06;-0.004136674351270293
6.05300e-06;-0.004193457274796178
6.05325e-06;-0.004249499071614866
6.05350e-06;-0.004304459592811768
6.05375e-06;-0.004357979891660453
6.05400e-06;-0.004409683633312629
6.05425e-06;-0.004459188680010429
6.05450e-06;-0.004506111133685828
6.05475e-06;-0.004550067573436795
6.05500e-06;-0.004589214048139012
6.05525e-06;-0.004627338669053471
6.05550e-06;-0.004658584412753397
6.05575e-06;-0.0046881632177231845
6.05600e-06;-0.004717742022692972
6.05625e-06;-0.0047376145152612835
6.05650e-06;-0.004755134904780915
6.05675e-06;-0.004772655294300547
6.05700e-06;-0.004790175683820238
6.05725e-06;-0.0047961819566222875
6.05750e-06;-0.004799398046303078
6.05775e-06;-0.00480261413598388
6.05800e-06;-0.004805830225664671
6.05825e-06;-0.004800016227210106
6.05850e-06;-0.004792013993208124
6.05875e-06;-0.00478401175920617
6.05900e-06;-0.004768789427892141
6.05925e-06;-0.004751817470953636
6.05950e-06;-0.0047348455140151305
6.05975e-06;-0.004711964114770005
6.06000e-06;-0.0046876506971962354
6.06025e-06;-0.004663337279622466
6.06050e-06;-0.004634337489508379
6.06075e-06;-0.004604202064079829
6.06100e-06;-0.004574066638651279
6.06125e-06;-0.004540467785505452
6.06150e-06;-0.0045060296497821785
6.06175e-06;-0.004471591514058906
6.06200e-06;-0.0044354431547210535
6.06225e-06;-0.0043988803617642245
6.06250e-06;-0.004362317568807395
6.06275e-06;-0.004325565611724762
6.06300e-06;-0.004288767815038272
6.06325e-06;-0.004251970018351657
6.06350e-06;-0.004216279156652927
6.06375e-06;-0.0041808565353580705
6.06400e-06;-0.004147988691777674
6.06425e-06;-0.0041157399402068934
6.06450e-06;-0.004083491188636113
6.06475e-06;-0.004055792746373826
6.06500e-06;-0.004029196967610532
6.06525e-06;-0.004002601188847238
6.06550e-06;-0.003980135743381155
6.06575e-06;-0.003958671189822983
6.06600e-06;-0.003937206636264811
6.06625e-06;-0.003915742082706566
6.06650e-06;-0.003895801133187117
6.06675e-06;-0.003879332970021342
6.06700e-06;-0.003862864806855511
6.06725e-06;-0.003846396643689736
6.06750e-06;-0.003829928480523905
6.06775e-06;-0.0038186501376318346
6.06800e-06;-0.0038086294291098635
6.06825e-06;-0.0037986087205878582
6.06850e-06;-0.0037885880120658868
6.06875e-06;-0.0037785673035439153
6.06900e-06;-0.00376854659502191
6.06925e-06;-0.003758525886499939
6.06950e-06;-0.0037485051779779675
6.06975e-06;-0.003738484469455962
6.07000e-06;-0.0037284637609339907
6.07025e-06;-0.0037184430524120193
6.07050e-06;-0.003708422343890014
6.07075e-06;-0.003698401635368043
6.07100e-06;-0.0036928327087676475
6.07125e-06;-0.0036883425698047674
6.07150e-06;-0.0036838524308419026
6.07175e-06;-0.0036793622918790225
6.07200e-06;-0.0036748721529161576
6.07225e-06;-0.0036703820139532928
6.07250e-06;-0.0036658918749904127
6.07275e-06;-0.003661401736027548
6.07300e-06;-0.003656911597064683
6.07325e-06;-0.003652421458101803
6.07350e-06;-0.003647931319138938
6.07375e-06;-0.003643441180176073
6.07400e-06;-0.003638951041213193
6.07425e-06;-0.0036356524863102565
6.07450e-06;-0.003632642684579743
6.07475e-06;-0.003629863496908003
6.07500e-06;-0.0036271401932845056
6.07525e-06;-0.003625536787514127
6.07550e-06;-0.003624204763401779
6.07575e-06;-0.0036264548006511217
6.07600e-06;-0.0036295728686309447
6.07625e-06;-0.00363750856206691
6.07650e-06;-0.0036466116969622745
6.07675e-06;-0.0036557148318576696
6.07700e-06;-0.003670117311024676
6.07725e-06;-0.0036858039651999977
6.07750e-06;-0.003701490619375372
6.07775e-06;-0.0037239601943273265
6.07800e-06;-0.0037480734551577684
6.07825e-06;-0.0037721867159882924
6.07850e-06;-0.0038015898254011526
6.07875e-06;-0.0038322748087589397
6.07900e-06;-0.0038664200337807353
6.07925e-06;-0.003901403769312304
6.07950e-06;-0.00393990509547323
6.07975e-06;-0.003979258829355671
6.08000e-06;-0.004021269169725877
6.08025e-06;-0.004065426345638774
6.08050e-06;-0.00411122742472925
6.08075e-06;-0.004158393373550858
6.08100e-06;-0.004206646669480572
6.08125e-06;-0.004255780712061959
6.08150e-06;-0.004305727796849103
6.08175e-06;-0.004356423501527847
6.08200e-06;-0.004407659108201219
6.08225e-06;-0.004459135124034534
6.08250e-06;-0.004510536659662249
6.08275e-06;-0.004561549961711866
6.08300e-06;-0.004611860515647683
6.08325e-06;-0.004661198888850234
6.08350e-06;-0.0047093834794218374
6.08375e-06;-0.004756233688909646
6.08400e-06;-0.004801479188579329
6.08425e-06;-0.004843852320979004
6.08450e-06;-0.0048856079357813866
6.08475e-06;-0.004923063502664042
6.08500e-06;-0.004959477051178289
6.08525e-06;-0.004992375258042207
6.08550e-06;-0.005022933527710325
6.08575e-06;-0.005052418270176074
6.08600e-06;-0.0050807427620159695
6.08625e-06;-0.0051088279584067175
6.08650e-06;-0.00513435088048576
6.08675e-06;-0.005159252893926772
6.08700e-06;-0.005184154907367698
6.08725e-06;-0.005206131311439079
6.08750e-06;-0.005227398760922426
6.08775e-06;-0.00524769583842267
6.08800e-06;-0.00526775776844332
6.08825e-06;-0.005287819698464038
6.08850e-06;-0.005305893114537955
6.08875e-06;-0.005323484659689361
6.08900e-06;-0.005341076204840708
6.08925e-06;-0.005358667749992054
6.08950e-06;-0.005375578961218061
6.08975e-06;-0.0053909394714017605
6.09000e-06;-0.0054062999815854594
6.09025e-06;-0.005421660491769211
6.09050e-06;-0.00543702100195291
6.09075e-06;-0.005450757582680489
6.09100e-06;-0.00546410064120705
6.09125e-06;-0.005477443699733566
6.09150e-06;-0.0054907867582600816
6.09175e-06;-0.005504129816786643
6.09200e-06;-0.005515996645472921
6.09225e-06;-0.005527505743585504
6.09250e-06;-0.005539014841698126
6.09275e-06;-0.00555052393981071
6.09300e-06;-0.005562033037923332
6.09325e-06;-0.005571712441656929
6.09350e-06;-0.005580948460761648
6.09375e-06;-0.005590184479866399
6.09400e-06;-0.005599420498971118
6.09425e-06;-0.0056086565180758375
6.09450e-06;-0.005616842563833913
6.09475e-06;-0.005624306384900811
6.09500e-06;-0.005631128713076973
6.09525e-06;-0.005636825637540165
6.09550e-06;-0.00564011771651666
6.09575e-06;-0.005639726541320294
6.09600e-06;-0.005633602593648258
6.09625e-06;-0.005626274947631183
6.09650e-06;-0.005611370116406624
6.09675e-06;-0.005594629127466566
6.09700e-06;-0.005577888138526566
6.09725e-06;-0.005551772030581671
6.09750e-06;-0.005523384076743958
6.09775e-06;-0.005494996122906245
6.09800e-06;-0.005455473099023341
6.09825e-06;-0.005413251745323578
6.09850e-06;-0.005371030391623814
6.09875e-06;-0.005319556113446701
6.09900e-06;-0.0052658396004288885
6.09925e-06;-0.005212123087411075
6.09950e-06;-0.005149908432269522
6.09975e-06;-0.0050856344465458675
6.10000e-06;-0.005021360460822213
6.10025e-06;-0.004949883120184033
6.10050e-06;-0.004876660211061328
6.10075e-06;-0.004803437301938622
6.10100e-06;-0.00472586399275388
6.10125e-06;-0.004647236463510252
6.10150e-06;-0.004568608934266358
6.10175e-06;-0.004487598924090521
6.10200e-06;-0.00440601157409455
6.10225e-06;-0.004323905834430118
6.10250e-06;-0.004241674474873801
6.10275e-06;-0.004160493013698239
6.10300e-06;-0.004079565971407397
6.10325e-06;-0.004000343092982635
6.10350e-06;-0.003923000263727061
6.10375e-06;-0.003847727420443903
6.10400e-06;-0.0037749550311856105
6.10425e-06;-0.0037051956908970545
6.10450e-06;-0.0036406504360155657
6.10475e-06;-0.0035772214315028385
6.10500e-06;-0.0035211985960836535
6.10525e-06;-0.003466970476531334
6.10550e-06;-0.003419714566825953
6.10575e-06;-0.0033741482128788742
6.10600e-06;-0.0033363265306065523
6.10625e-06;-0.003300381592567766
6.10650e-06;-0.0032644366545288577
6.10675e-06;-0.003238963212776318
6.10700e-06;-0.003216027298900619
6.10725e-06;-0.003193091385024842
6.10750e-06;-0.003180043357375139
6.10775e-06;-0.003169391433038189
6.10800e-06;-0.003158739508701203
6.10825e-06;-0.003156618711514127
6.10850e-06;-0.003156565238076301
6.10875e-06;-0.003156511764638475
6.10900e-06;-0.0031635561002796454
6.10925e-06;-0.003172320427783386
6.10950e-06;-0.0031859747853749502
6.10975e-06;-0.003200814130032908
6.11000e-06;-0.0032195881572249733
6.11025e-06;-0.003239315664831122
6.11050e-06;-0.0032617470074854426
6.11075e-06;-0.0032865201096510866
6.11100e-06;-0.003313301681671019
6.11125e-06;-0.003341913829777295
6.11150e-06;-0.003372026361149172
6.11175e-06;-0.003403264298258123
6.11200e-06;-0.0034353543344948544
6.11225e-06;-0.0034680994820821755
6.11250e-06;-0.0035013152937343676
6.11275e-06;-0.0035348169927519263
6.11300e-06;-0.0035684197116039045
6.11325e-06;-0.0036018947276677754
6.11350e-06;-0.003634918354328058
6.11375e-06;-0.003667138409051989
6.11400e-06;-0.0036982667264821253
6.11425e-06;-0.003727415094754799
6.11450e-06;-0.0037561377814478714
6.11475e-06;-0.003780674234624058
6.11500e-06;-0.003804196249752966
6.11525e-06;-0.0038277182648817944
6.11550e-06;-0.0038494842976674283
6.11575e-06;-0.003867247878794408
6.11600e-06;-0.003885011459921328
6.11625e-06;-0.003902775041048248
6.11650e-06;-0.003913228249666211
6.11675e-06;-0.0039219099565312564
6.11700e-06;-0.003930591663396302
6.11725e-06;-0.003939273370261378
6.11750e-06;-0.003947955077126424
6.11775e-06;-0.003956636783991469
6.11800e-06;-0.003965318490856545
6.11825e-06;-0.003974000197721591
6.11850e-06;-0.003979523667056944
6.11875e-06;-0.003977848491663615
6.11900e-06;-0.003976173316270286
6.11925e-06;-0.003974498140876952
6.11950e-06;-0.003972822965483624
6.11975e-06;-0.003971147790090296
6.12000e-06;-0.003969472614696961
6.12025e-06;-0.003967797439303632
6.12050e-06;-0.003966122263910304
6.12075e-06;-0.00395962208175967
6.12100e-06;-0.003951952669461542
6.12125e-06;-0.003944283257163414
6.12150e-06;-0.00393661384486526
6.12175e-06;-0.003928944432567132
6.12200e-06;-0.003921275020269004
6.12225e-06;-0.00391360560797085
6.12250e-06;-0.0039059361956727216
6.12275e-06;-0.003897356298267172
6.12300e-06;-0.003888555765598343
6.12325e-06;-0.003879755232929514
6.12350e-06;-0.0038709547002606557
6.12375e-06;-0.0038621541675918267
6.12400e-06;-0.0038533536349229978
6.12425e-06;-0.003844553102254139
6.12450e-06;-0.00383575256958531
6.12475e-06;-0.003828235922824782
6.12500e-06;-0.0038210303964802796
6.12525e-06;-0.003813967867719633
6.12550e-06;-0.0038069399911562626
6.12575e-06;-0.0037979017147478263
6.12600e-06;-0.003788376263869981
6.12625e-06;-0.003775194591545601
6.12650e-06;-0.003761126917489858
6.12675e-06;-0.0037470592434341622
6.12700e-06;-0.003732991569378419
6.12725e-06;-0.003718923895322724
6.12750e-06;-0.0036988725126725366
6.12775e-06;-0.0036773711149584447
6.12800e-06;-0.0036558697172444257
6.12825e-06;-0.003634368319530407
6.12850e-06;-0.0036128669218163153
6.12875e-06;-0.003585396771218357
6.12900e-06;-0.0035564802297313788
6.12925e-06;-0.0035275636882443023
6.12950e-06;-0.003498647146757324
6.12975e-06;-0.0034697306052703454
6.13000e-06;-0.0034360466405354353
6.13025e-06;-0.0034012073997013183
6.13050e-06;-0.0033663681588672013
6.13075e-06;-0.0033315289180329668
6.13100e-06;-0.0032966896771988497
6.13125e-06;-0.003259865037669811
6.13150e-06;-0.0032225592821290825
6.13175e-06;-0.003185253526588354
6.13200e-06;-0.003147335673919303
6.13225e-06;-0.003109269493496401
6.13250e-06;-0.0030714756269520256
6.13275e-06;-0.003033747749454225
6.13300e-06;-0.002997002019843975
6.13325e-06;-0.00296049429133437
6.13350e-06;-0.0029254122281198724
6.13375e-06;-0.0028906756423165425
6.13400e-06;-0.002857851532062731
6.13425e-06;-0.0028254908665624576
6.13450e-06;-0.0027957935544881663
6.13475e-06;-0.0027667416452649674
6.13500e-06;-0.0027411387328115347
6.13525e-06;-0.002716371605923498
6.13550e-06;-0.0026959733082318484
6.13575e-06;-0.002676633696478027
6.13600e-06;-0.002662159188628422
6.13625e-06;-0.002648863627553166
6.13650e-06;-0.0026417751236799173
6.13675e-06;-0.0026361907583020935
6.13700e-06;-0.002630606392924251
6.13725e-06;-0.002632693045158965
6.13750e-06;-0.0026366385932463233
6.13775e-06;-0.0026405841413336953
6.13800e-06;-0.002652132425531159
6.13825e-06;-0.002665523059119195
6.13850e-06;-0.0026789136927072763
6.13875e-06;-0.0026980732698863906
6.13900e-06;-0.0027186308187371654
6.13925e-06;-0.002743406796311395
6.13950e-06;-0.002769205013704853
6.13975e-06;-0.002797966916933418
6.14000e-06;-0.0028292454352811594
6.14025e-06;-0.0028625973944841738
6.14050e-06;-0.002897822463605567
6.14075e-06;-0.002934720550290757
6.14100e-06;-0.0029730914656020398
6.14125e-06;-0.003012744158517081
6.14150e-06;-0.0030534978622251633
6.14175e-06;-0.003095153334565829
6.14200e-06;-0.0031374773337521597
6.14225e-06;-0.003180218708494268
6.14250e-06;-0.0032231240482205516
6.14275e-06;-0.0032659402206057803
6.14300e-06;-0.0033084137639101713
6.14325e-06;-0.0033502969354254467
6.14350e-06;-0.003391348460533595
6.14375e-06;-0.003431315734041098
6.14400e-06;-0.00346992455382443
6.14425e-06;-0.0035068898494955967
6.14450e-06;-0.0035419250065323944
6.14475e-06;-0.003574743410412596
6.14500e-06;-0.0036050582591987145
6.14525e-06;-0.0036325253565724115
6.14550e-06;-0.0036567206389520376
