Time(s);Current(A)
1.35000e-05;-0.0014968997200051108
1.35003e-05;-0.0014266678972992425
1.35005e-05;-0.001353387264191519
1.35008e-05;-0.0012776075292761475
1.35010e-05;-0.0011999042453649307
1.35013e-05;-0.0011207735979776121
1.35015e-05;-0.0010406731779050277
1.35018e-05;-0.0009600579697374179
1.35020e-05;-0.0008793833085482462
1.35023e-05;-0.000799105430571096
1.35025e-05;-0.0007197298319046926
1.35028e-05;-0.0006418533884317486
1.35030e-05;-0.0005660891815412116
1.35033e-05;-0.0004930005397239018
1.35035e-05;-0.0004231264274102516
1.35038e-05;-0.0003570043441937697
1.35040e-05;-0.000295171834472285
1.35043e-05;-0.00023814827479246947
1.35045e-05;-0.00018562764473805066
1.35048e-05;-0.00013600009780324635
1.35050e-05;-8.789570001927146e-05
1.35053e-05;-4.1149879267019174e-05
1.35055e-05;3.907104118142637e-06
1.35058e-05;4.6919229350042073e-05
1.35060e-05;8.753054714627124e-05
1.35063e-05;0.0001253964743472695
1.35065e-05;0.00016068950955573316
1.35068e-05;0.00019439877109222624
1.35070e-05;0.00022736301090234593
1.35073e-05;0.0002596659577638692
1.35075e-05;0.00029054226769814834
1.35078e-05;0.00032133374197157666
1.35080e-05;0.0003495159413149604
1.35083e-05;0.0003775387390932092
1.35085e-05;0.0004029565544595869
1.35088e-05;0.0004282152304919515
1.35090e-05;0.0004525177447192829
1.35093e-05;0.0004767618466701817
1.35095e-05;0.0004995743138806375
1.35098e-05;0.0005222993219982934
1.35100e-05;0.0005450243301159493
1.35103e-05;0.000563993572440605
1.35105e-05;0.0005827333736511396
1.35108e-05;0.0006014731748618014
1.35110e-05;0.0006202129760724631
1.35113e-05;0.0006389527772829979
1.35115e-05;0.0006576925784936595
1.35118e-05;0.0006764323797043213
1.35120e-05;0.0006931044988861818
1.35123e-05;0.0007071707992410798
1.35125e-05;0.0007212370995959777
1.35128e-05;0.0007353033999507804
1.35130e-05;0.0007493697003056784
1.35133e-05;0.0007634360006605763
1.35135e-05;0.0007775023010153791
1.35138e-05;0.000791568601370277
1.35140e-05;0.0008025319899723542
1.35143e-05;0.0008133058205537376
1.35145e-05;0.0008232303908557072
1.35148e-05;0.0008331030795347317
1.35150e-05;0.0008448825513215673
1.35153e-05;0.0008567785091901136
1.35155e-05;0.0008686744670586598
1.35158e-05;0.0008826355512056579
1.35160e-05;0.0008967227946769526
1.35163e-05;0.0009108100381482472
1.35165e-05;0.0009270069147721952
1.35168e-05;0.0009433326696617928
1.35170e-05;0.0009596584245513903
1.35173e-05;0.0009801587743027348
1.35175e-05;0.0010009141515904007
1.35178e-05;0.0010216695288780668
1.35180e-05;0.0010424249061655921
1.35183e-05;0.0010649645515027574
1.35185e-05;0.001089752840109295
1.35188e-05;0.0011145411287158328
1.35190e-05;0.0011393294173222025
1.35193e-05;0.0011641177059287403
1.35195e-05;0.0011917958572081745
1.35198e-05;0.0012196505512615165
1.35200e-05;0.0012475052453150472
1.35203e-05;0.0012762198143729565
1.35205e-05;0.0013049869135111109
1.35208e-05;0.00133411326760344
1.35210e-05;0.001363533327614015
1.35213e-05;0.0013931174436390805
1.35215e-05;0.0014226856628607905
1.35218e-05;0.0014520556453729513
1.35220e-05;0.001481044645929709
1.35223e-05;0.0015094716478828989
1.35225e-05;0.0015372115856980846
1.35228e-05;0.0015642246512015095
1.35230e-05;0.001590447510853322
1.35233e-05;0.0016157287444210104
1.35235e-05;0.001639882034393044
1.35238e-05;0.0016627190341838476
1.35240e-05;0.0016840518226542112
1.35243e-05;0.0017036813147568138
1.35245e-05;0.0017209357568212184
1.35248e-05;0.001734472411724451
1.35250e-05;0.00174326511217786
1.35253e-05;0.001747110331095265
1.35255e-05;0.0017461187547677776
1.35258e-05;0.0017404173856091646
1.35260e-05;0.001730133232735533
1.35263e-05;0.001715386393348997
1.35265e-05;0.0016960006466575567
1.35268e-05;0.0016687152193967365
1.35270e-05;0.0016409635529030227
1.35273e-05;0.0016029152740845208
1.35275e-05;0.0015642379714299502
1.35278e-05;0.00151640386396812
1.35280e-05;0.0014680103639306287
1.35283e-05;0.0014115815994031932
1.35285e-05;0.001354661957610419
1.35288e-05;0.0012898305880744067
1.35290e-05;0.0012245158881791693
1.35293e-05;0.0011519159213090125
1.35295e-05;0.0010788708947980586
1.35298e-05;0.001000177353498437
1.35300e-05;0.0009211387423508843
1.35303e-05;0.0008372860928776943
1.35305e-05;0.0007531393520319286
1.35308e-05;0.0006689926111855927
1.35310e-05;0.0005812580384552166
1.35313e-05;0.0004933042837550923
1.35315e-05;0.000405350529054372
1.35318e-05;0.0003172832900528436
1.35320e-05;0.00022920911825420533
1.35323e-05;0.00014255011968573856
1.35325e-05;5.750591667776673e-05
1.35328e-05;-2.5594930027934235e-05
1.35330e-05;-0.00010635636579009581
1.35333e-05;-0.00018425572256393873
1.35335e-05;-0.00025872203652997086
1.35338e-05;-0.0003291818833182725
1.35340e-05;-0.00039506198184989207
1.35343e-05;-0.00045580429580565355
1.35345e-05;-0.0005115527852175456
1.35348e-05;-0.000563577955256693
1.35350e-05;-0.000612988230595169
1.35353e-05;-0.0006598979695180774
1.35355e-05;-0.0007025289823650297
1.35358e-05;-0.0007449073900352147
1.35360e-05;-0.0007807698377205762
1.35363e-05;-0.0008162342230121377
1.35365e-05;-0.0008452252169318146
1.35368e-05;-0.0008738207489894277
1.35370e-05;-0.0008983117835986358
1.35373e-05;-0.0009225520729477447
1.35375e-05;-0.0009417056142252303
1.35378e-05;-0.0009605484041906016
1.35380e-05;-0.000979391194155973
1.35383e-05;-0.0009914335019663538
1.35385e-05;-0.001003060365818497
1.35388e-05;-0.0010146872296706404
1.35390e-05;-0.0010218481194336528
1.35393e-05;-0.0010287361811955088
1.35395e-05;-0.001035624242957365
1.35398e-05;-0.0010385143293725062
1.35400e-05;-0.0010411601780018936
1.35403e-05;-0.0010438060266312807
1.35405e-05;-0.0010417493122942038
1.35408e-05;-0.0010394053166542902
1.35410e-05;-0.0010370613210143767
1.35413e-05;-0.001034717325374479
1.35415e-05;-0.0010323733297345654
1.35418e-05;-0.0010300293340946521
1.35420e-05;-0.0010264838237894077
1.35423e-05;-0.0010214240915219126
1.35425e-05;-0.0010163643592544175
1.35428e-05;-0.0010113046269869567
1.35430e-05;-0.0010062448947194616
1.35433e-05;-0.0010011851624519665
1.35435e-05;-0.000996125430184506
1.35438e-05;-0.0009914510000441571
1.35440e-05;-0.0009868001081526096
1.35443e-05;-0.0009821492162610619
1.35445e-05;-0.0009774983243695458
1.35448e-05;-0.0009728474324779982
1.35450e-05;-0.0009681965405864507
1.35453e-05;-0.0009635456486949345
1.35455e-05;-0.0009557355027653114
1.35458e-05;-0.0009477323568433359
1.35460e-05;-0.0009397292109214148
1.35463e-05;-0.0009317260649994394
1.35465e-05;-0.0009237229190774641
1.35468e-05;-0.0009157197731555429
1.35470e-05;-0.0009077166272335675
1.35473e-05;-0.0008944179541265642
1.35475e-05;-0.0008807957753141452
1.35478e-05;-0.000867173596501634
1.35480e-05;-0.0008535514176891227
1.35483e-05;-0.0008399292388767037
1.35485e-05;-0.0008263070600641924
1.35488e-05;-0.0008126848812516812
1.35490e-05;-0.0007990627024392623
1.35493e-05;-0.0007814598303507608
1.35495e-05;-0.0007636137762442757
1.35498e-05;-0.0007457677221379115
1.35500e-05;-0.0007279216680314264
1.35503e-05;-0.0007100756139249413
1.35505e-05;-0.0006922295598185772
1.35508e-05;-0.000674383505712092
1.35510e-05;-0.0006565374516056069
1.35513e-05;-0.0006379362615541348
1.35515e-05;-0.000619288939969585
1.35518e-05;-0.0006006416183850352
1.35520e-05;-0.0005819942968006117
1.35523e-05;-0.0005633469752160619
1.35525e-05;-0.000545720190524786
1.35528e-05;-0.0005293795485849428
1.35530e-05;-0.0005130389066452102
1.35533e-05;-0.0004966982647053671
1.35535e-05;-0.00048035762276552377
1.35538e-05;-0.0004640169808257913
1.35540e-05;-0.0004509681794430355
1.35543e-05;-0.00043812047781217
1.35545e-05;-0.0004252727761813915
1.35548e-05;-0.0004121269754063441
1.35550e-05;-0.00039896296364479796
1.35553e-05;-0.00038325125333039424
1.35555e-05;-0.00036738390317304394
1.35558e-05;-0.0003495050214988234
1.35560e-05;-0.00033150325462355914
1.35563e-05;-0.0003119899865746322
1.35565e-05;-0.0002923843803623515
1.35568e-05;-0.00027097502518818835
1.35570e-05;-0.0002476448037354577
1.35573e-05;-0.00022243390040934
1.35575e-05;-0.00019554370545928187
1.35578e-05;-0.00016718521129282512
1.35580e-05;-0.00013756940612903747
1.35583e-05;-0.00010690304052551959
1.35585e-05;-7.520605991104811e-05
1.35588e-05;-4.221488092556661e-05
1.35590e-05;-7.747228022138855e-06
1.35593e-05;2.808643930302398e-05
1.35595e-05;6.50590558678069e-05
1.35598e-05;0.00010293753836800786
1.35600e-05;0.00014148884512749758
1.35603e-05;0.00018063474446663742
1.35605e-05;0.0002198146484453195
1.35608e-05;0.0002598482629337207
1.35610e-05;0.0002999340309115917
1.35613e-05;0.0003400197988894627
1.35615e-05;0.00038022981674803644
1.35618e-05;0.00042044742507787644
1.35620e-05;0.00045969622718898887
1.35623e-05;0.0004988858445710857
1.35625e-05;0.0005363819881894164
1.35628e-05;0.0005737746768717192
1.35630e-05;0.0006096914799367149
1.35633e-05;0.000644302501461445
1.35635e-05;0.0006773830407885684
1.35638e-05;0.0007086777442606479
1.35640e-05;0.0007379311451567735
1.35643e-05;0.0007648795415840339
1.35645e-05;0.0007888898741350972
1.35648e-05;0.0008088225513824823
1.35650e-05;0.0008238239486045537
1.35653e-05;0.0008337115216423416
1.35655e-05;0.0008385542912456134
1.35658e-05;0.0008384345977959685
1.35660e-05;0.0008334345857078228
1.35663e-05;0.0008236311746270598
1.35665e-05;0.0008088701298533962
1.35668e-05;0.000788679648897304
1.35670e-05;0.0007627674222420802
1.35673e-05;0.000731261260554615
1.35675e-05;0.0006944467630825241
1.35678e-05;0.0006526178102516866
1.35680e-05;0.0006060680182599722
1.35683e-05;0.0005550878048747195
1.35685e-05;0.0004998227370086394
1.35688e-05;0.000440219576537977
1.35690e-05;0.00037633745572758124
1.35693e-05;0.00030849865680124326
1.35695e-05;0.00023712427876605298
1.35698e-05;0.00016264053099153332
1.35700e-05;8.54735696668723e-05
1.35703e-05;6.047415083633336e-06
1.35705e-05;-7.530466606902056e-05
1.35708e-05;-0.00015837391141420085
1.35710e-05;-0.0002433373662224451
1.35713e-05;-0.00032841054019987974
1.35715e-05;-0.00041416550682746794
1.35718e-05;-0.0004999621244198424
1.35720e-05;-0.0005857587420122169
1.35723e-05;-0.0006686417867514316
1.35725e-05;-0.0007513468402522627
1.35728e-05;-0.0008340518937530938
1.35730e-05;-0.0009115985200761017
1.35733e-05;-0.0009888300161829348
1.35735e-05;-0.0010596761655373825
1.35738e-05;-0.0011301322317057497
1.35740e-05;-0.0011920986024760534
1.35743e-05;-0.001253546334626608
1.35745e-05;-0.001306603935852415
1.35748e-05;-0.0013591489808892376
1.35750e-05;-0.001407430362461182
1.35753e-05;-0.0014554512752608408
1.35755e-05;-0.0014979319599249562
1.35758e-05;-0.0015400741900109848
1.35760e-05;-0.0015822164200967278
1.35763e-05;-0.0016160494325364342
1.35765e-05;-0.001649374831808578
1.35768e-05;-0.0016827002310804962
1.35770e-05;-0.001711264747938175
1.35773e-05;-0.0017395384207349609
1.35775e-05;-0.0017678120935315552
1.35778e-05;-0.0017878281823247226
1.35780e-05;-0.0018073398122684585
1.35783e-05;-0.0018268514422121944
1.35785e-05;-0.001846363072155798
1.35788e-05;-0.001865874702099534
1.35790e-05;-0.0018853863320432698
1.35793e-05;-0.0019048979619868734
1.35795e-05;-0.0019244095919306093
1.35798e-05;-0.0019357063161964017
1.35800e-05;-0.0019465011888472052
1.35803e-05;-0.0019572960614980817
1.35805e-05;-0.0019680909341489583
1.35808e-05;-0.001978885806799762
1.35810e-05;-0.0019896806794506387
1.35813e-05;-0.0020004755521015154
1.35815e-05;-0.0020112704247523187
1.35818e-05;-0.002017987657678684
1.35820e-05;-0.002024455786091646
1.35823e-05;-0.002030923914504564
1.35825e-05;-0.002037392042917526
1.35828e-05;-0.0020438601713304878
1.35830e-05;-0.002048489511218222
1.35833e-05;-0.0020530065188373646
1.35835e-05;-0.0020575235264565068
1.35838e-05;-0.002062040534075619
1.35840e-05;-0.002066557541694761
1.35843e-05;-0.0020694799671184066
1.35845e-05;-0.0020723049789280606
1.35848e-05;-0.0020751299907377342
1.35850e-05;-0.002071135157471372
1.35853e-05;-0.002066723697356038
1.35855e-05;-0.002062312237240674
1.35858e-05;-0.00205790077712531
1.35860e-05;-0.0020534893170099755
1.35863e-05;-0.0020490778568946115
1.35865e-05;-0.002039694871536503
1.35868e-05;-0.002024046467256906
1.35870e-05;-0.002008398062977415
1.35873e-05;-0.0019927496586978183
1.35875e-05;-0.0019771012544182215
1.35878e-05;-0.001961452850138731
1.35880e-05;-0.001945804445859134
1.35883e-05;-0.001919898202086746
1.35885e-05;-0.0018933653031194609
1.35888e-05;-0.001866832404151996
1.35890e-05;-0.0018402995051845315
1.35893e-05;-0.0018137666062172464
1.35895e-05;-0.0017872337072497816
1.35898e-05;-0.001760700808282317
1.35900e-05;-0.0017313263573502582
1.35903e-05;-0.0016983708095555585
1.35905e-05;-0.0016654152617608588
1.35908e-05;-0.0016324597139663825
1.35910e-05;-0.0015995041661716828
1.35913e-05;-0.0015665486183769832
1.35915e-05;-0.0015335930705825068
1.35918e-05;-0.0015006375227878072
1.35920e-05;-0.0014677329183585696
1.35923e-05;-0.0014348314260785278
1.35925e-05;-0.0014019299337982632
1.35928e-05;-0.0013712012693109224
1.35930e-05;-0.0013406053436745404
1.35933e-05;-0.0013100094180379508
1.35935e-05;-0.0012831131217482155
1.35938e-05;-0.0012564428371791326
1.35940e-05;-0.0012297725526098692
1.35943e-05;-0.0012072387193750491
1.35945e-05;-0.0011849575834771166
1.35948e-05;-0.0011630746140481305
1.35950e-05;-0.0011412159687555108
1.35953e-05;-0.0011193573234628909
1.35955e-05;-0.0010960676633091219
1.35958e-05;-0.0010726905819298275
1.35960e-05;-0.0010493135005505332
1.35963e-05;-0.001025936419171397
1.35965e-05;-0.0010025593377921028
1.35968e-05;-0.0009762649898925384
1.35970e-05;-0.0009497924251060452
1.35973e-05;-0.0009233198603193725
1.35975e-05;-0.0008968472955327
1.35978e-05;-0.0008703747307462067
1.35980e-05;-0.0008401320769813804
1.35983e-05;-0.0008096591070910623
1.35985e-05;-0.0007791861372009507
1.35988e-05;-0.0007487131673106325
1.35990e-05;-0.0007182401974203143
1.35993e-05;-0.0006863164508276902
1.35995e-05;-0.0006525643470682064
1.35998e-05;-0.0006188122433087226
1.36000e-05;-0.0005850601395494675
1.36003e-05;-0.0005513080357899835
1.36005e-05;-0.0005175559320304997
1.36008e-05;-0.0004830803506482562
1.36010e-05;-0.00044856057175106866
1.36013e-05;-0.0004140407928538811
1.36015e-05;-0.0003799000080417461
1.36018e-05;-0.00034623685465946184
1.36020e-05;-0.0003125737012771775
1.36023e-05;-0.0002789105478951213
1.36025e-05;-0.0002472844656291761
1.36028e-05;-0.00021578282878877305
1.36030e-05;-0.0001855579760451402
1.36033e-05;-0.000156429532684467
1.36035e-05;-0.00012858320232466317
1.36038e-05;-0.00010223278856132136
1.36040e-05;-7.759202683852616e-05
1.36043e-05;-5.485964859768419e-05
1.36045e-05;-3.3560243036506736e-05
1.36048e-05;-1.2188364051915962e-05
1.36050e-05;1.048428797053827e-05
1.36053e-05;3.464172834947129e-05
1.36055e-05;6.004997347206769e-05
1.36058e-05;8.64533552169894e-05
1.36060e-05;0.00011359624848979085
1.36063e-05;0.00014123244887780697
1.36065e-05;0.00016953804321832505
1.36068e-05;0.0001993342516981973
1.36070e-05;0.00023126866042915073
1.36073e-05;0.0002653346509158731
1.36075e-05;0.0003012637796256551
1.36078e-05;0.00033877402876551565
1.36080e-05;0.00037805811001995215
1.36083e-05;0.0004174450513728113
1.36085e-05;0.00045893326940923366
1.36088e-05;0.0005005498552133832
1.36090e-05;0.0005451771555163446
1.36093e-05;0.0005899883814779347
1.36095e-05;0.0006375215849636739
1.36098e-05;0.000685221075060094
1.36100e-05;0.0007329205651561908
1.36103e-05;0.0007817914875184823
1.36105e-05;0.000830733973109879
1.36108e-05;0.000880153079049908
1.36110e-05;0.0009300106408044541
1.36113e-05;0.0009800988112338978
1.36115e-05;0.0010301142950274722
1.36118e-05;0.0010797482557418565
1.36120e-05;0.0011286920629537422
1.36123e-05;0.0011766392939033493
1.36125e-05;0.0012233875580130572
1.36128e-05;0.0012688928739874744
1.36130e-05;0.0013130686558496202
1.36133e-05;0.0013556673802083605
1.36135e-05;0.0013963772485846388
1.36138e-05;0.001434883344127809
1.36140e-05;0.0014708706536791674
1.36143e-05;0.0015040324955602092
1.36145e-05;0.001534440329341931
1.36148e-05;0.001562773454124452
1.36150e-05;0.0015896263183166966
1.36153e-05;0.0016122720159510789
1.36155e-05;0.001634665783672878
1.36158e-05;0.001645060730187584
1.36160e-05;0.0016729394470997425
1.36163e-05;-0.0074155525616977965
1.36165e-05;-0.013655241175899316
1.36168e-05;-0.011400409802840461
1.36170e-05;-0.008866532259943131
1.36173e-05;-0.0023801760726088915
1.36175e-05;0.003609496404817232
1.36178e-05;0.0034784298448509612
1.36180e-05;0.002584356461239514
1.36183e-05;-0.0021342778579289973
1.36185e-05;-0.0067273729599637705
1.36188e-05;-0.005756962490376335
1.36190e-05;-0.003603088816441421
1.36193e-05;4.5161418115719615e-05
1.36195e-05;0.0034922970908714728
1.36198e-05;0.004357100768204456
1.36200e-05;0.003108067066199339
1.36203e-05;0.00044380890219013387
1.36205e-05;-0.0021141746590230544
1.36208e-05;-0.0024033200090704276
1.36210e-05;-0.001015612495996101
1.36213e-05;0.001223180646705179
1.36215e-05;0.0033314693393974404
1.36218e-05;0.0038444474192472393
1.36220e-05;0.0030368246155673254
1.36223e-05;0.0013458433665105756
1.36225e-05;-0.00027578809338796713
1.36228e-05;-0.0004738419111143489
1.36230e-05;0.0003804728065035263
1.36233e-05;0.001769592359252403
1.36235e-05;0.0030784363242662345
1.36238e-05;0.0033893409883518377
1.36240e-05;0.0028743351425152895
1.36243e-05;0.0018072520891805454
1.36245e-05;0.0007847379440248497
1.36248e-05;0.0006548130283933892
1.36250e-05;0.0011846677130142097
1.36253e-05;0.002049937159543416
1.36255e-05;0.0028652603622341915
1.36258e-05;0.0030557917082738614
1.36260e-05;0.0027292958020513807
1.36263e-05;0.0020573015603706315
1.36265e-05;0.0014135278664179668
1.36268e-05;0.001329117003241919
1.36270e-05;0.0016581673873866042
1.36273e-05;0.0021974464852880103
1.36275e-05;0.0027055367642225547
1.36278e-05;0.00282235776572304
1.36280e-05;0.0026154310131982026
1.36283e-05;0.0021922127868435576
1.36285e-05;0.001786797244833272
1.36288e-05;0.0017318636178631532
1.36290e-05;0.0019359817511389878
1.36293e-05;0.0022718202626605456
1.36295e-05;0.002588142241127685
1.36298e-05;0.002659398376378837
1.36300e-05;0.0025278976742207195
1.36303e-05;0.002260959610712556
1.36305e-05;0.002005220101235334
1.36308e-05;0.001969052415437144
1.36310e-05;0.0020951618839079042
1.36313e-05;0.002303772002336621
1.36315e-05;0.0025001400024719164
1.36318e-05;0.002542984828981493
1.36320e-05;0.0024588166767363063
1.36323e-05;0.0022898095685360284
1.36325e-05;0.0021278150076974875
1.36328e-05;0.0021033468690958646
1.36330e-05;0.002180500487300741
1.36333e-05;0.0023092929337364333
1.36335e-05;0.0024303710316564264
1.36338e-05;0.002455237258394018
1.36340e-05;0.002400501231997831
1.36343e-05;0.002292479227817232
1.36345e-05;0.0021879784042189497
1.36348e-05;0.002167090006102535
1.36350e-05;0.0022058267188648424
1.36353e-05;0.0022725360425371846
1.36355e-05;0.002330278238448138
1.36358e-05;0.0023238671900164105
1.36360e-05;0.0022639577604387255
1.36363e-05;0.0021672835862721718
1.36365e-05;0.0020696757799660353
1.36368e-05;0.002021546027676092
1.36370e-05;0.0020081103828772954
1.36373e-05;0.0020097845791493393
1.36375e-05;0.002003674843092021
1.36378e-05;0.001955460003772901
1.36380e-05;0.0018720632517883731
1.36383e-05;0.0017642144481175319
1.36385e-05;0.0016546046944894725
1.36388e-05;0.0015750560404421384
1.36390e-05;0.0015165507667767083
1.36393e-05;0.001467065463077111
1.36395e-05;0.001412504620165461
1.36398e-05;0.0013316163958912248
1.36400e-05;0.001228985031349934
1.36403e-05;0.0011115789849855107
1.36405e-05;0.0009938578581493995
1.36408e-05;0.0008959996558298478
1.36410e-05;0.0008125996109061659
1.36413e-05;0.0007363707597163567
1.36415e-05;0.0006587289292765803
1.36418e-05;0.0005666082751642386
1.36420e-05;0.0004631270960589136
1.36423e-05;0.00035289677878576293
1.36425e-05;0.0002452206152432028
1.36428e-05;0.00015298280985984354
1.36430e-05;7.304214112670506e-05
1.36433e-05;1.078723888461349e-06
1.36435e-05;-6.803940806650907e-05
1.36438e-05;-0.00014225094709466952
1.36440e-05;-0.00021935660326338475
1.36443e-05;-0.0002962790222597442
1.36445e-05;-0.0003673610330285986
1.36448e-05;-0.0004253154475497217
