Time(s);Current(A)
1.43000e-05;-0.007901461060989419
1.43003e-05;-0.007873318453463644
1.43005e-05;-0.007845175845937868
1.43008e-05;-0.007817033238412284
1.43010e-05;-0.0077888906308865085
1.43013e-05;-0.007760748023360733
1.43015e-05;-0.007736224595433109
1.43018e-05;-0.007719573234036671
1.43020e-05;-0.007702921872640232
1.43023e-05;-0.007686270511243907
1.43025e-05;-0.0076696191498474686
1.43028e-05;-0.00765296778845103
1.43030e-05;-0.007636316427054706
1.43033e-05;-0.007619665065658267
1.43035e-05;-0.007603013704261829
1.43038e-05;-0.0075863623428655035
1.43040e-05;-0.007583175811372659
1.43043e-05;-0.007583046706780753
1.43045e-05;-0.007582917602188847
1.43048e-05;-0.007582788497596942
1.43050e-05;-0.007582659393005035
1.43053e-05;-0.007582530288413129
1.43055e-05;-0.007582401183821224
1.43058e-05;-0.007582272079229318
1.43060e-05;-0.00759269131029112
1.43063e-05;-0.007605505726841155
1.43065e-05;-0.007618320143391277
1.43068e-05;-0.007631134559941398
1.43070e-05;-0.007643948976491433
1.43073e-05;-0.007656763393041555
1.43075e-05;-0.007669577809591676
1.43078e-05;-0.007682392226141711
1.43080e-05;-0.007701146376585245
1.43083e-05;-0.007721249248276724
1.43085e-05;-0.0077413521199680676
1.43088e-05;-0.007761454991659547
1.43090e-05;-0.007781557863351026
1.43093e-05;-0.007801660735042369
1.43095e-05;-0.007821763606733848
1.43098e-05;-0.007841866478425328
1.43100e-05;-0.007861472498872434
1.43103e-05;-0.007879997819689876
1.43105e-05;-0.007898523140507319
1.43108e-05;-0.007917048461324636
1.43110e-05;-0.007935573782142078
1.43113e-05;-0.00795409910295952
1.43115e-05;-0.007972624423776838
1.43118e-05;-0.00799114974459428
1.43120e-05;-0.008009675065411722
1.43123e-05;-0.00801910205830793
1.43125e-05;-0.008026463115522381
1.43128e-05;-0.008033824172736834
1.43130e-05;-0.008041185229951285
1.43133e-05;-0.008048546287165686
1.43135e-05;-0.008055907344380137
1.43138e-05;-0.00806326840159459
1.43140e-05;-0.00807062945880899
1.43143e-05;-0.00806601216289212
1.43145e-05;-0.008058674970818643
1.43148e-05;-0.008051337778745216
1.43150e-05;-0.00804400058667174
1.43153e-05;-0.008036663394598263
1.43155e-05;-0.008029326202524835
1.43158e-05;-0.008021989010451359
1.43160e-05;-0.008014651818377882
1.43163e-05;-0.007997885687335882
1.43165e-05;-0.007978978549547624
1.43168e-05;-0.007960071411759365
1.43170e-05;-0.007941164273971233
1.43173e-05;-0.007922257136182975
1.43175e-05;-0.007903349998394716
1.43178e-05;-0.007882497691197577
1.43180e-05;-0.007857414451935657
1.43183e-05;-0.007832331212673736
1.43185e-05;-0.007807247973411986
1.43188e-05;-0.007782164734150066
1.43190e-05;-0.007757081494888145
1.43193e-05;-0.007731998255626394
1.43195e-05;-0.007705728289194857
1.43198e-05;-0.007679366457299587
1.43200e-05;-0.007653044953034696
1.43203e-05;-0.007626723448769626
1.43205e-05;-0.007601497788412049
1.43208e-05;-0.007576520958724464
1.43210e-05;-0.00755154412903671
1.43213e-05;-0.007532616713355667
1.43215e-05;-0.007515062923725833
1.43218e-05;-0.007497509134096118
1.43220e-05;-0.007479955344466284
1.43223e-05;-0.00746240155483645
1.43225e-05;-0.007444847765206735
1.43228e-05;-0.007427293975576901
1.43230e-05;-0.007409740185947067
1.43233e-05;-0.007392186396317352
1.43235e-05;-0.007374632606687518
1.43238e-05;-0.007360567618783452
1.43240e-05;-0.007354091112902231
1.43243e-05;-0.007347614607020967
1.43245e-05;-0.007341138101139703
1.43248e-05;-0.007334661595258483
1.43250e-05;-0.007328185089377219
1.43253e-05;-0.007321708583495955
1.43255e-05;-0.007315232077614735
1.43258e-05;-0.007308755571733471
1.43260e-05;-0.0073022790658522066
1.43263e-05;-0.007295802559970986
1.43265e-05;-0.0072955412942234035
1.43268e-05;-0.007296691308271677
1.43270e-05;-0.0072978413223199435
1.43273e-05;-0.007298991336368217
1.43275e-05;-0.0073001413504164905
1.43278e-05;-0.007301291364464757
1.43280e-05;-0.00730244137851303
1.43283e-05;-0.007303591392561304
1.43285e-05;-0.007304741406609569
1.43288e-05;-0.007305891420657843
1.43290e-05;-0.007307041434706117
1.43293e-05;-0.007310163940188354
1.43295e-05;-0.007313734334609524
1.43298e-05;-0.007317304729030694
1.43300e-05;-0.007320875123451864
1.43303e-05;-0.00732444551787301
1.43305e-05;-0.00732801591229418
1.43308e-05;-0.00733158630671535
1.43310e-05;-0.007335156701136496
1.43313e-05;-0.007338727095557666
1.43315e-05;-0.0073422974899788355
1.43318e-05;-0.007345867884399982
1.43320e-05;-0.007346209899011638
1.43323e-05;-0.007345818853097661
1.43325e-05;-0.007345427807183686
1.43328e-05;-0.007345036761269708
1.43330e-05;-0.007344645715355731
1.43333e-05;-0.007344254669441756
1.43335e-05;-0.007343863623527779
1.43338e-05;-0.007343472577613802
1.43340e-05;-0.007340312029446766
1.43343e-05;-0.007331127545350617
1.43345e-05;-0.0073219430612544685
1.43348e-05;-0.007312758577158382
1.43350e-05;-0.007303574093062233
1.43353e-05;-0.007294389608966083
1.43355e-05;-0.007285205124869997
1.43358e-05;-0.007276020640773847
1.43360e-05;-0.007266836156677698
1.43363e-05;-0.0072514138234737475
1.43365e-05;-0.007234575076707498
1.43368e-05;-0.007217736329941249
1.43370e-05;-0.007200897583175114
1.43373e-05;-0.007184058836408864
1.43375e-05;-0.007167220089642615
1.43378e-05;-0.00715038134287648
1.43380e-05;-0.007132387146077416
1.43383e-05;-0.007111879733425241
1.43385e-05;-0.007091372320773066
1.43388e-05;-0.007070864908121031
1.43390e-05;-0.007050357495468856
1.43393e-05;-0.007029850082816682
1.43395e-05;-0.007009342670164646
1.43398e-05;-0.006988835257512472
1.43400e-05;-0.006968510886085498
1.43403e-05;-0.006948228077394373
1.43405e-05;-0.00692794526870311
1.43408e-05;-0.006909014044803668
1.43410e-05;-0.006890389722048798
1.43413e-05;-0.006871765399293802
1.43415e-05;-0.0068541128908723445
1.43418e-05;-0.006838574172853236
1.43420e-05;-0.006823035454834024
1.43423e-05;-0.00680749673681481
1.43425e-05;-0.006792816355464112
1.43428e-05;-0.006778330874579401
1.43430e-05;-0.006763845393694691
1.43433e-05;-0.0067493599128100774
1.43435e-05;-0.006734874431925367
1.43438e-05;-0.006720388951040656
1.43440e-05;-0.006705903470156043
1.43443e-05;-0.006690565578927917
1.43445e-05;-0.0066733736125532015
1.43448e-05;-0.0066561816461786025
1.43450e-05;-0.006638989679803887
1.43453e-05;-0.006621797713429172
1.43455e-05;-0.006604605747054574
1.43458e-05;-0.006587413780679859
1.43460e-05;-0.0065702218143051435
1.43463e-05;-0.006550398687693919
1.43465e-05;-0.006529978109784654
1.43468e-05;-0.006509557531875388
1.43470e-05;-0.0064891369539661235
1.43473e-05;-0.0064687163760569965
1.43475e-05;-0.006448295798147731
1.43478e-05;-0.006427875220238466
1.43480e-05;-0.006406189039386719
1.43483e-05;-0.006384215481084282
1.43485e-05;-0.006362241922781846
1.43488e-05;-0.006340268364479558
1.43490e-05;-0.006318294806177122
1.43493e-05;-0.006296321247874685
1.43495e-05;-0.006274347689572398
1.43498e-05;-0.006252976961976924
1.43500e-05;-0.00623174311771655
1.43503e-05;-0.006210509273456319
1.43505e-05;-0.006190553302351969
1.43508e-05;-0.006170887494866388
1.43510e-05;-0.006151221687380941
1.43513e-05;-0.006134722303345379
1.43515e-05;-0.006118941911552923
1.43518e-05;-0.006103161519760573
1.43520e-05;-0.006087381127968117
1.43523e-05;-0.006071600736175661
1.43525e-05;-0.006055820344383312
1.43528e-05;-0.006040039952590855
1.43530e-05;-0.006024503818961714
1.43533e-05;-0.006009498970521328
1.43535e-05;-0.00599449412208084
1.43538e-05;-0.005979489273640351
1.43540e-05;-0.005964484425199965
1.43543e-05;-0.005949479576759477
1.43545e-05;-0.005934474728318989
1.43548e-05;-0.005919469879878602
1.43550e-05;-0.005902033022236378
1.43553e-05;-0.00588404393404786
1.43555e-05;-0.005866054845859342
1.43558e-05;-0.0058480657576709455
1.43560e-05;-0.005830076669482427
1.43563e-05;-0.005811333693026066
1.43565e-05;-0.005790950936489547
1.43568e-05;-0.00577056817995289
1.43570e-05;-0.005750185423416232
1.43573e-05;-0.005729802666879714
1.43575e-05;-0.0057094199103430564
1.43578e-05;-0.005687938515464533
1.43580e-05;-0.005666207655390319
1.43583e-05;-0.005644476795315958
1.43585e-05;-0.005622582880549657
1.43588e-05;-0.005600651941342331
1.43590e-05;-0.0055787210021348566
1.43593e-05;-0.005556767419956197
1.43595e-05;-0.005534808696292063
1.43598e-05;-0.005513297961915208
1.43600e-05;-0.0054918889514005914
1.43603e-05;-0.00547128616980703
1.43605e-05;-0.005450866456697298
1.43608e-05;-0.005431104401728277
1.43610e-05;-0.0054119789462497014
1.43613e-05;-0.005394283244436558
1.43615e-05;-0.005376887070065316
1.43618e-05;-0.005359490895694191
1.43620e-05;-0.005345538274500362
1.43623e-05;-0.005332367572738321
1.43625e-05;-0.005319196870976371
1.43628e-05;-0.00530602616921433
1.43630e-05;-0.0052928554674522895
1.43633e-05;-0.005279684765690338
1.43635e-05;-0.005266514063928298
1.43638e-05;-0.005254231557669628
1.43640e-05;-0.0052438809627516954
1.43643e-05;-0.005233530367833832
1.43645e-05;-0.005223179772915899
1.43648e-05;-0.005212829177997966
1.43650e-05;-0.005202478583080103
1.43653e-05;-0.00519212798816217
1.43655e-05;-0.005181777393244237
1.43658e-05;-0.005172504343532189
1.43660e-05;-0.005163475969447785
1.43663e-05;-0.0051544475953633805
1.43665e-05;-0.005145419221279037
1.43668e-05;-0.005136390847194632
1.43670e-05;-0.005127362473110228
1.43673e-05;-0.005118334099025884
1.43675e-05;-0.005110001657473972
1.43678e-05;-0.005101827239667449
1.43680e-05;-0.005093652821860982
1.43683e-05;-0.005085478404054458
1.43685e-05;-0.005077303986247935
1.43688e-05;-0.005069129568441467
1.43690e-05;-0.005060955150634944
1.43693e-05;-0.005053259560288449
1.43695e-05;-0.005045672696154825
1.43698e-05;-0.0050380858320211485
1.43700e-05;-0.005031018364757157
1.43703e-05;-0.005024068835705423
1.43705e-05;-0.005017119306653642
1.43708e-05;-0.005010590253781797
1.43710e-05;-0.005004156677436397
1.43713e-05;-0.004997972047276906
1.43715e-05;-0.004992051905879079
1.43718e-05;-0.004986417306157705
1.43720e-05;-0.004981107018980239
1.43723e-05;-0.00497631651024332
1.43725e-05;-0.004972883933764903
1.43728e-05;-0.004972072590393967
1.43730e-05;-0.004974555251098248
1.43733e-05;-0.004980332087056774
1.43735e-05;-0.0049892532363679295
1.43738e-05;-0.005001161771178067
1.43740e-05;-0.0050159000046509535
1.43743e-05;-0.005033409504288011
1.43745e-05;-0.0050556002549759565
1.43748e-05;-0.00507873780018906
1.43750e-05;-0.00510966294627536
1.43753e-05;-0.005142356404375521
1.43755e-05;-0.00517504986247568
1.43758e-05;-0.005217295196828203
1.43760e-05;-0.005261709453010186
1.43763e-05;-0.005306123709192167
1.43765e-05;-0.0053505379653738475
1.43768e-05;-0.005398761450848061
1.43770e-05;-0.00545527037938543
1.43773e-05;-0.005511779307922416
1.43775e-05;-0.005568288236459785
1.43778e-05;-0.005624797164997154
1.43780e-05;-0.005686606699240204
1.43783e-05;-0.005749619829418258
1.43785e-05;-0.005812632959596312
1.43788e-05;-0.005877925187046339
1.43790e-05;-0.005943734923695535
1.43793e-05;-0.00600954466034473
1.43795e-05;-0.006075327959110928
1.43798e-05;-0.006141105254690441
1.43800e-05;-0.006206882550269954
1.43803e-05;-0.006270535960451732
1.43805e-05;-0.0063337071050266125
1.43808e-05;-0.006394120677253774
1.43810e-05;-0.006453908094084433
1.43813e-05;-0.006509749182580043
1.43815e-05;-0.006564694187683988
1.43818e-05;-0.006612662564475069
1.43820e-05;-0.00665904677486262
1.43823e-05;-0.006705430985250486
1.43825e-05;-0.0067420876993212935
1.43828e-05;-0.006776535613931366
1.43830e-05;-0.006810983528541673
1.43833e-05;-0.00683576921931058
1.43835e-05;-0.006858360931884591
1.43838e-05;-0.0068809526444587555
1.43840e-05;-0.0068930795094366846
1.43843e-05;-0.0069028301463520065
1.43845e-05;-0.006912580783267394
1.43848e-05;-0.006908630663160306
1.43850e-05;-0.006901569544730979
1.43853e-05;-0.006894508426301605
1.43855e-05;-0.00688744730787223
1.43858e-05;-0.006880386189442903
1.43860e-05;-0.006867440038726389
1.43863e-05;-0.0068416933721540465
1.43865e-05;-0.006815946705581879
1.43868e-05;-0.006790200039009537
1.43870e-05;-0.006764453372437194
1.43873e-05;-0.006738706705865026
1.43875e-05;-0.006704152383493254
1.43878e-05;-0.006667598127660025
1.43880e-05;-0.006631043871827045
1.43883e-05;-0.006590696285836102
1.43885e-05;-0.00654948735738516
1.43888e-05;-0.0065063005211280596
1.43890e-05;-0.00646266456604767
1.43893e-05;-0.006417962999854372
1.43895e-05;-0.006373019467879222
1.43898e-05;-0.006327783917474399
1.43900e-05;-0.00628255681889267
1.43903e-05;-0.006237632832147888
1.43905e-05;-0.006193313074602464
1.43908e-05;-0.006149941537554486
1.43910e-05;-0.006107848923263639
1.43913e-05;-0.006067337666180812
1.43915e-05;-0.006028702960751063
1.43918e-05;-0.005993264955621894
1.43920e-05;-0.00595847167555707
1.43923e-05;-0.005928052030846659
1.43925e-05;-0.005898625497117821
1.43928e-05;-0.005873283995734061
1.43930e-05;-0.005848870072932447
1.43933e-05;-0.005828488053716524
1.43935e-05;-0.005809021549262043
1.43938e-05;-0.005795057792791795
1.43940e-05;-0.005782343532223574
1.43943e-05;-0.005769629271655439
1.43945e-05;-0.005765831132352819
1.43948e-05;-0.0057640575555079916
1.43950e-05;-0.005762283978663177
1.43953e-05;-0.00576051040181835
1.43955e-05;-0.005758736824973524
1.43958e-05;-0.005760790527030015
1.43960e-05;-0.00577116893180449
1.43963e-05;-0.005781547336578965
1.43965e-05;-0.005791925741353369
1.43968e-05;-0.005802304146127844
1.43970e-05;-0.005812682550902318
1.43973e-05;-0.005830733889630567
1.43975e-05;-0.005850527503229464
1.43978e-05;-0.005870321116828361
1.43980e-05;-0.005890114730427258
1.43983e-05;-0.0059099083440260205
1.43985e-05;-0.005929701957624918
1.43988e-05;-0.0059509110480534646
1.43990e-05;-0.005975198937836499
1.43993e-05;-0.005999486827619698
1.43995e-05;-0.006023774717402897
1.43998e-05;-0.006048062607185931
1.44000e-05;-0.006072350496969131
1.44003e-05;-0.0060966383867523295
1.44005e-05;-0.006120227691735323
1.44008e-05;-0.006143658370728787
1.44010e-05;-0.00616708904972225
1.44013e-05;-0.006186248888022943
1.44015e-05;-0.006204438956681384
1.44018e-05;-0.006222629025339825
1.44020e-05;-0.006240819093998143
1.44023e-05;-0.006259009162656585
1.44025e-05;-0.006277199231315026
1.44028e-05;-0.006295389299973344
1.44030e-05;-0.006313579368631785
1.44033e-05;-0.006331500852437993
1.44035e-05;-0.006349361349320221
1.44038e-05;-0.00636722184620257
1.44040e-05;-0.006385082343084919
1.44043e-05;-0.006402942839967148
1.44045e-05;-0.006420803336849497
1.44048e-05;-0.0064386638337318464
1.44050e-05;-0.006456524330614074
1.44053e-05;-0.006478784173375132
1.44055e-05;-0.0065020429651459185
1.44058e-05;-0.0065253017569165475
1.44060e-05;-0.0065485605486873336
1.44063e-05;-0.00657181934045812
1.44065e-05;-0.006595078132228906
1.44068e-05;-0.006618336923999534
1.44070e-05;-0.00664159571577032
1.44073e-05;-0.006667866433822813
1.44075e-05;-0.006694821062815456
1.44078e-05;-0.006721775691808282
1.44080e-05;-0.0067487303208011076
1.44083e-05;-0.006775684949793751
1.44085e-05;-0.006802639578786577
1.44088e-05;-0.006829594207779403
1.44090e-05;-0.006856548836772045
1.44093e-05;-0.006882085529587927
1.44095e-05;-0.006907300255007022
1.44098e-05;-0.006932514980425946
1.44100e-05;-0.006957729705845041
1.44103e-05;-0.006982944431264135
1.44105e-05;-0.007008159156683059
1.44108e-05;-0.007033373882102153
1.44110e-05;-0.007058588607521249
1.44113e-05;-0.0070838033329401725
1.44115e-05;-0.007105455999172854
1.44118e-05;-0.007119360841279773
1.44120e-05;-0.007133265683386599
1.44123e-05;-0.007147170525493518
1.44125e-05;-0.007161075367600437
1.44128e-05;-0.007174980209707263
1.44130e-05;-0.007188885051814182
1.44133e-05;-0.007202789893921102
1.44135e-05;-0.007216694736027927
1.44138e-05;-0.007230599578134847
1.44140e-05;-0.007232419074999566
1.44143e-05;-0.00723149438125034
1.44145e-05;-0.007230569687501108
1.44148e-05;-0.007229644993751876
1.44150e-05;-0.00722872030000265
1.44153e-05;-0.007227795606253418
1.44155e-05;-0.007226870912504186
1.44158e-05;-0.007225946218754953
1.44160e-05;-0.007221441594126139
1.44163e-05;-0.007209150272704749
1.44165e-05;-0.007196858951283359
1.44168e-05;-0.007184567629862052
1.44170e-05;-0.007172276308440661
1.44173e-05;-0.0071599849870192704
1.44175e-05;-0.007147693665597964
1.44178e-05;-0.007135402344176573
1.44180e-05;-0.007123111022755183
1.44183e-05;-0.007106111555704483
1.44185e-05;-0.0070880430212180495
1.44188e-05;-0.007069974486731615
1.44190e-05;-0.007051905952245303
1.44193e-05;-0.007033837417758869
1.44195e-05;-0.007015768883272436
1.44198e-05;-0.006997700348786124
1.44200e-05;-0.00697963181429969
1.44203e-05;-0.006962169626055157
1.44205e-05;-0.006946026299681605
1.44208e-05;-0.006929882973307944
1.44210e-05;-0.0069137396469342825
1.44213e-05;-0.0068975963205607305
1.44215e-05;-0.006881452994187069
1.44218e-05;-0.006865309667813408
1.44220e-05;-0.006849166341439857
1.44223e-05;-0.006833023015066195
1.44225e-05;-0.006824336321204191
1.44228e-05;-0.006817342787160795
1.44230e-05;-0.006810349253117352
1.44233e-05;-0.006803355719073909
1.44235e-05;-0.006796362185030513
1.44238e-05;-0.00678936865098707
1.44240e-05;-0.006782375116943627
1.44243e-05;-0.0067753815829001834
1.44245e-05;-0.006777331990845429
1.44248e-05;-0.006781313278436596
1.44250e-05;-0.006785294566027762
1.44253e-05;-0.0067892758536189
1.44255e-05;-0.006793257141210067
1.44258e-05;-0.006797238428801233
1.44260e-05;-0.0068012197163923715
1.44263e-05;-0.006805201003983538
1.44265e-05;-0.006816532102912001
1.44268e-05;-0.0068295321060288855
1.44270e-05;-0.006842532109145858
1.44273e-05;-0.00685553211226283
1.44275e-05;-0.006868532115379715
1.44278e-05;-0.0068815321184966865
1.44280e-05;-0.006894532121613659
1.44283e-05;-0.006907532124730544
1.44285e-05;-0.006921694144817158
1.44288e-05;-0.006938383664488991
1.44290e-05;-0.006955073184160711
1.44293e-05;-0.006971762703832544
1.44295e-05;-0.0069884522235043765
1.44298e-05;-0.007005141743176096
1.44300e-05;-0.007021831262847928
1.44303e-05;-0.007038520782519762
1.44305e-05;-0.007055210302191481
1.44308e-05;-0.007070075505282208
1.44310e-05;-0.007084526465143486
1.44313e-05;-0.007098977425004667
1.44315e-05;-0.007113428384865945
1.44318e-05;-0.007127879344727224
1.44320e-05;-0.007139628934879258
1.44323e-05;-0.007150765131432965
1.44325e-05;-0.007161901327986672
1.44328e-05;-0.007173037524540379
1.44330e-05;-0.007184173721094011
1.44333e-05;-0.007196916059957087
1.44335e-05;-0.007210023101736405
1.44338e-05;-0.007223130143515633
1.44340e-05;-0.007236237185294951
1.44343e-05;-0.007249344227074268
1.44345e-05;-0.007262451268853496
1.44348e-05;-0.007275558310632814
1.44350e-05;-0.007288665352412131
1.44353e-05;-0.00730177239419136
1.44355e-05;-0.007316384543142315
1.44358e-05;-0.0073342704461368735
1.44360e-05;-0.007352156349131309
1.44363e-05;-0.0073700422521258665
1.44365e-05;-0.0073879281551204245
1.44368e-05;-0.00740581405811486
1.44370e-05;-0.0074236999611094175
1.44373e-05;-0.0074415858641039756
1.44375e-05;-0.007459471767098411
1.44378e-05;-0.007477357670092969
1.44380e-05;-0.007497057940186317
1.44383e-05;-0.007517170194303846
1.44385e-05;-0.00753728244842151
1.44388e-05;-0.007557394702539175
1.44390e-05;-0.007577506956656703
1.44393e-05;-0.0075976192107743675
1.44395e-05;-0.007617731464892032
1.44398e-05;-0.00763784371900956
1.44400e-05;-0.007657955973127225
1.44403e-05;-0.007676621058687251
1.44405e-05;-0.007692138412306546
1.44408e-05;-0.007707655765925946
1.44410e-05;-0.007723173119545346
1.44413e-05;-0.0077386904731647456
1.44415e-05;-0.0077542078267840405
1.44418e-05;-0.0077697251804034395
1.44420e-05;-0.007785242534022839
1.44423e-05;-0.007800759887642134
1.44425e-05;-0.007816277241261535
1.44428e-05;-0.00782406970676699
1.44430e-05;-0.007830108100290193
1.44433e-05;-0.007836146493813437
1.44435e-05;-0.007842184887336682
1.44438e-05;-0.007848223280859884
1.44440e-05;-0.007854261674383129
1.44443e-05;-0.007860300067906372
1.44445e-05;-0.007866338461429576
1.44448e-05;-0.00787237685495282
1.44450e-05;-0.007878415248476064
1.44453e-05;-0.007884453641999268
1.44455e-05;-0.007890492035522513
1.44458e-05;-0.007896530429045756
1.44460e-05;-0.00790256882256896
1.44463e-05;-0.007908607216092205
1.44465e-05;-0.007914645609615448
