Time(s);Current(A)
5.50000e-07;0.007087041755388525
5.50250e-07;0.007070609768738169
5.50500e-07;0.007056632714020871
5.50750e-07;0.007043579995306992
5.51000e-07;0.007033739346036317
5.51250e-07;0.007025439709692201
5.51500e-07;0.007017140073348086
5.51750e-07;0.007011868938642667
5.52000e-07;0.007008050748917387
5.52250e-07;0.007007552671400241
5.52500e-07;0.007008647441086702
5.52750e-07;0.007009742210773162
5.53000e-07;0.0070135593434483496
5.53250e-07;0.0070199016489449866
5.53500e-07;0.0070279808977960385
5.53750e-07;0.00703775203042566
5.54000e-07;0.0070497595603288485
5.54250e-07;0.007062577818584569
5.54500e-07;0.007077067068340708
5.54750e-07;0.007093446807352456
5.55000e-07;0.007111361894691057
5.55250e-07;0.007130660455340489
5.55500e-07;0.007151586979325944
5.55750e-07;0.007173087957944804
5.56000e-07;0.007196026901848253
5.56250e-07;0.007219655719719466
5.56500e-07;0.007244531330118852
5.56750e-07;0.007270005098010378
5.57000e-07;0.007296431425463441
5.57250e-07;0.007323314750071648
5.57500e-07;0.00735076152294379
5.57750e-07;0.007378478614086921
5.58000e-07;0.00740646617927799
5.58250e-07;0.007434583506297562
5.58500e-07;0.007462687931122875
5.58750e-07;0.007490786166029668
5.59000e-07;0.007518523926216361
5.59250e-07;0.007546088746118542
5.59500e-07;0.007572886829525277
5.59750e-07;0.007599317065700933
5.60000e-07;0.007624954131617306
5.60250e-07;0.007649569020369651
5.60500e-07;0.007673149774775326
5.60750e-07;0.007695699524515303
5.61000e-07;0.007717777370830031
5.61250e-07;0.007740431974028017
5.61500e-07;0.007764343735944119
5.61750e-07;0.007789562102660228
5.62000e-07;0.0078162274605523
5.62250e-07;0.007843390880424812
5.62500e-07;0.007871353921653746
5.62750e-07;0.007900155625220706
5.63000e-07;0.007929899418274905
5.63250e-07;0.007962378510453474
5.63500e-07;0.007996003291128236
5.63750e-07;0.008029628071803012
5.64000e-07;0.008065885634377903
5.64250e-07;0.008103406292602724
5.64500e-07;0.008142755391056276
5.64750e-07;0.008182981696580783
5.65000e-07;0.008223208002105274
5.65250e-07;0.00826597866229607
5.65500e-07;0.008309969994548892
5.65750e-07;0.00835396132680171
5.66000e-07;0.00839970148330405
5.66250e-07;0.008446280650550869
5.66500e-07;0.00849366185175951
5.66750e-07;0.008541427834407247
5.67000e-07;0.008589193817054983
5.67250e-07;0.00863755560834819
5.67500e-07;0.008686203243033229
5.67750e-07;0.008734960703713286
5.68000e-07;0.008783770854187595
5.68250e-07;0.00883204005656601
5.68500e-07;0.008880049735287438
5.68750e-07;0.008926941328735616
5.69000e-07;0.00897329651290324
5.69250e-07;0.009018266127282465
5.69500e-07;0.009062571004802072
5.69750e-07;0.009104987441644853
5.70000e-07;0.009146497885779327
5.70250e-07;0.009185446772321838
5.70500e-07;0.009223166733577627
5.70750e-07;0.009256969357885335
5.71000e-07;0.009288892612216288
5.71250e-07;0.00932081586654724
5.71500e-07;0.009348027826951686
5.71750e-07;0.009372979510929925
5.72000e-07;0.009397931194908154
5.72250e-07;0.009417413996884429
5.72500e-07;0.009434273064222282
5.72750e-07;0.009451132131560134
5.73000e-07;0.009466483579669139
5.73250e-07;0.00947476623046344
5.73500e-07;0.00948304888125774
5.73750e-07;0.009491331532052042
5.74000e-07;0.009495455630310604
5.74250e-07;0.009497584633716175
5.74500e-07;0.009497537257231577
5.74750e-07;0.009495040981438194
5.75000e-07;0.009490547183075805
5.75250e-07;0.009484215024026976
5.75500e-07;0.009476201617517577
5.75750e-07;0.009466630825627199
5.76000e-07;0.009455613450261378
5.76250e-07;0.0094432587581086
5.76500e-07;0.00942967634328541
5.76750e-07;0.009414982395608918
5.77000e-07;0.009399323816883179
5.77250e-07;0.009382884710853558
5.77500e-07;0.0093658474383788
5.77750e-07;0.00934837543191892
5.78000e-07;0.009330622308737034
5.78250e-07;0.009312741133163474
5.78500e-07;0.00929488557342305
5.78750e-07;0.009277213073992551
5.79000e-07;0.009259898625415488
5.79250e-07;0.00924314364817636
5.79500e-07;0.009227147292421104
5.79750e-07;0.009212095720741284
5.80000e-07;0.009198169584235536
5.80250e-07;0.009185549886911419
5.80500e-07;0.009174416348544998
5.80750e-07;0.009164949041821248
5.81000e-07;0.00915731165018575
5.81250e-07;0.009151620683238023
5.81500e-07;0.009148634459256936
5.81750e-07;0.009146638169318247
5.82000e-07;0.009148919271464148
5.82250e-07;0.00915325248257319
5.82500e-07;0.009157585693682233
5.82750e-07;0.009161918904791275
5.83000e-07;0.009172069589416722
5.83250e-07;0.009185011247913573
5.83500e-07;0.00919795290641043
5.83750e-07;0.009210894564907287
5.84000e-07;0.009228599335899437
5.84250e-07;0.009248589243640984
5.84500e-07;0.00926857915138253
5.84750e-07;0.009292203911444957
5.85000e-07;0.009317572517495765
5.85250e-07;0.009342941123546574
5.85500e-07;0.00937136933286691
5.85750e-07;0.009401265408393783
5.86000e-07;0.009431161483920657
5.86250e-07;0.00946338352087437
5.86500e-07;0.009496721454196163
5.86750e-07;0.009530059387517957
5.87000e-07;0.009564771037392745
5.87250e-07;0.009600141737454066
5.87500e-07;0.009636154085664017
5.87750e-07;0.009672474269090158
5.88000e-07;0.009709007496065408
5.88250e-07;0.009745642932183057
5.88500e-07;0.009782060919124291
5.88750e-07;0.00981837458329241
5.89000e-07;0.00985403243836695
5.89250e-07;0.009889375664412321
5.89500e-07;0.009923589791116183
5.89750e-07;0.009957262224462693
5.90000e-07;0.009989314645710515
5.90250e-07;0.010020589854749965
5.90500e-07;0.010049145008510264
5.90750e-07;0.010076395196602654
5.91000e-07;0.010103645384695046
5.91250e-07;0.010126110012572064
5.91500e-07;0.010146278734247938
5.91750e-07;0.010166447455923804
5.92000e-07;0.010186616177599677
5.92250e-07;0.010205185267557645
5.92500e-07;0.010216254139837237
5.92750e-07;0.010227323012116827
5.93000e-07;0.010238391884396417
5.93250e-07;0.010249460756676003
5.93500e-07;0.010255475884919176
5.93750e-07;0.010259066443885178
5.94000e-07;0.010262657002851179
5.94250e-07;0.01026315334290453
5.94500e-07;0.010262165209652863
5.94750e-07;0.010258877338946424
5.95000e-07;0.010254486153007112
5.95250e-07;0.010248517752491538
5.95500e-07;0.010240842315432373
5.95750e-07;0.010231832959448454
5.96000e-07;0.01022159867476186
5.96250e-07;0.010210246210559734
5.96500e-07;0.010197883323794331
5.96750e-07;0.010184618979206883
5.97000e-07;0.010170574099669883
5.97250e-07;0.010155884785683425
5.97500e-07;0.01014069733133425
5.97750e-07;0.010125156342606977
5.98000e-07;0.010109403682480195
5.98250e-07;0.010093582170735908
5.98500e-07;0.010077834601675276
5.98750e-07;0.010062305355778211
5.99000e-07;0.010047144124993648
5.99250e-07;0.010032512155531203
5.99500e-07;0.010018576481559814
5.99750e-07;0.010005867261332827
6.00000e-07;0.00999362968270238
6.00250e-07;0.009982597357828336
6.00500e-07;0.00997309613617746
6.00750e-07;0.009964977873765376
6.01000e-07;0.009957675107195075
6.01250e-07;0.009950090416133246
6.01500e-07;0.00994150898185386
6.01750e-07;0.009931885591270697
6.02000e-07;0.00992140155416139
6.02250e-07;0.009910111506414018
6.02500e-07;0.0098985589155372
6.02750e-07;0.009886634678528187
6.03000e-07;0.009874013536399382
6.03250e-07;0.009859607284560947
6.03500e-07;0.0098444639794977
6.03750e-07;0.009827775558000011
6.04000e-07;0.00980950060494828
6.04250e-07;0.009790119642004675
6.04500e-07;0.009769843726484716
6.04750e-07;0.009748830797190638
6.05000e-07;0.009727006339391817
6.05250e-07;0.009704086055084098
6.05500e-07;0.009679937352477628
6.05750e-07;0.0096546900395982
6.06000e-07;0.009628561543957154
6.06250e-07;0.009601776037828547
6.06500e-07;0.009574556383774127
6.06750e-07;0.009547092138424838
6.07000e-07;0.009519427178408882
6.07250e-07;0.009491473645988511
6.07500e-07;0.009463238861796262
6.07750e-07;0.00943489496125674
6.08000e-07;0.009406669263520673
6.08250e-07;0.009378792434639318
6.08500e-07;0.009351494183860522
6.08750e-07;0.009324983476527103
6.09000e-07;0.009299379055627797
6.09250e-07;0.009274715699880299
6.09500e-07;0.009251088895968844
6.09750e-07;0.00922869662319972
6.10000e-07;0.009207772090606348
6.10250e-07;0.009188549034674125
6.10500e-07;0.009171262803548005
6.10750e-07;0.009156205967566293
6.11000e-07;0.009143895594225612
6.11250e-07;0.009134998947486499
6.11500e-07;0.009129928531894663
6.11750e-07;0.009130072414346605
6.12000e-07;0.009132108751156002
6.12250e-07;0.009140625451047744
6.12500e-07;0.009152251150746669
6.12750e-07;0.009163876850445594
6.13000e-07;0.009185131678001385
6.13250e-07;0.00921100614743064
6.13500e-07;0.009236880616859894
6.13750e-07;0.009262755086289149
6.14000e-07;0.009299134774034228
6.14250e-07;0.009340554414217677
6.14500e-07;0.009381974054401108
6.14750e-07;0.009423393694584557
6.15000e-07;0.009472713883281827
6.15250e-07;0.009525824415744424
6.15500e-07;0.00957893494820702
6.15750e-07;0.00963690709040392
6.16000e-07;0.009697211624094135
6.16250e-07;0.009760476739335291
6.16500e-07;0.009825162214416497
6.16750e-07;0.009892043894710717
6.17000e-07;0.009959979219916043
6.17250e-07;0.010029512529083467
6.17500e-07;0.010099812482305742
6.17750e-07;0.01017085761591839
6.18000e-07;0.010242260255069009
6.18250e-07;0.010313416179090382
6.18500e-07;0.010384453739791723
6.18750e-07;0.010454283529235386
6.19000e-07;0.01052353388191607
6.19250e-07;0.010590721142265974
6.19500e-07;0.010656918619547068
6.19750e-07;0.010720036878027571
6.20000e-07;0.010781677859612333
6.20250e-07;0.010837884290120996
6.20500e-07;0.010891483456494407
6.20750e-07;0.010945082622867818
6.21000e-07;0.01098981773702824
6.21250e-07;0.011030300259741051
6.21500e-07;0.011070782782453846
6.21750e-07;0.011111265305166656
6.22000e-07;0.011148977640758503
6.22250e-07;0.011173701357666535
6.22500e-07;0.011198425074574568
6.22750e-07;0.01122314879148259
6.23000e-07;0.011247872508390622
6.23250e-07;0.011263900216298705
6.23500e-07;0.01127575595267356
6.23750e-07;0.011287611689048415
6.24000e-07;0.011293286959685563
6.24250e-07;0.011295997108377693
6.24500e-07;0.011298707257069824
6.24750e-07;0.011296444711281954
6.25000e-07;0.011291796480312049
6.25250e-07;0.011283854728241798
6.25500e-07;0.01127433288623893
6.25750e-07;0.011262682496871002
6.26000e-07;0.011248700562484339
6.26250e-07;0.01123285702766288
6.26500e-07;0.011215268962584622
6.26750e-07;0.011196071008975112
6.27000e-07;0.011175473002348557
6.27250e-07;0.011153768695351372
6.27500e-07;0.011131230655905017
6.27750e-07;0.011108065353508983
6.28000e-07;0.0110844556038543
6.28250e-07;0.01106058238546769
6.28500e-07;0.011036626374928636
6.28750e-07;0.01101277831882187
6.29000e-07;0.010989279109911812
6.29250e-07;0.010966419073679005
6.29500e-07;0.010944477275644921
6.29750e-07;0.010923689536621987
6.30000e-07;0.010904278468186382
6.30250e-07;0.010887103571526665
6.30500e-07;0.010870776089809794
6.30750e-07;0.010858962802645221
6.31000e-07;0.01084931523209478
6.31250e-07;0.010839667661544341
6.31500e-07;0.0108300200909939
6.31750e-07;0.010820372520443457
6.32000e-07;0.01081705306708305
6.32250e-07;0.010816769572491336
6.32500e-07;0.010816486077899623
6.32750e-07;0.010816202583307911
6.33000e-07;0.010815919088716198
6.33250e-07;0.010822849925725192
6.33500e-07;0.010833241889104915
6.33750e-07;0.010843633852484639
6.34000e-07;0.010854025815864362
6.34250e-07;0.010864417779244082
6.34500e-07;0.010874809742623805
6.34750e-07;0.010885201706003529
6.35000e-07;0.010902150231835807
6.35250e-07;0.010922244314659628
6.35500e-07;0.010942338397483441
6.35750e-07;0.010962432480307262
6.36000e-07;0.010982526563131085
6.36250e-07;0.011002620645954905
6.36500e-07;0.011022714728778728
6.36750e-07;0.011045906896677879
6.37000e-07;0.011070585392700888
6.37250e-07;0.011095263888723906
6.37500e-07;0.011120797705819991
6.37750e-07;0.011146741869221911
6.38000e-07;0.011172686032623834
6.38250e-07;0.011198850267599363
6.38500e-07;0.011225120083461541
6.38750e-07;0.01125138989932372
6.39000e-07;0.011277163557634319
6.39250e-07;0.011302699180866842
6.39500e-07;0.011328234804099366
6.39750e-07;0.01135273027970366
6.40000e-07;0.011376726737161202
6.40250e-07;0.011399513220547395
6.40500e-07;0.011421719210355239
6.40750e-07;0.01144216483736591
6.41000e-07;0.011461765917932555
6.41250e-07;0.011478238059047586
6.41500e-07;0.01149320906943453
6.41750e-07;0.01150376228459053
6.42000e-07;0.011512196031385391
6.42250e-07;0.01152062977818025
6.42500e-07;0.01152395383646505
6.42750e-07;0.011524826485717465
6.43000e-07;0.01152569913496988
6.43250e-07;0.011519873185244464
6.43500e-07;0.011510833535504602
6.43750e-07;0.01150179388576474
6.44000e-07;0.011492754236024885
6.44250e-07;0.011476848888157162
6.44500e-07;0.011457649673281464
6.44750e-07;0.011438450458405766
6.45000e-07;0.011419251243530068
6.45250e-07;0.011395499756894654
6.45500e-07;0.011369564285836773
6.45750e-07;0.011341578309954721
6.46000e-07;0.011311448021840767
6.46250e-07;0.011279756459980987
6.46500e-07;0.011246733962998556
6.46750e-07;0.011212596091936837
6.47000e-07;0.011177496707398829
6.47250e-07;0.01114154451931738
6.47500e-07;0.0111049033754916
6.47750e-07;0.011067817642990634
6.48000e-07;0.011030559948343276
6.48250e-07;0.010993403143583064
6.48500e-07;0.010956619804277085
6.48750e-07;0.010920473996685102
6.49000e-07;0.010885190314786969
6.49250e-07;0.010850965744136219
6.49500e-07;0.010818029899703005
6.49750e-07;0.010786665758310653
6.50000e-07;0.010757171947077501
6.50250e-07;0.01072984837735343
6.50500e-07;0.01070499334882872
6.50750e-07;0.010682993954076823
6.51000e-07;0.01066458634053745
6.51250e-07;0.010650747808310773
6.51500e-07;0.010642084932490803
6.51750e-07;0.010640472089623832
6.52000e-07;0.010641415985053205
6.52250e-07;0.01065106634410595
6.52500e-07;0.01066489369037126
6.52750e-07;0.010678721036636576
6.53000e-07;0.010706497787778706
6.53250e-07;0.010740966864107512
6.53500e-07;0.010775435940436317
6.53750e-07;0.010809905016765124
6.54000e-07;0.010848454574648211
6.54250e-07;0.010906136348747882
6.54500e-07;0.010963818122847552
6.54750e-07;0.011021499896947224
6.55000e-07;0.011079181671046894
6.55250e-07;0.011148010101819013
6.55500e-07;0.011222186219596838
6.55750e-07;0.011296362337374662
6.56000e-07;0.011376493604522074
6.56250e-07;0.01145948189650091
6.56500e-07;0.011545919479974147
6.56750e-07;0.011634011885323125
6.57000e-07;0.011724654834195734
6.57250e-07;0.01181652142427838
6.57500e-07;0.011910029110533208
6.57750e-07;0.012004324124229164
6.58000e-07;0.012098930993400942
6.58250e-07;0.01219368747743262
6.58500e-07;0.012287389443099392
6.58750e-07;0.0123805854961573
6.59000e-07;0.012471502266458719
6.59250e-07;0.012561325534812658
6.59500e-07;0.012647639091640513
6.59750e-07;0.01273226883965711
6.60000e-07;0.012807090591348333
6.60250e-07;0.012877206887758895
6.60500e-07;0.012947323184169454
6.60750e-07;0.013017439480580015
6.61000e-07;0.013087555776990546
6.61250e-07;0.013146968772687097
6.61500e-07;0.013201246784520011
6.61750e-07;0.013255524796352927
6.62000e-07;0.01330779094970667
6.62250e-07;0.013350624071466206
6.62500e-07;0.013393457193225761
6.62750e-07;0.013436290314985314
6.63000e-07;0.01347203747972936
6.63250e-07;0.013504385106713479
6.63500e-07;0.013536732733697598
6.63750e-07;0.013563952120584595
6.64000e-07;0.013588711198184663
6.64250e-07;0.013613470275784733
6.64500e-07;0.013636716916285799
6.64750e-07;0.013652872169849409
6.65000e-07;0.013669027423413017
6.65250e-07;0.01368518267697662
6.65500e-07;0.013697625934786203
6.65750e-07;0.013708288336502119
6.66000e-07;0.013718950738218032
6.66250e-07;0.013726502557262824
6.66500e-07;0.013732562052374128
6.66750e-07;0.013738621547485435
6.67000e-07;0.013742241793610627
6.67250e-07;0.013744691792863582
6.67500e-07;0.013747141792116536
6.67750e-07;0.01374835108280289
6.68000e-07;0.01374896513482042
6.68250e-07;0.01374957918683795
6.68500e-07;0.013749232392518814
6.68750e-07;0.013748424625405766
6.69000e-07;0.013747616858292715
6.69250e-07;0.013746888182679431
6.69500e-07;0.013746197451769925
6.69750e-07;0.013745506720860418
6.70000e-07;0.01374658819099831
6.70250e-07;0.013748519887064145
6.70500e-07;0.013750451583129979
6.70750e-07;0.013752383279195812
6.71000e-07;0.013754314975261648
6.71250e-07;0.013756246671327483
6.71500e-07;0.013758178367393317
6.71750e-07;0.013763897913925523
6.72000e-07;0.013771434708383639
6.72250e-07;0.013778971502841752
6.72500e-07;0.01378650829729987
6.72750e-07;0.013794045091757986
6.73000e-07;0.013801581886216103
6.73250e-07;0.01380911868067422
6.73500e-07;0.013821560227046871
6.73750e-07;0.01383635486267766
6.74000e-07;0.013851149498308448
6.74250e-07;0.013865944133939238
6.74500e-07;0.013880738769570026
6.74750e-07;0.013895533405200815
6.75000e-07;0.013910328040831598
6.75250e-07;0.013925122676462388
6.75500e-07;0.013939917312093176
6.75750e-07;0.013954711947723965
6.76000e-07;0.013970391574692436
6.76250e-07;0.013990220674069432
6.76500e-07;0.014010049773446422
6.76750e-07;0.014029878872823417
6.77000e-07;0.014049707972200414
6.77250e-07;0.01406953707157741
6.77500e-07;0.014089366170954408
6.77750e-07;0.014109195270331396
6.78000e-07;0.014129024369708393
6.78250e-07;0.01414885346908539
6.78500e-07;0.014168682568462387
6.78750e-07;0.014187862572082696
6.79000e-07;0.014206731167444406
6.79250e-07;0.014225599762806107
6.79500e-07;0.014244468358167816
6.79750e-07;0.014263336953529526
6.80000e-07;0.014282205548891235
6.80250e-07;0.014301074144252945
6.80500e-07;0.014319942739614655
6.80750e-07;0.014334421678067522
6.81000e-07;0.014346794647717254
6.81250e-07;0.014359167617366986
6.81500e-07;0.014371540587016719
6.81750e-07;0.01438391355666645
6.82000e-07;0.014396286526316178
6.82250e-07;0.01440865949596591
6.82500e-07;0.014421032465615642
6.82750e-07;0.014426957878372292
6.83000e-07;0.014429790030321698
6.83250e-07;0.014432622182271104
6.83500e-07;0.01443545433422051
6.83750e-07;0.014438286486169915
6.84000e-07;0.01444111863811932
6.84250e-07;0.014443950790068726
6.84500e-07;0.014446782942018132
6.84750e-07;0.01444411348819498
6.85000e-07;0.01443880460027371
6.85250e-07;0.014433495712352437
6.85500e-07;0.014428186824431163
6.85750e-07;0.01442287793650989
6.86000e-07;0.014417569048588616
6.86250e-07;0.014412260160667344
6.86500e-07;0.01440695127274607
6.86750e-07;0.01439894864267935
6.87000e-07;0.014389653670855658
6.87250e-07;0.014380358699031965
6.87500e-07;0.014371063727208274
6.87750e-07;0.014361768755384585
6.88000e-07;0.014352473783560894
6.88250e-07;0.014343178811737202
6.88500e-07;0.014334132336001303
6.88750e-07;0.014326250987669533
6.89000e-07;0.014318369639337762
6.89250e-07;0.014310488291005997
6.89500e-07;0.014302606942674228
6.89750e-07;0.014294725594342458
6.90000e-07;0.01428684424601069
6.90250e-07;0.014278962897678918
6.90500e-07;0.0142738521854235
6.90750e-07;0.014270070705329702
6.91000e-07;0.014266289225235904
6.91250e-07;0.014263258957046032
6.91500e-07;0.014260589088055253
6.91750e-07;0.014257919219064474
6.92000e-07;0.014255249350073697
6.92250e-07;0.014252579481082918
6.92500e-07;0.014249909612092139
6.92750e-07;0.01424723974310136
6.93000e-07;0.014244569874110581
6.93250e-07;0.014241862399943855
6.93500e-07;0.014239136884429243
6.93750e-07;0.01423641136891463
6.94000e-07;0.014233685853400018
6.94250e-07;0.014230960337885406
6.94500e-07;0.014228234822370794
6.94750e-07;0.014225509306856182
6.95000e-07;0.01422278379134157
6.95250e-07;0.014219527523611435
6.95500e-07;0.014216016623769649
6.95750e-07;0.014212505723927864
6.96000e-07;0.014208994824086078
6.96250e-07;0.014205483924244294
6.96500e-07;0.01420197302440251
6.96750e-07;0.014198462124560723
6.97000e-07;0.014194951224718939
6.97250e-07;0.014191440324877153
6.97500e-07;0.014187929425035368
6.97750e-07;0.01418528605614802
6.98000e-07;0.014183058891343085
6.98250e-07;0.014180831726538149
6.98500e-07;0.014178604561733215
6.98750e-07;0.014176377396928279
6.99000e-07;0.014174150232123345
6.99250e-07;0.014171923067318409
6.99500e-07;0.014169695902513473
6.99750e-07;0.014167468737708537
7.00000e-07;0.014165241572903602
7.00250e-07;0.014164620196314823
7.00500e-07;0.014164769207926762
7.00750e-07;0.01416535626476816
7.01000e-07;0.01416615347689203
7.01250e-07;0.014164667105528033
7.01500e-07;0.01416208516891034
7.01750e-07;0.014159503232292649
7.02000e-07;0.014153079798454347
