Time(s);Current(A)
1.45000e-05;-0.0036976988970993867
1.45003e-05;-0.003697610887116085
1.45005e-05;-0.003696711315981709
1.45008e-05;-0.0036921230000974163
1.45010e-05;-0.003687534684213154
1.45013e-05;-0.003682045793813831
1.45015e-05;-0.0036724635710640415
1.45018e-05;-0.003662881348314317
1.45020e-05;-0.0036522205383174803
1.45023e-05;-0.0036366572843832957
1.45025e-05;-0.0036210940304492165
1.45028e-05;-0.0036042830825376484
1.45030e-05;-0.0035818010590667167
1.45033e-05;-0.0035593190355959377
1.45035e-05;-0.003536837012125006
1.45038e-05;-0.0035143549886540743
1.45040e-05;-0.0034871210584572205
1.45043e-05;-0.003457654374377388
1.45045e-05;-0.0034281876902975553
1.45048e-05;-0.003398721006217923
1.45050e-05;-0.003368554914093459
1.45053e-05;-0.0033352098406319265
1.45055e-05;-0.0033016086648059097
1.45058e-05;-0.0032668434408334103
1.45060e-05;-0.003231919819259326
1.45063e-05;-0.003196196633505595
1.45065e-05;-0.0031600696635811732
1.45068e-05;-0.003123748514347504
1.45070e-05;-0.003087446309818647
1.45073e-05;-0.0030513764717194688
1.45075e-05;-0.003015749688792754
1.45078e-05;-0.0029807561794890913
1.45080e-05;-0.0029465371611478697
1.45083e-05;-0.002913223820876562
1.45085e-05;-0.0028810041716576403
1.45088e-05;-0.0028501064257093946
1.45090e-05;-0.0028207611273566983
1.45093e-05;-0.0027931988858051053
1.45095e-05;-0.00276765049350455
1.45098e-05;-0.002744348246660164
1.45100e-05;-0.0027235042421074923
1.45103e-05;-0.002705263089990797
1.45105e-05;-0.0026896918796341512
1.45108e-05;-0.002676826871536686
1.45110e-05;-0.002666702948307556
1.45113e-05;-0.0026593548017125363
1.45115e-05;-0.002654817459417145
1.45118e-05;-0.002653384522914359
1.45120e-05;-0.002655478368892745
1.45123e-05;-0.0026588187518609752
1.45125e-05;-0.0026678249515983245
1.45128e-05;-0.002676831151335735
1.45130e-05;-0.0026875242289633
1.45133e-05;-0.0027058845808998603
1.45135e-05;-0.002724244932836545
1.45138e-05;-0.0027426052847732297
1.45140e-05;-0.00276096563670979
1.45143e-05;-0.0027855936689601315
1.45145e-05;-0.0028131666638049123
1.45148e-05;-0.0028407396586495066
1.45150e-05;-0.002868312653494288
1.45153e-05;-0.0028968548676458834
1.45155e-05;-0.0029298024215882613
1.45158e-05;-0.002962749975530862
1.45160e-05;-0.0029961432261044127
1.45163e-05;-0.0030315622773291594
1.45165e-05;-0.003066981328554146
1.45168e-05;-0.0031025128501238077
1.45170e-05;-0.0031385555770326846
1.45173e-05;-0.0031745983039418056
1.45175e-05;-0.003210479155290142
1.45178e-05;-0.0032456242424577625
1.45180e-05;-0.0032804555785112123
1.45183e-05;-0.0033138608386941294
1.45185e-05;-0.0033467807241193263
1.45188e-05;-0.003377494462061397
1.45190e-05;-0.0034075478216136117
1.45193e-05;-0.003434599599192502
1.45195e-05;-0.00346082959867801
1.45198e-05;-0.0034833244148993066
1.45200e-05;-0.003504699909063708
1.45203e-05;-0.003520987809571048
1.45205e-05;-0.003537275710078498
1.45208e-05;-0.003552156205734277
1.45210e-05;-0.0035606397006766257
1.45213e-05;-0.003569123195619032
1.45215e-05;-0.0035761357587194187
1.45218e-05;-0.0035764625753328927
1.45220e-05;-0.003576789391946369
1.45223e-05;-0.003575280716607887
1.45225e-05;-0.0035654292795459152
1.45228e-05;-0.003555577842483877
1.45230e-05;-0.0035457264054218384
1.45233e-05;-0.0035358749683598667
1.45235e-05;-0.003524045553583029
1.45238e-05;-0.0035032257442952144
1.45240e-05;-0.003482405935007541
1.45243e-05;-0.0034615861257197263
1.45245e-05;-0.0034407663164319115
1.45248e-05;-0.0034187472368110033
1.45250e-05;-0.003391277178980789
1.45253e-05;-0.0033638071211505743
1.45255e-05;-0.0033358028151876883
1.45258e-05;-0.003305370220247622
1.45260e-05;-0.0032746539581914296
1.45263e-05;-0.0032426483594228377
1.45265e-05;-0.003210515580711491
1.45268e-05;-0.003177764639922104
1.45270e-05;-0.003144824809854342
1.45273e-05;-0.0031118816145439846
1.45275e-05;-0.0030791208490447263
1.45278e-05;-0.00304673288494493
1.45280e-05;-0.0030149222087278446
1.45283e-05;-0.0029839066201136993
1.45285e-05;-0.0029539046478077526
1.45288e-05;-0.002925131068531977
1.45290e-05;-0.0028978001704530205
1.45293e-05;-0.0028721266234245286
1.45295e-05;-0.0028483141385793635
1.45298e-05;-0.00282646950706973
1.45300e-05;-0.002806451426133528
1.45303e-05;-0.002788137566975729
1.45305e-05;-0.002771667825735585
1.45308e-05;-0.0027557887007607002
1.45310e-05;-0.002742594071769603
1.45313e-05;-0.0027300500800830838
1.45315e-05;-0.0027204633947459575
1.45318e-05;-0.002711627101863013
1.45320e-05;-0.002706201526984149
1.45323e-05;-0.0027007759521052855
1.45325e-05;-0.0026964389943800134
1.45328e-05;-0.002697050068987495
1.45330e-05;-0.0026976611435949763
1.45333e-05;-0.0026982722182024533
1.45335e-05;-0.0026988832928099347
1.45338e-05;-0.002699494367417416
1.45340e-05;-0.0027045408632399934
1.45343e-05;-0.0027116714075340214
1.45345e-05;-0.00271880195182805
1.45348e-05;-0.002725932496122078
1.45350e-05;-0.0027330630404160576
1.45353e-05;-0.0027409736501939966
1.45355e-05;-0.0027524298491843416
1.45358e-05;-0.002763886048174609
1.45360e-05;-0.002775342247164954
1.45363e-05;-0.002786798446155299
1.45365e-05;-0.0027982546451455663
1.45368e-05;-0.0028099474783259697
1.45370e-05;-0.0028227158720188403
1.45373e-05;-0.0028354842657116247
1.45375e-05;-0.0028482526594044958
1.45378e-05;-0.002861021053097367
1.45380e-05;-0.002873789446790151
1.45383e-05;-0.0028862675883375155
1.45385e-05;-0.0028974264625959145
1.45388e-05;-0.002908585336854238
1.45390e-05;-0.002919744211112637
1.45393e-05;-0.002930436290053986
1.45395e-05;-0.002939006669631505
1.45398e-05;-0.002947577049209082
1.45400e-05;-0.002956147428786659
1.45403e-05;-0.00296446680747323
1.45405e-05;-0.0029716453254630443
1.45408e-05;-0.0029788238434528586
1.45410e-05;-0.002986002361442624
1.45413e-05;-0.002993180879432438
1.45415e-05;-0.0030003593974222524
1.45418e-05;-0.003007537915412018
1.45420e-05;-0.0030147164334018324
1.45423e-05;-0.0030218949513916467
1.45425e-05;-0.0030290734693814124
1.45428e-05;-0.0030361578557390164
1.45430e-05;-0.003042814390708823
1.45433e-05;-0.0030494709256786295
1.45435e-05;-0.0030561274606483915
1.45438e-05;-0.003062783995618198
1.45440e-05;-0.0030694405305880046
1.45443e-05;-0.003076097065557766
1.45445e-05;-0.0030827536005275727
1.45448e-05;-0.0030894101354973797
1.45450e-05;-0.003096066670467141
1.45453e-05;-0.0031027049499202475
1.45455e-05;-0.0031092602535662535
1.45458e-05;-0.0031158155572122152
1.45460e-05;-0.0031223708608582217
1.45463e-05;-0.0031289261645042277
1.45465e-05;-0.0031354814681501895
1.45468e-05;-0.003141636052113549
1.45470e-05;-0.0031465438826731957
1.45473e-05;-0.0031514517132328096
1.45475e-05;-0.0031563595437924565
1.45478e-05;-0.0031612673743521033
1.45480e-05;-0.0031661752049117167
1.45483e-05;-0.003173838232775946
1.45485e-05;-0.004313656822086165
1.45488e-05;-0.021305967837277177
1.45490e-05;-0.020604812050730264
1.45493e-05;-0.017568486131795374
1.45495e-05;-0.014450196759477894
1.45498e-05;-0.001515157665023934
1.45500e-05;2.946980314285459e-05
1.45503e-05;-0.0006264221929117002
1.45505e-05;-0.0020915869464376105
1.45508e-05;-0.006053405904824402
1.45510e-05;-0.013599701898131988
1.45513e-05;-0.010124252097283307
1.45515e-05;-0.006831975249821346
1.45518e-05;-0.0024031278575004835
1.45520e-05;0.0003952432045874467
1.45523e-05;-8.120411307724644e-05
1.45525e-05;-0.0026277072067212794
1.45528e-05;-0.006111293555314671
1.45530e-05;-0.008216917832272358
1.45533e-05;-0.007311383662639627
1.45535e-05;-0.004904252380359543
1.45538e-05;-0.0021808776072612173
1.45540e-05;-0.00047226673955306326
1.45543e-05;-0.0008094635958564786
1.45545e-05;-0.0024386119311729216
1.45548e-05;-0.004650716696597331
1.45550e-05;-0.005996288679358765
1.45553e-05;-0.005452942490775775
1.45555e-05;-0.003966817030023823
1.45558e-05;-0.002280810862940145
1.45560e-05;-0.0012289212124335226
1.45563e-05;-0.0014571261605065124
1.45565e-05;-0.0024932919000486544
1.45568e-05;-0.003893390390774119
1.45570e-05;-0.004749579935784976
1.45573e-05;-0.004421601829217912
1.45575e-05;-0.003502259965231307
1.45578e-05;-0.002456982879556262
1.45580e-05;-0.0018082040965562369
1.45583e-05;-0.001960528315507514
1.45585e-05;-0.0026181617449351916
1.45588e-05;-0.0035029346229024784
1.45590e-05;-0.004046176788824301
1.45593e-05;-0.003846870595389311
1.45595e-05;-0.0032763822230764197
1.45598e-05;-0.002626238271199805
1.45600e-05;-0.002223613790548909
1.45603e-05;-0.002321865349371982
1.45605e-05;-0.002735682677322116
1.45608e-05;-0.0032908494920244973
1.45610e-05;-0.0036312087129920967
1.45613e-05;-0.0035056472357594287
1.45615e-05;-0.0031468715176205604
1.45618e-05;-0.002737557351118717
1.45620e-05;-0.0024826919806042774
1.45623e-05;-0.002541006121386328
1.45625e-05;-0.002796447307104553
1.45628e-05;-0.003139922540371296
1.45630e-05;-0.0033483862061528314
1.45633e-05;-0.003264609121535217
1.45635e-05;-0.0030344263738557413
1.45638e-05;-0.002772321800870134
1.45640e-05;-0.002606744194813723
1.45643e-05;-0.0026371562885050964
1.45645e-05;-0.002790896115887812
1.45648e-05;-0.002999667129268159
1.45650e-05;-0.003123802636662514
1.45653e-05;-0.00306487408502841
1.45655e-05;-0.0029142922331582767
1.45658e-05;-0.002743821903925405
1.45660e-05;-0.0026339684738093502
1.45663e-05;-0.0026470742486452994
1.45665e-05;-0.0027376618386721705
1.45668e-05;-0.0028629923723646144
1.45670e-05;-0.0029356267342108932
1.45673e-05;-0.0028939641170295303
1.45675e-05;-0.0027953190396334576
1.45678e-05;-0.0026846951496371876
1.45680e-05;-0.0026125668439250004
1.45683e-05;-0.0026180268565963363
1.45685e-05;-0.002672629483651709
1.45688e-05;-0.0027496471223310017
1.45690e-05;-0.0027943553021254476
1.45693e-05;-0.0027682193351909515
1.45695e-05;-0.002707183898423435
1.45698e-05;-0.002639397649996099
1.45700e-05;-0.002596257390522481
1.45703e-05;-0.0026019678112307707
1.45705e-05;-0.0026385688347435768
1.45708e-05;-0.0026892933801626576
1.45710e-05;-0.0027198561342860563
1.45713e-05;-0.0027061153297051463
1.45715e-05;-0.0026705834018423383
1.45718e-05;-0.002630887397628308
1.45720e-05;-0.002606687039265899
1.45723e-05;-0.0026131357795267716
1.45725e-05;-0.0026389747864729246
1.45728e-05;-0.002673693388396782
1.45730e-05;-0.0026958088261578063
1.45733e-05;-0.0026901943321637743
1.45735e-05;-0.0026709469131090575
1.45738e-05;-0.002649102437169921
1.45740e-05;-0.0026369691237651646
1.45743e-05;-0.002644030968349647
1.45745e-05;-0.002663227695352707
1.45748e-05;-0.0026879680501003494
1.45750e-05;-0.0027047888623983585
1.45753e-05;-0.002704209456259202
1.45755e-05;-0.00269505500543136
1.45758e-05;-0.002684232161860089
1.45760e-05;-0.002679443922985644
1.45763e-05;-0.0026866239102358385
1.45765e-05;-0.002701342021641749
1.45768e-05;-0.0027194627777155167
1.45770e-05;-0.0027325460895213515
1.45773e-05;-0.002734647512152533
1.45775e-05;-0.002731289290898025
1.45778e-05;-0.002726791695257813
1.45780e-05;-0.002725973264248201
1.45783e-05;-0.0027325433691785072
1.45785e-05;-0.002743720128275545
1.45788e-05;-0.002755319395158718
1.45790e-05;-0.002764208985548714
1.45793e-05;-0.002769696587724038
1.45795e-05;-0.002769783295827185
1.45798e-05;-0.0027701516339054435
1.45800e-05;-0.002770519971983705
1.45803e-05;-0.0027735639894805454
1.45805e-05;-0.0027811037580323505
1.45808e-05;-0.0027888281474662286
1.45810e-05;-0.0027965525369001067
1.45813e-05;-0.0028018079441874694
1.45815e-05;-0.00280313171789067
1.45818e-05;-0.0028046403052411216
1.45820e-05;-0.002806148892591563
1.45823e-05;-0.002809336270126005
1.45825e-05;-0.002815344083825041
1.45828e-05;-0.0028214672193122518
1.45830e-05;-0.002827590354799504
1.45833e-05;-0.0028321647905293454
1.45835e-05;-0.002834268131015865
1.45838e-05;-0.002836479323638651
1.45840e-05;-0.0028386905162614364
1.45843e-05;-0.0028419463155932995
1.45845e-05;-0.002846947388232807
1.45848e-05;-0.0028520043145925512
1.45850e-05;-0.0028570612409522613
1.45853e-05;-0.00286113610520873
1.45855e-05;-0.0028636287244066636
1.45858e-05;-0.0028661647157773302
1.45860e-05;-0.002868700707148014
1.45863e-05;-0.0028718741769117413
1.45865e-05;-0.0028759340568519616
1.45868e-05;-0.002879735366355564
1.45870e-05;-0.0028835366758591914
1.45873e-05;-0.0028873379853628194
1.45875e-05;-0.002890793323564162
1.45878e-05;-0.0028936819240096266
1.45880e-05;-0.002896570524455091
1.45883e-05;-0.002899459124900536
1.45885e-05;-0.002902347725346001
1.45888e-05;-0.002905171422008277
1.45890e-05;-0.0029079861892696082
1.45893e-05;-0.002910800956530959
1.45895e-05;-0.002913615723792309
1.45898e-05;-0.0029159399895423905
1.45900e-05;-0.002917460761696527
1.45903e-05;-0.0029189815338506626
1.45905e-05;-0.0029197739820130634
1.45908e-05;-0.002919373358085549
1.45910e-05;-0.002918972734158034
1.45913e-05;-0.0029170904561723107
1.45915e-05;-0.002912781071399136
1.45918e-05;-0.0029084716866259607
1.45920e-05;-0.002904162301852815
1.45923e-05;-0.00289985291707964
1.45925e-05;-0.0028955435323064654
1.45928e-05;-0.002889394068167048
1.45930e-05;-0.002880230358499216
1.45933e-05;-0.002871066648831384
1.45935e-05;-0.002861902939163614
1.45938e-05;-0.0028527392294957817
1.45940e-05;-0.00284357551982795
1.45943e-05;-0.002833011321541621
1.45945e-05;-0.002820152974082348
1.45948e-05;-0.002807294626623075
1.45950e-05;-0.0027944362791638023
1.45953e-05;-0.002781577931704616
1.45955e-05;-0.0027687195842453433
1.45958e-05;-0.0027542112078813904
1.45960e-05;-0.0027394758221059245
1.45963e-05;-0.0027247404363303584
1.45965e-05;-0.0027100050505547923
1.45968e-05;-0.002695269664779326
1.45970e-05;-0.0026804488906131733
1.45973e-05;-0.002665488241189872
1.45975e-05;-0.0026506945293798935
1.45978e-05;-0.0026361742791190636
1.45980e-05;-0.002621979166667965
1.45983e-05;-0.0026083166644984483
1.45985e-05;-0.002595217269713562
1.45988e-05;-0.002583040304660679
1.45990e-05;-0.0025708633396078788
1.45993e-05;-0.0025595569978214498
1.45995e-05;-0.002549676829457998
1.45998e-05;-0.0025397966610946126
1.46000e-05;-0.002530284317381437
1.46003e-05;-0.0025213745095305196
1.46005e-05;-0.002512464701679663
1.46008e-05;-0.0025036081420585295
1.46010e-05;-0.00249483880869595
1.46013e-05;-0.00248606947533343
1.46015e-05;-0.0024774031375799505
1.46018e-05;-0.002468905517578515
1.46020e-05;-0.0024604078975771376
1.46023e-05;-0.0024519102775757023
1.46025e-05;-0.002443412657574267
1.46028e-05;-0.0024349150375728894
1.46030e-05;-0.002426191774520393
1.46033e-05;-0.002417098884173349
1.46035e-05;-0.0024080059938263055
1.46038e-05;-0.0023989131034793235
1.46040e-05;-0.00238982021313228
1.46043e-05;-0.002380727322785236
1.46045e-05;-0.0023714305829168254
1.46048e-05;-0.0023617999158711133
1.46050e-05;-0.0023521692488254007
1.46053e-05;-0.0023425385817797536
1.46055e-05;-0.002332907914734041
1.46058e-05;-0.002323309073066767
1.46060e-05;-0.002313762364751221
1.46063e-05;-0.00230421565643561
1.46065e-05;-0.0022946689481199993
1.46068e-05;-0.002285122239804453
1.46070e-05;-0.0022756987643671347
1.46073e-05;-0.0022664771574792577
1.46075e-05;-0.0022574515246702545
1.46078e-05;-0.002248746918226611
1.46080e-05;-0.002240196055014352
1.46083e-05;-0.002231998711310076
1.46085e-05;-0.0022240894462724806
1.46088e-05;-0.002216523117985008
1.46090e-05;-0.0022093570439793296
1.46093e-05;-0.0022026499110096567
1.46095e-05;-0.002196474943019095
1.46098e-05;-0.002190977563931809
1.46100e-05;-0.0021864456346055577
1.46103e-05;-0.002183173153187067
1.46105e-05;-0.002181271860184296
1.46108e-05;-0.0021807290129961282
1.46110e-05;-0.002181513573705903
1.46113e-05;-0.002183835539408829
1.46115e-05;-0.0021873466255151294
1.46118e-05;-0.0021918976848515877
1.46120e-05;-0.0021981523308474047
1.46123e-05;-0.002205839516028064
1.46125e-05;-0.0022158733526163273
1.46128e-05;-0.002225907189204591
1.46130e-05;-0.002237894588609349
1.46133e-05;-0.002253082131494891
1.46135e-05;-0.002268269674380433
1.46138e-05;-0.0022834572172658715
1.46140e-05;-0.0022986447601514135
1.46143e-05;-0.0023158260756216877
1.46145e-05;-0.002336273402445618
1.46148e-05;-0.0023567207292696873
1.46150e-05;-0.002377168056093756
1.46153e-05;-0.0023976153829176864
1.46155e-05;-0.00241905822217092
1.46158e-05;-0.0024421318165672333
1.46160e-05;-0.00246520541096339
1.46163e-05;-0.002488641328673415
1.46165e-05;-0.0025126707704721417
1.46168e-05;-0.0025367002122707056
1.46170e-05;-0.002560643368402081
1.46173e-05;-0.002584445179441529
1.46175e-05;-0.0026082469904808152
1.46178e-05;-0.0026316452034737675
1.46180e-05;-0.002654382279979786
1.46183e-05;-0.0026764115374756274
1.46185e-05;-0.002697281312219542
1.46188e-05;-0.0027181510869634566
1.46190e-05;-0.002737716544848217
1.46193e-05;-0.002755145393119786
1.46195e-05;-0.0027725742413913543
1.46198e-05;-0.0027890826895985155
1.46200e-05;-0.0028040834246976327
1.46203e-05;-0.0028190841597967495
1.46205e-05;-0.002834125298828881
1.46208e-05;-0.0028492326237965606
1.46210e-05;-0.002864339948764342
1.46213e-05;-0.0028794472737321236
1.46215e-05;-0.002894554598699803
1.46218e-05;-0.0029096619236675847
1.46220e-05;-0.0029247692486353664
1.46223e-05;-0.002939876573603046
1.46225e-05;-0.002956093030088374
1.46228e-05;-0.002972462079836159
1.46230e-05;-0.0029888311295838328
1.46233e-05;-0.0030052001793316177
1.46235e-05;-0.0030215692290794026
1.46238e-05;-0.0030379382788270765
1.46240e-05;-0.003054307328574862
1.46243e-05;-0.003071345802711224
1.46245e-05;-0.003089480865129979
1.46248e-05;-0.003107615927548857
1.46250e-05;-0.003125750989967735
1.46253e-05;-0.0031438860523864904
1.46255e-05;-0.0031620211148053684
1.46258e-05;-0.0031801561772242465
1.46260e-05;-0.0031982912396430014
1.46263e-05;-0.0032161148330140865
1.46265e-05;-0.0032334282069876796
1.46268e-05;-0.003250741580961155
1.46270e-05;-0.0032680549549347483
1.46273e-05;-0.0032853683289083414
1.46275e-05;-0.0033026817028818174
1.46278e-05;-0.0033199950768554106
1.46280e-05;-0.0033373084508290037
1.46283e-05;-0.0033526883602514558
1.46285e-05;-0.0033649010492860965
1.46288e-05;-0.0033771137383207376
1.46290e-05;-0.0033893264273553783
1.46293e-05;-0.003401539116389936
1.46295e-05;-0.003413751805424577
1.46298e-05;-0.003425964494459218
1.46300e-05;-0.003438177183493776
1.46303e-05;-0.0034503898725284166
1.46305e-05;-0.0034626025615630573
1.46308e-05;-0.0034734019249044144
1.46310e-05;-0.003481886110577711
1.46313e-05;-0.0034903702962510073
1.46315e-05;-0.003498854481924246
1.46318e-05;-0.003507338667597543
1.46320e-05;-0.0035158228532708394
1.46323e-05;-0.0035243070389440784
1.46325e-05;-0.0035327912246173746
1.46328e-05;-0.003541275410290671
1.46330e-05;-0.00354975959596391
1.46333e-05;-0.0035579253517232633
1.46335e-05;-0.003565569485446564
1.46338e-05;-0.0035732136191698126
1.46340e-05;-0.003580857752893113
1.46343e-05;-0.0035885018866164136
1.46345e-05;-0.003596146020339662
1.46348e-05;-0.0036037901540629624
1.46350e-05;-0.003611434287786263
1.46353e-05;-0.0036190784215095117
1.46355e-05;-0.003626722555232812
1.46358e-05;-0.0036343666889561126
1.46360e-05;-0.003642010822679361
1.46363e-05;-0.003648514434717623
1.46365e-05;-0.003654861134863769
1.46368e-05;-0.0036612078350098725
1.46370e-05;-0.003667554535156019
1.46373e-05;-0.0036739012353021656
1.46375e-05;-0.003680247935448312
1.46378e-05;-0.0036865946355944153
1.46380e-05;-0.0036929413357405616
1.46383e-05;-0.0036992880358867083
1.46385e-05;-0.0037056347360328117
1.46388e-05;-0.003711981436178958
1.46390e-05;-0.0037176900075189478
1.46393e-05;-0.0037223532560653376
1.46395e-05;-0.003726573279291736
1.46398e-05;-0.0037300672523457395
1.46400e-05;-0.0037322238269753743
1.46403e-05;-0.003732189600870757
1.46405e-05;-0.003730028093278557
1.46408e-05;-0.003724381872559749
1.46410e-05;-0.0037187356518409024
1.46413e-05;-0.0037107545403762877
1.46415e-05;-0.0036989486297592544
1.46418e-05;-0.0036871427191421413
1.46420e-05;-0.0036725504257451363
1.46423e-05;-0.003653393741267142
1.46425e-05;-0.003634237056789018
1.46428e-05;-0.0036117721372670004
1.46430e-05;-0.0035838879772022007
1.46433e-05;-0.003556003817137212
1.46435e-05;-0.003528119657072223
1.46438e-05;-0.0035002354970074235
1.46440e-05;-0.0034646403854491914
1.46443e-05;-0.003427984408494758
1.46445e-05;-0.0033913284315405723
