Time(s);Current(A)
1.35000e-05;-0.00020692981435652233
1.35003e-05;-0.00019343170420953737
1.35005e-05;-0.00018086120132478263
1.35008e-05;-0.000169077281465471
1.35010e-05;-0.00015818825089947272
1.35013e-05;-0.00014836801792359171
1.35015e-05;-0.00013991984657547968
1.35018e-05;-0.00013313478953920377
1.35020e-05;-0.00012811140642466926
1.35023e-05;-0.00012483557820255976
1.35025e-05;-0.00012328936457956126
1.35028e-05;-0.00012345482872368587
1.35030e-05;-0.00012531883101973571
1.35033e-05;-0.0001289093704312962
1.35035e-05;-0.0001343354547421807
1.35038e-05;-0.0001416984061497731
1.35040e-05;-0.00015097897241864045
1.35043e-05;-0.00016208732070606546
1.35045e-05;-0.00017493124564111744
1.35048e-05;-0.00018941851940310712
1.35050e-05;-0.00020545995865001805
1.35053e-05;-0.00022299212607844563
1.35055e-05;-0.0002420023200667662
1.35058e-05;-0.0002625684244777071
1.35060e-05;-0.00028484161503007584
1.35063e-05;-0.0003074540132075634
1.35065e-05;-0.0003319525844998946
1.35068e-05;-0.000356756225354964
1.35070e-05;-0.00038325621371094825
1.35073e-05;-0.000409756202066753
1.35075e-05;-0.0004365060018985916
1.35078e-05;-0.0004646448851552555
1.35080e-05;-0.0004927837684117287
1.35083e-05;-0.0005209226516683926
1.35085e-05;-0.0005490615349250565
1.35088e-05;-0.0005766856502903427
1.35090e-05;-0.0006040355287033246
1.35093e-05;-0.0006313854071163063
1.35095e-05;-0.0006587352855291029
1.35098e-05;-0.0006856269100642195
1.35100e-05;-0.000709970401596128
1.35103e-05;-0.0007343138931280365
1.35105e-05;-0.0007580095008390283
1.35108e-05;-0.00077810253315316
1.35110e-05;-0.0007981955654672916
1.35113e-05;-0.0008175207974725543
1.35115e-05;-0.0008325766552265564
1.35118e-05;-0.0008476325129805584
1.35120e-05;-0.0008619345208061558
1.35123e-05;-0.0008720447258455377
1.35125e-05;-0.0008821549308849197
1.35128e-05;-0.0008914453314839458
1.35130e-05;-0.0008961771874600414
1.35133e-05;-0.0009009090434361369
1.35135e-05;-0.0009048763996387305
1.35138e-05;-0.0009045927343045442
1.35140e-05;-0.000904309068970358
1.35143e-05;-0.0009033254713218191
1.35145e-05;-0.0008984498812283742
1.35148e-05;-0.0008935742911349294
1.35150e-05;-0.0008880493029967923
1.35153e-05;-0.000878913319578119
1.35155e-05;-0.0008697773361594457
1.35158e-05;-0.0008599173954286022
1.35160e-05;-0.0008460318706062031
1.35163e-05;-0.0008321463457838041
1.35165e-05;-0.0008182608209614992
1.35168e-05;-0.0008043752961391002
1.35170e-05;-0.0007904897713167012
1.35173e-05;-0.0007760566149516349
1.35175e-05;-0.0007585783386746739
1.35178e-05;-0.0007411000623977129
1.35180e-05;-0.0007236217861208705
1.35183e-05;-0.0007061435098439095
1.35185e-05;-0.0006886652335669485
1.35188e-05;-0.0006711680657185737
1.35190e-05;-0.000653565850779732
1.35193e-05;-0.000635963635840771
1.35195e-05;-0.00061836142090181
1.35198e-05;-0.0006010896831399392
1.35200e-05;-0.0005856555726027679
1.35203e-05;-0.0005702214620655965
1.35205e-05;-0.0005547873515285298
1.35208e-05;-0.000539751928489654
1.35210e-05;-0.0005269334180007366
1.35213e-05;-0.000514114907511906
1.35215e-05;-0.0005009086580742564
1.35218e-05;-0.0004850841899582243
1.35220e-05;-0.0004662628647524381
1.35223e-05;-0.00044468106765471613
1.35225e-05;-0.0004206009457385132
1.35228e-05;-0.0003942846821039943
1.35230e-05;-0.00036595998752812347
1.35233e-05;-0.0003355536193184187
1.35235e-05;-0.0003023421006621639
1.35238e-05;-0.0002654911780825128
1.35240e-05;-0.00022487986058119226
1.35243e-05;-0.00018084370746084997
1.35245e-05;-0.0001337343399756874
1.35248e-05;-8.390338401840059e-05
1.35250e-05;-3.168083787471048e-05
1.35253e-05;2.2791829444913895e-05
1.35255e-05;7.978042010704924e-05
1.35258e-05;0.00013962008937849286
1.35260e-05;0.00020219920466079517
1.35263e-05;0.00026712017077415776
1.35265e-05;0.00033406535077540995
1.35268e-05;0.000402857667372365
1.35270e-05;0.00047200068209979427
1.35273e-05;0.0005430937632083992
1.35275e-05;0.0006141868443165223
1.35278e-05;0.0006854961008685714
1.35280e-05;0.0007580074067846945
1.35283e-05;0.0008305187127003262
1.35285e-05;0.0009030300186164493
1.35288e-05;0.0009749319366051572
1.35290e-05;0.001043445336642466
1.35293e-05;0.0011119587366802389
1.35295e-05;0.0011804721367180118
1.35298e-05;0.001247832260701736
1.35300e-05;0.001308779562188864
1.35303e-05;0.001369726863675992
1.35305e-05;0.0014293788766324182
1.35308e-05;0.0014818284028976817
1.35310e-05;0.0015329025021002726
1.35313e-05;0.0015763285021474535
1.35315e-05;0.001618123319144452
1.35318e-05;0.001650847898940647
1.35320e-05;0.0016818550292784626
1.35323e-05;0.001703312235736316
1.35325e-05;0.0017230158110625804
1.35328e-05;0.0017329682733408533
1.35330e-05;0.0017411255195186395
1.35333e-05;0.0017393004183106915
1.35335e-05;0.0017356613003729692
1.35338e-05;0.001721935293645257
1.35340e-05;0.0017064826101566137
1.35343e-05;0.001681428694123341
1.35345e-05;0.0016547667963822598
1.35348e-05;0.001619163673130911
1.35350e-05;0.0015820679272006725
1.35353e-05;0.0015366724127385293
1.35355e-05;0.0014899138393484042
1.35358e-05;0.001435575940147786
1.35360e-05;0.0013800710355845684
1.35363e-05;0.0013180769663286799
1.35365e-05;0.001254938398047476
1.35368e-05;0.001185435812169972
1.35370e-05;0.0011159332262919972
1.35373e-05;0.0010454897157968891
1.35375e-05;0.0009698141686744465
1.35378e-05;0.0008941386215514912
1.35380e-05;0.000818087540953879
1.35383e-05;0.0007399482963756297
1.35385e-05;0.000661809051796851
1.35388e-05;0.0005839134804670547
1.35390e-05;0.0005073728607893989
1.35393e-05;0.00043083224111122444
1.35395e-05;0.0003547759779300258
1.35398e-05;0.00028177792302075074
1.35400e-05;0.00021125249050119916
1.35403e-05;0.0001437146340042893
1.35405e-05;7.96796414862543e-05
1.35408e-05;1.9662700878804452e-05
1.35410e-05;-3.589582226605048e-05
1.35413e-05;-8.721579987545435e-05
1.35415e-05;-0.00013598047424549824
1.35418e-05;-0.00018422546874690627
1.35420e-05;-0.0002325333580898117
1.35423e-05;-0.0002804422535019248
1.35425e-05;-0.00032732717103960656
1.35428e-05;-0.00037377970294013115
1.35430e-05;-0.0004178279428827712
1.35433e-05;-0.00046176129847075737
1.35435e-05;-0.0005050558365157661
1.35438e-05;-0.0005483503745610681
1.35440e-05;-0.0005918768957876542
1.35443e-05;-0.0006366933657306358
1.35445e-05;-0.0006815098356733136
1.35448e-05;-0.0007263263056162952
1.35450e-05;-0.0007711427755592767
1.35453e-05;-0.0008159592455019546
1.35455e-05;-0.0008613890247658613
1.35458e-05;-0.0009071455378493842
1.35460e-05;-0.0009529020509325972
1.35463e-05;-0.0009986585640161202
1.35465e-05;-0.001044415077099643
1.35468e-05;-0.0010900748333023882
1.35470e-05;-0.001135196570270181
1.35473e-05;-0.0011803183072379739
1.35475e-05;-0.001225440044205461
1.35478e-05;-0.0012705617811732538
1.35480e-05;-0.0013156835181410468
1.35483e-05;-0.0013608052551085338
1.35485e-05;-0.0014028672875681016
1.35488e-05;-0.0014432992959812698
1.35490e-05;-0.0014837313043941638
1.35493e-05;-0.001524163312807332
1.35495e-05;-0.0015645953212205
1.35498e-05;-0.0016050273296333941
1.35500e-05;-0.0016429116936737948
1.35503e-05;-0.0016666298126800892
1.35505e-05;-0.001690347931686223
1.35508e-05;-0.0017140660506925177
1.35510e-05;-0.001737784169698812
1.35513e-05;-0.0017615022887049459
1.35515e-05;-0.0017852204077112403
1.35518e-05;-0.001808938526717535
1.35520e-05;-0.0018326566457236688
1.35523e-05;-0.0018563747647299632
1.35525e-05;-0.0018800928837362577
1.35528e-05;-0.0018994567031331722
1.35530e-05;-0.0018946083224754395
1.35533e-05;-0.001889759941817674
1.35535e-05;-0.0018849115611599084
1.35538e-05;-0.0018800631805021757
1.35540e-05;-0.0018752147998444102
1.35543e-05;-0.0018703664191866446
1.35545e-05;-0.0018655180385289119
1.35548e-05;-0.0018606696578711464
1.35550e-05;-0.0018558212772133808
1.35553e-05;-0.001850972896555648
1.35555e-05;-0.001843973920399237
1.35558e-05;-0.001824110470477648
1.35560e-05;-0.0017992090182184413
1.35563e-05;-0.0017743075659590658
1.35565e-05;-0.0017494061136996903
1.35568e-05;-0.0017245046614404835
1.35570e-05;-0.001699603209181108
1.35573e-05;-0.0016747017569217326
1.35575e-05;-0.0016461680937773374
1.35578e-05;-0.0016156994100875047
1.35580e-05;-0.001585230726397672
1.35583e-05;-0.0015547620427080458
1.35585e-05;-0.001524293359018213
1.35588e-05;-0.0014938246753283804
1.35590e-05;-0.0014636227090811455
1.35593e-05;-0.0014349038323440602
1.35595e-05;-0.0014061849556069748
1.35598e-05;-0.0013774660788700842
1.35600e-05;-0.0013487472021329989
1.35603e-05;-0.0013200283253959138
1.35605e-05;-0.0012952798158913153
1.35608e-05;-0.0012726464760202557
1.35610e-05;-0.0012500131361491958
1.35613e-05;-0.001227379796278136
1.35615e-05;-0.0012047464564072297
1.35618e-05;-0.0011815611092850708
1.35620e-05;-0.0011553063109994077
1.35623e-05;-0.0011290515127139224
1.35625e-05;-0.001102165383562005
1.35628e-05;-0.001071768722151276
1.35630e-05;-0.0010413720607407527
1.35633e-05;-0.0010103503619574188
1.35635e-05;-0.000975853126055765
1.35638e-05;-0.0009405055010523581
1.35640e-05;-0.0009004292645789617
1.35643e-05;-0.0008596566107446005
1.35645e-05;-0.0008150115094472562
1.35648e-05;-0.0007698601530754788
1.35650e-05;-0.00072189375174994
1.35653e-05;-0.0006733896160526408
1.35655e-05;-0.0006218953939182891
1.35658e-05;-0.0005697655215346034
1.35660e-05;-0.0005141010988459749
1.35663e-05;-0.0004579911105608935
1.35665e-05;-0.0003994035427965591
1.35668e-05;-0.00034058315199768
1.35670e-05;-0.00028046814245140004
1.35673e-05;-0.00022019420259798797
1.35675e-05;-0.00015903652649813715
1.35678e-05;-9.775958196553942e-05
1.35680e-05;-3.580464626073351e-05
1.35683e-05;2.618956052156035e-05
1.35685e-05;8.7843847990601e-05
1.35688e-05;0.0001487790926578812
1.35690e-05;0.00020862486799241948
1.35693e-05;0.000267086742018521
1.35695e-05;0.0003240356185075037
1.35698e-05;0.0003793742591068526
1.35700e-05;0.00043282949636271647
1.35703e-05;0.0004840144866560195
1.35705e-05;0.0005325383655433632
1.35708e-05;0.0005780102951986443
1.35710e-05;0.0006200582710903286
1.35713e-05;0.0006582454488704956
1.35715e-05;0.0006921724534217806
1.35718e-05;0.000725179455970942
1.35720e-05;0.0007530707626431873
1.35723e-05;0.0007799755908078574
1.35725e-05;0.0008013950787014388
1.35728e-05;0.0008217451266514394
1.35730e-05;0.0008361485250328879
1.35733e-05;0.0008495288551030369
1.35735e-05;0.0008572203863123381
1.35738e-05;0.0008640272010796281
1.35740e-05;0.0008659145262770927
1.35743e-05;0.0008669358868635197
1.35745e-05;0.0008631420279405146
1.35748e-05;0.0008584906420649478
1.35750e-05;0.0008490709545069504
1.35753e-05;0.0008388832004703834
1.35755e-05;0.0008244245921224608
1.35758e-05;0.0008093449552512325
1.35760e-05;0.0007908120725739669
1.35763e-05;0.0007716062548382964
1.35765e-05;0.0007486585636125392
1.35768e-05;0.0007257108723869375
1.35770e-05;0.0007021223183733881
1.35773e-05;0.0006749702295921902
1.35775e-05;0.0006478181408111763
1.35778e-05;0.0006203104400659266
1.35780e-05;0.0005908253494302097
1.35783e-05;0.0005613402587944928
1.35785e-05;0.0005318551681589757
1.35788e-05;0.000502373915948084
1.35790e-05;0.0004729140074016697
1.35793e-05;0.0004434540988554551
1.35795e-05;0.00041399419030904087
1.35798e-05;0.0003848770793839995
1.35800e-05;0.0003576661038526952
1.35803e-05;0.0003308628930294787
1.35805e-05;0.0003063270688339969
1.35808e-05;0.0002821738605109564
1.35810e-05;0.0002605029168450318
1.35813e-05;0.000240804396654018
1.35815e-05;0.00022123562209831892
1.35818e-05;0.0002023863940692944
1.35820e-05;0.00018356887146673612
1.35823e-05;0.00016498662869301626
1.35825e-05;0.0001465420645947297
1.35828e-05;0.00012886306647506626
1.35830e-05;0.00011135112541712471
1.35833e-05;9.476810964352412e-05
1.35835e-05;7.818509386992354e-05
1.35838e-05;6.154336919836618e-05
1.35840e-05;4.454050156529656e-05
1.35843e-05;2.7330464904865616e-05
1.35845e-05;1.0047215797337853e-05
1.35848e-05;-7.175319445890455e-06
1.35850e-05;-2.421061929212892e-05
1.35853e-05;-4.1025841189574215e-05
1.35855e-05;-5.789544662407967e-05
1.35858e-05;-7.506746511213384e-05
1.35860e-05;-9.2282464309352e-05
1.35863e-05;-0.00010973645889676505
1.35865e-05;-0.00012719045348417809
1.35868e-05;-0.00014464444807159112
1.35870e-05;-0.000162028974766583
1.35873e-05;-0.00017902722337792703
1.35875e-05;-0.00019602547198927105
1.35878e-05;-0.00021302372060049988
1.35880e-05;-0.0002299520411558825
1.35883e-05;-0.0002464915248750774
1.35885e-05;-0.00026303100859416026
1.35888e-05;-0.0002793809555314322
1.35890e-05;-0.00029467697809436316
1.35893e-05;-0.0003099730006571905
1.35895e-05;-0.00032504744965739803
1.35898e-05;-0.00033888983290178334
1.35900e-05;-0.00035273221614607486
1.35903e-05;-0.0003663897132282466
1.35905e-05;-0.0003789010940284923
1.35908e-05;-0.0003906225991712603
1.35910e-05;-0.00040141209258031274
1.35913e-05;-0.00041077068809119646
1.35915e-05;-0.0004174489434745323
1.35918e-05;-0.0004201250744604805
1.35920e-05;-0.00041838272387128807
1.35923e-05;-0.00041236788617482733
1.35925e-05;-0.0004022461823977906
1.35928e-05;-0.0003881831931039828
1.35930e-05;-0.0003703187738522255
1.35933e-05;-0.0003485693168392669
1.35935e-05;-0.00032238111212010297
1.35938e-05;-0.00029115515973152724
1.35940e-05;-0.0002548597437770003
1.35943e-05;-0.0002138152957429341
1.35945e-05;-0.00016835460240422197
1.35948e-05;-0.00011881036974334622
1.35950e-05;-6.549918458050083e-05
1.35953e-05;-8.597630763994053e-06
1.35955e-05;5.2012172036474546e-05
1.35958e-05;0.00011647642069602138
1.35960e-05;0.00018458601019866335
1.35963e-05;0.0002559112081791142
1.35965e-05;0.0003300146259916343
1.35968e-05;0.00040658080381518236
1.35970e-05;0.00048549466139294757
1.35973e-05;0.0005649352434255605
1.35975e-05;0.0006473046909561183
1.35978e-05;0.0007296741384861178
1.35980e-05;0.0008122086763614129
1.35983e-05;0.0008956612035398643
1.35985e-05;0.0009791137307177502
1.35988e-05;0.0010625662578962016
1.35990e-05;0.001145186038754203
1.35993e-05;0.0012231753112941098
1.35995e-05;0.001301164583834545
1.35998e-05;0.0013791538563749802
1.36000e-05;0.001455878833183167
1.36003e-05;0.0015255736595625854
1.36005e-05;0.00159400092960093
1.36008e-05;0.00165537991850353
1.36010e-05;0.0017150922702254417
1.36013e-05;0.0017655372410641673
1.36015e-05;0.0018159822119025511
1.36018e-05;0.0018651696019425829
1.36020e-05;0.0019073641801183262
1.36023e-05;0.0019495587582937838
1.36025e-05;0.0019902958130351067
1.36028e-05;0.0020229282695066295
1.36030e-05;0.002055560725977931
1.36033e-05;0.0020868660952191058
1.36035e-05;0.0021107921602120504
1.36038e-05;0.0021347182252049947
1.36040e-05;0.00215681211461577
1.36043e-05;0.0021687181424096735
1.36045e-05;0.002180624170203577
1.36048e-05;0.0021925301979973996
1.36050e-05;0.0022044362257913025
1.36053e-05;0.002216342253585206
1.36055e-05;0.0022282482813790285
1.36058e-05;0.002240154309172932
1.36060e-05;0.002252060336966835
1.36063e-05;0.0022555794960297123
1.36065e-05;0.00225463064267722
1.36068e-05;0.002253681789324728
1.36070e-05;0.0022527329359722423
1.36073e-05;0.00225178408261975
1.36075e-05;0.002250835229267258
1.36078e-05;0.0022498863759147724
1.36080e-05;0.0022489375225622802
1.36083e-05;0.0022472501658886766
1.36085e-05;0.0022414563416289883
1.36088e-05;0.0022356625173692605
1.36090e-05;0.0022298686931095327
1.36093e-05;0.0022240748688498444
1.36095e-05;0.0022182810445901167
1.36098e-05;0.0022124872203303893
1.36100e-05;0.0022066933960707006
1.36103e-05;0.0022008995718109732
1.36105e-05;0.0021951057475512454
1.36108e-05;0.002189311923291557
1.36110e-05;0.002185737300109592
1.36113e-05;0.0021833449319845263
1.36115e-05;0.002180952563859477
1.36118e-05;0.0021785601957344113
1.36120e-05;0.0021761678276093458
1.36123e-05;0.0021737754594842802
1.36125e-05;0.0021713830913592308
1.36128e-05;0.0021689907232341652
1.36130e-05;0.0021665983551090997
1.36133e-05;0.0021642059869840503
1.36135e-05;0.002162821750423733
1.36138e-05;0.002167043256553972
1.36140e-05;0.0021712647626841823
1.36143e-05;0.0021754862688144216
1.36145e-05;0.0021797077749446604
1.36148e-05;0.002183929281074871
1.36150e-05;0.00218815078720511
1.36153e-05;0.0021923722933353492
1.36155e-05;0.0021965937994655594
1.36158e-05;0.0022008153055957987
1.36160e-05;0.0022050368117260376
1.36163e-05;0.002209258317856248
1.36165e-05;0.002213479823986487
1.36168e-05;0.0022182174939614032
1.36170e-05;0.002225825306882944
1.36173e-05;0.002233433119804536
1.36175e-05;0.0022410409327261282
1.36178e-05;0.002248648745647669
1.36180e-05;0.002256256558569261
1.36183e-05;0.0022638643714908533
1.36185e-05;0.002271472184412394
1.36188e-05;0.002279079997333986
1.36190e-05;0.0022866878102555783
1.36193e-05;0.002294295623177119
1.36195e-05;0.002301903436098711
1.36198e-05;0.0023095112490203033
1.36200e-05;0.0023166388172383206
1.36203e-05;0.002321095971860009
1.36205e-05;0.0023255531264816977
1.36208e-05;0.0023300102811033866
1.36210e-05;0.002334467435725045
1.36213e-05;0.0023389245903467338
1.36215e-05;0.0023433817449684223
1.36218e-05;0.0023478388995900805
1.36220e-05;0.0023438092260694085
1.36223e-05;0.002335258287850561
1.36225e-05;0.0023267073496317714
1.36228e-05;0.002318156411412924
1.36230e-05;0.0023096054731940765
1.36233e-05;0.002301054534975287
1.36235e-05;0.00229250359675644
1.36238e-05;0.002281232352118729
1.36240e-05;0.0022548347704410237
1.36243e-05;0.00222843718876314
1.36245e-05;0.002202039607085256
1.36248e-05;0.002175642025407551
1.36250e-05;0.002149244443729667
1.36253e-05;0.0021228468620517835
1.36255e-05;0.0020964492803740783
1.36258e-05;0.002068030191877916
1.36260e-05;0.002028370460322186
1.36263e-05;0.001988710728766725
1.36265e-05;0.0019490509972109947
1.36268e-05;0.0019093912656552646
1.36270e-05;0.0018697315340998031
1.36273e-05;0.001830071802544073
1.36275e-05;0.001790412070988343
1.36278e-05;0.0017501972994335795
1.36280e-05;0.0017068962130264247
1.36283e-05;0.0016635951266192699
1.36285e-05;0.0016202940402124085
1.36288e-05;0.0015769929538052537
1.36290e-05;0.0015336918673980989
1.36293e-05;0.0014912339997074097
1.36295e-05;0.0014534648723809587
1.36298e-05;0.0014156957450542516
1.36300e-05;0.0013779266177275447
1.36303e-05;0.0013401574904010935
1.36305e-05;0.0013023883630743866
1.36308e-05;0.00126602290367373
1.36310e-05;0.0012374625775496925
1.36313e-05;0.0012089022514254616
1.36315e-05;0.0011809911192770884
1.36318e-05;0.0011566898477020603
1.36320e-05;0.0011323885761268678
1.36323e-05;0.001108645006272772
1.36325e-05;0.0010880025518474178
1.36328e-05;0.001067360097421924
1.36330e-05;0.001047698799275218
1.36333e-05;0.001033493247021223
1.36335e-05;0.0010192876947671316
1.36338e-05;0.0010050821425130405
1.36340e-05;0.0009908765902590453
1.36343e-05;0.0009766710380049541
1.36345e-05;0.0009624654857508627
1.36348e-05;0.0009482599334968677
1.36350e-05;0.0009340543812427764
1.36353e-05;0.0009237619763860676
1.36355e-05;0.0009155542579278775
1.36358e-05;0.0009073465394696317
1.36360e-05;0.0008991388210113859
1.36363e-05;0.0008909311025531957
1.36365e-05;0.0008827233840949499
1.36368e-05;0.0008745156656367041
1.36370e-05;0.000866307947178514
1.36373e-05;0.0008586302208333582
1.36375e-05;0.0008538995298968641
1.36378e-05;0.0008491688389603701
1.36380e-05;0.0008444381480239081
1.36383e-05;0.0008397074570874141
1.36385e-05;0.0008349767661509201
1.36388e-05;0.0008302460752144581
1.36390e-05;0.0008256154097719881
1.36393e-05;0.0008227030823160917
1.36395e-05;0.000819790754860215
1.36398e-05;0.0008168784274043185
1.36400e-05;0.0008139660999484221
1.36403e-05;0.0008110537724925454
1.36405e-05;0.000808141445036649
1.36408e-05;0.0008052291175807525
1.36410e-05;0.000802978376247205
1.36413e-05;0.0008008296687397431
1.36415e-05;-0.04367947007078691
1.36418e-05;-0.025864770966798623
1.36420e-05;-0.014964361149251012
1.36423e-05;0.00013392238742316893
1.36425e-05;0.013455362536321727
1.36428e-05;0.01682451059757824
1.36430e-05;0.011208293337035585
1.36433e-05;0.0001345715956797
1.36435e-05;-0.010085521411346684
1.36438e-05;-0.012140815753401604
1.36440e-05;-0.00663639334897102
1.36443e-05;0.0024124699307708636
1.36445e-05;0.010205672767783449
1.36448e-05;0.01210957004484342
1.36450e-05;0.00846962392725866
1.36453e-05;0.0014627468680085427
