Time(s);Current(A)
4.25000e-06;0.0012053831512792669
4.25025e-06;0.0011813877505145707
4.25050e-06;0.0011573923497499557
4.25075e-06;0.0011333969489853407
4.25100e-06;0.0011094015482206445
4.25125e-06;0.0010862943361209434
4.25150e-06;0.0010681968536766712
4.25175e-06;0.001050099371232338
4.25200e-06;0.0010320018887880658
4.25225e-06;0.0010139044063437325
4.25250e-06;0.0009958069238994603
4.25275e-06;0.0009777094414551882
4.25300e-06;0.0009596119590108549
4.25325e-06;0.0009415144765665828
4.25350e-06;0.0009234169941223108
4.25375e-06;0.0009053195116779774
4.25400e-06;0.0008892271054775989
4.25425e-06;0.0008742115412839135
4.25450e-06;0.0008591959770901772
4.25475e-06;0.0008441804128964918
4.25500e-06;0.0008291648487028062
4.25525e-06;0.00081414928450907
4.25550e-06;0.0007991337203153845
4.25575e-06;0.0007841181561216991
4.25600e-06;0.0007691025919279628
4.25625e-06;0.0007540870277342774
4.25650e-06;0.0007393912287755977
4.25675e-06;0.0007264990301597572
4.25700e-06;0.0007136068315439167
4.25725e-06;0.0007007146329280325
4.25750e-06;0.000687822434312192
4.25775e-06;0.0006749302356963516
4.25800e-06;0.0006620380370804674
4.25825e-06;0.0006496071534810861
4.25850e-06;0.0006397782660668989
4.25875e-06;0.0006299493786526784
4.25900e-06;0.0006201204912384912
4.25925e-06;0.000610291603824304
4.25950e-06;0.0006004627164100836
4.25975e-06;0.0005906338289958964
4.26000e-06;0.0005813826625942692
4.26025e-06;0.0005753900674878857
4.26050e-06;0.0005693974723815224
4.26075e-06;0.0005639441256289141
4.26100e-06;0.0005615323494066255
4.26125e-06;0.0005591205731843369
4.26150e-06;0.0005572510490291456
4.26175e-06;0.0005584400375160713
4.26200e-06;0.0005596290260029971
4.26225e-06;0.0005613967669332795
4.26250e-06;0.0005664288968294633
4.26275e-06;0.0005714610267256471
4.26300e-06;0.0005770407703756888
4.26325e-06;0.0005857092686670124
4.26350e-06;0.0005943777669583359
4.26375e-06;0.0006035247614563216
4.26400e-06;0.0006153706607364823
4.26425e-06;0.000627216560016643
4.26450e-06;0.000639667598071606
4.26475e-06;0.0006555318542679073
4.26500e-06;0.0006713961104642623
4.26525e-06;0.0006872603666605635
4.26550e-06;0.0007031246228568648
4.26575e-06;0.0007189888790532198
4.26600e-06;0.0007348531352495212
4.26625e-06;0.0007524104740810947
4.26650e-06;0.0007708770962916184
4.26675e-06;0.0007893437185020796
4.26700e-06;0.0008078103407125407
4.26725e-06;0.0008262769629230644
4.26750e-06;0.0008447435851335255
4.26775e-06;0.0008629463483970606
4.26800e-06;0.000879660844536022
4.26825e-06;0.0008963753406749268
4.26850e-06;0.0009130898368138316
4.26875e-06;0.0009298043329527929
4.26900e-06;0.0009465188290916978
4.26925e-06;0.0009632333252306592
4.26950e-06;0.0009789281575379625
4.26975e-06;0.0009888716890980088
4.27000e-06;0.000998815220658089
4.27025e-06;0.0010087587522181352
4.27050e-06;0.0010187022837781815
4.27075e-06;0.0010286458153382617
4.27100e-06;0.001038589346898308
4.27125e-06;0.0010475505832247005
4.27150e-06;0.0010509712922361673
4.27175e-06;0.0010543920012476228
4.27200e-06;0.0010566808084358599
4.27225e-06;0.0010525852489343727
4.27250e-06;0.0010484896894328991
4.27275e-06;0.0010443941299314258
4.27300e-06;0.0010402985704299384
4.27325e-06;0.0010362030109284648
4.27350e-06;0.0010321074514269776
4.27375e-06;0.001028011891925504
4.27400e-06;0.0010239163324240307
4.27425e-06;0.0010142624168481855
4.27450e-06;0.00100162334231664
4.27475e-06;0.0009889842677850943
4.27500e-06;0.0009763451932535057
4.27525e-06;0.0009637061187219602
4.27550e-06;0.0009510670441904145
4.27575e-06;0.000938427969658826
4.27600e-06;0.0009257888951272803
4.27625e-06;0.0009126354435083783
4.27650e-06;0.0008965807049804478
4.27675e-06;0.0008805259664525718
4.27700e-06;0.0008644712279246957
4.27725e-06;0.0008484164893967652
4.27750e-06;0.0008323617508688891
4.27775e-06;0.0008163070123409586
4.27800e-06;0.000801156143774345
4.27825e-06;0.0007864907056971436
4.27850e-06;0.0007718252676198924
4.27875e-06;0.0007571598295426909
4.27900e-06;0.0007424943914654895
4.27925e-06;0.0007278289533882384
4.27950e-06;0.0007137117921117266
4.27975e-06;0.0007026871253168404
4.28000e-06;0.0006916624585219168
4.28025e-06;0.0006811315870029211
4.28050e-06;0.0006733859129677196
4.28075e-06;0.0006656402389324919
4.28100e-06;0.000658419341080128
4.28125e-06;0.0006541583850808332
4.28150e-06;0.0006498974290815238
4.28175e-06;0.000646185439676144
4.28200e-06;0.0006455698354543211
4.28225e-06;0.0006449542312325003
4.28250e-06;0.0006448664215163612
4.28275e-06;0.0006477555781683646
4.28300e-06;0.0006506447348203581
4.28325e-06;0.0006540192804416506
4.28350e-06;0.0006601316087065337
4.28375e-06;0.000666243936971396
4.28400e-06;0.0006730185827711003
4.28425e-06;0.0006835289571639179
4.28450e-06;0.0006940393315566998
4.28475e-06;0.0007045497059494818
4.28500e-06;0.0007150600803422993
4.28525e-06;0.0007255704547350812
4.28550e-06;0.0007360808291278632
4.28575e-06;0.0007471199693495036
4.28600e-06;0.0007611415545792879
4.28625e-06;0.0007751631398091196
4.28650e-06;0.0007891847250389039
4.28675e-06;0.0008032063102686881
4.28700e-06;0.00081722789549852
4.28725e-06;0.0008312494807283042
4.28750e-06;0.0008452484511083641
4.28775e-06;0.000859119864936987
4.28800e-06;0.000872991278765563
4.28825e-06;0.0008868626925941389
4.28850e-06;0.0009007341064227618
4.28875e-06;0.0009146055202513376
4.28900e-06;0.0009267084335951451
4.28925e-06;-0.0009228602194341195
4.28950e-06;-0.005944278799243899
4.28975e-06;-0.008592007484947262
4.29000e-06;-0.008223401733564872
4.29025e-06;-0.005972419562694958
4.29050e-06;-0.002137037167967708
4.29075e-06;0.00028284808236452214
4.29100e-06;0.0007158894856731038
4.29125e-06;-0.0006025385145894567
4.29150e-06;-0.0035465548084563933
4.29175e-06;-0.005206655618787671
4.29200e-06;-0.004979612103184362
4.29225e-06;-0.003554871279115538
4.29250e-06;-0.0011472845069189813
4.29275e-06;0.00039743201217227694
4.29300e-06;0.0006726420924555403
4.29325e-06;-0.00016041396370470033
4.29350e-06;-0.0020123479026973538
4.29375e-06;-0.003182853519152531
4.29400e-06;-0.0031089990639223144
4.29425e-06;-0.0022486774398602534
4.29450e-06;-0.0004025410886949873
4.29475e-06;0.0010700303892343386
4.29500e-06;0.0015370496221032578
4.29525e-06;0.0010854548310301406
4.29550e-06;-0.00021974828287198113
4.29575e-06;-0.0013082568919007827
4.29600e-06;-0.0015501165836525632
4.29625e-06;-0.0010313119299332311
4.29650e-06;9.488143294756474e-05
4.29675e-06;0.0009992352033342568
4.29700e-06;0.0012747009403772872
4.29725e-06;0.0009752715176753069
4.29750e-06;0.0001418358507898227
4.29775e-06;-0.0005550348276789706
4.29800e-06;-0.0007206537116652282
4.29825e-06;-0.0004088144587259798
4.29850e-06;0.0002845435138279749
4.29875e-06;0.0008400913246438207
4.29900e-06;0.0010029874244475818
4.29925e-06;0.0008071944107785737
4.29950e-06;0.00027846314648425534
4.29975e-06;-0.0001630448460481322
4.30000e-06;-0.0002700958567991728
4.30025e-06;-7.671858477539811e-05
4.30050e-06;0.0003564467954174499
4.30075e-06;0.0007038020996857744
4.30100e-06;0.000805678908587838
4.30125e-06;0.0006833463827928886
4.30150e-06;0.00035292847791965423
4.30175e-06;7.75942052152041e-05
4.30200e-06;1.2171418473291178e-05
4.30225e-06;0.0001352990479218132
4.30250e-06;0.0004089490134226095
4.30275e-06;0.0006291347296963859
4.30300e-06;0.0006958212755394604
4.30325e-06;0.0006223166930611508
4.30350e-06;0.000418704698705042
4.30375e-06;0.0002498094971569627
4.30400e-06;0.00021257840279163606
4.30425e-06;0.00029359029283682487
4.30450e-06;0.0004689853820800332
4.30475e-06;0.0006109544700249167
4.30500e-06;0.0006568122213185541
4.30525e-06;0.0006148734220814147
4.30550e-06;0.0004914324796808007
4.30575e-06;0.00038970794856153454
4.30600e-06;0.0003703927246984159
4.30625e-06;0.00042504270118623607
4.30650e-06;0.0005386759509827768
4.30675e-06;0.0006312011696816746
4.30700e-06;0.0006633257187228271
4.30725e-06;0.0006402331805819727
4.30750e-06;0.0005658408006849966
4.30775e-06;0.0005047760125040502
4.30800e-06;0.0004950234765786312
4.30825e-06;0.0005312589256635925
4.30850e-06;0.0006040635088685738
4.30875e-06;0.0006632366071995371
4.30900e-06;0.0006841373607819917
4.30925e-06;0.0006699854996764602
4.30950e-06;0.0006232073796408498
4.30975e-06;0.0005842562171453984
4.31000e-06;0.0005771350114316823
4.31025e-06;0.0005996053294157696
4.31050e-06;0.0006473117041586824
4.31075e-06;0.0006894771816241586
4.31100e-06;0.0007105822673633706
4.31125e-06;0.0007124804153178649
4.31150e-06;0.0006965258070655634
4.31175e-06;0.0006878911446222446
4.31200e-06;0.0007014431447463793
4.31225e-06;0.0007356102106403667
4.31250e-06;0.0007874947337057153
4.31275e-06;0.0008376498886644684
4.31300e-06;0.0008761873609144451
4.31325e-06;0.0009041015649358481
4.31350e-06;0.0009220742165049184
4.31375e-06;0.0009457060456769943
4.31400e-06;0.0009841410312510684
4.31425e-06;0.0010362259151409851
4.31450e-06;0.001099976754427335
4.31475e-06;0.0011630440691078432
4.31500e-06;0.0012190665563188144
4.31525e-06;0.001268500139318059
4.31550e-06;0.001313428389090397
4.31575e-06;0.0013580992181741675
4.31600e-06;0.0014132012380401867
4.31625e-06;0.0014763616279517507
4.31650e-06;0.001545181035136598
4.31675e-06;0.0016143250424210265
4.31700e-06;0.0016746487133963664
4.31725e-06;0.0017344214036888142
4.31750e-06;0.0017869490016500778
4.31775e-06;0.001839024019825024
4.31800e-06;0.001896585464907864
4.31825e-06;0.0019544896310775247
4.31850e-06;0.0020139688768683597
4.31875e-06;0.0020735465132890865
4.31900e-06;0.002122968584165164
4.31925e-06;0.0021717562664823613
4.31950e-06;0.002210745803061659
4.31975e-06;0.0022491232780552563
4.32000e-06;0.0022852535664083817
4.32025e-06;0.0023212434795666223
4.32050e-06;0.0023505965093995143
4.32075e-06;0.002379534952489039
4.32100e-06;0.002408473395578662
4.32125e-06;0.0024218958160613594
4.32150e-06;0.0024343489958678303
4.32175e-06;0.0024468021756743432
4.32200e-06;0.002452213242975263
4.32225e-06;0.002457184410047917
4.32250e-06;0.002454643479117777
4.32275e-06;0.002451633289336191
4.32300e-06;0.002448623099554604
4.32325e-06;0.002432856755374992
4.32350e-06;0.0024162935714365287
4.32375e-06;0.002399730387498065
4.32400e-06;0.00237613984658243
4.32425e-06;0.0023521103271734885
4.32450e-06;0.0023280808077645473
4.32475e-06;0.0022964812639461496
4.32500e-06;0.002264408842782829
4.32525e-06;0.0022323364216194
4.32550e-06;0.002192321594851006
4.32575e-06;0.002151810629170484
4.32600e-06;0.0021112996634898252
4.32625e-06;0.0020707886978093035
4.32650e-06;0.0020302777321287817
4.32675e-06;0.0019880070668010673
4.32700e-06;0.0019435077121947285
4.32725e-06;0.0018990083575883897
4.32750e-06;0.0018545090029819002
4.32775e-06;0.0018100096483755616
4.32800e-06;0.001765510293769223
4.32825e-06;0.0017251263968464591
4.32850e-06;0.0016849995805615194
4.32875e-06;0.0016448727642765794
4.32900e-06;0.0016047459479915037
4.32925e-06;0.001564619131706564
4.32950e-06;0.001528529921654204
4.32975e-06;0.0014975544079859906
4.33000e-06;0.0014665788943177772
4.33025e-06;0.001435603380649459
4.33050e-06;0.0014046278669812456
4.33075e-06;0.0013736523533130324
4.33100e-06;0.0013448488072061152
4.33125e-06;0.001316180937577708
4.33150e-06;0.001287513067949301
4.33175e-06;0.0012588451983207968
4.33200e-06;0.0012301773286923898
4.33225e-06;0.0012015094590639827
4.33250e-06;0.0011728415894354785
4.33275e-06;0.0011441737198070714
4.33300e-06;0.0011143671155495374
4.33325e-06;0.0010844893778610698
4.33350e-06;0.0010546116401727035
4.33375e-06;0.001024733902484236
4.33400e-06;0.0009948561647958698
4.33425e-06;0.0009649784271075034
4.33450e-06;0.0009351006894190359
4.33475e-06;0.0009052229517306695
4.33500e-06;0.0008736834860189191
4.33525e-06;0.0008420402170043706
4.33550e-06;0.0008103969479899293
4.33575e-06;0.000778753678975488
4.33600e-06;0.0007471104099609395
4.33625e-06;0.0007154671409464982
4.33650e-06;0.0006838238719320569
4.33675e-06;0.0006521806029175084
4.33700e-06;0.0006205373339030671
4.33725e-06;0.000589933629613356
4.33750e-06;0.0005593948638996799
4.33775e-06;0.0005288560981861075
4.33800e-06;0.0005001559023701256
4.33825e-06;0.00047157055665297863
4.33850e-06;0.00044455312736916896
4.33875e-06;0.0004176336412515285
4.33900e-06;0.000392026306029474
4.33925e-06;0.00036759486408456524
4.33950e-06;0.0003444949704273218
4.33975e-06;0.0003229407001987762
4.34000e-06;0.00030309145331817723
4.34025e-06;0.00028492080984448594
4.34050e-06;0.0002682773938131812
4.34075e-06;0.00025307877697221867
4.34100e-06;0.00023936063214543622
4.34125e-06;0.00022718576430827195
4.34150e-06;0.0002166168613570564
4.34175e-06;0.00020773791932123624
4.34200e-06;0.00020059870122501807
4.34225e-06;0.00019513254805466408
4.34250e-06;0.0001911945282345765
4.34275e-06;0.00018868295702658433
4.34300e-06;0.0001875700895507276
4.34325e-06;0.00018784520057945012
4.34350e-06;0.0001894974608922479
4.34375e-06;0.00019252940807418535
4.34400e-06;0.00019692213421701989
4.34425e-06;0.00020258380339150528
4.34450e-06;0.00020937357051025417
4.34475e-06;0.00021717766620100678
4.34500e-06;0.00022592867196272767
4.34525e-06;0.00023556980988976862
4.34550e-06;0.00024604425901652655
4.34575e-06;0.00025730351978040075
4.34600e-06;0.0002695723361293165
4.34625e-06;0.0002819013444431437
4.34650e-06;0.00029525815840910345
4.34675e-06;0.00030867917639613616
4.34700e-06;0.00032210019438316887
4.34725e-06;0.00033600523662068974
4.34750e-06;0.00034994051444125454
4.34775e-06;0.00036387579226181935
4.34800e-06;0.00037781107008243137
4.34825e-06;0.0003909245192936467
4.34850e-06;0.0004039866312688062
4.34875e-06;0.00041704874324401
4.34900e-06;0.0004301108552191695
4.34925e-06;0.00044107871165401764
4.34950e-06;0.00045191574605398595
4.34975e-06;0.0004627527804539176
4.35000e-06;0.00047220078637640403
4.35025e-06;0.00048156202374156735
4.35050e-06;0.0004909232611066989
4.35075e-06;0.0005028026262001698
4.35100e-06;0.0005148392913876976
4.35125e-06;0.0005268759565752253
4.35150e-06;0.0005408116290636027
4.35175e-06;0.0005548659269988204
4.35200e-06;0.0005707715324322763
4.35225e-06;0.0005867927836451361
4.35250e-06;0.0006028140348579416
4.35275e-06;0.000622778518448046
4.35300e-06;0.0006429893242628277
4.35325e-06;0.0006632001300775409
4.35350e-06;0.0006864495703674415
4.35375e-06;0.0007098888252896924
4.35400e-06;0.0007333280802118638
4.35425e-06;0.0007595106946828275
4.35450e-06;0.0007858646788227765
4.35475e-06;0.0008122186629626361
4.35500e-06;0.0008418676090808326
4.35525e-06;0.0008717223818626073
4.35550e-06;0.000901577154644382
4.35575e-06;0.0009314319274262579
4.35600e-06;0.0009612867002080325
4.35625e-06;0.0009917979587199394
4.35650e-06;0.0010231406674797423
4.35675e-06;0.001054483376239439
4.35700e-06;0.001085826084999136
4.35725e-06;0.001117168793758939
4.35750e-06;0.0011485115025186357
4.35775e-06;0.0011770057792486147
4.35800e-06;0.0012053221227384511
4.35825e-06;0.0012336384662281915
4.35850e-06;0.0012619548097179318
4.35875e-06;0.0012902711532077683
4.35900e-06;0.0013185874966975086
4.35925e-06;0.0013428245831523936
4.35950e-06;0.0013618952217826512
4.35975e-06;0.0013809658604129087
4.36000e-06;0.001400036499043231
4.36025e-06;0.0014191071376734885
4.36050e-06;0.0014381777763037462
4.36075e-06;0.0014572484149340684
4.36100e-06;0.0014676958125680168
4.36125e-06;0.0014776045414904237
4.36150e-06;0.001487513270412864
4.36175e-06;0.0014915283709721814
4.36200e-06;0.0014951753137590537
4.36225e-06;0.0014988222565459385
4.36250e-06;0.0014968563642944954
4.36275e-06;0.0014945398546105683
4.36300e-06;0.0014922233449266337
4.36325e-06;0.0014813186939738076
4.36350e-06;0.001469877566887087
4.36375e-06;0.0014584364398004053
4.36400e-06;0.0014469953127137236
4.36425e-06;0.0014355541856270033
4.36450e-06;0.0014241130585403215
4.36475e-06;0.0014126719314536398
4.36500e-06;0.001397231810728734
4.36525e-06;0.0013767268971254724
4.36550e-06;0.001356221983522211
4.36575e-06;0.00133571706991888
4.36600e-06;0.0013152121563156187
4.36625e-06;0.0012947072427123571
4.36650e-06;0.0012742023291090264
4.36675e-06;0.0012536974155057648
4.36700e-06;0.0012307544466565138
4.36725e-06;0.0012076591796077092
4.36750e-06;0.0011845639125589826
4.36775e-06;0.001161468645510178
4.36800e-06;0.0011383733784614514
4.36825e-06;0.001115278111412725
4.36850e-06;0.001095178965385905
4.36875e-06;0.0010752669782997677
4.36900e-06;0.0010553549912136306
4.36925e-06;0.001035443004127426
4.36950e-06;0.0010155310170412888
4.36975e-06;0.0009956190299551517
4.37000e-06;0.0009811210800319747
4.37025e-06;0.0009669613292177357
4.37050e-06;0.0009528015784034964
4.37075e-06;0.0009433660803177724
4.37100e-06;0.0009342256925194233
4.37125e-06;0.0009250853047210743
4.37150e-06;0.0009209119236618544
4.37175e-06;0.000917048817024903
4.37200e-06;0.0009131857103879385
4.37225e-06;0.000914413388921198
4.37250e-06;0.0009159590739542014
4.37275e-06;0.0009175047589872102
4.37300e-06;0.0009238628098986853
4.37325e-06;0.0009305214752688815
4.37350e-06;0.0009371801406391001
4.37375e-06;0.0009482050362917172
4.37400e-06;0.0009595026776137339
4.37425e-06;0.0009708003189357889
4.37450e-06;0.0009876090827300496
4.37475e-06;0.0010047621102691239
4.37500e-06;0.0010219151378082563
4.37525e-06;0.0010390681653473306
4.37550e-06;0.001056221192886405
4.37575e-06;0.0010733742204255374
4.37600e-06;0.0010924626647129268
4.37625e-06;0.0011140023469488496
4.37650e-06;0.0011355420291846992
4.37675e-06;0.001157081711420549
4.37700e-06;0.0011786213936564717
4.37725e-06;0.0012001610758923214
4.37750e-06;0.0012217007581281712
4.37775e-06;0.0012422127100166556
4.37800e-06;0.0012626604625881872
4.37825e-06;0.001283108215159719
4.37850e-06;0.00130355596773132
4.37875e-06;0.0013240037203028517
4.37900e-06;0.0013444514728743835
4.37925e-06;0.0013648992254459845
4.37950e-06;0.0013781396171564414
4.37975e-06;0.0013909297860580808
4.38000e-06;0.0014037199549597635
4.38025e-06;0.0014165101238614026
4.38050e-06;0.0014293002927630854
4.38075e-06;0.0014420904616647247
4.38100e-06;0.001454880630566364
4.38125e-06;0.0014550299351963581
4.38150e-06;0.0014543896019093322
4.38175e-06;0.0014537492686223063
4.38200e-06;0.0014531089353352785
4.38225e-06;0.0014524686020482526
4.38250e-06;0.0014518282687612267
4.38275e-06;0.0014511879354741986
4.38300e-06;0.0014505476021871727
4.38325e-06;0.0014499072689001468
4.38350e-06;0.001443294661959856
4.38375e-06;0.0014291180697290618
4.38400e-06;0.0014149414774982676
4.38425e-06;0.0014007648852674252
4.38450e-06;0.001386588293036631
4.38475e-06;0.0013724117008057886
4.38500e-06;0.0013582351085749942
4.38525e-06;0.0013440585163442
4.38550e-06;0.0013298819241133577
4.38575e-06;0.0013157053318825634
4.38600e-06;0.001295631860688847
4.38625e-06;0.0012751900286678936
4.38650e-06;0.0012547481966470096
4.38675e-06;0.0012343063646261254
4.38700e-06;0.001213864532605172
4.38725e-06;0.0011934227005842878
4.38750e-06;0.0011731405366719524
4.38775e-06;0.001153060595111447
4.38800e-06;0.0011329806535510095
4.38825e-06;0.0011129007119905722
4.38850e-06;0.0010928207704300667
4.38875e-06;0.0010727408288696294
4.38900e-06;0.001052660887309124
4.38925e-06;0.001036618877228245
4.38950e-06;0.0010208291049478625
4.38975e-06;0.0010050393326674265
4.39000e-06;0.000989249560387044
4.39025e-06;0.0009735959174304861
4.39050e-06;0.000958114684557988
4.39075e-06;0.0009426334516855425
4.39100e-06;0.0009271522188130969
4.39125e-06;0.0009116709859405989
4.39150e-06;0.0008919059439850688
4.39175e-06;0.0008718733049724476
4.39200e-06;0.0008518406659597586
4.39225e-06;0.0008318080269471373
4.39250e-06;0.000811775387934516
4.39275e-06;0.000791742748921827
4.39300e-06;0.0007717101099092058
4.39325e-06;0.0007516774708965167
4.39350e-06;0.0007283691353681134
4.39375e-06;0.0007009120749661882
4.39400e-06;0.0006734550145641702
4.39425e-06;0.0006459979541622451
4.39450e-06;0.0006185408937603201
4.39475e-06;0.000591083833358302
4.39500e-06;0.000563626772956377
4.39525e-06;0.0005361697125544519
4.39550e-06;0.0005087126521524338
4.39575e-06;0.0004781099430350505
4.39600e-06;0.0004473107344186783
4.39625e-06;0.00041651152580220174
4.39650e-06;0.00038571231718582955
4.39675e-06;0.00035461680869987116
