Time(s);Current(A)
1.15000e-05;-0.0021557777960758222
1.15003e-05;-0.0021599908665727464
1.15005e-05;-0.00216420393706967
1.15007e-05;-0.00217171574508602
1.15010e-05;-0.002179576244574977
1.15013e-05;-0.002187436744063934
1.15015e-05;-0.0021952972435528373
1.15018e-05;-0.002203157743041794
1.15020e-05;-0.002211018242530751
1.15023e-05;-0.002218878742019708
1.15025e-05;-0.0022267392415086114
1.15028e-05;-0.00223474582817728
1.15030e-05;-0.002242967571257826
1.15033e-05;-0.002251189314338316
1.15035e-05;-0.002259411057418862
1.15038e-05;-0.0022676328004994075
1.15040e-05;-0.002275854543579898
1.15043e-05;-0.002284076286660444
1.15045e-05;-0.0022922980297409895
1.15048e-05;-0.00230051977282148
1.15050e-05;-0.00230672952631528
1.15053e-05;-0.0023127266034115336
1.15055e-05;-0.0023187236805077465
1.15058e-05;-0.002324720757604
1.15060e-05;-0.0023284979824734317
1.15063e-05;-0.0023320405589242624
1.15065e-05;-0.002335583135375117
1.15068e-05;-0.0023391257118259715
1.15070e-05;-0.002341172541233564
1.15073e-05;-0.00234014662199133
1.15075e-05;-0.002338812611970553
1.15078e-05;-0.0023374786019497848
1.15080e-05;-0.0023361445919290076
1.15083e-05;-0.002334810581908231
1.15085e-05;-0.002333476571887463
1.15088e-05;-0.0023321425618666857
1.15090e-05;-0.0023308085518459086
1.15092e-05;-0.0023275334366719786
1.15095e-05;-0.002321399472277152
1.15098e-05;-0.002315265507882325
1.15100e-05;-0.00230913154348754
1.15103e-05;-0.0023029975790927132
1.15105e-05;-0.0022968636146978865
1.15108e-05;-0.0022907296503030597
1.15110e-05;-0.0022845956859082746
1.15113e-05;-0.002278461721513448
1.15115e-05;-0.002270175806466426
1.15118e-05;-0.002261662420504321
1.15120e-05;-0.002253149034542158
1.15123e-05;-0.0022446356485799953
1.15125e-05;-0.0022361222626178902
1.15128e-05;-0.0022276088766557275
1.15130e-05;-0.0022190954906935647
1.15133e-05;-0.0022108165317635065
1.15135e-05;-0.0022025623528307715
1.15138e-05;-0.002194308173898037
1.15140e-05;-0.002186053994965358
1.15143e-05;-0.0021777998160326228
1.15145e-05;-0.0021695456370998878
1.15148e-05;-0.002161291458167209
1.15150e-05;-0.0021545551037710393
1.15153e-05;-0.002147979190292109
1.15155e-05;-0.0021414032768132226
1.15158e-05;-0.0021369085186659985
1.15160e-05;-0.002132633748048504
1.15163e-05;-0.002128358977431038
1.15165e-05;-0.0021271239570311087
1.15168e-05;-0.002126210251975194
1.15170e-05;-0.002125296546919286
1.15173e-05;-0.0021290264153103473
1.15175e-05;-0.002133247130413402
1.15177e-05;-0.0021374678455164282
1.15180e-05;-0.0021416885606194832
1.15183e-05;-0.0021459092757225378
1.15185e-05;-0.002150129990825564
1.15188e-05;-0.002160493693884693
1.15190e-05;-0.0021715067385499626
1.15193e-05;-0.002182519783215232
1.15195e-05;-0.002193532827880427
1.15198e-05;-0.0022045458725456967
1.15200e-05;-0.0022155589172109663
1.15203e-05;-0.0022304194670871545
1.15205e-05;-0.0022456867156630403
1.15208e-05;-0.0022609539642389266
1.15210e-05;-0.00227801451593676
1.15213e-05;-0.002295264627884217
1.15215e-05;-0.002312514739831674
1.15218e-05;-0.0023308959053039468
1.15220e-05;-0.0023493966282486832
1.15223e-05;-0.0023678973511934197
1.15225e-05;-0.0023868712298915074
1.15228e-05;-0.002405895123292534
1.15230e-05;-0.0024248227851940774
1.15233e-05;-0.0024437402749908264
1.15235e-05;-0.002462157234647069
1.15238e-05;-0.0024805212860039808
1.15240e-05;-0.0024980495762635187
1.15243e-05;-0.002515489522795768
1.15245e-05;-0.002531286304190989
1.15248e-05;-0.002546909395600487
1.15250e-05;-0.0025625324870100904
1.15253e-05;-0.0025722448101340653
1.15255e-05;-0.0025813323383207802
1.15258e-05;-0.002590419866507557
1.15260e-05;-0.002599507394694334
1.15262e-05;-0.002608594922881049
1.15265e-05;-0.002617682451067826
1.15268e-05;-0.002626769979254603
1.15270e-05;-0.002635857507441318
1.15273e-05;-0.0026449450356280948
1.15275e-05;-0.0026540325638148713
1.15278e-05;-0.002663120092001648
1.15280e-05;-0.0026647910372748157
1.15283e-05;-0.0026656780161950265
1.15285e-05;-0.0026665649951152378
1.15288e-05;-0.002667451974035443
1.15290e-05;-0.0026683389529556538
1.15293e-05;-0.002669225931875865
1.15295e-05;-0.0026701129107960697
1.15298e-05;-0.002670999889716281
1.15300e-05;-0.0026718868686364918
1.15303e-05;-0.002672773847556697
1.15305e-05;-0.002673660826476908
1.15308e-05;-0.0026704789028393233
1.15310e-05;-0.002666866877801063
1.15313e-05;-0.0026632548527627787
1.15315e-05;-0.0026596428277244942
1.15318e-05;-0.0026560308026862345
1.15320e-05;-0.00265241877764795
1.15323e-05;-0.0026488067526096656
1.15325e-05;-0.0026451947275714055
1.15328e-05;-0.0026411591183912965
1.15330e-05;-0.0026364996567668146
1.15333e-05;-0.002631840195142364
1.15335e-05;-0.0026271807335178816
1.15338e-05;-0.0026225212718933998
1.15340e-05;-0.002617861810268949
1.15343e-05;-0.0026132023486444673
1.15345e-05;-0.002608542887019985
1.15347e-05;-0.0026038834253955343
1.15350e-05;-0.002599864468690867
1.15353e-05;-0.002595913216252739
1.15355e-05;-0.0025921271577125297
1.15358e-05;-0.002588358560914348
1.15360e-05;-0.0025826585958160205
1.15362e-05;-0.0025767544763542856
1.15365e-05;-0.002567427435445926
1.15368e-05;-0.0025577385762613433
1.15370e-05;-0.00254804971707676
1.15373e-05;-0.0025349005949739704
1.15375e-05;-0.002521385707432438
1.15378e-05;-0.0025078708198909053
1.15380e-05;-0.0024881836818763997
1.15383e-05;-0.0024678441090742135
1.15385e-05;-0.0024475045362720273
1.15388e-05;-0.002427164963469979
1.15390e-05;-0.0024068253906677933
1.15393e-05;-0.0023796594037684003
1.15395e-05;-0.0023517718340281745
1.15398e-05;-0.00232388426428776
1.15400e-05;-0.0022959966945473452
1.15403e-05;-0.00226810912480712
1.15405e-05;-0.0022355409981216485
1.15408e-05;-0.0022024781154002244
1.15410e-05;-0.0021694152326790245
1.15413e-05;-0.0021345660659094884
1.15415e-05;-0.0020995280808379486
1.15418e-05;-0.0020635987436063725
1.15420e-05;-0.0020275751864202458
1.15423e-05;-0.0019909590790382747
1.15425e-05;-0.0019540962963105774
1.15428e-05;-0.001917229010337487
1.15430e-05;-0.001880577667221923
1.15432e-05;-0.0018443626522975658
1.15435e-05;-0.001808794442874321
1.15438e-05;-0.0017740174033038546
1.15440e-05;-0.001740117535176398
1.15443e-05;-0.0017072368849791878
1.15445e-05;-0.001675591592342166
1.15447e-05;-0.0016454139964577823
1.15450e-05;-0.001616937288344455
1.15453e-05;-0.001590394647892017
1.15455e-05;-0.0015659998823468694
1.15458e-05;-0.0015438211409330987
1.15460e-05;-0.0015237539898956764
1.15463e-05;-0.0015057311584994381
1.15465e-05;-0.001489795296282646
1.15468e-05;-0.001476016179482414
1.15470e-05;-0.0014644651818203607
1.15473e-05;-0.0014562828462794603
1.15475e-05;-0.0014484340088665665
1.15478e-05;-0.0014447374974837955
1.15480e-05;-0.0014414799057407843
1.15483e-05;-0.001442882891149423
1.15485e-05;-0.0014447785206398469
1.15488e-05;-0.0014466741501302578
1.15490e-05;-0.001453880165061331
1.15493e-05;-0.0014616475117489635
1.15495e-05;-0.0014694148584365433
1.15498e-05;-0.001481942575955179
1.15500e-05;-0.0014949734861987697
1.15503e-05;-0.001508004396442272
1.15505e-05;-0.0015242350391383502
1.15508e-05;-0.0015408039080250296
1.15510e-05;-0.0015595208766575085
1.15513e-05;-0.001578464909147762
1.15515e-05;-0.0015991920671028735
1.15517e-05;-0.0016201077094834461
1.15520e-05;-0.0016422553572152988
1.15523e-05;-0.001664533233484371
1.15525e-05;-0.001687489941911683
1.15528e-05;-0.0017105184059682344
1.15530e-05;-0.001733742438963787
1.15532e-05;-0.0017569871444804745
1.15535e-05;-0.0017799290998039986
1.15538e-05;-0.0018028390530629302
1.15540e-05;-0.0018248314379216558
1.15543e-05;-0.0018467268316507174
1.15545e-05;-0.001866586097406152
1.15548e-05;-0.001886230135226551
1.15550e-05;-0.0019058741730468168
1.15553e-05;-0.0019226798554206773
1.15555e-05;-0.0019391855107876047
1.15558e-05;-0.0019540232236878985
1.15560e-05;-0.0019686846275264436
1.15563e-05;-0.0019834249433002657
1.15565e-05;-0.0019981736004224203
1.15568e-05;-0.0020126848724745347
1.15570e-05;-0.0020271710518511765
1.15573e-05;-0.0020416572312277202
1.15575e-05;-0.002055558581389581
1.15578e-05;-0.0020693981124585816
1.15580e-05;-0.002083237643527488
1.15583e-05;-0.0020979689303533824
1.15585e-05;-0.0021127944797957035
1.15588e-05;-0.002127620029237924
1.15590e-05;-0.002142445578680245
1.15593e-05;-0.002157700853357821
1.15595e-05;-0.002173001551936075
1.15598e-05;-0.0021883022505144326
1.15600e-05;-0.0022036029490927903
1.15602e-05;-0.0022197778592533825
1.15605e-05;-0.0022360451775319335
1.15608e-05;-0.0022523124958104845
1.15610e-05;-0.0022685798140889253
1.15613e-05;-0.0022848471323674764
1.15615e-05;-0.0023011144506460274
1.15617e-05;-0.0023173817689244682
1.15620e-05;-0.0023333761828816277
1.15623e-05;-0.002348968664822612
1.15625e-05;-0.002364561146763597
1.15628e-05;-0.0023801536287044764
1.15630e-05;-0.002395746110645461
1.15633e-05;-0.0024113385925864455
1.15635e-05;-0.0024269310745273246
1.15638e-05;-0.0024425235564683096
1.15640e-05;-0.002456282473881554
1.15643e-05;-0.002469847575231809
1.15645e-05;-0.0024834126765821566
1.15648e-05;-0.0024940246430847075
1.15650e-05;-0.0025043244498781686
1.15653e-05;-0.002514624256671699
1.15655e-05;-0.00252492406346523
1.15658e-05;-0.002535223870258691
1.15660e-05;-0.0025455236770522216
1.15663e-05;-0.0025510561992279582
1.15665e-05;-0.002556084797859346
1.15668e-05;-0.0025611133964907676
1.15670e-05;-0.002566141995122189
1.15673e-05;-0.002571170593753577
1.15675e-05;-0.0025761991923849985
1.15678e-05;-0.002575361647025247
1.15680e-05;-0.0025739040237156966
1.15683e-05;-0.002572446400406136
1.15685e-05;-0.0025709887770965756
1.15687e-05;-0.002569531153787025
1.15690e-05;-0.0025680735304774646
1.15693e-05;-0.0025666159071679046
1.15695e-05;-0.002565158283858354
1.15698e-05;-0.0025637006605487935
1.15700e-05;-0.0025571169141807787
1.15702e-05;-0.00254999131342229
1.15705e-05;-0.002542865712663753
1.15708e-05;-0.0025357401119052167
1.15710e-05;-0.00252861451114668
1.15713e-05;-0.002521488910388191
1.15715e-05;-0.0025143633096296543
1.15718e-05;-0.002507237708871118
1.15720e-05;-0.002500112108112629
1.15723e-05;-0.0024911468549499447
1.15725e-05;-0.0024819871422081725
1.15728e-05;-0.0024728274294664623
1.15730e-05;-0.0024636677167246897
1.15733e-05;-0.0024545080039829175
1.15735e-05;-0.0024453482912412073
1.15738e-05;-0.0024368598827012367
1.15740e-05;-0.002428442434051433
1.15743e-05;-0.0024200249854016863
1.15745e-05;-0.0024116075367518826
1.15748e-05;-0.002403190088102079
1.15750e-05;-0.002394772639452332
1.15753e-05;-0.002387828389070963
1.15755e-05;-0.002381039862409269
1.15758e-05;-0.002374492756785058
1.15760e-05;-0.002367971170456313
1.15763e-05;-0.0023601701473866467
1.15765e-05;-0.0023522338820671147
1.15768e-05;-0.002344297616747529
1.15770e-05;-0.0023348220217874983
1.15772e-05;-0.0023251837127227252
1.15775e-05;-0.0023155454036578866
1.15778e-05;-0.002305907094593048
1.15780e-05;-0.0022950747715822254
1.15783e-05;-0.002282483911255141
1.15785e-05;-0.002269893050928056
1.15787e-05;-0.0022573021906010563
1.15790e-05;-0.0022447113302739713
1.15793e-05;-0.002229143486446972
1.15795e-05;-0.002213260962000173
1.15798e-05;-0.002197378437553481
1.15800e-05;-0.002181495913106682
1.15803e-05;-0.0021656133886598827
1.15805e-05;-0.0021497308642131913
1.15808e-05;-0.002132801575925043
1.15810e-05;-0.002114330619482595
1.15813e-05;-0.0020958596630402727
1.15815e-05;-0.002077388706597825
1.15818e-05;-0.002058917750155377
1.15820e-05;-0.0020404467937130545
1.15823e-05;-0.0020219758372706067
1.15825e-05;-0.002003078153547323
1.15828e-05;-0.001984135362820631
1.15830e-05;-0.0019651925720938104
1.15833e-05;-0.001946985169710951
1.15835e-05;-0.001928855501202107
1.15838e-05;-0.0019107258326931404
1.15840e-05;-0.0018936334077894815
1.15843e-05;-0.0018766506242261613
1.15845e-05;-0.0018608165647049147
1.15848e-05;-0.0018451039305102724
1.15850e-05;-0.0018309619544213448
1.15853e-05;-0.0018169860039977167
1.15855e-05;-0.0018054558673272476
1.15857e-05;-0.0017941842642322894
1.15860e-05;-0.0017829126611372545
1.15863e-05;-0.0017746031071129696
1.15865e-05;-0.0017666066550720532
1.15868e-05;-0.001758610203031083
1.15870e-05;-0.001755615140610022
1.15872e-05;-0.0017531487476917587
1.15875e-05;-0.0017506823547734785
1.15878e-05;-0.0017482159618551984
1.15880e-05;-0.0017457495689369184
1.15883e-05;-0.001743283176018655
1.15885e-05;-0.0017436177766603103
1.15888e-05;-0.001748077665549559
1.15890e-05;-0.0017525375544387774
1.15893e-05;-0.0017569974433280261
1.15895e-05;-0.0017614573322172749
1.15898e-05;-0.0017659172211064932
1.15900e-05;-0.001770377109995742
1.15903e-05;-0.0017785125205920641
1.15905e-05;-0.0017870364504561746
1.15908e-05;-0.0017955603803203428
1.15910e-05;-0.0018057693089994719
1.15913e-05;-0.001816156349674088
1.15915e-05;-0.0018265433903487745
1.15918e-05;-0.001838109530106728
1.15920e-05;-0.001849800305970475
1.15923e-05;-0.0018614910818343013
1.15925e-05;-0.0018737139736698025
1.15928e-05;-0.0018859931125700588
1.15930e-05;-0.0018982722514703984
1.15933e-05;-0.0019104857269369566
1.15935e-05;-0.0019226922614815007
1.15938e-05;-0.0019348987960261274
1.15940e-05;-0.0019463562550332753
1.15942e-05;-0.0019577345333681336
1.15945e-05;-0.001969112811703069
1.15948e-05;-0.0019790219979278732
1.15950e-05;-0.001988775894472184
1.15953e-05;-0.001998529791016561
1.15955e-05;-0.002005658060434211
1.15957e-05;-0.002012508789189353
1.15960e-05;-0.0020193595179445415
1.15963e-05;-0.0020262102466997297
1.15965e-05;-0.0020300425110675166
1.15968e-05;-0.0020329965788181492
1.15970e-05;-0.0020359506465688014
1.15973e-05;-0.0020389047143194537
1.15975e-05;-0.002039950447350638
1.15978e-05;-0.0051351917315940205
1.15980e-05;-0.017126709927824002
1.15983e-05;-0.017364105955332755
1.15985e-05;-0.014875225794355325
1.15988e-05;-0.01079206336982906
1.15990e-05;-0.0017953317438313796
1.15993e-05;0.0005707836717677857
1.15995e-05;-0.00017379116419698537
1.15998e-05;-0.0024424019087218177
1.16000e-05;-0.009530085620385905
1.16003e-05;-0.012643088648822956
1.16005e-05;-0.008949648110329004
1.16008e-05;-0.00524869389609349
1.16010e-05;-0.0010861426372378935
1.16013e-05;0.0012407531116103206
1.16015e-05;0.0008194695574797866
1.16018e-05;-0.0016180037882166326
1.16020e-05;-0.0048632626768250285
1.16023e-05;-0.006477754857140262
1.16025e-05;-0.0056503777170387485
1.16027e-05;-0.003366606303354646
1.16030e-05;-0.0007271350660250475
1.16033e-05;0.0007040785553052662
1.16035e-05;0.00041782182827780655
1.16038e-05;-0.0011280001084157422
1.16040e-05;-0.0031769974644667697
1.16042e-05;-0.004202225588622265
1.16045e-05;-0.003696184289461779
1.16048e-05;-0.0022766747891711328
1.16050e-05;-0.0006335552415421013
1.16053e-05;0.0002532528567371526
1.16055e-05;6.462203188336381e-05
1.16058e-05;-0.0009127170625741133
1.16060e-05;-0.002205036201901981
1.16063e-05;-0.0028559562228876434
1.16065e-05;-0.0025477170703869173
1.16068e-05;-0.0016674289039397415
1.16070e-05;-0.0006472870334683056
1.16073e-05;-0.00010112291681366329
1.16075e-05;-0.00022880052587842355
1.16078e-05;-0.0008506660209508976
1.16080e-05;-0.0016699454896554598
1.16083e-05;-0.002087568607168414
1.16085e-05;-0.001904526419544858
1.16088e-05;-0.0013633339856101456
1.16090e-05;-0.0007347209286113045
1.16093e-05;-0.00040316066508011366
1.16095e-05;-0.0004937922144480015
1.16098e-05;-0.0008940226744755161
1.16100e-05;-0.0014179071637839772
1.16103e-05;-0.0016901670424015025
1.16105e-05;-0.001586143357890441
1.16108e-05;-0.001257744785211879
1.16110e-05;-0.0008745381384434935
1.16113e-05;-0.0006773197417688641
1.16115e-05;-0.000744424060261097
1.16118e-05;-0.0010052697022314874
1.16120e-05;-0.0013433359771429629
1.16123e-05;-0.001523519288131272
1.16125e-05;-0.001467717932542629
1.16127e-05;-0.001271070988360088
1.16130e-05;-0.0010397689712326786
1.16133e-05;-0.0009246085512132532
1.16135e-05;-0.0009746112722864152
1.16138e-05;-0.001145517719726148
1.16140e-05;-0.001425735492975459
1.16143e-05;-0.0015554556895042014
1.16145e-05;-0.0014895026086393043
1.16148e-05;-0.001419758849333384
1.16150e-05;-0.001288616504466305
1.16153e-05;-0.0011614722139837081
1.16155e-05;-0.0011367937263602253
1.16158e-05;-0.0012014653489172745
1.16160e-05;-0.001323628736602411
1.16163e-05;-0.001453828480558957
1.16165e-05;-0.001491584818164716
1.16168e-05;-0.0014505652904827637
1.16170e-05;-0.0013747328499481854
1.16173e-05;-0.0013002186702333052
1.16175e-05;-0.0012901486144310458
1.16178e-05;-0.001336549925218873
1.16180e-05;-0.0014194204226106815
1.16183e-05;-0.001507737084997333
1.16185e-05;-0.0015385198366379281
1.16188e-05;-0.0015202925876305724
1.16190e-05;-0.0014805549399241837
1.16193e-05;-0.0014418981656146475
1.16195e-05;-0.0014438199693314758
1.16198e-05;-0.0014812807657479928
1.16200e-05;-0.001541706116763335
1.16203e-05;-0.0016056199134027538
1.16205e-05;-0.001633530899396667
1.16208e-05;-0.001630739198176211
1.16210e-05;-0.0016144303272339127
1.16212e-05;-0.0015987137224460868
1.16215e-05;-0.001608287250312042
1.16218e-05;-0.0016399497747003986
1.16220e-05;-0.0016857808887539463
1.16223e-05;-0.0017335377751787901
1.16225e-05;-0.001758441610183604
1.16228e-05;-0.0017637722609168255
1.16230e-05;-0.0017602536837303924
1.16233e-05;-0.0017566821443227556
1.16235e-05;-0.0017684853649719732
1.16238e-05;-0.0017936145873800032
1.16240e-05;-0.0018270650796428252
1.16243e-05;-0.0018611252155799549
1.16245e-05;-0.0018802321223985242
1.16248e-05;-0.0018863991245172984
1.16250e-05;-0.0018863022634817103
1.16253e-05;-0.0018854094082029053
1.16255e-05;-0.0018933169132992885
1.16258e-05;-0.0019085228809683904
1.16260e-05;-0.001927566173439798
1.16263e-05;-0.0019454604526154449
1.16265e-05;-0.0019524959252945476
1.16268e-05;-0.0019500160471326836
1.16270e-05;-0.0019416947149340986
1.16273e-05;-0.001932740281209784
1.16275e-05;-0.001927706037199442
1.16278e-05;-0.0019260915496334863
1.16280e-05;-0.0019250099251497048
1.16283e-05;-0.0019239479263763422
1.16285e-05;-0.0019146157433759835
1.16288e-05;-0.0018984693608506459
1.16290e-05;-0.0018777652796424676
1.16293e-05;-0.0018565565616890539
1.16295e-05;-0.0018371387398832424
1.16297e-05;-0.0018194298973390037
1.16300e-05;-0.0018016402153441732
1.16303e-05;-0.0017838138281511193
1.16305e-05;-0.0017605868010734894
1.16308e-05;-0.0017330146404109386
1.16310e-05;-0.001702658694849285
1.16313e-05;-0.0016719969363482023
1.16315e-05;-0.001642682755906776
1.16318e-05;-0.0016147183846422087
1.16320e-05;-0.0015872585401974827
1.16323e-05;-0.001559845060213862
1.16325e-05;-0.0015297190572227015
1.16328e-05;-0.001497506368584261
1.16330e-05;-0.001464453404798053
1.16333e-05;-0.0014315926245585398
1.16335e-05;-0.001400591272655689
1.16338e-05;-0.0013714081007953933
1.16340e-05;-0.0013437000338588783
1.16343e-05;-0.0013168895361515968
1.16345e-05;-0.0012896720997916617
1.16348e-05;-0.0012624453742484916
1.16350e-05;-0.0012360566300941012
1.16353e-05;-0.0012112365043170524
1.16355e-05;-0.0011890917388774937
1.16358e-05;-0.001169508779321531
1.16360e-05;-0.001152017016354254
1.16363e-05;-0.001136051196871188
1.16365e-05;-0.0011207112591723042
1.16368e-05;-0.0011061936304972003
1.16370e-05;-0.0010937538623474788
1.16373e-05;-0.0010815767032690596
1.16375e-05;-0.0010732940432408506
1.16378e-05;-0.0010655287920290286
1.16380e-05;-0.001061439086906506
1.16382e-05;-0.0010578377013155996
1.16385e-05;-0.001054236315724669
1.16388e-05;-0.0010523683990848538
1.16390e-05;-0.0010531680751190823
1.16393e-05;-0.0010542915605849218
1.16395e-05;-0.0010554150460507688
1.16398e-05;-0.0010594177698023497
1.16400e-05;-0.0010657281056062986
1.16403e-05;-0.0010722942013931035
1.16405e-05;-0.0010788602971799083
1.16408e-05;-0.001087259062132824
1.16410e-05;-0.0010959013087690754
1.16413e-05;-0.0011045435554053271
1.16415e-05;-0.0011150964851889447
1.16418e-05;-0.0011259032613064781
1.16420e-05;-0.0011377387429689137
1.16423e-05;-0.0011497108946655146
1.16425e-05;-0.0011618416091368604
1.16428e-05;-0.0011739933896751213
1.16430e-05;-0.0011861597111287986
1.16433e-05;-0.001198327964435098
1.16435e-05;-0.0012105282796893528
1.16438e-05;-0.0012227328545759795
1.16440e-05;-0.0012344466350286108
