Time(s);Current(A)
2.25000e-06;0.0036733171982265412
2.25025e-06;0.0036820698710615385
2.25050e-06;0.0036919987657046947
2.25075e-06;0.003701927660347834
2.25100e-06;0.0037118565549909906
2.25125e-06;0.0037217854496341468
2.25150e-06;0.003731714344277286
2.25175e-06;0.0037416432389204422
2.25200e-06;0.003751572133563599
2.25225e-06;0.003761501028206755
2.25250e-06;0.0037714299228498943
2.25275e-06;0.0037813588174930505
2.25300e-06;0.003791287712136207
2.25325e-06;0.0038012166067793464
2.25350e-06;0.0038111455014225026
2.25375e-06;0.003821074396065659
2.25400e-06;0.0038310032907087985
2.25425e-06;0.0038409321853519547
2.25450e-06;0.003850861079995111
2.25475e-06;0.0038587458043909447
2.25500e-06;0.0038591846901542314
2.25525e-06;0.003859623575917519
2.25550e-06;0.003860062461680807
2.25575e-06;0.0038605013474440936
2.25600e-06;0.003860940233207381
2.25625e-06;0.003861379118970669
2.25650e-06;0.0038618180047339567
2.25675e-06;0.0038622568904972433
2.25700e-06;0.003862695776260531
2.25725e-06;0.003863134662023819
2.25750e-06;0.0038635735477871055
2.25775e-06;0.003864012433550393
2.25800e-06;0.0038644513193136806
2.25825e-06;0.0038648902050769677
2.25850e-06;0.0038653290908402553
2.25875e-06;0.003865767976603543
2.25900e-06;0.0038662068623668304
2.25925e-06;0.0038658147390161937
2.25950e-06;0.0038623956859013655
2.25975e-06;0.003858976632786537
2.26000e-06;0.0038555575796717137
2.26025e-06;0.003852138526556885
2.26050e-06;0.0038487194734420564
2.26075e-06;0.003845300420327228
2.26100e-06;0.003841881367212405
2.26125e-06;0.0038384623140975765
2.26150e-06;0.003835043260982748
2.26175e-06;0.003831624207867925
2.26200e-06;0.0038282051547530965
2.26225e-06;0.003824786101638268
2.26250e-06;0.0038213670485234452
2.26275e-06;0.0038179479954086166
2.26300e-06;0.003814528942293788
2.26325e-06;0.0038111098891789592
2.26350e-06;0.0038076908360641366
2.26375e-06;0.003804271782949308
2.26400e-06;0.0038008527298344793
2.26425e-06;0.0037974336767196562
2.26450e-06;0.003794014623604828
2.26475e-06;0.0037905955704899993
2.26500e-06;0.0037871765173751707
2.26525e-06;0.0037837574642603476
2.26550e-06;0.003780338411145519
2.26575e-06;0.0037769193580306907
2.26600e-06;0.0037735003049158677
2.26625e-06;0.003770081251801039
2.26650e-06;0.0037666621986862103
2.26675e-06;0.0037632431455713877
2.26700e-06;0.0037601545789396665
2.26725e-06;0.003757197484723222
2.26750e-06;0.0037542403905067774
2.26775e-06;0.0037512832962903375
2.26800e-06;0.003748326202073893
2.26825e-06;0.0037453691078574484
2.26850e-06;0.0037424120136410085
2.26875e-06;0.003739454919424564
2.26900e-06;0.0037364978252081194
2.26925e-06;0.0037335407309916743
2.26950e-06;0.003730583636775235
2.26975e-06;0.00372762654255879
2.27000e-06;0.0037246694483423454
2.27025e-06;0.0037217123541259055
2.27050e-06;0.003718755259909461
2.27075e-06;0.0037157981656930164
2.27100e-06;0.0037128410714765765
2.27125e-06;0.003709883977260132
2.27150e-06;0.0037069268830436874
2.27175e-06;0.0037039697888272423
2.27200e-06;0.003701012694610803
2.27225e-06;0.003698055600394358
2.27250e-06;0.0036950985061779133
2.27275e-06;0.0036921414119614735
2.27300e-06;0.003689184317745029
2.27325e-06;0.0036862272235285844
2.27350e-06;0.0036832701293121398
2.27375e-06;0.0036803130350957
2.27400e-06;0.0036773559408792554
2.27425e-06;0.0036743988466628103
2.27450e-06;0.0036728949205952813
2.27475e-06;0.0036766841229054267
2.27500e-06;0.003680473325215572
2.27525e-06;0.003684262527525711
2.27550e-06;0.003688051729835856
2.27575e-06;0.0036918409321460015
2.27600e-06;0.003695630134456147
2.27625e-06;0.0036994193367662857
2.27650e-06;0.003703208539076431
2.27675e-06;0.0037069977413865763
2.27700e-06;0.003710786943696715
2.27725e-06;0.0037145761460068605
2.27750e-06;0.003718365348317006
2.27775e-06;0.0037221545506271507
2.27800e-06;0.00372594375293729
2.27825e-06;0.0037297329552474353
2.27850e-06;0.0037344199521248457
2.27875e-06;0.0037423771430985173
2.27900e-06;0.0037503343340722023
2.27925e-06;0.0037582915250458874
2.27950e-06;0.003766248716019559
2.27975e-06;0.003774205906993244
2.28000e-06;0.0037821630979669287
2.28025e-06;0.0037901202889406137
2.28050e-06;0.0037980774799142854
2.28075e-06;0.0038060346708879704
2.28100e-06;0.0038139918618616555
2.28125e-06;0.003821949052835327
2.28150e-06;0.003829906243809012
2.28175e-06;0.003837863434782697
2.28200e-06;0.0038458206257563823
2.28225e-06;0.003853777816730054
2.28250e-06;0.003860566541900137
2.28275e-06;0.0038630991598134893
2.28300e-06;0.0038656317777268374
2.28325e-06;0.0038681643956401898
2.28350e-06;0.003870697013553542
2.28375e-06;0.0038732296314668902
2.28400e-06;0.0038757622493802426
2.28425e-06;0.003878294867293595
2.28450e-06;0.0038808274852069474
2.28475e-06;0.0038833601031202955
2.28500e-06;0.003885892721033648
2.28525e-06;0.0038884253389470003
2.28550e-06;0.0038909579568603483
2.28575e-06;0.003893490574773701
2.28600e-06;0.0038960231926870536
2.28625e-06;0.003898555810600406
2.28650e-06;0.003901088428513754
2.28675e-06;0.0039036210464271064
2.28700e-06;0.003906153664340459
2.28725e-06;0.003908686282253807
2.28750e-06;0.003911218900167159
2.28775e-06;0.003913751518080512
2.28800e-06;0.003916284135993859
2.28825e-06;0.0039158553746276355
2.28850e-06;0.003914248532745566
2.28875e-06;0.0039126416908634954
2.28900e-06;0.003911034848981428
2.28925e-06;0.003909428007099358
2.28950e-06;0.003907821165217288
2.28975e-06;0.003906214323335221
2.29000e-06;0.003904607481453151
2.29025e-06;0.0039030006395710808
2.29050e-06;0.0039013937976890107
2.29075e-06;0.0038997869558069433
2.29100e-06;0.0038981801139248732
2.29125e-06;0.003896573272042803
2.29150e-06;0.0038949664301607357
2.29175e-06;0.0038933595882786657
2.29200e-06;0.0038917527463965956
2.29225e-06;0.003890145904514528
2.29250e-06;0.003888539062632458
2.29275e-06;0.003886932220750388
2.29300e-06;0.003885325378868318
2.29325e-06;0.0038837185369862506
2.29350e-06;0.0038821116951041805
2.29375e-06;0.003880175854340147
2.29400e-06;0.0038770416434357126
2.29425e-06;0.0038739074325312736
2.29450e-06;0.003870773221626834
2.29475e-06;0.0038676390107223947
2.29500e-06;0.003864504799817961
2.29525e-06;0.0038613705889135215
2.29550e-06;0.0038582363780090825
2.29575e-06;0.0038551021671046483
2.29600e-06;0.0038519679562002093
2.29625e-06;0.00384883374529577
2.29650e-06;0.0038456995343913356
2.29675e-06;0.0038419810556368805
2.29700e-06;0.003836134395955769
2.29725e-06;0.0038302877362746575
2.29750e-06;0.0038244410765935558
2.29775e-06;0.0038185944169124445
2.29800e-06;0.0038127477572313328
2.29825e-06;0.003806901097550231
2.29850e-06;0.0038010544378691193
2.29875e-06;0.003795207778188008
2.29900e-06;0.0037893611185068963
2.29925e-06;0.0037835144588257946
2.29950e-06;0.003777667799144683
2.29975e-06;0.0037718211394635716
2.30000e-06;0.00376597447978247
2.30025e-06;0.003760127820101358
2.30050e-06;0.003754281160420247
2.30075e-06;0.003748434500739145
2.30100e-06;0.0037437978486048484
2.30125e-06;0.0037396425553849278
2.30150e-06;0.0037354872621650076
2.30175e-06;0.003731331968945094
2.30200e-06;0.0037271766757251733
2.30225e-06;0.0037230213825052527
2.30250e-06;0.003718866089285339
2.30275e-06;0.0037147107960654184
2.30300e-06;0.0037105555028454982
2.30325e-06;0.0037064002096255776
2.30350e-06;0.003702244916405664
2.30375e-06;0.0036980896231857434
2.30400e-06;0.0036939343299658227
2.30425e-06;0.003689779036745909
2.30450e-06;0.003685623743525989
2.30475e-06;0.0036814684503060683
2.30500e-06;0.0036790315220492174
2.30525e-06;0.0036828536948872066
2.30550e-06;0.003686675867725196
2.30575e-06;0.003690498040563185
2.30600e-06;0.003694320213401168
2.30625e-06;0.003698142386239157
2.30650e-06;0.0037019645590771464
2.30675e-06;0.003705786731915129
2.30700e-06;0.0037096089047531184
2.30725e-06;0.0037134310775911077
2.30750e-06;0.003717253250429097
2.30775e-06;0.00372107542326708
2.30800e-06;0.0037248975961050694
2.30825e-06;0.0037287197689430587
2.30850e-06;0.0037349771520658113
2.30875e-06;0.003743198858443631
2.30900e-06;0.0037514205648214506
2.30925e-06;0.0037596422711992563
2.30950e-06;0.003767863977577076
2.30975e-06;0.0037760856839548955
2.31000e-06;0.003784307390332715
2.31025e-06;0.003792529096710521
2.31050e-06;0.0038007508030883405
2.31075e-06;0.00380897250946616
2.31100e-06;0.0038171942158439654
2.31125e-06;0.003825415922221785
2.31150e-06;0.0038336376285996046
2.31175e-06;0.0038418593349774243
2.31200e-06;0.002590003518474198
2.31225e-06;-0.0060937564031768214
2.31250e-06;-0.01092537009251257
2.31275e-06;-0.008275820267407133
2.31300e-06;-0.00583750696806808
2.31325e-06;0.00042678322851160484
2.31350e-06;0.005181478825481732
2.31375e-06;0.00460545677630606
2.31400e-06;0.0035417801560822413
2.31425e-06;-0.0008907619838642048
2.31450e-06;-0.0050970366891395485
2.31475e-06;-0.003450974323540006
2.31500e-06;-0.0015125694666103106
2.31525e-06;0.0016855811017286353
2.31550e-06;0.005852721590975631
2.31575e-06;0.006677465135031687
2.31600e-06;0.005758629784615244
2.31625e-06;0.0034776149964793903
2.31650e-06;0.00027696712185671014
2.31675e-06;-0.000873056281585065
2.31700e-06;0.00027300242306322004
2.31725e-06;0.002389692144947211
2.31750e-06;0.0048722761576520356
2.31775e-06;0.0060338451466019774
2.31800e-06;0.005668784507904165
2.31825e-06;0.004238404390523709
2.31850e-06;0.00223338723922037
2.31875e-06;0.001514054341822824
2.31900e-06;0.0022338434338235315
2.31925e-06;0.0035622243466573115
2.31950e-06;0.005120191931414894
2.31975e-06;0.0058509470549032465
2.32000e-06;0.005625638233411318
2.32025e-06;0.0047331759269702445
2.32050e-06;0.0034808512528587124
2.32075e-06;0.003033835441242708
2.32100e-06;0.0034880586533367745
2.32125e-06;0.004323120061330783
2.32150e-06;0.005301493437152333
2.32175e-06;0.005761128477866511
2.32200e-06;0.0056212771442342695
2.32225e-06;0.005062876974720528
2.32250e-06;0.004278363223978702
2.32275e-06;0.003997508162695129
2.32300e-06;0.004280277358694265
2.32325e-06;0.004800576316675993
2.32350e-06;0.005409494637366169
2.32375e-06;0.0056922293704919965
2.32400e-06;0.005598211918770071
2.32425e-06;0.00524086132260749
2.32450e-06;0.004740802558868695
2.32475e-06;0.004555221008139439
2.32500e-06;0.004721715267994302
2.32525e-06;0.005036063928749024
2.32550e-06;0.00540504852493882
2.32575e-06;0.005568911227602625
2.32600e-06;0.005496064686408522
2.32625e-06;0.005257641812755346
2.32650e-06;0.004929282010027166
2.32675e-06;0.004797430925438459
2.32700e-06;0.004885690783032133
2.32725e-06;0.005066193034804782
2.32750e-06;0.005280610108171071
2.32775e-06;0.00536630437510717
2.32800e-06;0.005303572542570844
2.32825e-06;0.005137054685346103
2.32850e-06;0.004914208835160476
2.32875e-06;0.004814532538669137
2.32900e-06;0.004852868243538102
2.32925e-06;0.004949181512317272
2.32950e-06;0.005067003194963454
2.32975e-06;0.005104531627362369
2.33000e-06;0.005049502876479287
2.33025e-06;0.004929958772218703
2.33050e-06;0.004775702212671457
2.33075e-06;0.004699238832647507
2.33100e-06;0.004709930168412925
2.33125e-06;0.00475770840666553
2.33150e-06;0.004819798610072572
2.33175e-06;0.0048325049890350765
2.33200e-06;0.0047882216579819325
2.33225e-06;0.004704589488427696
2.33250e-06;0.0046003515154528305
2.33275e-06;0.004546051323603073
2.33300e-06;0.004547616240593156
2.33325e-06;0.004573673879474163
2.33350e-06;0.004609506813855813
2.33375e-06;0.004614348302317197
2.33400e-06;0.004582894513269415
2.33425e-06;0.004526131697239111
2.33450e-06;0.004455839929259223
2.33475e-06;0.004416246777445286
2.33500e-06;0.004411100543641381
2.33525e-06;0.0044207864009675425
2.33550e-06;0.004436122473066646
2.33575e-06;0.004431612553700273
2.33600e-06;0.0044039758569406
2.33625e-06;0.004361060445397482
2.33650e-06;0.004315851020827317
2.33675e-06;0.004273832994889608
2.33700e-06;0.004261502484945048
2.33725e-06;0.00425764999102469
2.33750e-06;0.004252878592644288
2.33775e-06;0.004245992093487686
2.33800e-06;0.004218641708350878
2.33825e-06;0.004178505663505927
2.33850e-06;0.0041391638084315435
2.33875e-06;0.0041083981960078845
2.33900e-06;0.004091049207665711
2.33925e-06;0.004078934097953813
2.33950e-06;0.0040668189882419135
2.33975e-06;0.004053397630348766
2.34000e-06;0.00402754987582077
2.34025e-06;0.003995712303166664
2.34050e-06;0.003963874730512558
2.34075e-06;0.0039335445039604434
2.34100e-06;0.003916786052722169
2.34125e-06;0.0039000410928339236
2.34150e-06;0.003883417605758782
2.34175e-06;0.003866794118683612
2.34200e-06;0.0038493869385580978
2.34225e-06;0.0038249235780498147
2.34250e-06;0.003800460217541573
2.34275e-06;0.003777251172438686
2.34300e-06;0.0037653356761986265
2.34325e-06;0.003753420179958587
2.34350e-06;0.0037415806992135542
2.34375e-06;0.0037304256433777073
2.34400e-06;0.0037192705875418604
2.34425e-06;0.003708115531706032
2.34450e-06;0.0036969604758701853
2.34475e-06;0.003686808697025395
2.34500e-06;0.003685690178613283
2.34525e-06;0.003684571660201169
2.34550e-06;0.003683453141789055
2.34575e-06;0.003682334623376943
2.34600e-06;0.003682168068794335
2.34625e-06;0.003690572763498882
2.34650e-06;0.0036989774582034296
2.34675e-06;0.0037073821529079627
2.34700e-06;0.00371578684761251
2.34725e-06;0.0037241915423170575
2.34750e-06;0.003732596237021591
2.34775e-06;0.0037410009317261385
2.34800e-06;0.003749405626430686
2.34825e-06;0.0037587600092530062
2.34850e-06;0.0037766651514112492
2.34875e-06;0.003794570293569522
2.34900e-06;0.0038124754357277955
2.34925e-06;0.0038303805778860385
2.34950e-06;0.003848285720044312
2.34975e-06;0.0038661908622025848
2.35000e-06;0.0038840960043608277
2.35025e-06;0.003902001146519101
2.35050e-06;0.0039197758910166705
2.35075e-06;0.003936376566897581
2.35100e-06;0.003952977242778463
2.35125e-06;0.003969577918659373
2.35150e-06;0.003986178594540283
2.35175e-06;0.004002779270421165
2.35200e-06;0.004019379946302075
2.35225e-06;0.004035980622182985
2.35250e-06;0.004052581298063895
2.35275e-06;0.004069181973944777
2.35300e-06;0.004085782649825687
2.35325e-06;0.004102383325706597
2.35350e-06;0.004118984001587479
2.35375e-06;0.004132565414280287
2.35400e-06;0.004144133670002809
2.35425e-06;0.004155701925725311
2.35450e-06;0.004167270181447833
2.35475e-06;0.004178838437170355
2.35500e-06;0.0041904066928928774
2.35525e-06;0.00420197494861538
2.35550e-06;0.004213543204337902
2.35575e-06;0.004225111460060423
2.35600e-06;0.004236679715782926
2.35625e-06;0.004248247971505447
2.35650e-06;0.0042598162272279695
2.35675e-06;0.004271618095273514
2.35700e-06;0.004285523351489359
2.35725e-06;0.004299428607705226
2.35750e-06;0.0043133338639210934
2.35775e-06;0.004327239120136937
2.35800e-06;0.004341144376352805
2.35825e-06;0.0043550496325686725
2.35850e-06;0.004368954888784516
2.35875e-06;0.004382860145000384
2.35900e-06;0.004396765401216252
2.35925e-06;0.0044106706574321185
2.35950e-06;0.004424575913647963
2.35975e-06;0.004438481169863831
2.36000e-06;0.004452386426079698
2.36025e-06;0.004466291682295542
2.36050e-06;0.004478188471144654
2.36075e-06;0.004488746072308781
2.36100e-06;0.004499303673472909
2.36125e-06;0.004509861274637019
2.36150e-06;0.004520418875801147
2.36175e-06;0.004530976476965275
2.36200e-06;0.004541534078129385
2.36225e-06;0.004552091679293512
2.36250e-06;0.004562649280457641
2.36275e-06;0.00457320688162175
2.36300e-06;0.004583764482785879
2.36325e-06;0.004594322083950006
2.36350e-06;0.004604879685114134
2.36375e-06;0.004615437286278244
2.36400e-06;0.004624747972844516
2.36425e-06;0.004622831745603158
2.36450e-06;0.004620915518361804
2.36475e-06;0.004618999291120447
2.36500e-06;0.004617083063879089
2.36525e-06;0.004615166836637731
2.36550e-06;0.004613250609396376
2.36575e-06;0.004611334382155019
2.36600e-06;0.0046094181549136614
2.36625e-06;0.004607501927672307
2.36650e-06;0.00460558570043095
2.36675e-06;0.004603669473189592
2.36700e-06;0.0046017532459482376
2.36725e-06;0.0045998370187068805
2.36750e-06;0.004597920791465523
2.36775e-06;0.0045951038044258095
2.36800e-06;0.0045841765966578634
2.36825e-06;0.004573249388889899
2.36850e-06;0.004562322181121934
2.36875e-06;0.004551394973353988
2.36900e-06;0.004540467765586024
2.36925e-06;0.004529540557818059
2.36950e-06;0.004518613350050094
2.36975e-06;0.004507686142282148
2.37000e-06;0.004496758934514184
2.37025e-06;0.004485831726746219
2.37050e-06;0.004474904518978273
2.37075e-06;0.0044639773112103084
2.37100e-06;0.004453050103442343
2.37125e-06;0.004442122895674397
2.37150e-06;0.004431254413681669
2.37175e-06;0.004420914684193773
2.37200e-06;0.004410574954705878
2.37225e-06;0.004400235225218
2.37250e-06;0.004389895495730105
2.37275e-06;0.00437955576624221
2.37300e-06;0.004369216036754332
2.37325e-06;0.0043588763072664365
2.37350e-06;0.004348536577778541
2.37375e-06;0.004338196848290646
2.37400e-06;0.004327857118802768
2.37425e-06;0.004317517389314873
2.37450e-06;0.0043071776598269775
2.37475e-06;0.004293706490777718
2.37500e-06;0.004278147368811355
2.37525e-06;0.004262588246844992
2.37550e-06;0.004247029124878655
2.37575e-06;0.004231470002912292
2.37600e-06;0.004215910880945929
2.37625e-06;0.004200351758979566
2.37650e-06;0.004184792637013229
2.37675e-06;0.004169233515046866
2.37700e-06;0.0041536743930805035
2.37725e-06;0.004138115271114166
2.37750e-06;0.004122556149147804
2.37775e-06;0.004106303895701473
2.37800e-06;0.00408381085607922
2.37825e-06;0.0040613178164570045
2.37850e-06;0.004038824776834751
2.37875e-06;0.004016331737212497
2.37900e-06;0.003993838697590282
2.37925e-06;0.003971345657968029
2.37950e-06;0.003948852618345776
2.37975e-06;0.00392635957872356
2.38000e-06;0.003903866539101307
2.38025e-06;0.0038813734994790536
2.38050e-06;0.0038588804598568005
2.38075e-06;0.0038381459549700356
2.38100e-06;0.0038185839899515235
2.38125e-06;0.0037990220249330114
2.38150e-06;0.003779460059914532
2.38175e-06;0.00375989809489602
2.38200e-06;0.0037403361298775075
2.38225e-06;0.0037207741648589954
2.38250e-06;0.0037012121998405163
2.38275e-06;0.003681650234822004
2.38300e-06;0.0036620882698034916
2.38325e-06;0.0036425263047850124
2.38350e-06;0.0036242520708943383
2.38375e-06;0.0036175722528601654
2.38400e-06;0.0036108924348260043
2.38425e-06;0.0036042126167918315
2.38450e-06;0.0035975327987576586
2.38475e-06;0.0035908529807234858
2.38500e-06;0.003584173162689324
2.38525e-06;0.0035774933446551514
2.38550e-06;0.0035708135266209785
2.38575e-06;0.003564133708586817
2.38600e-06;0.003557453890552644
2.38625e-06;0.0035507740725184713
2.38650e-06;0.0035440942544842985
2.38675e-06;0.0035374144364501373
2.38700e-06;0.0035307346184159645
2.38725e-06;0.0035251040472659826
2.38750e-06;0.003528920638220837
2.38775e-06;0.003532737229175698
2.38800e-06;0.003536553820130559
2.38825e-06;0.0035403704110854133
2.38850e-06;0.0035441870020402745
2.38875e-06;0.0035480035929951353
2.38900e-06;0.003551820183949996
2.38925e-06;0.0035556367749048504
2.38950e-06;0.0035594533658597116
2.38975e-06;0.0035632699568145724
2.39000e-06;0.0035670865477694267
2.39025e-06;0.0035709031387242875
2.39050e-06;0.0035747197296791488
2.39075e-06;0.003578536320634003
2.39100e-06;0.0035822547472894543
2.39125e-06;0.0035850893266221665
2.39150e-06;0.0035879239059548786
2.39175e-06;0.003590758485287586
2.39200e-06;0.0035935930646202982
2.39225e-06;0.0035964276439530104
2.39250e-06;0.003599262223285718
2.39275e-06;0.0036020968026184296
2.39300e-06;0.0036049313819511417
2.39325e-06;0.003607765961283854
2.39350e-06;0.0036106005406165613
2.39375e-06;0.0036134351199492735
2.39400e-06;0.0036162696992819857
2.39425e-06;0.003619104278614693
2.39450e-06;0.0036219388579474053
2.39475e-06;0.0036247734372801175
2.39500e-06;0.003627608016612825
2.39525e-06;0.003630442595945537
2.39550e-06;0.0036332771752782492
2.39575e-06;0.0036361117546109614
2.39600e-06;0.0036389463339436684
2.39625e-06;0.0036417809132763806
2.39650e-06;0.0036446154926090928
2.39675e-06;0.0036474500719418
2.39700e-06;0.003647425293380793
2.39725e-06;0.003645493978053214
2.39750e-06;0.0036435626627256356
2.39775e-06;0.0036416313473980606
2.39800e-06;0.003639700032070482
2.39825e-06;0.0036377687167429037
2.39850e-06;0.0036358374014153283
2.39875e-06;0.00363390608608775
2.39900e-06;0.0036319747707601715
2.39925e-06;0.003630043455432596
