Time(s);Current(A)
1.75000e-06;-0.011882085877995928
1.75025e-06;-0.01186990571266302
1.75050e-06;-0.011857725547330113
1.75075e-06;-0.011845545381997197
1.75100e-06;-0.011832851402769807
1.75125e-06;-0.011814852429862131
1.75150e-06;-0.011796853456954469
1.75175e-06;-0.01177885448404679
1.75200e-06;-0.011760855511139128
1.75225e-06;-0.011742856538231466
1.75250e-06;-0.011724857565323788
1.75275e-06;-0.011706858592416125
1.75300e-06;-0.011688766927122451
1.75325e-06;-0.011669718237257876
1.75350e-06;-0.0116506695473933
1.75375e-06;-0.011631620857528708
1.75400e-06;-0.011612572167664132
1.75425e-06;-0.011593523477799541
1.75450e-06;-0.011574474787934965
1.75475e-06;-0.01155542609807039
1.75500e-06;-0.011536797196207076
1.75525e-06;-0.01152250249534068
1.75550e-06;-0.011508207794474272
1.75575e-06;-0.011493913093607878
1.75600e-06;-0.01147961839274147
1.75625e-06;-0.011465323691875074
1.75650e-06;-0.011451028991008678
1.75675e-06;-0.01143673429014227
1.75700e-06;-0.011422439589275874
1.75725e-06;-0.011408144888409466
1.75750e-06;-0.01139385018754307
1.75775e-06;-0.011379722923028366
1.75800e-06;-0.011367324394923876
1.75825e-06;-0.0113549258668194
1.75850e-06;-0.01134252733871491
1.75875e-06;-0.011330128810610431
1.75900e-06;-0.011317730282505952
1.75925e-06;-0.011305331754401463
1.75950e-06;-0.011292933226296984
1.75975e-06;-0.011280534698192495
1.76000e-06;-0.011268136170088016
1.76025e-06;-0.011255737641983527
1.76050e-06;-0.01124327079386347
1.76075e-06;-0.01123009855950393
1.76100e-06;-0.011216926325144379
1.76125e-06;-0.01120375409078484
1.76150e-06;-0.011190581856425288
1.76175e-06;-0.011177409622065747
1.76200e-06;-0.011164237387706208
1.76225e-06;-0.011151065153346656
1.76250e-06;-0.011137892918987117
1.76275e-06;-0.011124720684627566
1.76300e-06;-0.011112070050288407
1.76325e-06;-0.0110997844350199
1.76350e-06;-0.011087498819751383
1.76375e-06;-0.011075213204482875
1.76400e-06;-0.011062927589214358
1.76425e-06;-0.011050641973945851
1.76450e-06;-0.011038356358677344
1.76475e-06;-0.011026070743408826
1.76500e-06;-0.01101378512814032
1.76525e-06;-0.011001837475988709
1.76550e-06;-0.010993379204366051
1.76575e-06;-0.010984920932743386
1.76600e-06;-0.010976462661120729
1.76625e-06;-0.010968004389498073
1.76650e-06;-0.010959546117875408
1.76675e-06;-0.01095108784625275
1.76700e-06;-0.010942629574630085
1.76725e-06;-0.010934171303007428
1.76750e-06;-0.010929495018284935
1.76775e-06;-0.010927465392476441
1.76800e-06;-0.01092543576666795
1.76825e-06;-0.010923406140859456
1.76850e-06;-0.010921376515050965
1.76875e-06;-0.010919346889242473
1.76900e-06;-0.01091731726343398
1.76925e-06;-0.01091528763762549
1.76950e-06;-0.010913819419280144
1.76975e-06;-0.01091814758572524
1.77000e-06;-0.01092247575217034
1.77025e-06;-0.010926803918615436
1.77050e-06;-0.010931132085060533
1.77075e-06;-0.010935460251505633
1.77100e-06;-0.010939788417950728
1.77125e-06;-0.010944116584395829
1.77150e-06;-0.010948444750840926
1.77175e-06;-0.010953091205347567
1.77200e-06;-0.01096102390059729
1.77225e-06;-0.010968956595847007
1.77250e-06;-0.01097688929109673
1.77275e-06;-0.010984821986346446
1.77300e-06;-0.010992754681596164
1.77325e-06;-0.011000687376845886
1.77350e-06;-0.011008620072095602
1.77375e-06;-0.011016552767345325
1.77400e-06;-0.011024490054210778
1.77425e-06;-0.01103247474830425
1.77450e-06;-0.011040459442397716
1.77475e-06;-0.011048444136491182
1.77500e-06;-0.011056303767307688
1.77525e-06;-0.011062872152595807
1.77550e-06;-0.011069440537883932
1.77575e-06;-0.011076008923172051
1.77600e-06;-0.011082438429217046
1.77625e-06;-0.011087434043507288
1.77650e-06;-0.011092429657797526
1.77675e-06;-0.011097687216227045
1.77700e-06;-0.011105649279181949
1.77725e-06;-0.011113611342136853
1.77750e-06;-0.011121573405091761
1.77775e-06;-0.011129535468046665
1.77800e-06;-0.011137497531001574
1.77825e-06;-0.011145459593956478
1.77850e-06;-0.011153421656911388
1.77875e-06;-0.011164727292882221
1.77900e-06;-0.0111783727828928
1.77925e-06;-0.01119201827290339
1.77950e-06;-0.01120566376291397
1.77975e-06;-0.01121930925292456
1.78000e-06;-0.011232954742935139
1.78025e-06;-0.011246600232945717
1.78050e-06;-0.011260721676137238
1.78075e-06;-0.011279757211070447
1.78100e-06;-0.011298792746003672
1.78125e-06;-0.011317828280936882
1.78150e-06;-0.011336863815870091
1.78175e-06;-0.011355899350803316
1.78200e-06;-0.011374934885736526
1.78225e-06;-0.011393970420669752
1.78250e-06;-0.011413139396865373
1.78275e-06;-0.011433686119091235
1.78300e-06;-0.01145423284131708
1.78325e-06;-0.011474779563542925
1.78350e-06;-0.011495326285768787
1.78375e-06;-0.011515873007994632
1.78400e-06;-0.011536419730220494
1.78425e-06;-0.01155696645244634
1.78450e-06;-0.011577317212051012
1.78475e-06;-0.011595644708996886
1.78500e-06;-0.011613972205942744
1.78525e-06;-0.011632113392940227
1.78550e-06;-0.011648330978593293
1.78575e-06;-0.011664339227687705
1.78600e-06;-0.0116781861317271
1.78625e-06;-0.011691702480552374
1.78650e-06;-0.011701805933503099
1.78675e-06;-0.011711227510957404
1.78700e-06;-0.011713608902780698
1.78725e-06;-0.01171599029460399
1.78750e-06;-0.011717539959782051
1.78775e-06;-0.011710502265526534
1.78800e-06;-0.011703464571271024
1.78825e-06;-0.011695568861656878
1.78850e-06;-0.011678814368539545
1.78875e-06;-0.011662059875422213
1.78900e-06;-0.011644171888277087
1.78925e-06;-0.011614580872633541
1.78950e-06;-0.011584989856989969
1.78975e-06;-0.011555398841346423
1.79000e-06;-0.011525807825702877
1.79025e-06;-0.01148861038660566
1.79050e-06;-0.011446089923139021
1.79075e-06;-0.011403569459672344
1.79100e-06;-0.011361048996205703
1.79125e-06;-0.011317755414299392
1.79150e-06;-0.011266479587308788
1.79175e-06;-0.011215203760318183
1.79200e-06;-0.011163593225099756
1.79225e-06;-0.011108526915230467
1.79250e-06;-0.011053272116108532
1.79275e-06;-0.010996071214898224
1.79300e-06;-0.010938776233537404
1.79325e-06;-0.010880485392409333
1.79350e-06;-0.010821946540557952
1.79375e-06;-0.01076349385831166
1.79400e-06;-0.010705459992305485
1.79425e-06;-0.01064817517544897
1.79450e-06;-0.010591922252144
1.79475e-06;-0.010536936082275924
1.79500e-06;-0.010483488918523602
1.79525e-06;-0.010431925543541927
1.79550e-06;-0.010382612049340531
1.79575e-06;-0.010335915377013895
1.79600e-06;-0.01029220189199112
1.79625e-06;-0.010251816144195045
1.79650e-06;-0.01021491027365606
1.79675e-06;-0.01018134014326231
1.79700e-06;-0.010150961904166145
1.79725e-06;-0.01012381700552377
1.79750e-06;-0.010100019068689266
1.79775e-06;-0.010079843970381268
1.79800e-06;-0.010064593563221926
1.79825e-06;-0.01004998267904382
1.79850e-06;-0.010041974701885989
1.79875e-06;-0.010034684072169555
1.79900e-06;-0.010034799866609665
1.79925e-06;-0.010034915661049776
1.79950e-06;-0.010036095685108663
1.79975e-06;-0.010048263600810538
1.80000e-06;-0.010060431516512406
1.80025e-06;-0.010072599432214271
1.80050e-06;-0.010084767347916149
1.80075e-06;-0.010098000343028381
1.80100e-06;-0.010122230003658627
1.80125e-06;-0.010146459664288853
1.80150e-06;-0.01017068932491908
1.80175e-06;-0.010194918985549325
1.80200e-06;-0.010219742973955632
1.80225e-06;-0.010250703240744459
1.80250e-06;-0.01028166350753326
1.80275e-06;-0.010312862593165703
1.80300e-06;-0.010346527420711215
1.80325e-06;-0.0103801922482567
1.80350e-06;-0.010413921111708866
1.80375e-06;-0.010448311129099117
1.80400e-06;-0.010482701146489368
1.80425e-06;-0.010517015998444698
1.80450e-06;-0.01055055478700175
1.80475e-06;-0.01058392260297758
1.80500e-06;-0.010615525171902007
1.80525e-06;-0.010646866882227261
1.80550e-06;-0.010675515295945008
1.80575e-06;-0.010703816624631886
1.80600e-06;-0.010728534391423489
1.80625e-06;-0.010752698080405451
1.80650e-06;-0.010771141061350577
1.80675e-06;-0.010789584042295687
1.80700e-06;-0.010807278192392284
1.80725e-06;-0.010817240860413814
1.80750e-06;-0.010827203528435332
1.80775e-06;-0.010836384278562386
1.80800e-06;-0.010837491931544463
1.80825e-06;-0.010838599584526539
1.80850e-06;-0.01083865724601037
1.80875e-06;-0.010827874020712442
1.80900e-06;-0.010817090795414505
1.80925e-06;-0.010806307570116577
1.80950e-06;-0.01079552434481864
1.80975e-06;-0.010783577700036757
1.81000e-06;-0.010759619054275743
1.81025e-06;-0.01073566040851471
1.81050e-06;-0.010711701762753696
1.81075e-06;-0.010687743116992663
1.81100e-06;-0.010663032904602486
1.81125e-06;-0.010630562963920233
1.81150e-06;-0.010598093023237954
1.81175e-06;-0.010565275942699537
1.81200e-06;-0.010528874734209373
1.81225e-06;-0.010492267807627825
1.81250e-06;-0.010453536895717291
1.81275e-06;-0.010414669098832445
1.81300e-06;-0.010374388000496464
1.81325e-06;-0.010334052912983149
1.81350e-06;-0.010293151108494929
1.81375e-06;-0.01025216371941237
1.81400e-06;-0.010211313660782447
1.81425e-06;-0.010170827161752865
1.81450e-06;-0.010130929931338222
1.81475e-06;-0.010091852472936137
1.81500e-06;-0.010053840546762605
1.81525e-06;-0.01001714881507003
1.81550e-06;-0.009982127181763651
1.81575e-06;-0.009949699926699375
1.81600e-06;-0.009917668400380254
1.81625e-06;-0.00988972266954503
1.81650e-06;-0.009862139511877433
1.81675e-06;-0.009838299827053285
1.81700e-06;-0.009814460142229116
1.81725e-06;-0.009790993132127198
1.81750e-06;-0.009771373890770332
1.81775e-06;-0.009751754649413483
1.81800e-06;-0.009732764578552404
1.81825e-06;-0.009720270528012945
1.81850e-06;-0.009707776477473487
1.81875e-06;-0.00969528242693402
1.81900e-06;-0.009682788376394563
1.81925e-06;-0.009670294325855094
1.81950e-06;-0.009657800275315636
1.81975e-06;-0.009649610773619813
1.82000e-06;-0.00964443362306772
1.82025e-06;-0.009639256472515631
1.82050e-06;-0.009634079321963538
1.82075e-06;-0.009628902171411447
1.82100e-06;-0.009623725020859359
1.82125e-06;-0.009619003297437366
1.82150e-06;-0.009618983739663299
1.82175e-06;-0.009618964181889232
1.82200e-06;-0.009618944624115165
1.82225e-06;-0.009618925066341098
1.82250e-06;-0.009618905508567031
1.82275e-06;-0.009618885950792964
1.82300e-06;-0.009619101546402206
1.82325e-06;-0.009621745039007212
1.82350e-06;-0.009624388531612219
1.82375e-06;-0.009627032024217224
1.82400e-06;-0.009629675516822228
1.82425e-06;-0.009632319009427235
1.82450e-06;-0.00963496250203224
1.82475e-06;-0.009637615773114436
1.82500e-06;-0.009640370004408432
1.82525e-06;-0.009643124235702428
1.82550e-06;-0.009645814019900282
1.82575e-06;-0.009647838404736637
1.82600e-06;-0.009649862789572996
1.82625e-06;-0.009651783445012578
1.82650e-06;-0.009652633121641488
1.82675e-06;-0.009653482798270394
1.82700e-06;-0.009654091102764767
1.82725e-06;-0.009652207303288482
1.82750e-06;-0.009650323503812201
1.82775e-06;-0.009648439704335916
1.82800e-06;-0.009646555904859633
1.82825e-06;-0.00964467210538335
1.82850e-06;-0.009642788305907065
1.82875e-06;-0.009640560376089829
1.82900e-06;-0.009634779390777023
1.82925e-06;-0.00962899840546422
1.82950e-06;-0.009623217420151417
1.82975e-06;-0.00961743643483861
1.83000e-06;-0.009611655449525807
1.83025e-06;-0.009605874464213
1.83050e-06;-0.009599829422813263
1.83075e-06;-0.009591058071585097
1.83100e-06;-0.00958228672035694
1.83125e-06;-0.00957351536912878
1.83150e-06;-0.009564744017900617
1.83175e-06;-0.009555972666672458
1.83200e-06;-0.009547065636625747
1.83225e-06;-0.009536757758369903
1.83250e-06;-0.009526449880114059
1.83275e-06;-0.009516142001858206
1.83300e-06;-0.009505834123602362
1.83325e-06;-0.00949552624534651
1.83350e-06;-0.00948519843810772
1.83375e-06;-0.009474664869347962
1.83400e-06;-0.009464131300588194
1.83425e-06;-0.009453626131314447
1.83450e-06;-0.00944341417928378
1.83475e-06;-0.00943324388074636
1.83500e-06;-0.009423503643599736
1.83525e-06;-0.009413806540228449
1.83550e-06;-0.009404590308542366
1.83575e-06;-0.009395781424720034
1.83600e-06;-0.00938743727510378
1.83625e-06;-0.009379643147146321
1.83650e-06;-0.009372741379693001
1.83675e-06;-0.009367371916398618
1.83700e-06;-0.00936397617659486
1.83725e-06;-0.009362608441927812
1.83750e-06;-0.009363200725849528
1.83775e-06;-0.00936576275662176
1.83800e-06;-0.009370795623814982
1.83825e-06;-0.009376165830848833
1.83850e-06;-0.009385018983243128
1.83875e-06;-0.009394374170566839
1.83900e-06;-0.009408912736838302
1.83925e-06;-0.009423451303109778
1.83950e-06;-0.009438675349639237
1.83975e-06;-0.009460976800010979
1.84000e-06;-0.00948327825038274
1.84025e-06;-0.009505579700754482
1.84050e-06;-0.009527881151126244
1.84075e-06;-0.009550888959215981
1.84100e-06;-0.00958118972544561
1.84125e-06;-0.009611490491675265
1.84150e-06;-0.009641791257904896
1.84175e-06;-0.00967209202413455
1.84200e-06;-0.009702749713788619
1.84225e-06;-0.009737092544168423
1.84250e-06;-0.009771435374548255
1.84275e-06;-0.009805914281229781
1.84300e-06;-0.009841798140029745
1.84325e-06;-0.00987768199882968
1.84350e-06;-0.009913544558015103
1.84375e-06;-0.009949187204268241
1.84400e-06;-0.00998482985052135
1.84425e-06;-0.010020330636407563
1.84450e-06;-0.01005436675121946
1.84475e-06;-0.010088220380144884
1.84500e-06;-0.01012018989016371
1.84525e-06;-0.010151476666025136
1.84550e-06;-0.010175714390813204
1.84575e-06;-0.01019995211560125
1.84600e-06;-0.010224189840389319
1.84625e-06;-0.010248427565177366
1.84650e-06;-0.010272665289965413
1.84675e-06;-0.010296903014753481
1.84700e-06;-0.010321140739541528
1.84725e-06;-0.010345378464329596
1.84750e-06;-0.010367269117942916
1.84775e-06;-0.010387517275956036
1.84800e-06;-0.010407765433969172
1.84825e-06;-0.010428013591982293
1.84850e-06;-0.01044826174999543
1.84875e-06;-0.010468509908008551
1.84900e-06;-0.010488758066021689
1.84925e-06;-0.01050900622403481
1.84950e-06;-0.010529395279747758
1.84975e-06;-0.010551239067249618
1.85000e-06;-0.010573082854751458
1.85025e-06;-0.010594926642253318
1.85050e-06;-0.01061677042975516
1.85075e-06;-0.010638614217257
1.85100e-06;-0.01066045800475886
1.85125e-06;-0.010682301792260701
1.85150e-06;-0.01070414557976256
1.85175e-06;-0.010726358909147431
1.85200e-06;-0.010748830846334007
1.85225e-06;-0.010771302783520603
1.85250e-06;-0.010793774720707179
1.85275e-06;-0.010816246657893776
1.85300e-06;-0.010838718595080352
1.85325e-06;-0.010861190532266947
1.85350e-06;-0.010883662469453523
1.85375e-06;-0.01090589385596297
1.85400e-06;-0.010925641619835134
1.85425e-06;-0.010945389383707281
1.85450e-06;-0.010965137147579443
1.85475e-06;-0.01098488491145159
1.85500e-06;-0.011004632675323736
1.85525e-06;-0.011023893755339888
1.85550e-06;-0.01103812995221546
1.85575e-06;-0.011052366149091044
1.85600e-06;-0.011066602345966617
1.85625e-06;-0.011080838542842189
1.85650e-06;-0.011095074739717773
1.85675e-06;-0.011108819641932739
1.85700e-06;-0.011117492055659395
1.85725e-06;-0.011126164469386041
1.85750e-06;-0.011134836883112698
1.85775e-06;-0.011143509296839344
1.85800e-06;-0.011152181710565992
1.85825e-06;-0.011160854124292647
1.85850e-06;-0.011169526538019295
1.85875e-06;-0.01117819895174595
1.85900e-06;-0.011186871365472598
1.85925e-06;-0.011195543779199246
1.85950e-06;-0.0112042161929259
1.85975e-06;-0.011212888606652548
1.86000e-06;-0.011221561020379203
1.86025e-06;-0.011230233434105851
1.86050e-06;-0.011238623234568878
1.86075e-06;-0.011244095127223777
1.86100e-06;-0.011249567019878674
1.86125e-06;-0.011255038912533575
1.86150e-06;-0.01126051080518847
1.86175e-06;-0.01126598269784337
1.86200e-06;-0.011271454590498267
1.86225e-06;-0.011276926483153163
1.86250e-06;-0.011282398375808063
1.86275e-06;-0.011287870268462959
1.86300e-06;-0.011293342161117858
1.86325e-06;-0.011298814053772754
1.86350e-06;-0.01130428594642765
1.86375e-06;-0.01130975783908255
1.86400e-06;-0.011315229731737446
1.86425e-06;-0.011320552658671343
1.86450e-06;-0.01132433755361458
1.86475e-06;-0.011328122448557817
1.86500e-06;-0.011331907343501058
1.86525e-06;-0.011335186292686109
1.86550e-06;-0.01133811117775473
1.86575e-06;-0.011341036062823351
1.86600e-06;-0.011343848317222145
1.86625e-06;-0.011345497689501789
1.86650e-06;-0.011346750798489678
1.86675e-06;-0.011343912592943536
1.86700e-06;-0.011340336864258583
1.86725e-06;-0.011329146402642851
1.86750e-06;-0.01131795594102713
1.86775e-06;-0.011305967415476362
1.86800e-06;-0.011285739089155696
1.86825e-06;-0.011265510762835048
1.86850e-06;-0.011244340593328149
1.86875e-06;-0.011213446140001289
1.86900e-06;-0.011182551686674426
1.86925e-06;-0.011150483461025403
1.86950e-06;-0.011106296344071344
1.86975e-06;-0.01106210922711725
1.87000e-06;-0.011017922110163192
1.87025e-06;-0.010973734993209097
1.87050e-06;-0.010921760767825524
1.87075e-06;-0.010864337073559306
1.87100e-06;-0.01080691337929304
1.87125e-06;-0.01074948968502682
1.87150e-06;-0.01069138257101833
1.87175e-06;-0.010626219327456348
1.87200e-06;-0.010560807560978979
1.87225e-06;-0.01049282986059645
1.87250e-06;-0.01042470474878915
1.87275e-06;-0.01035497237199564
1.87300e-06;-0.010284304723950952
1.87325e-06;-0.010213053493172253
1.87350e-06;-0.01014163404952776
1.87375e-06;-0.010070461927361662
1.87400e-06;-0.009999953865759905
1.87425e-06;-0.009930514519079604
1.87450e-06;-0.00986246584302936
1.87475e-06;-0.009796026126990404
1.87500e-06;-0.009731477050052357
1.87525e-06;-0.00966922404190163
1.87550e-06;-0.009609714137374142
1.87575e-06;-0.009553394289067716
1.87600e-06;-0.00950071027154411
1.87625e-06;-0.009452085548310623
1.87650e-06;-0.009407715644954113
1.87675e-06;-0.00936745579316545
1.87700e-06;-0.009331147765189464
1.87725e-06;-0.009298844323823396
1.87750e-06;-0.009270681359925214
1.87775e-06;-0.009246793750792437
1.87800e-06;-0.009227314675553268
1.87825e-06;-0.009212365388841234
1.87850e-06;-0.009202101883648573
1.87875e-06;-0.009197594748048722
1.87900e-06;-0.009193951398167612
1.87925e-06;-0.009199226409230234
1.87950e-06;-0.009204501420292862
1.87975e-06;-0.009210986205600262
1.88000e-06;-0.009229961592617207
1.88025e-06;-0.009248936979634139
1.88050e-06;-0.009267912366651069
1.88075e-06;-0.009286887753668014
1.88100e-06;-0.009313499515962123
1.88125e-06;-0.009345455263102933
1.88150e-06;-0.009377411010243714
1.88175e-06;-0.009409366757384494
1.88200e-06;-0.009442021265384942
1.88225e-06;-0.009481890295950427
1.88250e-06;-0.009521759326515947
1.88275e-06;-0.009561628357081433
1.88300e-06;-0.009593760553810837
1.88325e-06;-0.016769502386602967
1.88350e-06;-0.023866027883779728
1.88375e-06;-0.02228028782344712
1.88400e-06;-0.020246837536361806
1.88425e-06;-0.015041249887377385
1.88450e-06;-0.008620731167102633
1.88475e-06;-0.008867351507797069
1.88500e-06;-0.009886146020758876
1.88525e-06;-0.013224101097518943
1.88550e-06;-0.018253746702433585
1.88575e-06;-0.017972435134775536
1.88600e-06;-0.01596665249056116
1.88625e-06;-0.013348511902725528
1.88650e-06;-0.008746803677300477
1.88675e-06;-0.0075242074745450775
1.88700e-06;-0.008171786393907634
1.88725e-06;-0.010180756060752402
1.88750e-06;-0.013372374759806877
1.88775e-06;-0.015144380265548943
1.88800e-06;-0.014558928810770378
1.88825e-06;-0.012659531151669422
1.88850e-06;-0.010166705663840158
1.88875e-06;-0.008639880608049039
1.88900e-06;-0.008646681686910438
1.88925e-06;-0.009852745175606574
1.88950e-06;-0.011841040091429476
1.88975e-06;-0.012937897766125115
1.89000e-06;-0.012556220925576185
1.89025e-06;-0.01135001276665528
1.89050e-06;-0.009770887242471452
1.89075e-06;-0.00879587365686927
1.89100e-06;-0.008780665054684814
1.89125e-06;-0.009515931761929388
1.89150e-06;-0.010740575274684212
1.89175e-06;-0.01140639242329179
1.89200e-06;-0.011145866137743939
1.89225e-06;-0.010368893830017793
1.89250e-06;-0.009358561688017065
1.89275e-06;-0.008727028001697742
1.89300e-06;-0.008697205371303227
1.89325e-06;-0.009138070784674091
1.89350e-06;-0.00988618375479325
1.89375e-06;-0.010285095144271793
1.89400e-06;-0.010104776952287654
1.89425e-06;-0.009602168484143143
1.89450e-06;-0.008954753537774644
1.89475e-06;-0.008546119765014798
1.89500e-06;-0.008516005331713667
1.89525e-06;-0.00878244002216009
1.89550e-06;-0.009243155312450214
1.89575e-06;-0.009487085941978463
1.89600e-06;-0.009370299816208131
1.89625e-06;-0.009053898664669267
1.89650e-06;-0.008649187267584303
1.89675e-06;-0.008396488979426879
1.89700e-06;-0.008383264774074651
1.89725e-06;-0.00855803705099222
1.89750e-06;-0.008856605681055556
