Time(s);Current(A)
1.30000e-06;-0.006553403888701612
1.30025e-06;-0.006554449032199454
1.30050e-06;-0.0065554941756972955
1.30075e-06;-0.0065565393191951375
1.30100e-06;-0.00655758446269298
1.30125e-06;-0.006558629606190822
1.30150e-06;-0.006559674749688664
1.30175e-06;-0.006549488032366225
1.30200e-06;-0.006538544193838001
1.30225e-06;-0.0065276003553097674
1.30250e-06;-0.006516656516781543
1.30275e-06;-0.006505712678253309
1.30300e-06;-0.006494768839725084
1.30325e-06;-0.006483825001196851
1.30350e-06;-0.006472881162668627
1.30375e-06;-0.006461937324140402
1.30400e-06;-0.006450993485612168
1.30425e-06;-0.006440049647083944
1.30450e-06;-0.00642910580855571
1.30475e-06;-0.006418161970027486
1.30500e-06;-0.006407218131499261
1.30525e-06;-0.006402709977712578
1.30550e-06;-0.006398635642815678
1.30575e-06;-0.0063945613079187755
1.30600e-06;-0.006390486973021876
1.30625e-06;-0.006386412638124976
1.30650e-06;-0.006382338303228073
1.30675e-06;-0.006378263968331173
1.30700e-06;-0.00637418963343427
1.30725e-06;-0.00637011529853737
1.30750e-06;-0.006366040963640468
1.30775e-06;-0.006361966628743568
1.30800e-06;-0.006357892293846668
1.30825e-06;-0.006353817958949765
1.30850e-06;-0.0063497436240528655
1.30875e-06;-0.006345669289155962
1.30900e-06;-0.006341594954259062
1.30925e-06;-0.006337520619362163
1.30950e-06;-0.00633344628446526
1.30975e-06;-0.0063343804004221205
1.31000e-06;-0.006341771023981949
1.31025e-06;-0.006349161647541772
1.31050e-06;-0.006356552271101595
1.31075e-06;-0.006363942894661424
1.31100e-06;-0.006371333518221246
1.31125e-06;-0.006378724141781075
1.31150e-06;-0.006386114765340898
1.31175e-06;-0.0063935053889007205
1.31200e-06;-0.00640089601246055
1.31225e-06;-0.006408286636020373
1.31250e-06;-0.006415677259580202
1.31275e-06;-0.006423067883140024
1.31300e-06;-0.006430458506699853
1.31325e-06;-0.006437849130259676
1.31350e-06;-0.006445239753819499
1.31375e-06;-0.0064526303773793274
1.31400e-06;-0.0064600210009391505
1.31425e-06;-0.00646741162449898
1.31450e-06;-0.006476801719724953
1.31475e-06;-0.006486326596036856
1.31500e-06;-0.006495851472348766
1.31525e-06;-0.006505376348660668
1.31550e-06;-0.006514901224972579
1.31575e-06;-0.0065244261012844815
1.31600e-06;-0.006533950977596383
1.31625e-06;-0.006543475853908294
1.31650e-06;-0.006553000730220197
1.31675e-06;-0.006562525606532107
1.31700e-06;-0.006572050482844009
1.31725e-06;-0.0065815753591559195
1.31750e-06;-0.006591100235467821
1.31775e-06;-0.006600625111779724
1.31800e-06;-0.006610149988091635
1.31825e-06;-0.0066231865047669996
1.31850e-06;-0.006640749956689723
1.31875e-06;-0.006658313408612431
1.31900e-06;-0.0066758768605351395
1.31925e-06;-0.006693440312457863
1.31950e-06;-0.006711003764380572
1.31975e-06;-0.006728567216303295
1.32000e-06;-0.0067461306682260035
1.32025e-06;-0.006763694120148712
1.32050e-06;-0.006781257572071435
1.32075e-06;-0.0067988210239941435
1.32100e-06;-0.006816384475916867
1.32125e-06;-0.006833947927839575
1.32150e-06;-0.006851511379762299
1.32175e-06;-0.0068690748316850075
1.32200e-06;-0.006886638283607716
1.32225e-06;-0.0069095870802915035
1.32250e-06;-0.0069328988941798455
1.32275e-06;-0.0069562107080682065
1.32300e-06;-0.0069795225219565485
1.32325e-06;-0.00700283433584489
1.32350e-06;-0.0070261461497332514
1.32375e-06;-0.007049457963621593
1.32400e-06;-0.0070727697775099544
1.32425e-06;-0.007096081591398296
1.32450e-06;-0.0071193934052866375
1.32475e-06;-0.007142705219174999
1.32500e-06;-0.007163636624644164
1.32525e-06;-0.007181499391625304
1.32550e-06;-0.00719936215860643
1.32575e-06;-0.0072172249255875705
1.32600e-06;-0.007235087692568696
1.32625e-06;-0.007252950459549822
1.32650e-06;-0.0072708132265309625
1.32675e-06;-0.007288675993512088
1.32700e-06;-0.007306538760493229
1.32725e-06;-0.0073244015274743545
1.32750e-06;-0.007342264294455479
1.32775e-06;-0.007360127061436621
1.32800e-06;-0.007373259880116656
1.32825e-06;-0.007386073860786144
1.32850e-06;-0.00739888784145562
1.32875e-06;-0.007411701822125097
1.32900e-06;-0.007424515802794584
1.32925e-06;-0.0074373297834640605
1.32950e-06;-0.0074501437641335475
1.32975e-06;-0.007462957744803024
1.33000e-06;-0.007475771725472512
1.33025e-06;-0.0074885857061419885
1.33050e-06;-0.007501399686811465
1.33075e-06;-0.007514213667480952
1.33100e-06;-0.007527027648150429
1.33125e-06;-0.007539841628819916
1.33150e-06;-0.007552655609489392
1.33175e-06;-0.007565469590158869
1.33200e-06;-0.007578283570828357
1.33225e-06;-0.007591097551497833
1.33250e-06;-0.00760391153216732
1.33275e-06;-0.007616725512836797
1.33300e-06;-0.0076295394935062735
1.33325e-06;-0.007641029300902324
1.33350e-06;-0.007650812086495401
1.33375e-06;-0.007660594872088486
1.33400e-06;-0.007670377657681564
1.33425e-06;-0.007680160443274649
1.33450e-06;-0.007689943228867725
1.33475e-06;-0.007699726014460803
1.33500e-06;-0.007709508800053888
1.33525e-06;-0.007719291585646965
1.33550e-06;-0.00772907437124005
1.33575e-06;-0.007738857156833127
1.33600e-06;-0.007748639942426204
1.33625e-06;-0.007758422728019289
1.33650e-06;-0.007768205513612366
1.33675e-06;-0.007777988299205452
1.33700e-06;-0.007787771084798529
1.33725e-06;-0.007797553870391606
1.33750e-06;-0.007807336655984691
1.33775e-06;-0.007817119441577768
1.33800e-06;-0.007826902227170853
1.33825e-06;-0.00783668501276393
1.33850e-06;-0.007846467798357015
1.33875e-06;-0.007857456959783746
1.33900e-06;-0.007868527441014881
1.33925e-06;-0.007879597922246026
1.33950e-06;-0.007890668403477161
1.33975e-06;-0.007901738884708307
1.34000e-06;-0.007912809365939442
1.34025e-06;-0.007923879847170577
1.34050e-06;-0.007934950328401722
1.34075e-06;-0.007946020809632857
1.34100e-06;-0.007957091290864002
1.34125e-06;-0.007968161772095137
1.34150e-06;-0.007979232253326272
1.34175e-06;-0.007990302734557418
1.34200e-06;-0.008001373215788553
1.34225e-06;-0.008012443697019698
1.34250e-06;-0.008023770334338239
1.34275e-06;-0.008035427188279428
1.34300e-06;-0.008047084042220608
1.34325e-06;-0.008058740896161787
1.34350e-06;-0.008070397750102976
1.34375e-06;-0.008082054604044157
1.34400e-06;-0.008093711457985346
1.34425e-06;-0.008105368311926524
1.34450e-06;-0.008117025165867705
1.34475e-06;-0.008128682019808894
1.34500e-06;-0.008140338873750073
1.34525e-06;-0.008151995727691262
1.34550e-06;-0.008163652581632442
1.34575e-06;-0.008175309435573621
1.34600e-06;-0.00818696628951481
1.34625e-06;-0.008198623143455989
1.34650e-06;-0.00820081878883758
1.34675e-06;-0.008202376669761443
1.34700e-06;-0.008203934550685304
1.34725e-06;-0.008205492431609167
1.34750e-06;-0.008207050312533028
1.34775e-06;-0.008208608193456892
1.34800e-06;-0.008210166074380753
1.34825e-06;-0.008211723955304616
1.34850e-06;-0.008213281836228476
1.34875e-06;-0.008214839717152339
1.34900e-06;-0.008208371244012955
1.34925e-06;-0.008191555815790025
1.34950e-06;-0.008174740387567082
1.34975e-06;-0.008157924959344153
1.35000e-06;-0.008141109531121224
1.35025e-06;-0.00812429410289828
1.35050e-06;-0.00810747867467535
1.35075e-06;-0.008090663246452407
1.35100e-06;-0.008073847818229478
1.35125e-06;-0.008057032390006548
1.35150e-06;-0.008040216961783605
1.35175e-06;-0.008012238310053987
1.35200e-06;-0.007983507163847504
1.35225e-06;-0.007954776017641045
1.35250e-06;-0.007926044871434564
1.35275e-06;-0.007897313725228105
1.35300e-06;-0.007868582579021646
1.35325e-06;-0.007839851432815164
1.35350e-06;-0.007811120286608705
1.35375e-06;-0.007782389140402223
1.35400e-06;-0.007753657994195764
1.35425e-06;-0.0077249268479893055
1.35450e-06;-0.007696195701782823
1.35475e-06;-0.007674965036257349
1.35500e-06;-0.007654239965758448
1.35525e-06;-0.0076335148952595645
1.35550e-06;-0.007612789824760681
1.35575e-06;-0.00759206475426178
1.35600e-06;-0.007571339683762896
1.35625e-06;-0.007550614613263995
1.35650e-06;-0.007529889542765111
1.35675e-06;-0.007509164472266209
1.35700e-06;-0.0074884394017673255
1.35725e-06;-0.007467714331268442
1.35750e-06;-0.007446989260769541
1.35775e-06;-0.007447804128239597
1.35800e-06;-0.007450070967386212
1.35825e-06;-0.0074523378065328265
1.35850e-06;-0.0074546046456794406
1.35875e-06;-0.007456871484826056
1.35900e-06;-0.0074591383239726704
1.35925e-06;-0.007461405163119286
1.35950e-06;-0.0074636720022659
1.35975e-06;-0.007465938841412514
1.36000e-06;-0.00746820568055913
1.36025e-06;-0.007470472519705744
1.36050e-06;-0.007472739358852361
1.36075e-06;-0.007491774824689121
1.36100e-06;-0.007511940635981966
1.36125e-06;-0.007532106447274793
1.36150e-06;-0.00755227225856762
1.36175e-06;-0.0075724380698604645
1.36200e-06;-0.007592603881153292
1.36225e-06;-0.007612769692446136
1.36250e-06;-0.007632935503738963
1.36275e-06;-0.00765310131503179
1.36300e-06;-0.007673267126324634
1.36325e-06;-0.007693432937617461
1.36350e-06;-0.007713598748910306
1.36375e-06;-0.00773546297298659
1.36400e-06;-0.007757441684266129
1.36425e-06;-0.007779420395545687
1.36450e-06;-0.007801399106825226
1.36475e-06;-0.007823377818104783
1.36500e-06;-0.007845356529384322
1.36525e-06;-0.00786733524066388
1.36550e-06;-0.007889313951943418
1.36575e-06;-0.007911292663222958
1.36600e-06;-0.007933271374502516
1.36625e-06;-0.007955250085782054
1.36650e-06;-0.007977228797061612
1.36675e-06;-0.007999207508341152
1.36700e-06;-0.00800595108487858
1.36725e-06;-0.008011667686121972
1.36750e-06;-0.008017384287365358
1.36775e-06;-0.008023100888608749
1.36800e-06;-0.008028817489852135
1.36825e-06;-0.00803453409109552
1.36850e-06;-0.00804025069233891
1.36875e-06;-0.008045967293582297
1.36900e-06;-0.008051683894825688
1.36925e-06;-0.008057400496069074
1.36950e-06;-0.008063117097312463
1.36975e-06;-0.00806883369855585
1.37000e-06;-0.008074550299799236
1.37025e-06;-0.008064196281946372
1.37050e-06;-0.00805275897017784
1.37075e-06;-0.008041321658409298
1.37100e-06;-0.008029884346640766
1.37125e-06;-0.008018447034872233
1.37150e-06;-0.008007009723103692
1.37175e-06;-0.00799557241133516
1.37200e-06;-0.007984135099566617
1.37225e-06;-0.007972697787798085
1.37250e-06;-0.007961260476029554
1.37275e-06;-0.007949823164261011
1.37300e-06;-0.007938385852492479
1.37325e-06;-0.00792544818682689
1.37350e-06;-0.007910576380920596
1.37375e-06;-0.007895704575014288
1.37400e-06;-0.007880832769107993
1.37425e-06;-0.007865960963201697
1.37450e-06;-0.007851089157295389
1.37475e-06;-0.007836217351389094
1.37500e-06;-0.007821345545482786
1.37525e-06;-0.007806473739576491
1.37550e-06;-0.007791601933670195
1.37575e-06;-0.007776730127763888
1.37600e-06;-0.007761858321857593
1.37625e-06;-0.007746986515951284
1.37650e-06;-0.007745216940105298
1.37675e-06;-0.00774433056396798
1.37700e-06;-0.00774344418783066
1.37725e-06;-0.007742557811693341
1.37750e-06;-0.007741671435556021
1.37775e-06;-0.007740785059418703
1.37800e-06;-0.007739898683281383
1.37825e-06;-0.0077390123071440645
1.37850e-06;-0.007738125931006745
1.37875e-06;-0.0077372395548694255
1.37900e-06;-0.007736353178732107
1.37925e-06;-0.0077438635221538646
1.37950e-06;-0.007762198267218889
1.37975e-06;-0.007780533012283914
1.38000e-06;-0.007798867757348955
1.38025e-06;-0.00781720250241398
1.38050e-06;-0.00783553724747902
1.38075e-06;-0.007853871992544045
1.38100e-06;-0.00787220673760907
1.38125e-06;-0.007890541482674112
1.38150e-06;-0.007908876227739135
1.38175e-06;-0.007927210972804176
1.38200e-06;-0.007945545717869202
1.38225e-06;-0.00797305624003749
1.38250e-06;-0.008001185286199461
1.38275e-06;-0.00802931433236143
1.38300e-06;-0.008057443378523424
1.38325e-06;-0.008085572424685392
1.38350e-06;-0.008113701470847386
1.38375e-06;-0.008141830517009355
1.38400e-06;-0.008169959563171325
1.38425e-06;-0.008198088609333317
1.38450e-06;-0.008223496787039423
1.38475e-06;-0.00824872155549262
1.38500e-06;-0.008273946323945793
1.38525e-06;-0.008299171092398968
1.38550e-06;-0.008324395860852162
1.38575e-06;-0.008349620629305337
1.38600e-06;-0.008374845397758533
1.38625e-06;-0.008400070166211707
1.38650e-06;-0.00842529493466488
1.38675e-06;-0.008433527314419698
1.38700e-06;-0.008440614265291378
1.38725e-06;-0.008447701216163063
1.38750e-06;-0.008454788167034743
1.38775e-06;-0.008461875117906428
1.38800e-06;-0.008468962068778108
1.38825e-06;-0.008476049019649788
1.38850e-06;-0.008483135970521473
1.38875e-06;-0.008490222921393153
1.38900e-06;-0.008473247064617332
1.38925e-06;-0.008454649173683977
1.38950e-06;-0.008436051282750621
1.38975e-06;-0.008417453391817252
1.39000e-06;-0.008398855500883897
1.39025e-06;-0.008380257609950526
1.39050e-06;-0.008361659719017173
1.39075e-06;-0.008343061828083817
1.39100e-06;-0.008324463937150446
1.39125e-06;-0.008287717752486982
1.39150e-06;-0.008249748221289654
1.39175e-06;-0.00821177869009236
1.39200e-06;-0.008173809158895033
1.39225e-06;-0.008135839627697736
1.39250e-06;-0.008097870096500441
1.39275e-06;-0.008059900565303115
1.39300e-06;-0.008021931034105818
1.39325e-06;-0.007983961502908492
1.39350e-06;-0.007945065602625954
1.39375e-06;-0.007904975498943232
1.39400e-06;-0.007864885395260477
1.39425e-06;-0.007824795291577757
1.39450e-06;-0.007784705187895003
1.39475e-06;-0.007744615084212282
1.39500e-06;-0.007704524980529562
1.39525e-06;-0.007664434876846807
1.39550e-06;-0.0076243447731640865
1.39575e-06;-0.007584254669481332
1.39600e-06;-0.007563620856522169
1.39625e-06;-0.0075442985600156715
1.39650e-06;-0.00752497626350919
1.39675e-06;-0.00750565396700271
1.39700e-06;-0.007486331670496212
1.39725e-06;-0.007467009373989731
1.39750e-06;-0.007447687077483234
1.39775e-06;-0.007428364780976753
1.39800e-06;-0.007409042484470271
1.39825e-06;-0.007404095311141139
1.39850e-06;-0.007417679435163547
1.39875e-06;-0.007431263559185966
1.39900e-06;-0.007444847683208374
1.39925e-06;-0.007458431807230782
1.39950e-06;-0.0074720159312532015
1.39975e-06;-0.007485600055275609
1.40000e-06;-0.0074991841792980286
1.40025e-06;-0.007512768303320437
1.40050e-06;-0.0075263524273428565
1.40075e-06;-0.007564195754103676
1.40100e-06;-0.007603674353690586
1.40125e-06;-0.007643152953277528
1.40150e-06;-0.007682631552864438
1.40175e-06;-0.007722110152451381
1.40200e-06;-0.007761588752038291
1.40225e-06;-0.0078010673516252
1.40250e-06;-0.007840545951212143
1.40275e-06;-0.007884267701202121
1.40300e-06;-0.007933459392621817
1.40325e-06;-0.007982651084041472
1.40350e-06;-0.008031842775461127
1.40375e-06;-0.008081034466880823
1.40400e-06;-0.00813022615830048
1.40425e-06;-0.008179417849720176
1.40450e-06;-0.00822860954113983
1.40475e-06;-0.008277801232559527
1.40500e-06;-0.00831750879939115
1.40525e-06;-0.008356577057034267
1.40550e-06;-0.008395645314677418
1.40575e-06;-0.008434713572320535
1.40600e-06;-0.008473781829963684
1.40625e-06;-0.008512850087606801
1.40650e-06;-0.008551918345249918
1.40675e-06;-0.008590986602893067
1.40700e-06;-0.008630054860536184
1.40725e-06;-0.008643638412945359
1.40750e-06;-0.008655504083427676
1.40775e-06;-0.008667369753909995
1.40800e-06;-0.008679235424392322
1.40825e-06;-0.008691101094874639
1.40850e-06;-0.008702966765356967
1.40875e-06;-0.008714832435839285
1.40900e-06;-0.008726698106321613
1.40925e-06;-0.00873856377680393
1.40950e-06;-0.008723067650287446
1.40975e-06;-0.008705727110185777
1.41000e-06;-0.008688386570084123
1.41025e-06;-0.008671046029982454
1.41050e-06;-0.0086537054898808
1.41075e-06;-0.008636364949779145
1.41100e-06;-0.008619024409677475
1.41125e-06;-0.008601683869575822
1.41150e-06;-0.008584343329474152
1.41175e-06;-0.008559217366194909
1.41200e-06;-0.008524055037305415
1.41225e-06;-0.008488892708415892
1.41250e-06;-0.008453730379526398
1.41275e-06;-0.008418568050636874
1.41300e-06;-0.00838340572174738
1.41325e-06;-0.008348243392857857
1.41350e-06;-0.008313081063968362
1.41375e-06;-0.008277918735078868
1.41400e-06;-0.008242756406189345
1.41425e-06;-0.008207685795627848
1.41450e-06;-0.008172621367647463
1.41475e-06;-0.008137556939667109
1.41500e-06;-0.008102492511686753
1.41525e-06;-0.00806742808370637
1.41550e-06;-0.008032363655726014
1.41575e-06;-0.007997299227745629
1.41600e-06;-0.007972633726833791
1.41625e-06;-0.00794866920043595
1.41650e-06;-0.007924704674038087
1.41675e-06;-0.007900740147640245
1.41700e-06;-0.007876775621242385
1.41725e-06;-0.007852811094844543
1.41750e-06;-0.00782884656844668
1.41775e-06;-0.007814715459137521
1.41800e-06;-0.00780124720424776
1.41825e-06;-0.0077877789493579885
1.41850e-06;-0.007774310694468228
1.41875e-06;-0.0077608424395784565
1.41900e-06;-0.007747374184688696
1.41925e-06;-0.007733905929798936
1.41950e-06;-0.007720437674909164
1.41975e-06;-0.007706969420019404
1.42000e-06;-0.0076935011651296315
1.42025e-06;-0.007680032910239871
1.42050e-06;-0.007666564655350111
1.42075e-06;-0.007653096400460339
1.42100e-06;-0.007639628145570579
1.42125e-06;-0.007626159890680807
1.42150e-06;-0.007612691635791047
1.42175e-06;-0.007599223380901275
1.42200e-06;-0.007588807814896856
1.42225e-06;-0.007582327539376599
1.42250e-06;-0.007575847263856337
1.42275e-06;-0.00756936698833608
1.42300e-06;-0.007562886712815818
1.42325e-06;-0.007556406437295561
1.42350e-06;-0.007549926161775304
1.42375e-06;-0.007543445886255042
1.42400e-06;-0.007536965610734785
1.42425e-06;-0.007530485335214523
1.42450e-06;-0.007524005059694266
1.42475e-06;-0.00751752478417401
1.42500e-06;-0.007511044508653747
1.42525e-06;-0.007504564233133491
1.42550e-06;-0.007498083957613228
1.42575e-06;-0.007491603682092972
1.42600e-06;-0.0074851234065727145
1.42625e-06;-0.007478643131052453
1.42650e-06;-0.0074823957152002725
1.42675e-06;-0.007486838079532499
1.42700e-06;-0.00749128044386472
1.42725e-06;-0.007495722808196945
1.42750e-06;-0.007500165172529167
1.42775e-06;-0.007504607536861389
1.42800e-06;-0.007509049901193614
1.42825e-06;-0.007513492265525836
1.42850e-06;-0.007517934629858061
1.42875e-06;-0.007522376994190283
1.42900e-06;-0.007534358096834964
1.42925e-06;-0.007556057558033972
1.42950e-06;-0.007577757019232962
1.42975e-06;-0.0075994564804319695
1.43000e-06;-0.007621155941630958
1.43025e-06;-0.007642855402829948
1.43050e-06;-0.007664554864028956
1.43075e-06;-0.007686254325227944
1.43100e-06;-0.007707953786426952
1.43125e-06;-0.007729653247625942
1.43150e-06;-0.00775135270882495
1.43175e-06;-0.007783396872783335
1.43200e-06;-0.00781613835608426
1.43225e-06;-0.007848879839385212
1.43250e-06;-0.007881621322686135
1.43275e-06;-0.007914362805987087
1.43300e-06;-0.007947104289288012
1.43325e-06;-0.007979845772588937
1.43350e-06;-0.008012587255889889
1.43375e-06;-0.008045328739190812
1.43400e-06;-0.008078070222491764
1.43425e-06;-0.008108020639201904
1.43450e-06;-0.00813778291471889
1.43475e-06;-0.008167545190235902
1.43500e-06;-0.008197307465752889
1.43525e-06;-0.008227069741269901
1.43550e-06;-0.008256832016786888
1.43575e-06;-0.0082865942923039
1.43600e-06;-0.008316356567820886
1.43625e-06;-0.008346118843337873
1.43650e-06;-0.008375881118854886
1.43675e-06;-0.008400212506526757
1.43700e-06;-0.008424177807010914
1.43725e-06;-0.008448143107495051
1.43750e-06;-0.008472108407979188
1.43775e-06;-0.008496073708463345
1.43800e-06;-0.008520039008947482
1.43825e-06;-0.00854400430943164
1.43850e-06;-0.008567969609915778
1.43875e-06;-0.008591934910399914
1.43900e-06;-0.008615900210884072
1.43925e-06;-0.008639865511368208
1.43950e-06;-0.008668522526585166
1.43975e-06;-0.008697495802550076
1.44000e-06;-0.008726469078515011
1.44025e-06;-0.008755442354479922
1.44050e-06;-0.008784415630444832
1.44075e-06;-0.008813388906409767
1.44100e-06;-0.008842362182374677
1.44125e-06;-0.008871335458339612
1.44150e-06;-0.008900308734304523
1.44175e-06;-0.008929282010269433
1.44200e-06;-0.008958255286234368
1.44225e-06;-0.00898912046410722
1.44250e-06;-0.009020113171965728
1.44275e-06;-0.00905110587982421
1.44300e-06;-0.009082098587682694
1.44325e-06;-0.009113091295541203
1.44350e-06;-0.009144084003399687
1.44375e-06;-0.009175076711258195
1.44400e-06;-0.009206069419116678
1.44425e-06;-0.009237062126975188
1.44450e-06;-0.00926805483483367
1.44475e-06;-0.009299047542692153
1.44500e-06;-0.009330040250550663
1.44525e-06;-0.00935181999854471
1.44550e-06;-0.009372978716117416
1.44575e-06;-0.009394137433690105
1.44600e-06;-0.009415296151262794
1.44625e-06;-0.0094364548688355
1.44650e-06;-0.00945761358640819
1.44675e-06;-0.009478772303980898
