Time(s);Current(A)
1.17500e-05;-0.009130450916919872
1.17503e-05;-0.009125368565453849
1.17505e-05;-0.00912028621398786
1.17508e-05;-0.00911520386252184
1.17510e-05;-0.009110121511055816
1.17513e-05;-0.009105039159589828
1.17515e-05;-0.009099956808123807
1.17518e-05;-0.009094874456657784
1.17520e-05;-0.009094179091569315
1.17523e-05;-0.009100118780389424
1.17525e-05;-0.00910605846920953
1.17528e-05;-0.009111998158029598
1.17530e-05;-0.009117937846849706
1.17533e-05;-0.009123877535669813
1.17535e-05;-0.00912981722448988
1.17538e-05;-0.009135756913309987
1.17540e-05;-0.009141696602130095
1.17543e-05;-0.009147636290950162
1.17545e-05;-0.009153575979770269
1.17548e-05;-0.009159515668590378
1.17550e-05;-0.009165455357410444
1.17553e-05;-0.009171395046230551
1.17555e-05;-0.009177334735050658
1.17558e-05;-0.009183274423870727
1.17560e-05;-0.009189214112690833
1.17563e-05;-0.00919515380151094
1.17565e-05;-0.009201093490331007
1.17568e-05;-0.009207033179151116
1.17570e-05;-0.009215097529376862
1.17572e-05;-0.009223403159617493
1.17575e-05;-0.00923170878985818
1.17578e-05;-0.009240014420098868
1.17580e-05;-0.0092483200503395
1.17583e-05;-0.009256625680580189
1.17585e-05;-0.009264931310820877
1.17588e-05;-0.009273236941061564
1.17590e-05;-0.009281542571302195
1.17593e-05;-0.009289848201542883
1.17595e-05;-0.00929815383178357
1.17598e-05;-0.009306459462024203
1.17600e-05;-0.009314765092264891
1.17603e-05;-0.009323070722505577
1.17605e-05;-0.00933137635274621
1.17608e-05;-0.009339681982986897
1.17610e-05;-0.009347987613227585
1.17613e-05;-0.009356293243468216
1.17615e-05;-0.009364598873708904
1.17618e-05;-0.009372496077526046
1.17620e-05;-0.009379775560861356
1.17623e-05;-0.009387055044196714
1.17625e-05;-0.009394334527532073
1.17628e-05;-0.009401614010867382
1.17630e-05;-0.009408893494202741
1.17633e-05;-0.0094161729775381
1.17635e-05;-0.009423563066066322
1.17638e-05;-0.009431120438318468
1.17640e-05;-0.009438677810570615
1.17643e-05;-0.00944623518282271
1.17645e-05;-0.009453792555074857
1.17648e-05;-0.009461349927327002
1.17650e-05;-0.009468907299579098
1.17653e-05;-0.009476464671831244
1.17655e-05;-0.009484022044083391
1.17657e-05;-0.009491579416335487
1.17660e-05;-0.009499136788587633
1.17663e-05;-0.009506694160839779
1.17665e-05;-0.009514055626335815
1.17668e-05;-0.009521120794607279
1.17670e-05;-0.00952818596287874
1.17673e-05;-0.009535251131150202
1.17675e-05;-0.009542316299421616
1.17678e-05;-0.00954938146769308
1.17680e-05;-0.009556446635964541
1.17683e-05;-0.009563511804235956
1.17685e-05;-0.009570576972507417
1.17688e-05;-0.009577642140778879
1.17690e-05;-0.009584707309050294
1.17693e-05;-0.009591772477321755
1.17695e-05;-0.009599706797768033
1.17698e-05;-0.00960895565877619
1.17700e-05;-0.00961820451978441
1.17703e-05;-0.009627453380792631
1.17705e-05;-0.009636702241800788
1.17708e-05;-0.009645951102809008
1.17710e-05;-0.009655199963817229
1.17713e-05;-0.009664448824825386
1.17715e-05;-0.009673697685833607
1.17718e-05;-0.009686684941169286
1.17720e-05;-0.009705326293822663
1.17723e-05;-0.009723967646476166
1.17725e-05;-0.00974260899912967
1.17728e-05;-0.009761250351783046
1.17730e-05;-0.00977989170443655
1.17733e-05;-0.009798533057090053
1.17735e-05;-0.00981717440974343
1.17738e-05;-0.009835815762396933
1.17740e-05;-0.009857695545635533
1.17742e-05;-0.00988447326100278
1.17745e-05;-0.00991125097637021
1.17748e-05;-0.00993802869173764
1.17750e-05;-0.009964806407104888
1.17753e-05;-0.009991584122472317
1.17755e-05;-0.010018361837839745
1.17758e-05;-0.010045139553207176
1.17760e-05;-0.010071917268574423
1.17763e-05;-0.010100378105231905
1.17765e-05;-0.010129030079888909
1.17768e-05;-0.010157682054545716
1.17770e-05;-0.010186334029202718
1.17773e-05;-0.010214986003859722
1.17775e-05;-0.01024363797851653
1.17778e-05;-0.010272289953173532
1.17780e-05;-0.010300941927830536
1.17783e-05;-0.01032690744292174
1.17785e-05;-0.010348809848962118
1.17788e-05;-0.010370712255002495
1.17790e-05;-0.010392614661042724
1.17793e-05;-0.010414517067083101
1.17795e-05;-0.010436419473123478
1.17798e-05;-0.010458321879163708
1.17800e-05;-0.010480224285204086
1.17803e-05;-0.010502126691244463
1.17805e-05;-0.01051092050866197
1.17808e-05;-0.010518225693369899
1.17810e-05;-0.010525530878077827
1.17813e-05;-0.010532836062785706
1.17815e-05;-0.010540141247493633
1.17818e-05;-0.010547446432201561
1.17820e-05;-0.01055475161690944
1.17823e-05;-0.010562056801617368
1.17825e-05;-0.010563212984690089
1.17827e-05;-0.010555069171395615
1.17830e-05;-0.010546925358101086
1.17833e-05;-0.010538781544806556
1.17835e-05;-0.01053063773151208
1.17838e-05;-0.010522493918217551
1.17840e-05;-0.010514350104923022
1.17843e-05;-0.010506206291628493
1.17845e-05;-0.010498062478334019
1.17848e-05;-0.01048078439157806
1.17850e-05;-0.010462469001825672
1.17853e-05;-0.010444153612073409
1.17855e-05;-0.01042583822232102
1.17858e-05;-0.010407522832568633
1.17860e-05;-0.010389207442816368
1.17863e-05;-0.01037089205306398
1.17865e-05;-0.010352576663311592
1.17868e-05;-0.010333833230515338
1.17870e-05;-0.010314442408274158
1.17873e-05;-0.010295051586032977
1.17875e-05;-0.010275660763791926
1.17878e-05;-0.010256269941550746
1.17880e-05;-0.010236879119309565
1.17883e-05;-0.010217488297068516
1.17885e-05;-0.010198097474827335
1.17888e-05;-0.010178706652586154
1.17890e-05;-0.010159315830345106
1.17893e-05;-0.010149058080127034
1.17895e-05;-0.01013983749646856
1.17898e-05;-0.010130616912810145
1.17900e-05;-0.010121396329151669
1.17903e-05;-0.010112175745493194
1.17905e-05;-0.01010295516183478
1.17908e-05;-0.010093734578176304
1.17910e-05;-0.010084513994517829
1.17912e-05;-0.010075293410859415
1.17915e-05;-0.010071647609860545
1.17918e-05;-0.010076433333452654
1.17920e-05;-0.01008121905704473
1.17923e-05;-0.010086004780636839
1.17925e-05;-0.010090790504228949
1.17928e-05;-0.010095576227821057
1.17930e-05;-0.010100361951413134
1.17933e-05;-0.010105147675005244
1.17935e-05;-0.010109933398597353
1.17938e-05;-0.01011471912218943
1.17940e-05;-0.010128860033637074
1.17943e-05;-0.010144063335480938
1.17945e-05;-0.010159266637324702
1.17948e-05;-0.010174469939168568
1.17950e-05;-0.010189673241012434
1.17953e-05;-0.010204876542856196
1.17955e-05;-0.010220079844700062
1.17958e-05;-0.010235283146543928
1.17960e-05;-0.01025048644838769
1.17963e-05;-0.010267143319896633
1.17965e-05;-0.01028599862838961
1.17968e-05;-0.010304853936882461
1.17970e-05;-0.010323709245375439
1.17973e-05;-0.010342564553868418
1.17975e-05;-0.01036141986236127
1.17978e-05;-0.010380275170854247
1.17980e-05;-0.010399130479347226
1.17983e-05;-0.010415421997720649
1.17985e-05;-0.01043142236790523
1.17988e-05;-0.01044742273808981
1.17990e-05;-0.010463423108274281
1.17993e-05;-0.010479423478458863
1.17995e-05;-0.010495423848643442
1.17997e-05;-0.010511424218827914
1.18000e-05;-0.010523269394980708
1.18003e-05;-0.010528830089243098
1.18005e-05;-0.010534390783505451
1.18008e-05;-0.01053995147776784
1.18010e-05;-0.01054551217203023
1.18013e-05;-0.01055107286629262
1.18015e-05;-0.010556633560554973
1.18018e-05;-0.010562194254817364
1.18020e-05;-0.01056229652721063
1.18023e-05;-0.0105541432637312
1.18025e-05;-0.010545990000251715
1.18028e-05;-0.01053783673677223
1.18030e-05;-0.010529683473292799
1.18033e-05;-0.010521530209813315
1.18035e-05;-0.01051337694633383
1.18038e-05;-0.010505223682854399
1.18040e-05;-0.010492631897736877
1.18043e-05;-0.010473327114708162
1.18045e-05;-0.010454022331679578
1.18048e-05;-0.010434717548650864
1.18050e-05;-0.01041541276562215
1.18053e-05;-0.010396107982593565
1.18055e-05;-0.010376803199564851
1.18058e-05;-0.010357498416536135
1.18060e-05;-0.010338193633507551
1.18063e-05;-0.010315547796666576
1.18065e-05;-0.010292522544303316
1.18068e-05;-0.01026949729194021
1.18070e-05;-0.010246472039576949
1.18073e-05;-0.010223446787213689
1.18075e-05;-0.010200421534850583
1.18078e-05;-0.010177396282487322
1.18080e-05;-0.010154371030124062
1.18082e-05;-0.010134192953728112
1.18085e-05;-0.010118321060309639
1.18088e-05;-0.010102449166891165
1.18090e-05;-0.0100865772734728
1.18093e-05;-0.010070705380054324
1.18095e-05;-0.01005483348663585
1.18098e-05;-0.010038961593217377
1.18100e-05;-0.01002308969979901
1.18103e-05;-0.010007217806380536
1.18105e-05;-0.009991345912962062
1.18108e-05;-0.009986104766771567
1.18110e-05;-0.00998207086558206
1.18113e-05;-0.009978036964392555
1.18115e-05;-0.009974003063203077
1.18118e-05;-0.009969969162013571
1.18120e-05;-0.009965935260824064
1.18123e-05;-0.009961901359634586
1.18125e-05;-0.009957867458445081
1.18128e-05;-0.009953833557255575
1.18130e-05;-0.009953754432116485
1.18133e-05;-0.009959656668686971
1.18135e-05;-0.009965558905257457
1.18138e-05;-0.009971461141827903
1.18140e-05;-0.00997736337839839
1.18143e-05;-0.009983265614968876
1.18145e-05;-0.009989167851539322
1.18148e-05;-0.009995070088109808
1.18150e-05;-0.010000972324680295
1.18153e-05;-0.010006874561250741
1.18155e-05;-0.010012776797821227
1.18158e-05;-0.010018679034391713
1.18160e-05;-0.010028736164085584
1.18163e-05;-0.01003926513022219
1.18165e-05;-0.010049794096358797
1.18167e-05;-0.010060323062495333
1.18170e-05;-0.010070852028631939
1.18173e-05;-0.010081380994768546
1.18175e-05;-0.01009190996090508
1.18178e-05;-0.010102438927041688
1.18180e-05;-0.010112967893178296
1.18183e-05;-0.010123496859314901
1.18185e-05;-0.010134025825451438
1.18188e-05;-0.01014420373188183
1.18190e-05;-0.010153850681550556
1.18193e-05;-0.010163497631219216
1.18195e-05;-0.010172974930950495
1.18198e-05;-0.010182195645320904
1.18200e-05;-0.010191416359691252
1.18203e-05;-0.010203251423550249
1.18205e-05;-0.010219040534295952
1.18208e-05;-0.010234829645041547
1.18210e-05;-0.01025061875578725
1.18213e-05;-0.010266407866532951
1.18215e-05;-0.010282196977278547
1.18218e-05;-0.01029798608802425
1.18220e-05;-0.010318125975648481
1.18223e-05;-0.010344846152498347
1.18225e-05;-0.010371566329348393
1.18228e-05;-0.01039828650619844
1.18230e-05;-0.010425006683048304
1.18233e-05;-0.010451726859898352
1.18235e-05;-0.010478447036748398
1.18238e-05;-0.010508915610519781
1.18240e-05;-0.010545053409941729
1.18243e-05;-0.010581191209363674
1.18245e-05;-0.010617329008785375
1.18248e-05;-0.010653466808207323
1.18250e-05;-0.010689604607629268
1.18252e-05;-0.01072774175565799
1.18255e-05;-0.010768902798606554
1.18258e-05;-0.010810063841555117
1.18260e-05;-0.010851224884503402
1.18263e-05;-0.010892385927451967
1.18265e-05;-0.01093354697040053
1.18268e-05;-0.010974947475533159
1.18270e-05;-0.01101671015286464
1.18273e-05;-0.011058472830196406
1.18275e-05;-0.011099626720025147
1.18278e-05;-0.011139859855248263
1.18280e-05;-0.011179339388892416
1.18283e-05;-0.011217679145321612
1.18285e-05;-0.01125498154119007
1.18288e-05;-0.011290714991394203
1.18290e-05;-0.011325427391155659
1.18293e-05;-0.011357327957695666
1.18295e-05;-0.011387311422324124
1.18298e-05;-0.011415182726697623
1.18300e-05;-0.011439859515295756
1.18303e-05;-0.01146198840401476
1.18305e-05;-0.01148026374689644
1.18308e-05;-0.011495912604785717
1.18310e-05;-0.011507589061564958
1.18313e-05;-0.01151593905746308
1.18315e-05;-0.011519257980678144
1.18318e-05;-0.01152257690389323
1.18320e-05;-0.011520115564045351
1.18323e-05;-0.011508911922804165
1.18325e-05;-0.011497708281562906
1.18328e-05;-0.011486504640321644
1.18330e-05;-0.01147530099908046
1.18333e-05;-0.011464097357839199
1.18335e-05;-0.011438233487403998
1.18337e-05;-0.011410704777418191
1.18340e-05;-0.011383176067432199
1.18343e-05;-0.011355647357446206
1.18345e-05;-0.0113281186474604
1.18348e-05;-0.01129570390107309
1.18350e-05;-0.01125589931751442
1.18352e-05;-0.01121609473395602
1.18355e-05;-0.011176290150397351
1.18358e-05;-0.011136485566838682
1.18360e-05;-0.011096680983280012
1.18363e-05;-0.011056876399721612
1.18365e-05;-0.011013270045571955
1.18368e-05;-0.010969231956149876
1.18370e-05;-0.010925193866728094
1.18373e-05;-0.010881155777306015
1.18375e-05;-0.010837117687883936
1.18378e-05;-0.010793079598462155
1.18380e-05;-0.010750466990524152
1.18383e-05;-0.010710010337882856
1.18385e-05;-0.010669553685241834
1.18388e-05;-0.01063145619229059
1.18390e-05;-0.010596926786955006
1.18393e-05;-0.010562397381619654
1.18395e-05;-0.010533519852209511
1.18398e-05;-0.010513190446345393
1.18400e-05;-0.010492861040481416
1.18403e-05;-0.010472531634617298
1.18405e-05;-0.010452202228753182
1.18408e-05;-0.010431872822889203
1.18410e-05;-0.010411543417025087
1.18413e-05;-0.01039121401116097
1.18415e-05;-0.010388894029329916
1.18418e-05;-0.010388619227082233
1.18420e-05;-0.010388344424834548
1.18422e-05;-0.010388069622586867
1.18425e-05;-0.010387794820339184
1.18428e-05;-0.0103875200180915
1.18430e-05;-0.010387245215843818
1.18433e-05;-0.010393560837951447
1.18435e-05;-0.010409844081846024
1.18437e-05;-0.010426127325740492
1.18440e-05;-0.01044241056963507
1.18443e-05;-0.010458693813529646
1.18445e-05;-0.010474977057424223
1.18448e-05;-0.01049126030131869
1.18450e-05;-0.010511534758129604
1.18453e-05;-0.010537845685231148
1.18455e-05;-0.010564156612332514
1.18458e-05;-0.010590467539434057
1.18460e-05;-0.010616778466535602
1.18463e-05;-0.010643089393636968
1.18465e-05;-0.010669400320738511
1.18468e-05;-0.010696856486414216
1.18470e-05;-0.010726044756784183
1.18473e-05;-0.010755233027154348
1.18475e-05;-0.010784283897138244
1.18478e-05;-0.010813126957273891
1.18480e-05;-0.010841970017409733
1.18483e-05;-0.010869962109505811
1.18485e-05;-0.010896667163451014
1.18488e-05;-0.010923372217396395
1.18490e-05;-0.010947273627243612
1.18493e-05;-0.010966934693450498
1.18495e-05;-0.010986595759657516
1.18498e-05;-0.011006256825864535
1.18500e-05;-0.01102591789207142
1.18503e-05;-0.01104557895827844
1.18505e-05;-0.011065240024485458
1.18507e-05;-0.011084901090692344
1.18510e-05;-0.011104562156899362
1.18513e-05;-0.011124223223106381
1.18515e-05;-0.011143884289313268
1.18518e-05;-0.011161647888986072
1.18520e-05;-0.011176541684265011
1.18522e-05;-0.011191435479543849
1.18525e-05;-0.011206329274822789
1.18528e-05;-0.011221223070101729
1.18530e-05;-0.011236116865380667
1.18533e-05;-0.011251010660659505
1.18535e-05;-0.011265904455938445
1.18538e-05;-0.011280798251217385
1.18540e-05;-0.011295692046496223
1.18543e-05;-0.011310585841775161
1.18545e-05;-0.011324835743896934
1.18548e-05;-0.011338111796214965
1.18550e-05;-0.011351387848533087
1.18553e-05;-0.011364663900851208
1.18555e-05;-0.011377939953169238
1.18558e-05;-0.01139121600548736
1.18560e-05;-0.011404492057805481
1.18563e-05;-0.011417768110123513
1.18565e-05;-0.011431044162441634
1.18568e-05;-0.011444320214759756
1.18570e-05;-0.011455675929124644
1.18573e-05;-0.011466813566777492
1.18575e-05;-0.01147795120443034
1.18578e-05;-0.011489088842083115
1.18580e-05;-0.011500226479735963
1.18583e-05;-0.011511364117388812
1.18585e-05;-0.011522501755041586
1.18588e-05;-0.011533639392694434
1.18590e-05;-0.011544777030347283
1.18592e-05;-0.011554994154346618
1.18595e-05;-0.011563819056622815
1.18598e-05;-0.011572643958899015
1.18600e-05;-0.011580072518699419
1.18603e-05;-0.011585389194205119
1.18605e-05;-0.01159070586971082
1.18607e-05;-0.01179444142123154
1.18610e-05;-0.016070756269643376
1.18613e-05;-0.021199749209799217
1.18615e-05;-0.02213077770384359
1.18618e-05;-0.020548479436294533
1.18620e-05;-0.01718999832481883
1.18623e-05;-0.013206032100934592
1.18625e-05;-0.01144401809254624
1.18628e-05;-0.012060590236589305
1.18630e-05;-0.01431248311749757
1.18633e-05;-0.017132766395892767
1.18635e-05;-0.01828586394520044
1.18638e-05;-0.017306648635155054
1.18640e-05;-0.015194811284346198
1.18643e-05;-0.012895687676008894
1.18645e-05;-0.0115535269409334
1.18648e-05;-0.011768626476898948
1.18650e-05;-0.01309834782719842
1.18653e-05;-0.014136104908972843
1.18655e-05;-0.01504175640796696
1.18658e-05;-0.014492160771110537
1.18660e-05;-0.013203176333167173
1.18663e-05;-0.011894143157012376
1.18665e-05;-0.011132780459280964
1.18668e-05;-0.011302568580331084
1.18670e-05;-0.01206960564758893
1.18673e-05;-0.012961885790515944
1.18675e-05;-0.013404300858063625
1.18678e-05;-0.01303344428426055
1.18680e-05;-0.0122245492385641
1.18683e-05;-0.011403643334713167
1.18685e-05;-0.010926366132224568
1.18688e-05;-0.011032923833529055
1.18690e-05;-0.011514152913901687
1.18692e-05;-0.012074405946971449
1.18695e-05;-0.012353481900083872
1.18698e-05;-0.012123807004337702
1.18700e-05;-0.011620459527046227
1.18703e-05;-0.011110282584706924
1.18705e-05;-0.010816000057678058
1.18708e-05;-0.010888013870362274
1.18710e-05;-0.011195242853740872
1.18713e-05;-0.011552447109991154
1.18715e-05;-0.011733968024823608
1.18718e-05;-0.011597241535899505
1.18720e-05;-0.011289509695001747
1.18723e-05;-0.010977897303336736
1.18725e-05;-0.010801877018516273
1.18728e-05;-0.010855609457663815
1.18730e-05;-0.011056935621587851
1.18733e-05;-0.011289778074772182
1.18735e-05;-0.011412754106979544
1.18738e-05;-0.011336543302395672
1.18740e-05;-0.011153356936450629
1.18743e-05;-0.010967852907906715
1.18745e-05;-0.010867359181086556
1.18748e-05;-0.010910813249308138
1.18750e-05;-0.011046706146859068
1.18753e-05;-0.011202288319289147
1.18755e-05;-0.011288966332768387
1.18758e-05;-0.011250763800435437
1.18760e-05;-0.011145417245107082
1.18763e-05;-0.011038453252743172
1.18765e-05;-0.010984537969757577
1.18768e-05;-0.011020549881767469
1.18770e-05;-0.01111418276828964
1.18773e-05;-0.011219829000100105
1.18775e-05;-0.01128196076157892
1.18777e-05;-0.011265487118210704
1.18780e-05;-0.011206545549549817
1.18783e-05;-0.011146149927779589
1.18785e-05;-0.011118507978781925
1.18788e-05;-0.011146681251900074
1.18790e-05;-0.011210395783989744
1.18793e-05;-0.01126963072741541
1.18795e-05;-0.011307087124382456
1.18798e-05;-0.011316714898691627
1.18800e-05;-0.011282369938484076
1.18803e-05;-0.011254172901489558
1.18805e-05;-0.011241825426795264
1.18808e-05;-0.011249093224677504
1.18810e-05;-0.011289346180775693
1.18813e-05;-0.011326221171556716
1.18815e-05;-0.011349048353521907
1.18818e-05;-0.011354194293357888
1.18820e-05;-0.011331281225702483
1.18823e-05;-0.011311802538103207
1.18825e-05;-0.01130196125245728
1.18828e-05;-0.011304232160618587
1.18830e-05;-0.01132272279954028
1.18833e-05;-0.011338965375682358
1.18835e-05;-0.011355207951824547
1.18838e-05;-0.011358232670298934
1.18840e-05;-0.011343206145837989
1.18843e-05;-0.011330118580137747
1.18845e-05;-0.011317031014437503
1.18848e-05;-0.011312863167196862
1.18850e-05;-0.011320826153595403
1.18853e-05;-0.011327406568466793
1.18855e-05;-0.011333986983338137
1.18858e-05;-0.011332347941921473
1.18860e-05;-0.011321045856012414
1.18862e-05;-0.011313239044530726
1.18865e-05;-0.011305432233048985
1.18868e-05;-0.011297625421567245
1.18870e-05;-0.011292535053202248
1.18873e-05;-0.011291426313677171
1.18875e-05;-0.011290317574152088
1.18878e-05;-0.011289208834627005
1.18880e-05;-0.011285347203603547
1.18883e-05;-0.011277450519493365
1.18885e-05;-0.011269553835383183
1.18888e-05;-0.011266064572675897
1.18890e-05;-0.011269035491688931
1.18893e-05;-0.011271395475393093
1.18895e-05;-0.01127285998014167
1.18898e-05;-0.011272243338954008
1.18900e-05;-0.011268576256316448
1.18903e-05;-0.011267850413291116
1.18905e-05;-0.011271435694762542
1.18908e-05;-0.01127502097623397
1.18910e-05;-0.011281367899333462
1.18913e-05;-0.011291762701029627
1.18915e-05;-0.011302157502725792
1.18918e-05;-0.011312246868242724
1.18920e-05;-0.01132188854041686
1.18923e-05;-0.011331530212590995
1.18925e-05;-0.011344785971574461
1.18928e-05;-0.01136333908141402
1.18930e-05;-0.011381892191253578
1.18933e-05;-0.01140044530109301
1.18935e-05;-0.011420126705523847
1.18938e-05;-0.011441461908724426
1.18940e-05;-0.01146279711192486
1.18943e-05;-0.011484132315125439
1.18945e-05;-0.011507663674958663
1.18947e-05;-0.011534414053269161
1.18950e-05;-0.011561164431579842
1.18953e-05;-0.011588723850651904
1.18955e-05;-0.011617163182133695
1.18958e-05;-0.011644968629726164
1.18960e-05;-0.01167260989580155
1.18963e-05;-0.011700631410655452
1.18965e-05;-0.011729436783746652
1.18968e-05;-0.011759233435747531
1.18970e-05;-0.011789580007609397
1.18973e-05;-0.011819912304144604
1.18975e-05;-0.011849574927651535
