Time(s);Current(A)
5.55000e-06;-0.0008098850481933153
5.55025e-06;-0.0007841657797906098
5.55050e-06;-0.000758446511387817
5.55075e-06;-0.0007329211046209984
5.55100e-06;-0.0007077138114010486
5.55125e-06;-0.0006833641761055549
5.55150e-06;-0.0006604218981922628
5.55175e-06;-0.0006374796202788927
5.55200e-06;-0.0006157932442675086
5.55225e-06;-0.0005961677164832802
5.55250e-06;-0.0005778843427555783
5.55275e-06;-0.000561803351080122
5.55300e-06;-0.0005457223594046656
5.55325e-06;-0.0005305965258532661
5.55350e-06;-0.0005170380407737094
5.55375e-06;-0.0005043188666685243
5.55400e-06;-0.0004929769438684293
5.55425e-06;-0.0004825891249178591
5.55450e-06;-0.0004737669244472551
5.55475e-06;-0.00046590746589859157
5.55500e-06;-0.0004596278003098799
5.55525e-06;-0.0004533481347211469
5.55550e-06;-0.00044802850557264587
5.55575e-06;-0.0004442842298754494
5.55600e-06;-0.00044053995417824015
5.55625e-06;-0.00043781201024794235
5.55650e-06;-0.0004367517965095108
5.55675e-06;-0.0004356915827710757
5.55700e-06;-0.0004353704890192861
5.55725e-06;-0.00043626224008575724
5.55750e-06;-0.0004371539911522314
5.55775e-06;-0.00043895363261360897
5.55800e-06;-0.0004422430594696393
5.55825e-06;-0.00044553248632568085
5.55850e-06;-0.0004488219131817112
5.55875e-06;-0.0004521113400377415
5.55900e-06;-0.000455400766893783
5.55925e-06;-0.0004586901937498134
5.55950e-06;-0.00046340449220877265
5.55975e-06;-0.00046831557106531295
5.56000e-06;-0.0004732266499218532
5.56025e-06;-0.00047813772877841013
5.56050e-06;-0.0004830488076349504
5.56075e-06;-0.00048795988649149067
5.56100e-06;-0.0004927930972339743
5.56125e-06;-0.0004974985317826428
5.56150e-06;-0.0005022039663313114
5.56175e-06;-0.0005069094008799959
5.56200e-06;-0.0005110386449540189
5.56225e-06;-0.0005142224002791724
5.56250e-06;-0.0005174061556043367
5.56275e-06;-0.0005205899109294902
5.56300e-06;-0.0005222337346847559
5.56325e-06;-0.0005213506371572043
5.56350e-06;-0.0005190500104467332
5.56375e-06;-0.0005144233163113497
5.56400e-06;-0.000508500261107285
5.56425e-06;-0.0005004499669799698
5.56450e-06;-0.0004910712206926351
5.56475e-06;-0.0004795125762190824
5.56500e-06;-0.0004662919283973897
5.56525e-06;-0.00045034404794111157
5.56550e-06;-0.00043281272780079996
5.56575e-06;-0.00041268309256923055
5.56600e-06;-0.0003915104527896814
5.56625e-06;-0.0003680080762282779
5.56650e-06;-0.000342897671253378
5.56675e-06;-0.00031618498303120045
5.56700e-06;-0.00028778905894212683
5.56725e-06;-0.0002577149694529872
5.56750e-06;-0.00022611043032474412
5.56775e-06;-0.00019317374403805338
5.56800e-06;-0.00015910316743886302
5.56825e-06;-0.000124096912164731
5.56850e-06;-8.83324524177637e-05
5.56875e-06;-5.191596031844336e-05
5.56900e-06;-1.4899266501775376e-05
5.56925e-06;2.26419134433461e-05
5.56950e-06;6.047170891742798e-05
5.56975e-06;9.824986054641668e-05
5.57000e-06;0.00013594326819489253
5.57025e-06;0.0001732482201813635
5.57050e-06;0.00020991574327209112
5.57075e-06;0.00024594158780089716
5.57100e-06;0.00028091448215573905
5.57125e-06;0.00031524660712265297
5.57150e-06;0.00034798071138862125
5.57175e-06;0.00037917882264401804
5.57200e-06;0.00040859653087750336
5.57225e-06;0.000435989425227297
5.57250e-06;0.00046105137893879557
5.57275e-06;0.00048327622396849174
5.57300e-06;0.0005020449886081531
5.57325e-06;0.0005169697603401731
5.57350e-06;0.0005279713801335785
5.57375e-06;0.0005350739018788339
5.57400e-06;0.0005383013512133604
5.57425e-06;0.0005376778040682203
5.57450e-06;0.0005331886851029959
5.57475e-06;0.000524694120216819
5.57500e-06;0.0005119835728460185
5.57525e-06;0.000494991247120577
5.57550e-06;0.0004738448486705732
5.57575e-06;0.0004487366625467359
5.57600e-06;0.00041985894158971094
5.57625e-06;0.00038740398582781774
5.57650e-06;0.0003515398797496413
5.57675e-06;0.00031235616173517366
5.57700e-06;0.0002698981684789423
5.57725e-06;0.0002243019202545275
5.57750e-06;0.0001758245654058057
5.57775e-06;0.00012476371341618082
5.57800e-06;7.141697080123737e-05
5.57825e-06;1.6081908686582828e-05
5.57850e-06;-4.0959073777482616e-05
5.57875e-06;-9.947276486733512e-05
5.57900e-06;-0.00015940599747746623
5.57925e-06;-0.00022028951549482904
5.57950e-06;-0.00028147581145261105
5.57975e-06;-0.0003431589450851766
5.58000e-06;-0.00040484207871774216
5.58025e-06;-0.0004658055027718956
5.58050e-06;-0.0005255879331462696
5.58075e-06;-0.0005853703635208461
5.58100e-06;-0.0006437210852691714
5.58125e-06;-0.0006997224721072052
5.58150e-06;-0.0007539160791698737
5.58175e-06;-0.0008051432445559544
5.58200e-06;-0.0008539501223182875
5.58225e-06;-0.0008987854753557819
5.58250e-06;-0.0009411946338926614
5.58275e-06;-0.0009796225749281406
5.58300e-06;-0.0010170238434888612
5.58325e-06;-0.0010527404134713302
5.58350e-06;-0.0010872495414502423
5.58375e-06;-0.0011197773405475526
5.58400e-06;-0.001152305139644753
5.58425e-06;-0.0011828145795469026
5.58450e-06;-0.001210012031498598
5.58475e-06;-0.0012372094834502008
5.58500e-06;-0.0012623552869091867
5.58525e-06;-0.0012841344769807912
5.58550e-06;-0.0013059136670523957
5.58575e-06;-0.0013276928571240739
5.58600e-06;-0.0013494720471956784
5.58625e-06;-0.0013712512372672828
5.58650e-06;-0.001393030427338961
5.58675e-06;-0.0014148096174105655
5.58700e-06;-0.00143658880748217
5.58725e-06;-0.0014583679975538482
5.58750e-06;-0.0014801471876254527
5.58775e-06;-0.0014995648132036352
5.58800e-06;-0.0015151072746558468
5.58825e-06;-0.001530649736108006
5.58850e-06;-0.001546192197560165
5.58875e-06;-0.0015617346590123765
5.58900e-06;-0.0015772771204645357
5.58925e-06;-0.0015928195819167473
5.58950e-06;-0.0016083620433689062
5.58975e-06;-0.0016239045048210654
5.59000e-06;-0.001639446966273277
5.59025e-06;-0.001654989427725436
5.59050e-06;-0.0016691459451538841
5.59075e-06;-0.0016810282242221617
5.59100e-06;-0.0016929105032903989
5.59125e-06;-0.0017047927823586363
5.59150e-06;-0.001715146457147282
5.59175e-06;-0.0017252890256461268
5.59200e-06;-0.0017354315941449719
5.59225e-06;-0.0017447527320933905
5.59250e-06;-0.0017527259592776563
5.59275e-06;-0.001758653511635374
5.59300e-06;-0.0017612242529796262
5.59325e-06;-0.0017606336912225134
5.59350e-06;-0.0017548556495542576
5.59375e-06;-0.0017460918360010368
5.59400e-06;-0.0017324285771318359
5.59425e-06;-0.0017159828928118464
5.59450e-06;-0.0016949714406212684
5.59475e-06;-0.0016706475750807035
5.59500e-06;-0.0016408882681543224
5.59525e-06;-0.0016074575728753193
5.59550e-06;-0.0015680023830400391
5.59575e-06;-0.0015253258074693142
5.59600e-06;-0.0014773631605379044
5.59625e-06;-0.0014266463221446796
5.59650e-06;-0.0013714100459053357
5.59675e-06;-0.00131342749077424
5.59700e-06;-0.0012509384817776044
5.59725e-06;-0.001186402541640754
5.59750e-06;-0.0011173392694110915
5.59775e-06;-0.0010453538496273615
5.59800e-06;-0.0009708786646235072
5.59825e-06;-0.0008943461814916886
5.59850e-06;-0.0008161438858940917
5.59875e-06;-0.0007365054041089552
5.59900e-06;-0.0006555473023142927
5.59925e-06;-0.0005735029976767147
5.59950e-06;-0.000490799248786433
5.59975e-06;-0.00040793115898660816
5.60000e-06;-0.00032539380251656903
5.60025e-06;-0.0002436821804314834
5.60050e-06;-0.00016326315396890563
5.60075e-06;-8.450717246443466e-05
5.60100e-06;-7.711344260888491e-06
5.60125e-06;6.675404724232925e-05
5.60150e-06;0.00013839768027407745
5.60175e-06;0.00020668541421202228
5.60200e-06;0.00027108317137602793
5.60225e-06;0.00033105701275368623
5.60250e-06;0.00038614777638907503
5.60275e-06;0.0004361839502929549
5.60300e-06;0.00048131649420626654
5.60325e-06;0.0005216863119233815
5.60350e-06;0.0005572239150746672
5.60375e-06;0.0005877689556805615
5.60400e-06;0.000613161189752391
5.60425e-06;0.000633240596516268
5.60450e-06;0.0006478938608987562
5.60475e-06;0.0006571879452010445
5.60500e-06;0.0006613918033148799
5.60525e-06;0.0006607680423463832
5.60550e-06;0.000655447462709352
5.60575e-06;0.0006455040022595948
5.60600e-06;0.000631011614681221
5.60625e-06;0.0006120443983264717
5.60650e-06;0.000588705765525453
5.60675e-06;0.0005612119860572671
5.60700e-06;0.0005299058218276626
5.60725e-06;0.0004951260977335018
5.60750e-06;0.0004571290202328469
5.60775e-06;0.000416135181383076
5.60800e-06;0.00037236516702959474
5.60825e-06;0.0003260396384577443
5.60850e-06;0.0002773975735295523
5.60875e-06;0.00022674867208198976
5.60900e-06;0.00017448184679389446
5.60925e-06;0.00012098348677206478
5.60950e-06;6.658822383915211e-05
5.60975e-06;1.1593524711735774e-05
5.61000e-06;-4.366818463744856e-05
5.61025e-06;-9.885611726182037e-05
5.61050e-06;-0.00015370466161335476
5.61075e-06;-0.0002078214707627443
5.61100e-06;-0.00026078892791332693
5.61125e-06;-0.00031219102484663443
5.61150e-06;-0.0003616441832749417
5.61175e-06;-0.00040877890803019226
5.61200e-06;-0.00045322567879751383
5.61225e-06;-0.0004946149933451276
5.61250e-06;-0.0005325662850681969
5.61275e-06;-0.000566680699246063
5.61300e-06;-0.0005966118852338443
5.61325e-06;-0.0006221610123717553
5.61350e-06;-0.000643248888424981
5.61375e-06;-0.000659828365188042
5.61400e-06;-0.0006718523385368452
5.61425e-06;-0.0006792737105596338
5.61450e-06;-0.0006820383981809379
5.61475e-06;-0.0006800809680758122
5.61500e-06;-0.0006733688511327767
5.61525e-06;-0.0006619618686819702
5.61550e-06;-0.0006459948527082056
5.61575e-06;-0.0006256226576302098
5.61600e-06;-0.0006010001519930406
5.61625e-06;-0.0005722821902152068
5.61650e-06;-0.0005396192768062446
5.61675e-06;-0.0005031547741286926
5.61700e-06;-0.00046305269882824206
5.61725e-06;-0.00041953483567043124
5.61750e-06;-0.0003728699955351951
5.61775e-06;-0.0003233394889843092
5.61800e-06;-0.0002712246351964068
5.61825e-06;-0.00021680671916106482
5.61850e-06;-0.00016036429989857415
5.61875e-06;-0.00010217143362881558
5.61900e-06;-4.2515086843372177e-05
5.61925e-06;1.8281585881942055e-05
5.61950e-06;7.986602642790225e-05
5.61975e-06;0.00014187783585524417
5.62000e-06;0.0002039566605392727
5.62025e-06;0.0002657421607642344
5.62050e-06;0.0003268757648268012
5.62075e-06;0.00038700172756511654
5.62100e-06;0.0004457562460057201
5.62125e-06;0.0005027528686955717
5.62150e-06;0.0005575867474011602
5.62175e-06;0.0006098481985216341
5.62200e-06;0.0006591275344990598
5.62225e-06;0.0007050150536485197
5.62250e-06;0.00074705189586765
5.62275e-06;0.0007846312523565989
5.62300e-06;0.000817104286464026
5.62325e-06;0.0008440763248312763
5.62350e-06;0.0008654414416802138
5.62375e-06;0.0008811848522650653
5.62400e-06;0.000891291837961735
5.62425e-06;0.0008957477004849314
5.62450e-06;0.00089450689434669
5.62475e-06;0.0008874312856021089
5.62500e-06;0.0008743563492926268
5.62525e-06;0.0008552768832632618
5.62550e-06;0.0008303685159694769
5.62575e-06;0.00079986397576627
5.62600e-06;0.0007639959847959893
5.62625e-06;0.000722997307580385
5.62650e-06;0.0006770813807505611
5.62675e-06;0.0006264036325045271
5.62700e-06;0.0005711029218544208
5.62725e-06;0.0005114179140769693
5.62750e-06;0.0004477005249956509
5.62775e-06;0.00038033847584024636
5.62800e-06;0.0003097194327384275
5.62825e-06;0.00023623100446100925
5.62850e-06;0.00016024873446366986
5.62875e-06;8.211174839178467e-05
5.62900e-06;2.1488442641405458e-06
5.62925e-06;-7.924870929068648e-05
5.62950e-06;-0.00016162834622304847
5.62975e-06;-0.000244440928676421
5.63000e-06;-0.0003272535111295129
5.63025e-06;-0.00040948244251135435
5.63050e-06;-0.0004907536812530946
5.63075e-06;-0.0005707448303864208
5.63100e-06;-0.0006486354409416077
5.63125e-06;-0.0007244993315723382
5.63150e-06;-0.0007970375148758881
5.63175e-06;-0.0008667278562722571
5.63200e-06;-0.0009317450859168388
5.63225e-06;-0.000994110711999796
5.63250e-06;-0.001049153926631653
5.63275e-06;-0.0010993214215508041
5.63300e-06;-0.0011456021475218824
5.63325e-06;-0.0011855049542697223
5.63350e-06;-0.0012214160568456004
5.63375e-06;-0.0012507770487482498
5.63400e-06;-0.0012759202221207782
5.63425e-06;-0.001294142246785061
5.63450e-06;-0.0013080433250233483
5.63475e-06;-0.0013148540288038734
5.63500e-06;-0.0013176364630824726
5.63525e-06;-0.001313808785508464
5.63550e-06;-0.0013061779830051388
5.63575e-06;-0.0012923065153328504
5.63600e-06;-0.0012747812697330564
5.63625e-06;-0.001251260427072838
5.63650e-06;-0.0012243120310464484
5.63675e-06;-0.0011917392568298053
5.63700e-06;-0.0011562131765079113
5.63725e-06;-0.0011158409249749394
5.63750e-06;-0.001072947186471753
5.63775e-06;-0.0010259158621149587
5.63800e-06;-0.0009767473504227984
5.63825e-06;-0.0009240718620176904
5.63850e-06;-0.000870048966548696
5.63875e-06;-0.0008131004032504583
5.63900e-06;-0.0007544248018005443
5.63925e-06;-0.0006944288059663786
5.63950e-06;-0.0006334807302708868
5.63975e-06;-0.0005719312979114481
5.64000e-06;-0.0005101312572328532
5.64025e-06;-0.0004484313164549351
5.64050e-06;-0.0003871917132450432
5.64075e-06;-0.00032681041134537933
5.64100e-06;-0.0002677301413594547
5.64125e-06;-0.0002103972563491344
5.64150e-06;-0.00015523411523993096
5.64175e-06;-0.00010265201414023657
5.64200e-06;-5.306221553425596e-05
5.64225e-06;-6.875753500480307e-06
5.64250e-06;3.5738855925731633e-05
5.64275e-06;7.547436545354497e-05
5.64300e-06;0.0001137742177278171
5.64325e-06;0.00015161934555000457
5.64350e-06;0.00018904745462524264
5.64375e-06;0.00022551381897601544
5.64400e-06;0.000261024450254293
5.64425e-06;0.0002954418354706998
5.64450e-06;0.0003280652794561682
5.64475e-06;0.00036029243005527515
5.64500e-06;0.0003918692905961321
5.64525e-06;0.00042344615113709596
5.64550e-06;0.0004548926122320332
5.64575e-06;0.00048612509684837243
5.64600e-06;0.0005173575814648175
5.64625e-06;0.0005485900660811567
5.64650e-06;0.0005798225506974959
5.64675e-06;0.0006107565881646918
5.64700e-06;0.0006412008944861339
5.64725e-06;0.0006716452008075761
5.64750e-06;0.0007020895071291213
5.64775e-06;0.0007325338134505635
5.64800e-06;0.0007627248029239773
5.64825e-06;0.0007925001169571097
5.64850e-06;0.0008222754309901412
5.64875e-06;0.0008517053360002037
5.64900e-06;0.0008805684486752298
5.64925e-06;0.0009093103271141333
5.64950e-06;0.0009378532685504015
5.64975e-06;0.0009660209249509439
5.65000e-06;0.0009935727645447418
5.65025e-06;0.0010204879838902506
5.65050e-06;0.001046358553406224
5.65075e-06;0.0010717273690115745
5.65100e-06;0.0010959883412596672
5.65125e-06;0.0011194664509844886
5.65150e-06;0.0011420457970844954
5.65175e-06;0.0011635568347700082
5.65200e-06;0.0011838300791604877
5.65225e-06;0.0012026959538098867
5.65250e-06;0.001219833442009063
5.65275e-06;0.0012344074283229538
5.65300e-06;0.0012452095714761923
5.65325e-06;0.0012514588967213855
5.65350e-06;0.0012530469655085239
5.65375e-06;0.0012501006987913625
5.65400e-06;0.0012427470050989033
5.65425e-06;0.0012311128777190684
5.65450e-06;0.0012143048783527651
5.65475e-06;0.001193290865025107
5.65500e-06;0.001168328898085176
5.65525e-06;0.0011368886121192693
5.65550e-06;0.0011016934260225323
5.65575e-06;0.001060336708320531
5.65600e-06;0.0010156988197946339
5.65625e-06;0.0009656767567162751
5.65650e-06;0.0009126762502449931
5.65675e-06;0.0008547883240127272
5.65700e-06;0.0007939061182276016
5.65725e-06;0.0007281105066372316
5.65750e-06;0.0006597947745926266
5.65775e-06;0.0005873436990536337
5.65800e-06;0.0005134087521698295
5.65825e-06;0.00043626624226704533
5.65850e-06;0.00035720853047407626
5.65875e-06;0.00027650101806591445
5.65900e-06;0.00019431744629070969
5.65925e-06;0.00011093657631692681
5.65950e-06;2.6802470567116196e-05
5.65975e-06;-5.7583023791265643e-05
5.66000e-06;-0.00014171810776824912
5.66025e-06;-0.00022510105909048312
5.66050e-06;-0.00030725350620698855
5.66075e-06;-0.00038777627022125536
5.66100e-06;-0.0004663276410123019
5.66125e-06;-0.0005425001405670948
5.66150e-06;-0.0006157828059903561
5.66175e-06;-0.0006856284993954952
5.66200e-06;-0.0007514900987248557
5.66225e-06;-0.0008128206706702007
5.66250e-06;-0.0008691305495741316
5.66275e-06;-0.0009201579741787973
5.66300e-06;-0.0009659190960809827
5.66325e-06;-0.001006467271544965
5.66350e-06;-0.0010417217600555092
5.66375e-06;-0.0010715378008617083
5.66400e-06;-0.0010957709666301464
5.66425e-06;-0.0011142768582806965
5.66450e-06;-0.0011269468864708945
5.66475e-06;-0.0011327878725895394
5.66500e-06;-0.0011334045245492566
5.66525e-06;-0.0011300294502949572
5.66550e-06;-0.0011201042292019582
5.66575e-06;-0.0011063625045432453
5.66600e-06;-0.0010863581613017922
5.66625e-06;-0.0010627116555196447
5.66650e-06;-0.0010330886127274627
5.66675e-06;-0.0010001817542410207
5.66700e-06;-0.0009618863811532717
5.66725e-06;-0.0009207969451833641
5.66750e-06;-0.0008751226451292758
5.66775e-06;-0.0008270640938048066
5.66800e-06;-0.0007750931509273975
5.66825e-06;-0.0007215853621600819
5.66850e-06;-0.0006646792936925949
5.66875e-06;-0.0006056062175109187
5.66900e-06;-0.0005447700280418203
5.66925e-06;-0.0004825836730908282
5.66950e-06;-0.00041942713785758325
5.66975e-06;-0.0003556646567806813
5.67000e-06;-0.00029166046429785836
5.67025e-06;-0.0002277787948477154
5.67050e-06;-0.00016439266053105942
5.67075e-06;-0.00010191011523930655
5.67100e-06;-4.078197080888432e-05
5.67125e-06;1.853531962453379e-05
5.67150e-06;7.560600058811072e-05
5.67175e-06;0.00013000419770891028
5.67200e-06;0.00018130407613771503
5.67225e-06;0.00022907983376707408
5.67250e-06;0.0002729070085130501
5.67275e-06;0.0003123890141379385
5.67300e-06;0.00034722820780398565
5.67325e-06;0.00037726206420819866
5.67350e-06;0.00040240637867808304
5.67375e-06;0.00042259243000674246
5.67400e-06;0.0004377515662150432
5.67425e-06;0.0004478151785544045
5.67450e-06;0.00045271551079564094
5.67475e-06;0.0004524022918751389
5.67500e-06;0.00044688719398852943
5.67525e-06;0.00043626657153656107
5.67550e-06;0.0004206858079717634
5.67575e-06;0.00040030003066743845
5.67600e-06;0.0003752643881868469
5.67625e-06;0.00034573399688301443
5.67650e-06;0.0003118645602905998
5.67675e-06;0.0002738227145875646
5.67700e-06;0.00023181386806321564
5.67725e-06;0.0001860965014679505
5.67750e-06;0.0001369597833178978
5.67775e-06;8.469893283802955e-05
5.67800e-06;2.96091729976107e-05
5.67825e-06;-2.8014266117101425e-05
5.67850e-06;-8.787585291567625e-05
5.67875e-06;-0.00014967320958715987
5.67900e-06;-0.00021327186776621038
5.67925e-06;-0.00027805076614340133
5.67950e-06;-0.0003433074456218823
5.67975e-06;-0.0004093481308670286
5.68000e-06;-0.00047538881611239867
5.68025e-06;-0.0005408417010040451
5.68050e-06;-0.0006053300461402902
5.68075e-06;-0.0006698183912767538
5.68100e-06;-0.0007328136116958626
5.68125e-06;-0.0007933587176486321
5.68150e-06;-0.0008519492535296325
5.68175e-06;-0.0009073324750087652
5.68200e-06;-0.0009600985754193845
5.68225e-06;-0.0010085701610341555
5.68250e-06;-0.0010538376297080515
5.68275e-06;-0.0010938473639289898
5.68300e-06;-0.0011304070413446126
5.68325e-06;-0.0011613054139873085
5.68350e-06;-0.001188632638852523
5.68375e-06;-0.0012100998570280534
5.68400e-06;-0.0012278577329598909
5.68425e-06;-0.0012395288346343679
5.68450e-06;-0.0012473996986937504
5.68475e-06;-0.0012490346354734878
5.68500e-06;-0.0012469921006949569
5.68525e-06;-0.0012389150892512823
5.68550e-06;-0.0012273616384224416
5.68575e-06;-0.0012101035908304882
5.68600e-06;-0.0011895593140994144
5.68625e-06;-0.0011636225624729825
5.68650e-06;-0.0011346195247020443
5.68675e-06;-0.0011005849232893308
5.68700e-06;-0.0010638376989542653
5.68725e-06;-0.0010226392478822877
5.68750e-06;-0.0009791308553706716
5.68775e-06;-0.0009318320086041588
5.68800e-06;-0.0008826190692994892
5.68825e-06;-0.0008302652364287674
5.68850e-06;-0.0007767285955795428
5.68875e-06;-0.0007206172715726369
5.68900e-06;-0.0006629650910019503
5.68925e-06;-0.0006041234868742838
5.68950e-06;-0.0005444424335206785
5.68975e-06;-0.00048426822554840124
5.69000e-06;-0.0004239470499143315
5.69025e-06;-0.0003638251619530686
5.69050e-06;-0.00030425213100039697
5.69075e-06;-0.00024559278225657195
5.69100e-06;-0.00018823609238133627
5.69125e-06;-0.00013258464619344778
5.69150e-06;-7.90400324581066e-05
5.69175e-06;-2.8001500947147345e-05
5.69200e-06;2.0131749874982134e-05
5.69225e-06;6.496062134281528e-05
5.69250e-06;0.00010617557312291818
5.69275e-06;0.00014379855971358206
5.69300e-06;0.000178184079678581
5.69325e-06;0.00020959628345662993
5.69350e-06;0.00023799977607684715
