Time(s);Current(A)
5.75000e-06;-0.0032264452909597507
5.75025e-06;-0.0032253154802614164
5.75050e-06;-0.00322812625796343
5.75075e-06;-0.0032333767441982556
5.75100e-06;-0.0032386272304330993
5.75125e-06;-0.003243877716667925
5.75150e-06;-0.0032500449665682023
5.75175e-06;-0.003263089846650407
5.75200e-06;-0.0032761347267326124
5.75225e-06;-0.0032891796068148615
5.75250e-06;-0.0033022244868970664
5.75275e-06;-0.003319041898378372
5.75300e-06;-0.0033381949704538536
5.75325e-06;-0.0033573480425292696
5.75350e-06;-0.003376501114604686
5.75375e-06;-0.003395654186680167
5.75400e-06;-0.0034151812901653564
5.75425e-06;-0.0034375144055046286
5.75450e-06;-0.0034598475208439763
5.75475e-06;-0.003482180636183249
5.75500e-06;-0.003504513751522521
5.75525e-06;-0.003526846866861869
5.75550e-06;-0.0035491174289942456
5.75575e-06;-0.0035713492630036108
5.75600e-06;-0.0035929357923784977
5.75625e-06;-0.0036141227988743907
5.75650e-06;-0.0036342527999742094
5.75675e-06;-0.0036537283848239246
5.75700e-06;-0.003671761507102558
5.75725e-06;-0.003688901567765839
5.75750e-06;-0.003703718052410268
5.75775e-06;-0.0037170959579231173
5.75800e-06;-0.003730473863436012
5.75825e-06;-0.0037407048393400585
5.75850e-06;-0.0037489874790471865
5.75875e-06;-0.003757270118754343
5.75900e-06;-0.003762235281488546
5.75925e-06;-0.0037651465182465794
5.75950e-06;-0.0037680577550046226
5.75975e-06;-0.0037664879580344463
5.76000e-06;-0.003762143850451266
5.76025e-06;-0.0037577997428681013
5.76050e-06;-0.003753455635284936
5.76075e-06;-0.003749111527701756
5.76100e-06;-0.003739748841038998
5.76125e-06;-0.003727279037124571
5.76150e-06;-0.0037148092332101004
5.76175e-06;-0.003702339429295673
5.76200e-06;-0.003689869625381245
5.76225e-06;-0.0036736305329860006
5.76250e-06;-0.0036550577877621677
5.76275e-06;-0.0036364850425383345
5.76300e-06;-0.0036179122973144383
5.76325e-06;-0.0035989074752193237
5.76350e-06;-0.0035766611798400474
5.76375e-06;-0.003554414884460696
5.76400e-06;-0.00353216858908142
5.76425e-06;-0.0035099222937020683
5.76450e-06;-0.0034869413376705707
5.76475e-06;-0.0034634142231009138
5.76500e-06;-0.003439820795942146
5.76525e-06;-0.00341629307116938
5.76550e-06;-0.0033929634951589127
5.76575e-06;-0.0033699672259856375
5.76600e-06;-0.003347446399655609
5.76625e-06;-0.0033255496989314966
5.76650e-06;-0.003304428484242052
5.76675e-06;-0.0032842339859651794
5.76700e-06;-0.0032655157651766183
5.76725e-06;-0.003247478491628014
5.76750e-06;-0.003231082556708489
5.76775e-06;-0.0032157028121266107
5.76800e-06;-0.0032015251676208462
5.76825e-06;-0.0031880917708045926
5.76850e-06;-0.003176017767818078
5.76875e-06;-0.003164785396686499
5.76900e-06;-0.0031535530255549196
5.76925e-06;-0.0031442637823172414
5.76950e-06;-0.0031361775740631425
5.76975e-06;-0.0031280913658090436
5.77000e-06;-0.0031222857372317225
5.77025e-06;-0.0031178920677655446
5.77050e-06;-0.003113498398299367
5.77075e-06;-0.003109104728833175
5.77100e-06;-0.003104711059366997
5.77125e-06;-0.0031003173899008195
5.77150e-06;-0.00309844895265403
5.77175e-06;-0.0030981439445108435
5.77200e-06;-0.003097838936367657
5.77225e-06;-0.0030975339282244695
5.77250e-06;-0.003097228920081283
5.77275e-06;-0.003096923911938095
5.77300e-06;-0.003098402378922719
5.77325e-06;-0.003100985036206689
5.77350e-06;-0.003103567693490668
5.77375e-06;-0.0031061503507746383
5.77400e-06;-0.0031087330080586087
5.77425e-06;-0.0031113156653425874
5.77450e-06;-0.0031138983226265578
5.77475e-06;-0.0031172027350407578
5.77500e-06;-0.0031209540025867602
5.77525e-06;-0.0031247052701327497
5.77550e-06;-0.0031284565376787396
5.77575e-06;-0.0031322078052247416
5.77600e-06;-0.003135959072770731
5.77625e-06;-0.003139710340316721
5.77650e-06;-0.0031432451778753987
5.77675e-06;-0.003146646018671929
5.77700e-06;-0.003149841009087568
5.77725e-06;-0.0031527454830783132
5.77750e-06;-0.00315542647885329
5.77775e-06;-0.0031582269019710847
5.77800e-06;-0.003161829123309248
5.77825e-06;-0.003167163284327302
5.77850e-06;-0.0031733087327512448
5.77875e-06;-0.003181014560136534
5.77900e-06;-0.0031896864538747444
5.77925e-06;-0.003199679370682625
5.77950e-06;-0.0032104901631287617
5.77975e-06;-0.0032234317910232128
5.78000e-06;-0.003237692667947061
5.78025e-06;-0.0032519535448708604
5.78050e-06;-0.0032701724383777976
5.78075e-06;-0.0032908418306032785
5.78100e-06;-0.003311511222828689
5.78125e-06;-0.00333218061505417
5.78150e-06;-0.003352850007279581
5.78175e-06;-0.0033742921786714766
5.78200e-06;-0.003401531797663841
5.78225e-06;-0.003428771416656113
5.78250e-06;-0.003456011035648385
5.78275e-06;-0.003483250654640749
5.78300e-06;-0.003510490273633021
5.78325e-06;-0.003540131489117769
5.78350e-06;-0.003571259587995642
5.78375e-06;-0.00360238768687341
5.78400e-06;-0.0036335157857511776
5.78425e-06;-0.003664643884629051
5.78450e-06;-0.0036957719835068186
5.78475e-06;-0.003726613751670792
5.78500e-06;-0.003757278245932042
5.78525e-06;-0.0037879427401931874
5.78550e-06;-0.0038186072344544367
5.78575e-06;-0.0038492717287155823
5.78600e-06;-0.003879936222976728
5.78625e-06;-0.00390825633808318
5.78650e-06;-0.003935124994360837
5.78675e-06;-0.003961993650638493
5.78700e-06;-0.003985972204956272
5.78725e-06;-0.0040081614309577735
5.78750e-06;-0.0040303506569592746
5.78775e-06;-0.004049062020523317
5.78800e-06;-0.004065620159797835
5.78825e-06;-0.0040821782990723525
5.78850e-06;-0.0040932052009838025
5.78875e-06;-0.00410080758716039
5.78900e-06;-0.004108409973336979
5.78925e-06;-0.004116012359513593
5.78950e-06;-0.004123614745690181
5.78975e-06;-0.004131217131866795
5.79000e-06;-0.004137417516133372
5.79025e-06;-0.004133099976317654
5.79050e-06;-0.0041287824365019215
5.79075e-06;-0.004124464896686203
5.79100e-06;-0.004120147356870485
5.79125e-06;-0.004115829817054752
5.79150e-06;-0.004111512277239034
5.79175e-06;-0.004101511362843998
5.79200e-06;-0.0040879917410793325
5.79225e-06;-0.004074472119314713
5.79250e-06;-0.004060952497550092
5.79275e-06;-0.004047432875785426
5.79300e-06;-0.004033913254020806
5.79325e-06;-0.0040170758676814355
5.79350e-06;-0.003998184377306369
5.79375e-06;-0.0039792928869313675
5.79400e-06;-0.003960401396556301
5.79425e-06;-0.003941509906181299
5.79450e-06;-0.003922618415806297
5.79475e-06;-0.0039028112519356156
5.79500e-06;-0.00388243717363204
5.79525e-06;-0.0038620630953284645
5.79550e-06;-0.003841844824840216
5.79575e-06;-0.0038217230185390396
5.79600e-06;-0.003802139313617847
5.79625e-06;-0.0037828887595851577
5.79650e-06;-0.0037645309189055427
5.79675e-06;-0.003746725777508722
5.79700e-06;-0.0037305041429832693
5.79725e-06;-0.0037152628938292576
5.79750e-06;-0.0037000216446752463
5.79775e-06;-0.003688089071905996
5.79800e-06;-0.0036782049764656857
5.79825e-06;-0.0036683208810253417
5.79850e-06;-0.003658436785585031
5.79875e-06;-0.0036485526901447207
5.79900e-06;-0.0036386685947043767
5.79925e-06;-0.003628784499264066
5.79950e-06;-0.0036197163390058215
5.79975e-06;-0.003616769386027042
5.80000e-06;-0.0036138224330482726
5.80025e-06;-0.0036108754800695036
5.80050e-06;-0.003607928527090724
5.80075e-06;-0.003604981574111955
5.80100e-06;-0.0036020346211331857
5.80125e-06;-0.0035990876681544063
5.80150e-06;-0.0035996965637130752
5.80175e-06;-0.00360250696654118
5.80200e-06;-0.0036053173693692945
5.80225e-06;-0.0036081277721973994
5.80250e-06;-0.0036109381750255138
5.80275e-06;-0.0036137485778536186
5.80300e-06;-0.0036165589806817235
5.80325e-06;-0.003619369383509838
5.80350e-06;-0.00362253922131502
5.80375e-06;-0.003628405567428841
5.80400e-06;-0.0036342719135426813
5.80425e-06;-0.0036401382596565023
5.80450e-06;-0.0036460046057703232
5.80475e-06;-0.0036518709518841637
5.80500e-06;-0.0036577372979979847
5.80525e-06;-0.0036636036441118056
5.80550e-06;-0.0036694699902256466
5.80575e-06;-0.0036749117865821266
5.80600e-06;-0.00368009073446036
5.80625e-06;-0.0036852696823386115
5.80650e-06;-0.0036904486302168447
5.80675e-06;-0.003695627578095096
5.80700e-06;-0.003700806525973329
5.80725e-06;-0.0037059854738515628
5.80750e-06;-0.0037111644217298137
5.80775e-06;-0.003715719629234745
5.80800e-06;-0.003715595489413917
5.80825e-06;-0.003715471349593088
5.80850e-06;-0.00371534720977226
5.80875e-06;-0.003715223069951432
5.80900e-06;-0.003715098930130603
5.80925e-06;-0.003714974790309775
5.80950e-06;-0.003714850650488947
5.80975e-06;-0.0037147265106681183
5.81000e-06;-0.0037104731655643215
5.81025e-06;-0.0037036633348987314
5.81050e-06;-0.0036968535042331183
5.81075e-06;-0.003690043673567528
5.81100e-06;-0.003683233842901915
5.81125e-06;-0.003676424012236325
5.81150e-06;-0.0036690390343561002
5.81175e-06;-0.0036573392586923574
5.81200e-06;-0.0036456394830286544
5.81225e-06;-0.003633939707364952
5.81250e-06;-0.003622239931701209
5.81275e-06;-0.003610540156037506
5.81300e-06;-0.003598840380373803
5.81325e-06;-0.003585415788060717
5.81350e-06;-0.0035709233222566963
5.81375e-06;-0.003556430856452676
5.81400e-06;-0.0035419383906486065
5.81425e-06;-0.0035274459248445856
5.81450e-06;-0.003512953459040565
5.81475e-06;-0.0034983330347798697
5.81500e-06;-0.0034836333885081045
5.81525e-06;-0.00346893374223629
5.81550e-06;-0.0034542340959645246
5.81575e-06;-0.0034395344496927593
5.81600e-06;-0.0034248348034209442
5.81625e-06;-0.0034109396489104826
5.81650e-06;-0.003397542573674639
5.81675e-06;-0.0033846811552107354
5.81700e-06;-0.0033725856515591187
5.81725e-06;-0.0033612511042425686
5.81750e-06;-0.0033511472213239965
5.81775e-06;-0.003341616648171991
5.81800e-06;-0.0033338302309897697
5.81825e-06;-0.0033271236607146193
5.81850e-06;-0.0033223621356738417
5.81875e-06;-0.003318804832684776
5.81900e-06;-0.0033171624487303994
5.81925e-06;-0.0033167056350075505
5.81950e-06;-0.003318698510321809
5.81975e-06;-0.0033222080442238183
5.82000e-06;-0.0033257175781258273
5.82025e-06;-0.003333526842118406
5.82050e-06;-0.0033439981674860987
5.82075e-06;-0.003354469492853791
5.82100e-06;-0.0033649408182215186
5.82125e-06;-0.003375412143589211
5.82150e-06;-0.0033867643049627417
5.82175e-06;-0.0034047245644843465
5.82200e-06;-0.0034226848240058905
5.82225e-06;-0.003440645083527434
5.82250e-06;-0.003458605343049039
5.82275e-06;-0.003476565602570583
5.82300e-06;-0.0034977334372905426
5.82325e-06;-0.0035208871552784397
5.82350e-06;-0.0035440408732662584
5.82375e-06;-0.003567194591254155
5.82400e-06;-0.0035903483092419738
5.82425e-06;-0.0036135020272297924
5.82450e-06;-0.0036367584437578494
5.82475e-06;-0.0036607853124794565
5.82500e-06;-0.0036848121812010637
5.82525e-06;-0.0037088390499227524
5.82550e-06;-0.00373286591864436
5.82575e-06;-0.003756892787365967
5.82600e-06;-0.0037809196560876558
5.82625e-06;-0.003802598621927558
5.82650e-06;-0.0038228239473199026
5.82675e-06;-0.0038430492727123157
5.82700e-06;-0.0038632745981046603
5.82725e-06;-0.00388292241320071
5.82750e-06;-0.0038982377024994615
5.82775e-06;-0.003913552991798161
5.82800e-06;-0.003928868281096912
5.82825e-06;-0.0039441835703956105
5.82850e-06;-0.003957997650249421
5.82875e-06;-0.003970882296954119
5.82900e-06;-0.003983766943658774
5.82925e-06;-0.003996651590363429
5.82950e-06;-0.004009536237068127
5.82975e-06;-0.004022420883772782
5.83000e-06;-0.004035305530477437
5.83025e-06;-0.004047821049979193
5.83050e-06;-0.004057961000288198
5.83075e-06;-0.004068100950597203
5.83100e-06;-0.004078240900906243
5.83125e-06;-0.0040883808512152476
5.83150e-06;-0.004098520801524253
5.83175e-06;-0.004108660751833293
5.83200e-06;-0.004118800702142297
5.83225e-06;-0.004130945790220681
5.83250e-06;-0.005349159285653597
5.83275e-06;-0.03021686263034391
5.83300e-06;-0.02451452648958709
5.83325e-06;-0.019606091624711216
5.83350e-06;-0.01452832222187327
5.83375e-06;0.003979378430735459
5.83400e-06;0.0023206065672058953
5.83425e-06;0.0005045081218070651
5.83450e-06;-0.003995525715241265
5.83475e-06;-0.010374963309211196
5.83500e-06;-0.01270525131442117
5.83525e-06;-0.010799087832196502
5.83550e-06;-0.006545244854649942
5.83575e-06;-0.001528218623229876
5.83600e-06;0.0006993645895912025
5.83625e-06;-5.678319401113889e-05
5.83650e-06;-0.003151219636572643
5.83675e-06;-0.007266036684618658
5.83700e-06;-0.00881776507358653
5.83725e-06;-0.0076955702325142315
5.83750e-06;-0.005087461871807803
5.83775e-06;-0.0019894214421163087
5.83800e-06;-0.0006290455966682728
5.83825e-06;-0.0011296124570396972
5.83850e-06;-0.0030881978242463964
5.83875e-06;-0.005680447951197257
5.83900e-06;-0.006662716537849156
5.83925e-06;-0.005966497918577814
5.83950e-06;-0.0043366850146179785
5.83975e-06;-0.002397695244146888
5.84000e-06;-0.0015452414641694487
5.84025e-06;-0.0018567538092066538
5.84050e-06;-0.003080003678477821
5.84075e-06;-0.004698772642215817
5.84100e-06;-0.005307855741355363
5.84125e-06;-0.004864595750520858
5.84150e-06;-0.0038358090102792557
5.84175e-06;-0.002612794109941266
5.84200e-06;-0.0020699187601120506
5.84225e-06;-0.0022557306882053656
5.84250e-06;-0.003012278406181331
5.84275e-06;-0.004016265356003536
5.84300e-06;-0.004387586197277134
5.84325e-06;-0.004099672292153441
5.84350e-06;-0.0034450749598209335
5.84375e-06;-0.002669014668038396
5.84400e-06;-0.002319268533708553
5.84425e-06;-0.0024262937879363706
5.84450e-06;-0.0028911993983417724
5.84475e-06;-0.0035115353698336083
5.84500e-06;-0.00373610163352881
5.84525e-06;-0.00354837813015325
5.84550e-06;-0.003131732766417118
5.84575e-06;-0.0026398704252101218
5.84600e-06;-0.002415993845185917
5.84625e-06;-0.0024792405426354415
5.84650e-06;-0.002767726711356233
5.84675e-06;-0.0031547075394883256
5.84700e-06;-0.003295003259446596
5.84725e-06;-0.003178373076228455
5.84750e-06;-0.002919750403542241
5.84775e-06;-0.0026153315736160095
5.84800e-06;-0.0024798048616407544
5.84825e-06;-0.002524858388167706
5.84850e-06;-0.0027115953147465776
5.84875e-06;-0.0029605760469611003
5.84900e-06;-0.0030555478279791193
5.84925e-06;-0.002990073079022499
5.84950e-06;-0.002836120096113836
5.84975e-06;-0.0026539142608812257
5.85000e-06;-0.002577895428683613
5.85025e-06;-0.0026153379190775334
5.85050e-06;-0.002741830014518102
5.85075e-06;-0.002907567948709772
5.85100e-06;-0.0029770562889755935
5.85125e-06;-0.0029462344263227885
5.85150e-06;-0.002860152953487165
5.85175e-06;-0.0027565029838632696
5.85200e-06;-0.002719457882503142
5.85225e-06;-0.0027535304308469516
5.85250e-06;-0.0028433858373036317
5.85275e-06;-0.002957786012252181
5.85300e-06;-0.003011821259557323
5.85325e-06;-0.0030029158127814442
5.85350e-06;-0.002959256277317802
5.85375e-06;-0.0029044169870070403
5.85400e-06;-0.002891084819337757
5.85425e-06;-0.0029220451706252503
5.85450e-06;-0.0029876513510452064
5.85475e-06;-0.0030682958670932865
5.85500e-06;-0.0031107547028115276
5.85525e-06;-0.0031133802697575776
5.85550e-06;-0.003093793764686421
5.85575e-06;-0.003066725825778435
5.85600e-06;-0.0030651408430855272
5.85625e-06;-0.003090743555795462
5.85650e-06;-0.003137451070242813
5.85675e-06;-0.0031929422553715345
5.85700e-06;-0.0032238405892437106
5.85725e-06;-0.003229078647113814
5.85750e-06;-0.0032196437357002203
5.85775e-06;-0.0032046495034663285
5.85800e-06;-0.003204574452973947
5.85825e-06;-0.003220377802186969
5.85850e-06;-0.003248261872380199
5.85875e-06;-0.003280570295856607
5.85900e-06;-0.0032964592872727805
5.85925e-06;-0.0032953239989559472
5.85950e-06;-0.003284110909735746
5.85975e-06;-0.0032685921453710002
5.86000e-06;-0.0032616574641875402
5.86025e-06;-0.0032639695218681214
5.86050e-06;-0.003273211119357681
5.86075e-06;-0.0032846486934256284
5.86100e-06;-0.00328528841644086
5.86125e-06;-0.00327481489067658
5.86150e-06;-0.003257642622463813
5.86175e-06;-0.0032374503689504798
5.86200e-06;-0.0032223744318257727
5.86225e-06;-0.003212891817142482
5.86250e-06;-0.0032076131339987633
5.86275e-06;-0.003203635494765728
5.86300e-06;-0.003192882072443886
5.86325e-06;-0.00317521868968238
5.86350e-06;-0.0031534733537085195
5.86375e-06;-0.0031300129420295916
5.86400e-06;-0.003109996475114884
5.86425e-06;-0.0030937849072412665
5.86450e-06;-0.003080054888129967
5.86475e-06;-0.0030673977486796555
5.86500e-06;-0.003052864460681742
5.86525e-06;-0.003033355750904735
5.86550e-06;-0.003011903265391607
5.86575e-06;-0.0029900522589542166
5.86600e-06;-0.002971096690579659
5.86625e-06;-0.0029553243878827724
5.86650e-06;-0.0029421143187943724
5.86675e-06;-0.0029305477580789355
5.86700e-06;-0.002918261395522574
5.86725e-06;-0.0029044637732126557
5.86750e-06;-0.0028910432596920177
5.86775e-06;-0.002877622746171334
5.86800e-06;-0.002865348402180592
5.86825e-06;-0.002856531692475834
5.86850e-06;-0.0028495584146983766
5.86875e-06;-0.0028425851369209432
5.86900e-06;-0.0028353058435734405
5.86925e-06;-0.0028274132963029912
5.86950e-06;-0.002819749054785408
5.86975e-06;-0.002812084813267824
5.87000e-06;-0.002805134748133285
5.87025e-06;-0.0028003370045249602
5.87050e-06;-0.0027966829604034564
5.87075e-06;-0.0027930289162819404
5.87100e-06;-0.00278916514295394
5.87125e-06;-0.002784813771054678
5.87150e-06;-0.002780900078449741
5.87175e-06;-0.002778003944639459
5.87200e-06;-0.0027751078108291674
5.87225e-06;-0.0027722116770188855
5.87250e-06;-0.002769315543208604
5.87275e-06;-0.002766735466760794
5.87300e-06;-0.0027648901907775794
5.87325e-06;-0.002763044914794365
5.87350e-06;-0.0027611996388111444
5.87375e-06;-0.00275935436282793
5.87400e-06;-0.002757785999423749
5.87425e-06;-0.0027568614289377965
5.87450e-06;-0.0027560181902788043
5.87475e-06;-0.0027553640396504224
5.87500e-06;-0.002754709889022039
5.87525e-06;-0.002754055738393657
5.87550e-06;-0.0027534015877652735
5.87575e-06;-0.0027530327759050554
5.87600e-06;-0.0027527349596417508
5.87625e-06;-0.002752437143378445
5.87650e-06;-0.0027521393271151403
5.87675e-06;-0.002751936334440773
5.87700e-06;-0.00275188895224982
5.87725e-06;-0.0027516726765224914
5.87750e-06;-0.0027514488275724833
5.87775e-06;-0.002751564921905796
5.87800e-06;-0.0027527036869548333
5.87825e-06;-0.002755259190413763
5.87850e-06;-0.0027594302805332765
5.87875e-06;-0.0027649690887151584
5.87900e-06;-0.002771115096212484
5.87925e-06;-0.002778672778905514
5.87950e-06;-0.0027871469910692127
5.87975e-06;-0.0027977520388366094
5.88000e-06;-0.0028083570866039706
5.88025e-06;-0.0028207358949180533
5.88050e-06;-0.002837238511845137
5.88075e-06;-0.0028537411287721647
5.88100e-06;-0.0028702437456991923
5.88125e-06;-0.002886746362626276
5.88150e-06;-0.0029050001168894955
5.88175e-06;-0.002927325083156247
5.88200e-06;-0.002949650049423074
5.88225e-06;-0.0029719750156898253
5.88250e-06;-0.0029942999819565766
5.88275e-06;-0.0030179447016427646
5.88300e-06;-0.0030446577106351385
5.88325e-06;-0.0030713707196275124
5.88350e-06;-0.003098083728619977
5.88375e-06;-0.003124796737612351
5.88400e-06;-0.0031515097466048156
5.88425e-06;-0.0031785265653342773
5.88450e-06;-0.0032062497100741436
5.88475e-06;-0.0032339728548141035
5.88500e-06;-0.0032616959995539698
5.88525e-06;-0.003289419144293836
5.88550e-06;-0.0033171422890337964
5.88575e-06;-0.003344194113575526
5.88600e-06;-0.0033696851885448974
5.88625e-06;-0.0033951762635143546
5.88650e-06;-0.0034184281705039073
5.88675e-06;-0.0034364742450507806
5.88700e-06;-0.0034545203195977155
5.88725e-06;-0.003472566394144589
5.88750e-06;-0.0034906124686914625
5.88775e-06;-0.0035086585432383974
5.88800e-06;-0.0035267046177852707
5.88825e-06;-0.0035447506923322056
5.88850e-06;-0.0035627967668790794
5.88875e-06;-0.0035808428414259527
5.88900e-06;-0.0035963670675689084
5.88925e-06;-0.003606028258712004
5.88950e-06;-0.0036156894498550994
5.88975e-06;-0.0036253506409982274
5.89000e-06;-0.003635011832141323
5.89025e-06;-0.0036446730232844184
5.89050e-06;-0.003654334214427547
5.89075e-06;-0.0036639954055706424
5.89100e-06;-0.003673656596713738
5.89125e-06;-0.003683317787856866
5.89150e-06;-0.003691464740826746
5.89175e-06;-0.003696091247685291
5.89200e-06;-0.003700717754543852
5.89225e-06;-0.003705344261402397
5.89250e-06;-0.003709970768260958
5.89275e-06;-0.0037145972751195027
5.89300e-06;-0.003719223781978048
5.89325e-06;-0.003723850288836609
5.89350e-06;-0.003728476795695154
5.89375e-06;-0.0037331033025536993
5.89400e-06;-0.00373772980941226
5.89425e-06;-0.003742356316270805
5.89450e-06;-0.003744803740380839
5.89475e-06;-0.003746708983414794
