Time(s);Current(A)
1.32500e-05;0.007925890709241091
1.32503e-05;0.007942960800540563
1.32505e-05;0.007960030891840036
1.32508e-05;0.007977100983139392
1.32510e-05;0.007994171074438864
1.32513e-05;0.008011241165738337
1.32515e-05;0.008028311257037693
1.32518e-05;0.008045381348337165
1.32520e-05;0.008056943451060642
1.32523e-05;0.00806685375805736
1.32525e-05;0.008076764065054145
1.32528e-05;0.008086674372050929
1.32530e-05;0.008096584679047647
1.32533e-05;0.00810649498604443
1.32535e-05;0.008116405293041215
1.32538e-05;0.008126315600037999
1.32540e-05;0.008136225907034717
1.32543e-05;0.008128820678376746
1.32545e-05;0.008116222677909905
1.32548e-05;0.008103624677443147
1.32550e-05;0.008091026676976304
1.32553e-05;0.008078428676509462
1.32555e-05;0.008065830676042704
1.32558e-05;0.008053232675575861
1.32560e-05;0.008040634675109019
1.32563e-05;0.008028036674642263
1.32565e-05;0.007994901049240591
1.32568e-05;0.007955606376731556
1.32570e-05;0.007916311704222788
1.32573e-05;0.007877017031713753
1.32575e-05;0.00783772235920472
1.32578e-05;0.007798427686695951
1.32580e-05;0.007759133014186917
1.32583e-05;0.007719838341677882
1.32585e-05;0.007680543669169114
1.32588e-05;0.007641248996660079
1.32590e-05;0.00759869151305622
1.32593e-05;0.007547280732990033
1.32595e-05;0.0074958699529234975
1.32598e-05;0.007444459172856962
1.32600e-05;0.007393048392790775
1.32603e-05;0.007341637612724239
1.32605e-05;0.0072902268326577035
1.32608e-05;0.0072388160525915166
1.32610e-05;0.007187405272524981
1.32613e-05;0.007135994492458445
1.32615e-05;0.007084583712392258
1.32618e-05;0.00704288197917469
1.32620e-05;0.007004091900888796
1.32623e-05;0.0069653018226029035
1.32625e-05;0.0069265117443172725
1.32628e-05;0.00688772166603138
1.32630e-05;0.006848931587745486
1.32633e-05;0.006810141509459856
1.32635e-05;0.006771351431173962
1.32638e-05;0.006740821374401779
1.32640e-05;0.006732704021625153
1.32643e-05;0.0067245866688484725
1.32645e-05;0.006716469316071792
1.32648e-05;0.006708351963295166
1.32650e-05;0.006700234610518486
1.32653e-05;0.006692117257741805
1.32655e-05;0.0066839999049651795
1.32658e-05;0.006675882552188499
1.32660e-05;0.006695239651845083
1.32663e-05;0.006722836090148504
1.32665e-05;0.0067504325284521135
1.32668e-05;0.006778028966755722
1.32670e-05;0.006805625405059143
1.32673e-05;0.006833221843362752
1.32675e-05;0.00686081828166636
1.32678e-05;0.0068884147199697815
1.32680e-05;0.006916011158273391
1.32683e-05;0.006943607596576999
1.32685e-05;0.006988394683228337
1.32688e-05;0.007038337089122736
1.32690e-05;0.007088279495017134
1.32693e-05;0.007138221900911195
1.32695e-05;0.0071881643068055934
1.32698e-05;0.007238106712699992
1.32700e-05;0.007288049118594052
1.32703e-05;0.00733799152448845
1.32705e-05;0.007387933930382849
1.32708e-05;0.007437876336277248
1.32710e-05;0.007485303825861837
1.32713e-05;0.0075319771148963524
1.32715e-05;0.007578650403930868
1.32718e-05;0.007625323692965067
1.32720e-05;0.007671996981999583
1.32723e-05;0.007718670271034098
1.32725e-05;0.007765343560068297
1.32728e-05;0.007812016849102813
1.32730e-05;0.007843835505513087
1.32733e-05;0.00787119939256961
1.32735e-05;0.007898563279626318
1.32738e-05;0.007925927166683026
1.32740e-05;0.007953291053739549
1.32743e-05;0.007980654940796257
1.32745e-05;0.008008018827852965
1.32748e-05;0.008035382714909488
1.32750e-05;0.008043684488084377
1.32753e-05;0.00804626970650543
1.32755e-05;0.008048854924926465
1.32758e-05;0.008051440143347518
1.32760e-05;0.008054025361768571
1.32763e-05;0.008056610580189607
1.32765e-05;0.00805919579861066
1.32768e-05;0.008061781017031713
1.32770e-05;0.008064366235452747
1.32773e-05;0.0080669514538738
1.32775e-05;0.008069536672294854
1.32778e-05;0.00807212189071589
1.32780e-05;0.008074707109136943
1.32783e-05;0.008077292327557996
1.32785e-05;0.008067214538935984
1.32788e-05;0.008053339229558061
1.32790e-05;0.00803946392018014
1.32793e-05;0.008025588610802218
1.32795e-05;0.008011713301424389
1.32798e-05;0.007997837992046468
1.32800e-05;0.007983962682668546
1.32803e-05;0.007970087373290717
1.32805e-05;0.007956212063912796
1.32808e-05;0.007942336754534873
1.32810e-05;0.007928461445157044
1.32813e-05;0.007914586135779124
1.32815e-05;0.007900710826401201
1.32818e-05;0.007886835517023372
1.32820e-05;0.007877312356674685
1.32823e-05;0.007869094366276272
1.32825e-05;0.007860876375877913
1.32828e-05;0.0078526583854795
1.32830e-05;0.007844440395081085
1.32833e-05;0.007836222404682727
1.32835e-05;0.007828004414284313
1.32838e-05;0.007819786423885897
1.32840e-05;0.00781156843348754
1.32843e-05;0.007803350443089125
1.32845e-05;0.007795132452690711
1.32848e-05;0.007786914462292353
1.32850e-05;0.007778696471893939
1.32853e-05;0.007770478481495524
1.32855e-05;0.0077622604910971655
1.32858e-05;0.007757796390185515
1.32860e-05;0.007763518075571993
1.32863e-05;0.007769239760958432
1.32865e-05;0.00777496144634491
1.32868e-05;0.007780683131731389
1.32870e-05;0.007786404817117828
1.32873e-05;0.007792126502504306
1.32875e-05;0.007797848187890784
1.32878e-05;0.007803569873277263
1.32880e-05;0.0078092915586637016
1.32883e-05;0.00781501324405018
1.32885e-05;0.007820734929436657
1.32888e-05;0.007826456614823098
1.32890e-05;0.007832178300209575
1.32893e-05;0.007837899985596053
1.32895e-05;0.007843621670982494
1.32898e-05;0.007852921147030224
1.32900e-05;0.00786329356998973
1.32903e-05;0.007873665992949166
1.32905e-05;0.007884038415908672
1.32908e-05;0.007894410838868177
1.32910e-05;0.007904783261827612
1.32913e-05;0.007915155684787118
1.32915e-05;0.007925528107746624
1.32918e-05;0.007935900530706058
1.32920e-05;0.007946272953665564
1.32923e-05;0.00795664537662507
1.32925e-05;0.007963785762219238
1.32928e-05;0.007962156352636519
1.32930e-05;0.007960526943053797
1.32933e-05;0.007958897533471088
1.32935e-05;0.007957268123888368
1.32938e-05;0.007955638714305647
1.32940e-05;0.007954009304722938
1.32943e-05;0.007952379895140218
1.32945e-05;0.007950750485557496
1.32948e-05;0.007949121075974787
1.32950e-05;0.007947491666392067
1.32953e-05;0.007945862256809346
1.32955e-05;0.007922262973025403
1.32958e-05;0.007892075123584103
1.32960e-05;0.007861887274142802
1.32963e-05;0.007831699424701502
1.32965e-05;0.007801511575260407
1.32968e-05;0.007771323725819106
1.32970e-05;0.007741135876377806
1.32973e-05;0.00771094802693671
1.32975e-05;0.00768076017749541
1.32978e-05;0.0076505723280541095
1.32980e-05;0.007620384478613014
1.32983e-05;0.007585439875524768
1.32985e-05;0.0075375883191795955
1.32988e-05;0.007489736762834747
1.32990e-05;0.007441885206489575
1.32993e-05;0.007394033650144402
1.32995e-05;0.007346182093799554
1.32998e-05;0.007298330537454382
1.33000e-05;0.007250478981109209
1.33003e-05;0.0072026274247643605
1.33005e-05;0.007154775868419188
1.33008e-05;0.007106924312074016
1.33010e-05;0.007059072755729167
1.33013e-05;0.007012771510448496
1.33015e-05;0.006966935189370255
1.33018e-05;0.006921098868292325
1.33020e-05;0.006875262547214084
1.33023e-05;0.006842158742794316
1.33025e-05;0.006812873304435691
1.33028e-05;0.006783587866076867
1.33030e-05;0.0067543024277180435
1.33033e-05;0.0067250169893594185
1.33035e-05;0.006695731551000596
1.33038e-05;0.006666446112641772
1.33040e-05;0.006637160674283147
1.33043e-05;0.0066078752359243235
1.33045e-05;0.0065785897975655
1.33048e-05;0.006572661274439456
1.33050e-05;0.0065737372779760325
1.33053e-05;0.006574813281512616
1.33055e-05;0.006575889285049199
1.33058e-05;0.006576965288585776
1.33060e-05;0.006578041292122359
1.33063e-05;0.006579117295658942
1.33065e-05;0.006580193299195519
1.33068e-05;0.006581269302732102
1.33070e-05;0.006582345306268686
1.33073e-05;0.00660249669187847
1.33075e-05;0.006628368611257817
1.33078e-05;0.006654240530637165
1.33080e-05;0.006680112450016338
1.33083e-05;0.006705984369395686
1.33085e-05;0.006731856288775033
1.33088e-05;0.006757728208154206
1.33090e-05;0.006783600127533554
1.33093e-05;0.006809472046912901
1.33095e-05;0.006835343966292074
1.33098e-05;0.0068630658163538905
1.33100e-05;0.00689580725974099
1.33103e-05;0.006928548703127868
1.33105e-05;0.006961290146514968
1.33108e-05;0.006994031589902068
1.33110e-05;0.007026773033288945
1.33113e-05;0.007059514476676045
1.33115e-05;0.007092255920063145
1.33118e-05;0.007124997363450023
1.33120e-05;0.007157738806837122
1.33123e-05;0.0071904802502242215
1.33125e-05;0.0072099715784467045
1.33128e-05;0.007225489317517811
1.33130e-05;0.007241007056588918
1.33133e-05;0.007256524795660024
1.33135e-05;0.007272042534731026
1.33138e-05;0.007287560273802132
1.33140e-05;0.007303078012873239
1.33143e-05;0.00731859575194424
1.33145e-05;0.007334113491015347
1.33148e-05;0.007349631230086453
1.33150e-05;0.007365148969157455
1.33153e-05;0.007359150960559782
1.33155e-05;0.007346700574721027
1.33158e-05;0.007334250188882357
1.33160e-05;0.0073217998030436025
1.33163e-05;0.007309349417204848
1.33165e-05;0.007296899031366177
1.33168e-05;0.007284448645527422
1.33170e-05;0.007271998259688668
1.33173e-05;0.0072595478738499974
1.33175e-05;0.007247097488011243
1.33178e-05;0.007234647102172488
1.33180e-05;0.007207623246045628
1.33183e-05;0.007176228938588363
1.33185e-05;0.007144834631131097
1.33188e-05;0.0071134403236740446
1.33190e-05;0.0070820460162167795
1.33193e-05;0.0070506517087595135
1.33195e-05;0.007019257401302461
1.33198e-05;0.006987863093845196
1.33200e-05;0.006956468786387931
1.33203e-05;0.006925074478930877
1.33205e-05;0.006893772167600374
1.33208e-05;0.006862719478133216
1.33210e-05;0.006831666788666269
1.33213e-05;0.0068006140991991116
1.33215e-05;0.0067695614097319536
1.33218e-05;0.006738508720264796
1.33220e-05;0.006707456030797849
1.33223e-05;0.006676403341330691
1.33225e-05;0.006645350651863534
1.33228e-05;0.006614297962396587
1.33230e-05;0.006583245272929429
1.33233e-05;0.006568588177221586
1.33235e-05;0.006558847971119113
1.33238e-05;0.006549107765016574
1.33240e-05;0.006539367558914035
1.33243e-05;0.006529627352811562
1.33245e-05;0.006519887146709023
1.33248e-05;0.006510146940606484
1.33250e-05;0.006500406734504011
1.33253e-05;0.006490666528401472
1.33255e-05;0.006480926322298933
1.33258e-05;0.00647118611619646
1.33260e-05;0.006461445910093921
1.33263e-05;0.006451705703991382
1.33265e-05;0.006441965497888909
1.33268e-05;0.00643222529178637
1.33270e-05;0.0064383192563292925
1.33273e-05;0.006449161744786988
1.33275e-05;0.006460004233244757
1.33278e-05;0.0064708467217025264
1.33280e-05;0.006481689210160222
1.33283e-05;0.006492531698617991
1.33285e-05;0.0065033741870757595
1.33288e-05;0.006514216675533455
1.33290e-05;0.006525059163991225
1.33293e-05;0.0065359016524489935
1.33295e-05;0.006546744140906689
1.33298e-05;0.006557586629364458
1.33300e-05;0.006568429117822227
1.33303e-05;0.006579271606279996
1.33305e-05;0.006590114094737692
1.33308e-05;0.006602803683734444
1.33310e-05;0.006616047201401025
1.33313e-05;0.006629290719067517
1.33315e-05;0.006642534236734099
1.33318e-05;0.006655777754400681
1.33320e-05;0.006669021272067172
1.33323e-05;0.0066822647897337535
1.33325e-05;0.006695508307400335
1.33328e-05;0.006708751825066827
1.33330e-05;0.006721995342733408
1.33333e-05;0.00673523886039999
1.33335e-05;0.00674324006258112
1.33338e-05;0.0067508351786851
1.33340e-05;0.00675843029478908
1.33343e-05;0.006766025410893007
1.33345e-05;0.006773620526996987
1.33348e-05;0.006781215643100967
1.33350e-05;0.006788810759204894
1.33353e-05;0.006796405875308874
1.33355e-05;0.006804000991412854
1.33358e-05;0.006811596107516782
1.33360e-05;0.006818504368405896
1.33363e-05;0.00532277606858454
1.33365e-05;-0.0006349578626459818
1.33368e-05;-0.004714682267723338
1.33370e-05;-0.003871876671861656
1.33373e-05;-0.0016085610971447342
1.33375e-05;0.0026721519608233907
1.33378e-05;0.006479703344777877
1.33380e-05;0.007207191391457848
1.33383e-05;0.005989300474807256
1.33385e-05;0.003105469953977032
1.33388e-05;0.00027278255442623924
1.33390e-05;1.3977879017512294e-05
1.33393e-05;0.001749343701167599
1.33395e-05;0.004175797640333809
1.33398e-05;0.006541005532735565
1.33400e-05;0.007411379811729763
1.33403e-05;0.00674914999911773
1.33405e-05;0.005109668247369158
1.33408e-05;0.003772635927327868
1.33410e-05;0.003614637055960777
1.33413e-05;0.004653754940673305
1.33415e-05;0.006060729051136848
1.33418e-05;0.007160345475491707
1.33420e-05;0.007535235726584672
1.33423e-05;0.007007078610792469
1.33425e-05;0.0060784503299315135
1.33428e-05;0.005327700631092959
1.33430e-05;0.005223723400210114
1.33433e-05;0.005870029046866029
1.33435e-05;0.006748129792347721
1.33438e-05;0.007435994320993928
1.33440e-05;0.0076724071340249856
1.33443e-05;0.007345562225896639
1.33445e-05;0.006770159285754603
1.33448e-05;0.006308334345659626
1.33450e-05;0.00625363219707812
1.33453e-05;0.006670707678803573
1.33455e-05;0.007234609649576339
1.33458e-05;0.007680836038572647
1.33460e-05;0.007845639846993957
1.33463e-05;0.007658875799712221
1.33465e-05;0.007317556458591594
1.33468e-05;0.007048389881363675
1.33470e-05;0.007035101178896123
1.33473e-05;0.0073180284461198284
1.33475e-05;0.007693470325529903
1.33478e-05;0.007995606470281422
1.33480e-05;0.008121744466980784
1.33483e-05;0.008027828746755014
1.33485e-05;0.007837148601108061
1.33488e-05;0.0076915838413308705
1.33490e-05;0.007706076465655617
1.33493e-05;0.007905746972872035
1.33495e-05;0.008162852535238352
1.33498e-05;0.008373391098013631
1.33500e-05;0.008472911135899173
1.33503e-05;0.008433697295958041
1.33505e-05;0.008332853614425078
1.33508e-05;0.008259124734482868
1.33510e-05;0.008284371338033905
1.33513e-05;0.00842418948363194
1.33515e-05;0.008598421370334737
1.33518e-05;0.008741789864379538
1.33520e-05;0.00881379562009193
1.33523e-05;0.008796954475693885
1.33525e-05;0.008739439535483843
1.33528e-05;0.0086967089827926
1.33530e-05;0.008713638568185187
1.33533e-05;0.008799741544386753
1.33535e-05;0.0089044036550641
1.33538e-05;0.008986472838361948
1.33540e-05;0.00902063472032641
1.33543e-05;0.008996119208934825
1.33545e-05;0.008944117451704182
1.33548e-05;0.008913472748047643
1.33550e-05;0.00888570887434197
1.33553e-05;0.008915387311635424
1.33555e-05;0.008953802546393195
1.33557e-05;0.008962682241480837
1.33560e-05;0.008968914433408914
1.33563e-05;0.008921858774946874
1.33565e-05;0.008856152735016406
1.33568e-05;0.008802144873253351
1.33570e-05;0.008749873638438823
1.33573e-05;0.008732208264926357
1.33575e-05;0.008719313741059056
1.33578e-05;0.008687254824073067
1.33580e-05;0.008653521436314083
1.33583e-05;0.008586091769223588
1.33585e-05;0.00850738972258707
1.33588e-05;0.008443783805590273
1.33590e-05;0.008380177888593908
1.33593e-05;0.008317538267220053
1.33595e-05;0.008273134687796833
1.33598e-05;0.008211782571431021
1.33600e-05;0.008150430455064793
1.33603e-05;0.008088125800728008
1.33605e-05;0.008007646452821706
1.33608e-05;0.007939956220673934
1.33610e-05;0.00787226598852616
1.33613e-05;0.007805378328462686
1.33615e-05;0.007754049527198139
1.33618e-05;0.007696797248025798
1.33620e-05;0.007639544968853845
1.33623e-05;0.00758196242378085
1.33625e-05;0.007518653765245385
1.33628e-05;0.007471150193820541
1.33630e-05;0.0074236466223953764
1.33633e-05;0.007376143050970211
1.33635e-05;0.007334412548786458
1.33638e-05;0.007297440506081126
1.33640e-05;0.007260468463375795
1.33642e-05;0.007223328342322472
1.33645e-05;0.007182867033068302
1.33648e-05;0.007143032227856832
1.33650e-05;0.007115576993577596
1.33653e-05;0.007088121759298548
1.33655e-05;0.0070607471736478
1.33658e-05;0.007034966185721973
1.33660e-05;0.0070091851977963195
1.33663e-05;0.006983404209870492
1.33665e-05;0.006957863412607886
1.33668e-05;0.00693706872574669
1.33670e-05;0.006916274038885354
1.33673e-05;0.006895479352024018
1.33675e-05;0.006874911463556408
1.33678e-05;0.006858825057427159
1.33680e-05;0.0068427386512979116
1.33683e-05;0.006826652245168772
1.33685e-05;0.006810565839039525
1.33688e-05;0.006794479432910276
1.33690e-05;0.006778393026781138
1.33693e-05;0.006762306620651889
1.33695e-05;0.006746220214522642
1.33698e-05;0.006732887960916762
1.33700e-05;0.0067218258209428405
1.33703e-05;0.00671076368096892
1.33705e-05;0.006699701540995074
1.33708e-05;0.006688639401021153
1.33710e-05;0.006677577261047232
1.33713e-05;0.006666515121073386
1.33715e-05;0.006655452981099465
1.33718e-05;0.006644599232611564
1.33720e-05;0.0066378632503478145
1.33723e-05;0.00663112726808402
1.33725e-05;0.006624391285820225
1.33727e-05;0.006617655303556476
1.33730e-05;0.0066109193212926815
1.33733e-05;0.006604183339028886
1.33735e-05;0.006597447356765092
1.33738e-05;0.006590711374501342
1.33740e-05;0.006595771391066767
1.33743e-05;0.006610554274293662
1.33745e-05;0.006625337157520457
1.33748e-05;0.006640120040747352
1.33750e-05;0.006654902923974247
1.33753e-05;0.006669685807201042
1.33755e-05;0.006684468690427937
1.33758e-05;0.006699251573654832
1.33760e-05;0.006715530103592647
1.33763e-05;0.006761362257002366
1.33765e-05;0.006807194410412086
1.33768e-05;0.0068530265638214955
1.33770e-05;0.006898858717231214
1.33773e-05;0.006944690870640934
1.33775e-05;0.006990523024050343
1.33778e-05;0.0070363551774600625
1.33780e-05;0.007082187330869782
1.33783e-05;0.007128019484279191
1.33785e-05;0.007174716804097357
1.33788e-05;0.007238509606490793
1.33790e-05;0.007302302408883798
1.33793e-05;0.007366095211277234
1.33795e-05;0.0074298880136706704
1.33798e-05;0.007493680816063674
1.33800e-05;0.0075574736184571105
1.33803e-05;0.007621266420850547
1.33805e-05;0.007685059223243551
1.33808e-05;0.007748852025636988
1.33810e-05;0.007812173205333129
1.33812e-05;0.007866175232633991
1.33815e-05;0.007920177259935218
1.33818e-05;0.007974179287236446
1.33820e-05;0.008028181314537673
1.33823e-05;0.008082183341838535
1.33825e-05;0.008136185369139763
1.33828e-05;0.00819018739644099
1.33830e-05;0.008244189423741851
1.33833e-05;0.00828214600728036
1.33835e-05;0.008306877113898232
1.33838e-05;0.008331608220515936
1.33840e-05;0.008356339327133807
1.33843e-05;0.008381070433751678
1.33845e-05;0.008405801540369382
1.33848e-05;0.008430532646987253
1.33850e-05;0.008455263753605126
1.33853e-05;0.008478302994854634
1.33855e-05;0.008467911378551634
1.33858e-05;0.008457519762248636
1.33860e-05;0.008447128145945705
1.33863e-05;0.008436736529642705
1.33865e-05;0.008426344913339705
1.33868e-05;0.008415953297036776
1.33870e-05;0.008405561680733776
1.33873e-05;0.008395170064430775
1.33875e-05;0.008384778448127846
1.33878e-05;0.008374386831824846
1.33880e-05;0.008363995215521846
1.33883e-05;0.008340618375123125
1.33885e-05;0.008306538447657915
1.33888e-05;0.008272458520192705
1.33890e-05;0.008238378592727726
1.33893e-05;0.008204298665262516
1.33895e-05;0.008170218737797306
1.33897e-05;0.008136138810332327
1.33900e-05;0.008102058882867115
1.33903e-05;0.008067978955401905
1.33905e-05;0.008033899027936695
1.33908e-05;0.007999819100471716
1.33910e-05;0.007965785839754295
1.33913e-05;0.007932674702881974
1.33915e-05;0.007899563566009876
1.33918e-05;0.007866452429137555
1.33920e-05;0.007833341292265233
1.33923e-05;0.007800230155393138
1.33925e-05;0.007767119018520816
1.33928e-05;0.007734007881648495
1.33930e-05;0.007701353539952081
1.33933e-05;0.007677725362365138
1.33935e-05;0.007654097184778195
1.33938e-05;0.007630469007191412
1.33940e-05;0.0076068408296044695
1.33943e-05;0.0075832126520175265
1.33945e-05;0.007559584474430744
1.33948e-05;0.007535956296843801
1.33950e-05;0.0075126450222589534
1.33953e-05;0.007495595675682412
1.33955e-05;0.007478546329105755
1.33958e-05;0.007461496982529098
1.33960e-05;0.007444447635952556
1.33963e-05;0.007427398289375899
1.33965e-05;0.007410348942799242
1.33968e-05;0.0073932995962226996
1.33970e-05;0.0073762502496460425
1.33973e-05;0.0073592009030693855
1.33975e-05;0.007342151556492844
1.33978e-05;0.007325102209916187
1.33980e-05;0.00730805286333953
1.33983e-05;0.007291003516762987
1.33985e-05;0.00727395417018633
1.33988e-05;0.007256904823609673
1.33990e-05;0.007239855477033016
1.33993e-05;0.007222806130456475
1.33995e-05;0.007205756783879818
1.33998e-05;0.00718870743730316
1.34000e-05;0.007171658090726618
1.34003e-05;0.007154608744149961
1.34005e-05;0.007137559397573304
1.34008e-05;0.007120510050996762
1.34010e-05;0.007103460704420105
