Time(s);Current(A)
1.30000e-05;0.001275810328753749
1.30003e-05;0.0012269295141790902
1.30005e-05;0.001176043874395776
1.30008e-05;0.0011227186979498017
1.30010e-05;0.0010693935215038274
1.30013e-05;0.0010160683450582144
1.30015e-05;0.0009627431686122402
1.30018e-05;0.0009081100341223215
1.30020e-05;0.0008534096434799763
1.30023e-05;0.0007987092528372604
1.30025e-05;0.0007440088621945446
1.30028e-05;0.0006904454723684122
1.30030e-05;0.0006382656221961608
1.30033e-05;0.0005874324083046682
1.30035e-05;0.0005382378253341887
1.30038e-05;0.0004904175011445257
1.30040e-05;0.0004453993428954529
1.30043e-05;0.00040304630843824164
1.30045e-05;0.0003637146688483309
1.30048e-05;0.0003277959066117359
1.30050e-05;0.0002957447580347556
1.30053e-05;0.00026796168343423715
1.30055e-05;0.0002446529785862582
1.30058e-05;0.00022588226729564555
1.30060e-05;0.00021168133521535268
1.30063e-05;0.00020208189381523255
1.30065e-05;0.00019711622652884272
1.30068e-05;0.00019683868556966992
1.30070e-05;0.00020134321697243924
1.30073e-05;0.00021068973333924915
1.30075e-05;0.00022481654910651544
1.30078e-05;0.0002435725807339022
1.30080e-05;0.00026678681925439114
1.30083e-05;0.0002942882140210851
1.30085e-05;0.0003259060808824794
1.30088e-05;0.00036148359121029194
1.30090e-05;0.0004008886619911816
1.30093e-05;0.00044396793088360265
1.30095e-05;0.0004904918870195843
1.30098e-05;0.0005407834825555183
1.30100e-05;0.0005934597858677007
1.30103e-05;0.0006483011601922562
1.30105e-05;0.0007057770634961604
1.30108e-05;0.000765204969957928
1.30110e-05;0.0008270081374885739
1.30113e-05;0.000888811305018801
1.30115e-05;0.0009517714404539217
1.30118e-05;0.0010161394121473977
1.30120e-05;0.0010805073838404376
1.30123e-05;0.0011448753555339136
1.30125e-05;0.0012092433272273898
1.30128e-05;0.0012701577592036644
1.30130e-05;0.0013308946076590006
1.30133e-05;0.001391631456114337
1.30135e-05;0.0014523683045692618
1.30138e-05;0.0015090881506111017
1.30140e-05;0.0015609199771787516
1.30143e-05;0.0016127518037464014
1.30145e-05;0.0016597043204224123
1.30148e-05;0.0017007195337778343
1.30150e-05;0.0017417347471332563
1.30153e-05;0.0017786730334702135
1.30155e-05;0.0018106503821207088
1.30158e-05;0.0018426277307712039
1.30160e-05;0.001870373200328835
1.30163e-05;0.0018929691814647993
1.30165e-05;0.0019155651626007637
1.30168e-05;0.0019337774109107718
1.30170e-05;0.0019466553902265891
1.30173e-05;0.0019595333695424065
1.30175e-05;0.0019689143718153797
1.30178e-05;0.001974040138435431
1.30180e-05;0.0019791659050554826
1.30183e-05;0.001978662325125201
1.30185e-05;0.0019713087728185025
1.30188e-05;0.001963955220511804
1.30190e-05;0.0019566016682051554
1.30193e-05;0.0019492481158984568
1.30195e-05;0.0019418945635917583
1.30198e-05;0.0019345410112851097
1.30200e-05;0.0019271874589784114
1.30203e-05;0.0019089644981540442
1.30205e-05;0.0018901826244461844
1.30208e-05;0.0018714007507381976
1.30210e-05;0.0018526188770302105
1.30213e-05;0.001833837003322351
1.30215e-05;0.001815055129614364
1.30218e-05;0.001796273255906377
1.30220e-05;0.0017763802233578868
1.30223e-05;0.0017551350965125717
1.30225e-05;0.0017338899696672566
1.30228e-05;0.0017126448428219415
1.30230e-05;0.0016913997159767704
1.30233e-05;0.0016701545891314553
1.30235e-05;0.0016489094622861402
1.30238e-05;0.001627664335440969
1.30240e-05;0.0016094864548898409
1.30243e-05;0.0015950408996098782
1.30245e-05;0.0015805953443300132
1.30248e-05;0.0015661497890500505
1.30250e-05;0.0015517042337700878
1.30253e-05;0.0015372586784902229
1.30255e-05;0.0015228131232102602
1.30258e-05;0.0015083675679302974
1.30260e-05;0.0014984974231189098
1.30263e-05;0.0014941947869066587
1.30265e-05;0.0014898921506944073
1.30268e-05;0.0014855895144821852
1.30270e-05;0.0014812868782699338
1.30273e-05;0.0014769842420576827
1.30275e-05;0.0014726816058454604
1.30278e-05;0.0014683789696332092
1.30280e-05;0.0014640763334209579
1.30283e-05;0.0014597736972087358
1.30285e-05;0.0014554710609964844
1.30288e-05;0.001454937191762643
1.30290e-05;0.001458989281035873
1.30293e-05;0.0014630413703091301
1.30295e-05;0.0014670934595823874
1.30298e-05;0.001471145548855617
1.30300e-05;0.0014751976381288743
1.30303e-05;0.0014792497274021318
1.30305e-05;0.0014833018166753615
1.30308e-05;0.0014873539059486187
1.30310e-05;0.001491405995221876
1.30313e-05;0.0014954580844951332
1.30315e-05;0.0015007569917448373
1.30318e-05;0.0015075730677500492
1.30320e-05;0.001514389143755261
1.30323e-05;0.0015212052197604267
1.30325e-05;0.0015280212957656384
1.30328e-05;0.0015348373717708503
1.30330e-05;0.001541653447776016
1.30333e-05;0.0015484695237812278
1.30335e-05;0.0015552855997864397
1.30338e-05;0.0015596325248660638
1.30340e-05;0.001563852484410852
1.30343e-05;0.0015680724439556405
1.30345e-05;0.0015722924035004
1.30348e-05;0.0015765123630451883
1.30350e-05;0.0015807323225899765
1.30353e-05;0.001584952282134736
1.30355e-05;0.0015891722416795245
1.30358e-05;0.0015887926955455006
1.30360e-05;0.0015828163209740153
1.30363e-05;0.0015768399464024894
1.30365e-05;0.0015708635718309633
1.30368e-05;0.001564887197259478
1.30370e-05;0.001558910822687952
1.30373e-05;0.001552934448116426
1.30375e-05;0.0015469580735449405
1.30378e-05;0.0015409816989734146
1.30380e-05;0.0015350053244018887
1.30383e-05;0.0015290289498304033
1.30385e-05;0.0015123389746285925
1.30388e-05;0.0014950980982966558
1.30390e-05;0.0014778572219648362
1.30393e-05;0.0014606163456328998
1.30395e-05;0.001443375469300963
1.30398e-05;0.0014261345929690267
1.30400e-05;0.001408893716637207
1.30403e-05;0.0013916528403052704
1.30405e-05;0.001374411963973334
1.30408e-05;0.0013571710876415142
1.30410e-05;0.0013380239874584842
1.30413e-05;0.001316557331957009
1.30415e-05;0.0012950906764556797
1.30418e-05;0.0012736240209542048
1.30420e-05;0.0012521573654527298
1.30423e-05;0.0012306907099514004
1.30425e-05;0.0012099164287017877
1.30428e-05;0.0011899846510109399
1.30430e-05;0.0011700528733202273
1.30433e-05;0.0011501210956293795
1.30435e-05;0.0011301893179385318
1.30438e-05;0.0011102575402478193
1.30440e-05;0.0010915283741046223
1.30443e-05;0.0010753628286453332
1.30445e-05;0.0010605360956473407
1.30448e-05;0.0010457093626492478
1.30450e-05;0.001033060010880041
1.30453e-05;0.0010230601675658188
1.30455e-05;0.0010130603242515287
1.30458e-05;0.0010055357230448715
1.30460e-05;0.0010010230771198073
1.30463e-05;0.0009965104311947122
1.30465e-05;0.0009945344515558967
1.30468e-05;0.000995645170141445
1.30470e-05;0.0009967558887270008
1.30473e-05;0.001000469178994302
1.30475e-05;0.0010073493633193501
1.30478e-05;0.0010142295476444447
1.30480e-05;0.0010234914986956408
1.30482e-05;0.001035651661136991
1.30485e-05;0.0010478118235784234
1.30488e-05;0.0010620898685929157
1.30490e-05;0.0010789450221585213
1.30493e-05;0.0010958001757240125
1.30495e-05;0.0011152905048242721
1.30498e-05;0.0011379874014135001
1.30500e-05;0.0011606842980025744
1.30503e-05;0.0011833811945918026
1.30505e-05;0.0012060780911810306
1.30508e-05;0.0012287749877701048
1.30510e-05;0.001251471884359333
1.30513e-05;0.0012756132831771903
1.30515e-05;0.0013015123993929763
1.30518e-05;0.0013274115156089376
1.30520e-05;0.0013533106318248988
1.30523e-05;0.0013792097480406847
1.30525e-05;0.001405108864256646
1.30528e-05;0.0014310079804726074
1.30530e-05;0.0014550854295474994
1.30533e-05;0.0014769462146646273
1.30535e-05;0.0014988069997817553
1.30538e-05;0.001520667784898735
1.30540e-05;0.001542528570015863
1.30543e-05;0.001564389355132991
1.30545e-05;0.0015862501402499707
1.30548e-05;0.0016027277861726736
1.30550e-05;0.0016126550528491846
1.30553e-05;0.0016225823195256284
1.30555e-05;0.0016325095862021397
1.30558e-05;0.0016424368528786507
1.30560e-05;0.0016523641195550945
1.30563e-05;0.0016622913862316055
1.30565e-05;0.0016671813326147391
1.30567e-05;0.0016659417034628214
1.30570e-05;0.0016647020743108952
1.30573e-05;0.0016603604978811402
1.30575e-05;0.0016522443708893136
1.30578e-05;0.0016441282438975418
1.30580e-05;0.0016315010670115053
1.30583e-05;0.0016133846975671608
1.30585e-05;0.0015952683281229387
1.30588e-05;0.001577151958678594
1.30590e-05;0.0015590355892342493
1.30593e-05;0.0015409192197900273
1.30595e-05;0.0015228028503456825
1.30598e-05;0.0015002370752456343
1.30600e-05;0.0014722571183060076
1.30603e-05;0.0014442771613661911
1.30605e-05;0.0014162972044263747
1.30608e-05;0.0013883172474867477
1.30610e-05;0.0013603372905469312
1.30613e-05;0.0013323573336071147
1.30615e-05;0.0013030395233976683
1.30618e-05;0.0012720937697189888
1.30620e-05;0.0012411480160403093
1.30623e-05;0.0012102022623618396
1.30625e-05;0.00117925650868316
1.30628e-05;0.0011483107550044806
1.30630e-05;0.0011191623631169913
1.30633e-05;0.001092201059645714
1.30635e-05;0.001065239756174437
1.30638e-05;0.0010382784527033424
1.30640e-05;0.0010113171492320654
1.30643e-05;0.0009843558457607881
1.30645e-05;0.0009606582708822368
1.30648e-05;0.0009409321073438946
1.30650e-05;0.0009212059438055524
1.30652e-05;0.000901479780267344
1.30655e-05;0.0008817536167290017
1.30658e-05;0.0008620274531906596
1.30660e-05;0.0008450197443028275
1.30663e-05;0.0008281518203293056
1.30665e-05;0.0008112838963556694
1.30668e-05;0.0007944159723820332
1.30670e-05;0.0007775480484085113
1.30673e-05;0.0007612155063990016
1.30675e-05;0.0007455344346155413
1.30678e-05;0.0007298533628321872
1.30680e-05;0.0007141722910487269
1.30683e-05;0.0006984912192652666
1.30685e-05;0.0006828101474819125
1.30688e-05;0.0006671290756984522
1.30690e-05;0.0006514480039149918
1.30693e-05;0.0006357669321316378
1.30695e-05;0.0006200858603481775
1.30698e-05;0.0006044047885647172
1.30700e-05;0.00058972952524941
1.30703e-05;0.000575105981336599
1.30705e-05;0.0005604824374237881
1.30708e-05;0.0005458588935110763
1.30710e-05;0.0005312353495982653
1.30713e-05;0.0005166118056854544
1.30715e-05;0.0005019882617727426
1.30718e-05;0.0004873647178599316
1.30720e-05;0.00047274117394712064
1.30723e-05;0.00045811763003440883
1.30725e-05;0.00044434657634969684
1.30728e-05;0.0004316128605637635
1.30730e-05;0.00041887914477791637
1.30733e-05;0.00040614542899198295
1.30735e-05;0.00039491056374847076
1.30737e-05;0.0003837527704895643
1.30740e-05;0.0003725949772305823
1.30743e-05;0.00036205314810035293
1.30745e-05;0.0003526116394530614
1.30748e-05;0.00034418534653603484
1.30750e-05;0.0003375698024259611
1.30753e-05;0.00033375296774399923
1.30755e-05;0.00033323897606660045
1.30758e-05;0.00033603643302045094
1.30760e-05;0.0003420244892196468
1.30763e-05;0.00035108224735238885
1.30765e-05;0.0003630917246484866
1.30768e-05;0.00037806043608508693
1.30770e-05;0.0003963127566256322
1.30773e-05;0.0004182936129136189
1.30775e-05;0.0004441448105273191
1.30778e-05;0.00047369773933143253
1.30780e-05;0.0005067026941544466
1.30783e-05;0.0005429100109517109
1.30785e-05;0.0005826906094540255
1.30788e-05;0.0006247718379114168
1.30790e-05;0.0006694439098647247
1.30793e-05;0.0007172686046394456
1.30795e-05;0.0007675115416686772
1.30798e-05;0.0008206970747023611
1.30800e-05;0.0008760626453097407
1.30803e-05;0.0009340809567022566
1.30805e-05;0.0009920992680947725
1.30808e-05;0.0010520961644851846
1.30810e-05;0.0011145006675997062
1.30813e-05;0.0011769051707142277
1.30815e-05;0.0012393096738283263
1.30818e-05;0.0013017141769428478
1.30820e-05;0.0013637884073779154
1.30822e-05;0.0014254607512499849
1.30825e-05;0.0014871330951224725
1.30828e-05;0.00154880543899496
1.30830e-05;0.0016104777828674477
1.30833e-05;0.001669322282890767
1.30835e-05;0.0017247257703371743
1.30838e-05;0.001780129257783582
1.30840e-05;0.0018316038033981091
1.30843e-05;0.001878297484516498
1.30845e-05;0.0019249911656348871
1.30848e-05;0.0019674125141801125
1.30850e-05;0.0020046351491810567
1.30853e-05;0.002041857784182001
1.30855e-05;0.002074477986030767
1.30858e-05;0.0021014977971897564
1.30860e-05;0.002128517608348746
1.30863e-05;0.002155537419507552
1.30865e-05;0.0021825572306665413
1.30868e-05;0.0022095770418255308
1.30870e-05;0.0022365968529843372
1.30873e-05;0.0022544774724157445
1.30875e-05;0.0022678334274173983
1.30878e-05;0.002281189382418962
1.30880e-05;0.0022945453374206156
1.30883e-05;0.0023079012924222693
1.30885e-05;0.0023212572474238325
1.30888e-05;0.0023346132024254862
1.30890e-05;0.0011257557812163685
1.30893e-05;-0.0075740620145296955
1.30895e-05;-0.01250212508517193
1.30898e-05;-0.009891605346569162
1.30900e-05;-0.007503399652772099
1.30903e-05;-0.0011730044094864368
1.30905e-05;0.003589167354746351
1.30907e-05;0.00308163126493434
1.30910e-05;0.002018668119251962
1.30913e-05;-0.0024802250841250875
1.30915e-05;-0.0069088996810489816
1.30918e-05;-0.005015202079280964
1.30920e-05;-0.0032162169292393496
1.30923e-05;0.00012775704719821104
1.30925e-05;0.0036964200129400676
1.30928e-05;0.003589287534336755
1.30930e-05;0.00255277184328392
1.30933e-05;0.0007368430306444998
1.30935e-05;-0.000993203898385566
1.30938e-05;-0.0011520635026686281
1.30940e-05;-0.0001509067082601321
1.30943e-05;0.0014086649334012558
1.30945e-05;0.0028703319132678765
1.30948e-05;0.0033030079102417337
1.30950e-05;0.0028464321778833776
1.30953e-05;0.0017276641776874594
1.30955e-05;0.000634203533050058
1.30958e-05;0.0005270403276348315
1.30960e-05;0.00114834502331561
1.30963e-05;0.002121049534458229
1.30965e-05;0.00303386247584318
1.30968e-05;0.00330343790293222
1.30970e-05;0.003017228326270705
1.30973e-05;0.0023173834836816543
1.30975e-05;0.0016344552255264553
1.30978e-05;0.0015702701057234386
1.30980e-05;0.00196317458014474
1.30983e-05;0.00257684833524769
1.30985e-05;0.003153561597648292
1.30988e-05;0.0033278428099209486
1.30990e-05;0.0031544259719991537
1.30992e-05;0.0027223042262629004
1.30995e-05;0.0023011121017051063
1.30998e-05;0.002267743268477252
1.31000e-05;0.0025208384956081882
1.31003e-05;0.002912280683599775
1.31005e-05;0.0032805576340496603
1.31008e-05;0.0033966874992858824
1.31010e-05;0.003294914531420116
1.31013e-05;0.003030940173586578
1.31015e-05;0.002773610014658541
1.31018e-05;0.0027589390921580344
1.31020e-05;0.0029233583091254267
1.31023e-05;0.003174017176723563
1.31025e-05;0.0034096842982614677
1.31028e-05;0.0034868769012750085
1.31030e-05;0.0034270027324634278
1.31033e-05;0.003264908059475746
1.31035e-05;0.003106306258727539
1.31038e-05;0.003098974726481218
1.31040e-05;0.003203026764791534
1.31043e-05;0.0033602385310004756
1.31045e-05;0.003507141488894049
1.31048e-05;0.003553617697438701
1.31050e-05;0.0035123783600158835
1.31053e-05;0.0034044026360538875
1.31055e-05;0.003295511548543039
1.31058e-05;0.003278321769920401
1.31060e-05;0.0033280176388871046
1.31063e-05;0.0034083001070454545
1.31065e-05;0.0034795884700359104
1.31068e-05;0.0034856133012543793
1.31070e-05;0.003434519318405694
1.31073e-05;0.003339629505937349
1.31075e-05;0.0032423530774406237
1.31077e-05;0.003200879658296111
1.31080e-05;0.0031998375102387775
1.31083e-05;0.0032166634516893194
1.31085e-05;0.00322674090469613
1.31088e-05;0.0031950021223879875
1.31090e-05;0.003126729843092835
1.31093e-05;0.0030304497302363668
1.31095e-05;0.0029322791925285464
1.31098e-05;0.0028688438550043592
1.31100e-05;0.002830689484273652
1.31103e-05;0.0028038582585843672
1.31105e-05;0.002773107354654779
1.31108e-05;0.002716649142355996
1.31110e-05;0.0026379722623202976
1.31113e-05;0.0025425964256381574
1.31115e-05;0.0024470596844036936
1.31118e-05;0.002374480756056263
1.31120e-05;0.002319113177451911
1.31123e-05;0.0022723899297411006
1.31125e-05;0.002224940006592287
1.31128e-05;0.002163293975187598
1.31130e-05;0.002089815891129012
1.31133e-05;0.0020081415714821365
1.31135e-05;0.0019288081676751667
1.31138e-05;0.0018664738100087085
1.31140e-05;0.001817715221228261
1.31143e-05;0.0017773426372038373
1.31145e-05;0.0017396615110634394
1.31148e-05;0.0016950581398822672
1.31150e-05;0.0016458037485398657
1.31153e-05;0.001593421795562581
1.31155e-05;0.0015385670123334227
1.31158e-05;0.0014929874481639076
1.31160e-05;0.0014547414060687828
1.31162e-05;0.0014192461450268025
1.31165e-05;0.0013859258098211581
1.31168e-05;0.0013473627927232214
1.31170e-05;0.0013046546095501312
1.31173e-05;0.0012590218016050327
1.31175e-05;0.001211076616971897
1.31178e-05;0.0011681554118105654
1.31180e-05;0.0011292064540025135
1.31183e-05;0.0010913736976972369
1.31185e-05;0.0010544234745493678
1.31188e-05;0.0010137624778948867
1.31190e-05;0.0009701675301116102
1.31193e-05;0.0009244942429550971
1.31195e-05;0.0008771777010601475
1.31198e-05;0.0008329414728851338
1.31200e-05;0.0007911407180418541
1.31203e-05;0.0007501519706991461
1.31205e-05;0.0007098052432254848
1.31208e-05;0.0006674269204453073
1.31210e-05;0.0006234423014763437
1.31213e-05;0.0005786288367407848
1.31215e-05;0.0005331600388335516
1.31218e-05;0.0004899165087986099
1.31220e-05;0.00044914640462122795
1.31223e-05;0.00040989045366799997
1.31225e-05;0.00037145406385644786
1.31228e-05;0.00033268462567111304
1.31230e-05;0.00029379422627559543
1.31233e-05;0.0002550391566121034
1.31235e-05;0.00021745835026439067
1.31238e-05;0.00018262179495870962
1.31240e-05;0.0001503934380495874
1.31243e-05;0.0001204670524495754
1.31245e-05;9.248826352015169e-05
1.31247e-05;6.588781598456151e-05
1.31250e-05;4.1113754273793006e-05
1.31253e-05;1.865888003613155e-05
1.31255e-05;-7.112502455268427e-07
1.31258e-05;-1.6092869170653366e-05
1.31260e-05;-2.770149167376831e-05
1.31263e-05;-3.585921116949732e-05
1.31265e-05;-4.091826898413388e-05
1.31268e-05;-4.336546975470319e-05
1.31270e-05;-4.30503649239936e-05
1.31273e-05;-3.979449386127551e-05
1.31275e-05;-3.324857300339023e-05
1.31278e-05;-2.2976784056755784e-05
1.31280e-05;-9.24444107069277e-06
1.31283e-05;7.616406870517983e-06
1.31285e-05;2.7254849430083987e-05
1.31288e-05;4.923572184686287e-05
1.31290e-05;7.352304609055831e-05
1.31293e-05;0.00010009838403257395
1.31295e-05;0.00012905029642722762
1.31298e-05;0.00016052154416852665
1.31300e-05;0.0001942156792102765
1.31303e-05;0.0002297944870706576
1.31305e-05;0.00026690798372598266
1.31308e-05;0.0003051533989689491
1.31310e-05;0.0003443780476528182
1.31313e-05;0.00038466100794468864
1.31315e-05;0.00042543992730063244
1.31318e-05;0.00046687430920906275
1.31320e-05;0.0005088269375409425
1.31323e-05;0.0005507795658728223
1.31325e-05;0.0005920151809630499
1.31328e-05;0.000632683884113054
1.31330e-05;0.0006733525872630582
1.31332e-05;0.0007124476439321609
1.31335e-05;0.0007502984851135135
1.31338e-05;0.0007863742057355402
1.31340e-05;0.0008210464138658999
1.31343e-05;0.000853183357746286
1.31345e-05;0.0008833157757790216
1.31348e-05;0.00091062255073901
1.31350e-05;0.0009356952096390116
1.31353e-05;0.0009589234770438401
1.31355e-05;0.0009806934623676118
1.31358e-05;0.001000264304053482
1.31360e-05;0.001018096376194752
1.31363e-05;0.0010359284483360217
1.31365e-05;0.0010504984910946857
1.31368e-05;0.0010624893856581818
1.31370e-05;0.001074480280221678
1.31373e-05;0.0010840671601598263
1.31375e-05;0.0010917532877579134
1.31378e-05;0.0010994394153560005
1.31380e-05;0.0011049384103960765
1.31383e-05;0.001108708132542369
1.31385e-05;0.0011124778546886614
1.31388e-05;0.0011129295715952684
1.31390e-05;0.0011107578825716902
1.31393e-05;0.0011085861935481122
1.31395e-05;0.0011064145045245487
1.31398e-05;0.0011042428155009706
1.31400e-05;0.0011020711264773924
1.31403e-05;0.0010998994374538291
1.31405e-05;0.001097440016125015
1.31408e-05;0.0010903459613316904
1.31410e-05;0.001083251906538414
1.31413e-05;0.0010761578517450895
1.31415e-05;0.0010690637969517649
1.31418e-05;0.0010619697421584886
1.31420e-05;0.001054875687365164
1.31423e-05;0.0010477816325718395
1.31425e-05;0.0010399533719524896
1.31428e-05;0.0010315446059454957
1.31430e-05;0.0010231358399384449
1.31433e-05;0.001014727073931394
1.31435e-05;0.0010067699992861684
1.31438e-05;0.0009991700578313406
1.31440e-05;0.0009915701163765128
1.31443e-05;0.0009839701749217366
1.31445e-05;0.0009776671700256162
1.31448e-05;0.0009723895978259021
1.31450e-05;0.0009671120256262236
1.31453e-05;0.0009655919547456688
1.31455e-05;0.0009670427806939419
1.31458e-05;0.0009721856727693106
1.31460e-05;0.0009802477248441578
1.31463e-05;0.0009916502873570537
1.31465e-05;0.0010056940497055508
1.31468e-05;0.0010231735009533403
1.31470e-05;0.0010433694056068597
