Time(s);Current(A)
8.25000e-06;0.0044162493688622685
8.25025e-06;0.0044630989300965835
8.25050e-06;0.004509948491330582
8.25075e-06;0.0045575146529922735
8.25100e-06;0.004605543889487768
8.25125e-06;0.004653553749484539
8.25150e-06;0.004701551088181853
8.25175e-06;0.004748984104042615
8.25200e-06;0.004796052448471431
8.25225e-06;0.0048421192966585655
8.25250e-06;0.004887538967299988
8.25275e-06;0.004931505824864175
8.25300e-06;0.004974533859133985
8.25325e-06;0.005012996441510085
8.25350e-06;0.005048508780212722
8.25375e-06;0.005084021118915599
8.25400e-06;0.005119533457618476
8.25425e-06;0.005155045796321113
8.25450e-06;0.005190558135023991
8.25475e-06;0.005218990650083842
8.25500e-06;0.005242848107646962
8.25525e-06;0.005266705565210243
8.25550e-06;0.005290563022773524
8.25575e-06;0.005314420480336644
8.25600e-06;0.005338277937899925
8.25625e-06;0.005353768790199136
8.25650e-06;0.0053638530530031245
8.25675e-06;0.005373937315807044
8.25700e-06;0.005384021578611033
8.25725e-06;0.005394105841415022
8.25750e-06;0.005404190104218941
8.25775e-06;0.00541427436702293
8.25800e-06;0.005424358629826918
8.25825e-06;0.0054344428926308384
8.25850e-06;0.005443281768895777
8.25875e-06;0.005441776261445421
8.25900e-06;0.005440270753995074
8.25925e-06;0.005438765246544717
8.25950e-06;0.00543725973909436
8.25975e-06;0.005435754231644014
8.26000e-06;0.0054342487241936565
8.26025e-06;0.0054327432167433
8.26050e-06;0.005431237709292954
8.26075e-06;0.005429732201842596
8.26100e-06;0.005426070175725732
8.26125e-06;0.005421014584261717
8.26150e-06;0.005415958992797667
8.26175e-06;0.005410903401333618
8.26200e-06;0.005405847809869603
8.26225e-06;0.0054014258440465285
8.26250e-06;0.005397413333866055
8.26275e-06;0.005393400823685609
8.26300e-06;0.005389388313505135
8.26325e-06;0.005385375803324662
8.26350e-06;0.005382822131321938
8.26375e-06;0.005381211176098492
8.26400e-06;0.005379974173150654
8.26425e-06;0.00537897882214904
8.26450e-06;0.005375605394913704
8.26475e-06;0.005370695229469687
8.26500e-06;0.005362282160844962
8.26525e-06;0.005351605478849642
8.26550e-06;0.00534092879685425
8.26575e-06;0.0053267921605590594
8.26600e-06;0.005310419664917859
8.26625e-06;0.005294047169276548
8.26650e-06;0.00527050180337054
8.26675e-06;0.005242321252248195
8.26700e-06;0.005214140701125659
8.26725e-06;0.005185960150003124
8.26750e-06;0.0051577795988807795
8.26775e-06;0.005128214707040734
8.26800e-06;0.005087151255409232
8.26825e-06;0.005046087803778007
8.26850e-06;0.005005024352146504
8.26875e-06;0.004963960900515002
8.26900e-06;0.004922897448883777
8.26925e-06;0.004877105591622278
8.26950e-06;0.004828258188244983
8.26975e-06;0.004779410784868019
8.27000e-06;0.0047290134501982795
8.27025e-06;0.0046776145334073965
8.27050e-06;0.004626215616616862
8.27075e-06;0.004573996475205415
8.27100e-06;0.004521247295901769
8.27125e-06;0.004468781692359639
8.27150e-06;0.004416499338496519
8.27175e-06;0.004365404608407189
8.27200e-06;0.004315077333459171
8.27225e-06;0.0042665270389911905
8.27250e-06;0.004219125048249699
8.27275e-06;0.004174078221386189
8.27300e-06;0.004130553326522822
8.27325e-06;0.004092415946818465
8.27350e-06;0.004057760036833161
8.27375e-06;0.004023104126848092
8.27400e-06;0.0039884482168627885
8.27425e-06;0.0039595416816797764
8.27450e-06;0.003934350453774495
8.27475e-06;0.003909159225869043
8.27500e-06;0.00388396799796359
8.27525e-06;0.0038628998861937017
8.27550e-06;0.0038444961760171546
8.27575e-06;0.003826092465840607
8.27600e-06;0.0038076887556641845
8.27625e-06;0.0037899009236466922
8.27650e-06;0.0037772286760746144
8.27675e-06;0.0037645564285026228
8.27700e-06;0.003751884180930545
8.27725e-06;0.0037392119333584674
8.27750e-06;0.0037298031721352174
8.27775e-06;0.003722503310574952
8.27800e-06;0.003715203449014687
8.27825e-06;0.003707903587454471
8.27850e-06;0.0037006037258942056
8.27875e-06;0.0036933038643339406
8.27900e-06;0.003686004002773725
8.27925e-06;0.0036792010680551756
8.27950e-06;0.003676525688739161
8.27975e-06;0.003673850309423165
8.28000e-06;0.0036711749301071503
8.28025e-06;0.0036684995507911358
8.28050e-06;0.0036658241714751395
8.28075e-06;0.003663148792159125
8.28100e-06;0.003660473412843111
8.28125e-06;0.003660791911428573
8.28150e-06;0.0036630450858249983
8.28175e-06;0.003665298260221424
8.28200e-06;0.0036675514346178493
8.28225e-06;0.0036698046090142596
8.28250e-06;0.003672057783410685
8.28275e-06;0.0036743109578071106
8.28300e-06;0.003676564132203521
8.28325e-06;0.0036788173065999464
8.28350e-06;0.003681070480996372
8.28375e-06;0.003683323655392782
8.28400e-06;0.0036855768297892077
8.28425e-06;0.003687830004185633
8.28450e-06;0.0036900831785820435
8.28475e-06;0.0036928249286593893
8.28500e-06;0.00369962486803695
8.28525e-06;0.003706424807414465
8.28550e-06;0.003713224746792026
8.28575e-06;0.0037200246861695866
8.28600e-06;0.0037268246255471016
8.28625e-06;0.0037336245649246622
8.28650e-06;0.0037404245043022233
8.28675e-06;0.003747224443679738
8.28700e-06;0.003754024383057299
8.28725e-06;0.00376082432243486
8.28750e-06;0.0037676242618123745
8.28775e-06;0.0037744242011899356
8.28800e-06;0.0037812241405674966
8.28825e-06;0.003788024079945011
8.28850e-06;0.003796168368466027
8.28875e-06;0.003805181389732801
8.28900e-06;0.0038141944109995143
8.28925e-06;0.003823207432266288
8.28950e-06;0.0038322204535330626
8.28975e-06;0.0038412334747997753
8.29000e-06;0.0038502464960665497
8.29025e-06;0.0038592595173333236
8.29050e-06;0.003868272538600098
8.29075e-06;0.0038772855598668107
8.29100e-06;0.003886298581133585
8.29125e-06;0.003895311602400359
8.29150e-06;0.0039043246236670722
8.29175e-06;0.003913337644933846
8.29200e-06;0.0039223506662006205
8.29225e-06;0.003931363687467333
8.29250e-06;0.003940376708734108
8.29275e-06;0.003949389730000882
8.29300e-06;0.003958402751267595
8.29325e-06;0.003967761772926832
8.29350e-06;0.003977344383727694
8.29375e-06;0.003986957120033285
8.29400e-06;0.0039974751267495955
8.29425e-06;0.00400856554879876
8.29450e-06;0.004023545131086294
8.29475e-06;0.0040410379301746525
8.29500e-06;0.0040630089633393015
8.29525e-06;0.0040878738790975045
8.29550e-06;0.004117640624645041
8.29575e-06;0.004150574984851168
8.29600e-06;0.0041835093450570725
8.29625e-06;0.004223429145083276
8.29650e-06;0.004267863010779468
8.29675e-06;0.004312296876475358
8.29700e-06;0.004364394972317041
8.29725e-06;0.0044214457753724064
8.29750e-06;0.004478496578427386
8.29775e-06;0.004540665982900909
8.29800e-06;0.004606143082170538
8.29825e-06;0.0046745258075919565
8.29850e-06;0.004746921554587599
8.29875e-06;0.004822718582599525
8.29900e-06;0.004901580724119416
8.29925e-06;0.004983074431129143
8.29950e-06;0.005066766090254521
8.29975e-06;0.005152222070760632
8.30000e-06;0.005239075133314256
8.30025e-06;0.0053271522294874385
8.30050e-06;0.005416388954026048
8.30075e-06;0.005506560572386099
8.30100e-06;0.00559724135585101
8.30125e-06;0.005687944488223152
8.30150e-06;0.005778182987871283
8.30175e-06;0.005867470238751394
8.30200e-06;0.005955361206500302
8.30225e-06;0.006041532488258933
8.30250e-06;0.0061257281398326745
8.30275e-06;0.006207592708560719
8.30300e-06;0.006286644437251142
8.30325e-06;0.006362363465115688
8.30350e-06;0.0064342298312885845
8.30375e-06;0.0065002543140915605
8.30400e-06;0.0065635327935931655
8.30425e-06;0.006618577612764334
8.30450e-06;0.006668301752865006
8.30475e-06;0.006718025892966015
8.30500e-06;0.006767750033067024
8.30525e-06;0.0068154523955232015
8.30550e-06;0.006846361543050685
8.30575e-06;0.006877270690578167
8.30600e-06;0.0069081798381054405
8.30625e-06;0.006939088985632924
8.30650e-06;0.0069609223258943745
8.30675e-06;0.006976890782758623
8.30700e-06;0.00699285923962298
8.30725e-06;0.007002379235540867
8.30750e-06;0.007007732167258922
8.30775e-06;0.007013085098976942
8.30800e-06;0.007012360881916975
8.30825e-06;0.007007709546538477
8.30850e-06;0.00700305821116001
8.30875e-06;0.006993802058012134
8.30900e-06;0.006981570222537536
8.30925e-06;0.00696933838706302
8.30950e-06;0.006953266893353818
8.30975e-06;0.006934714171565332
8.31000e-06;0.006916161449776972
8.31025e-06;0.006894943634427258
8.31050e-06;0.006872003607210187
8.31075e-06;0.006849063579993273
8.31100e-06;0.00682493380748856
8.31125e-06;0.0068000352088970735
8.31150e-06;0.006775136610305756
8.31175e-06;0.006750145985133137
8.31200e-06;0.006725095891402846
8.31225e-06;0.006700045797672726
8.31250e-06;0.0066764621890001525
8.31275e-06;0.006653826238603694
8.31300e-06;0.00663119028820739
8.31325e-06;0.006610863064093986
8.31350e-06;0.006592027763514319
8.31375e-06;0.006575751150761429
8.31400e-06;0.006561127989356104
8.31425e-06;0.006551435321755906
8.31450e-06;0.006544928791808798
8.31475e-06;0.006538422261861647
8.31500e-06;0.006540671394796374
8.31525e-06;0.006548578530415391
8.31550e-06;0.00655648566603446
8.31575e-06;0.00656439280165353
8.31600e-06;0.00657423389276153
8.31625e-06;0.0066001387336546095
8.31650e-06;0.006626043574547864
8.31675e-06;0.0066519484154411185
8.31700e-06;0.006677853256334198
8.31725e-06;0.006711606223384422
8.31750e-06;0.006750430733213705
8.31775e-06;0.006793460650363312
8.31800e-06;0.006839208146550999
8.31825e-06;0.00688578246762589
8.31850e-06;0.0069328910917560585
8.31875e-06;0.006960811390891852
8.31900e-06;0.005742907701737954
8.31925e-06;0.00039728944483402367
8.31950e-06;-0.003543974397852651
8.31975e-06;-0.003160729576338352
8.32000e-06;-0.001139811955395433
8.32025e-06;0.0029752319425749877
8.32050e-06;0.006669616417379382
8.32075e-06;0.007634670118959218
8.32100e-06;0.006534514112186393
8.32125e-06;0.003958496892742738
8.32150e-06;0.001335214328438396
8.32175e-06;0.0009226823256399077
8.32200e-06;0.002651102298755263
8.32225e-06;0.005056873387827887
8.32250e-06;0.007283274887757369
8.32275e-06;0.008209943726394704
8.32300e-06;0.0076509216032633704
8.32325e-06;0.006751197078483886
8.32350e-06;0.005127515463003948
8.32375e-06;0.004847506692763873
8.32400e-06;0.005748561694440083
8.32425e-06;0.007125835773035342
8.32450e-06;0.008432498551407553
8.32475e-06;0.008905306458380747
8.32500e-06;0.008573893100005763
8.32525e-06;0.007750623074418385
8.32550e-06;0.006904932576425525
8.32575e-06;0.006795529790854746
8.32600e-06;0.007368245866091957
8.32625e-06;0.008240079870446757
8.32650e-06;0.009068415183537865
8.32675e-06;0.009375112781346636
8.32700e-06;0.009178712020509133
8.32725e-06;0.008674844361199037
8.32750e-06;0.008157511076808371
8.32775e-06;0.008101876843587678
8.32800e-06;0.008473901900114772
8.32825e-06;0.009033579936562985
8.32850e-06;0.009566222010276307
8.32875e-06;0.009772271544544247
8.32900e-06;0.009663305795024332
8.32925e-06;0.009361823522993157
8.32950e-06;0.009051931427348473
8.32975e-06;0.009031192897908288
8.33000e-06;0.00927819402531922
8.33025e-06;0.00964251335124424
8.33050e-06;0.009989600255209705
8.33075e-06;0.010131757335080161
8.33100e-06;0.01007618975295642
8.33125e-06;0.009899581550574172
8.33150e-06;0.009717197162973598
8.33175e-06;0.009715356902297561
8.33200e-06;0.009880568571212646
8.33225e-06;0.01011853070592014
8.33250e-06;0.010344895059560119
8.33275e-06;0.010442029789659496
8.33300e-06;0.010414395221977844
8.33325e-06;0.010309971625451603
8.33350e-06;0.010200899267889169
8.33375e-06;0.010203824349949263
8.33400e-06;0.010310284172936692
8.33425e-06;0.010461476669973742
8.33450e-06;0.010605074237788519
8.33475e-06;0.01066770737000852
8.33500e-06;0.010652227142225803
8.33525e-06;0.010588691972568287
8.33550e-06;0.010522291463151619
8.33575e-06;0.010526087008428315
8.33600e-06;0.01059476831822569
8.33625e-06;0.010691498060680581
8.33650e-06;0.01078349363846258
8.33675e-06;0.01082479783548127
8.33700e-06;0.010817198579434445
8.33725e-06;0.010779526789527373
8.33750e-06;0.010740087069898986
8.33775e-06;0.010744642960437988
8.33800e-06;0.010789862404712287
8.33825e-06;0.01085266522123412
8.33850e-06;0.010912513604339105
8.33875e-06;0.010940620002859582
8.33900e-06;0.010938105794379782
8.33925e-06;0.010916766048257519
8.33950e-06;0.010894331037797833
8.33975e-06;0.010899462205220114
8.34000e-06;0.010930069567715443
8.34025e-06;0.010971691509861842
8.34050e-06;0.011011460848262515
8.34075e-06;0.011031344567492784
8.34100e-06;0.01103204408136673
8.34125e-06;0.011020948835138645
8.34150e-06;0.011009162677558587
8.34175e-06;0.011014637369768142
8.34200e-06;0.01103605899945958
8.34225e-06;0.011064366597980015
8.34250e-06;0.011091498270512978
8.34275e-06;0.011106157061589267
8.34300e-06;0.011108781624854177
8.34325e-06;0.011103998736962769
8.34350e-06;0.0110987634672434
8.34375e-06;0.011104310460285064
8.34400e-06;0.011119679701934764
8.34425e-06;0.011138494733833458
8.34450e-06;0.011154593228064412
8.34475e-06;0.011160321104084868
8.34500e-06;0.01115598035467917
8.34525e-06;0.011144617370268268
8.34550e-06;0.011130732385116046
8.34575e-06;0.011121508766987715
8.34600e-06;0.011116489411415343
8.34625e-06;0.01111182496723158
8.34650e-06;0.011103801509866715
8.34675e-06;0.011087768975808734
8.34700e-06;0.011064063792221468
8.34725e-06;0.011034876459299951
8.34750e-06;0.01100359799063149
8.34775e-06;0.01097276556257426
8.34800e-06;0.010944623193439952
8.34825e-06;0.010915680661456921
8.34850e-06;0.010882587045090758
8.34875e-06;0.010848376484053861
8.34900e-06;0.010806840564487878
8.34925e-06;0.01076182757685128
8.34950e-06;0.010715653069263132
8.34975e-06;0.010669823295246364
8.35000e-06;0.010626097593106756
8.35025e-06;0.010582433465518484
8.35050e-06;0.010538190788501394
8.35075e-06;0.010490433963858974
8.35100e-06;0.010442327271175687
8.35125e-06;0.010392246528692362
8.35150e-06;0.010343083406962272
8.35175e-06;0.01029444814822822
8.35200e-06;0.010249436724023864
8.35225e-06;0.010206961584922517
8.35250e-06;0.010164486445821458
8.35275e-06;0.01012219882458024
8.35300e-06;0.010081417116380097
8.35325e-06;0.010042864087081577
8.35350e-06;0.010005340913945282
8.35375e-06;0.00997407315548643
8.35400e-06;0.009944352682679833
8.35425e-06;0.009924030525609792
8.35450e-06;0.009903708368539751
8.35475e-06;0.009883386211469848
8.35500e-06;0.009864707227373166
8.35525e-06;0.009856008984967076
8.35550e-06;0.009847310742561045
8.35575e-06;0.009840162737030056
8.35600e-06;0.009842430973160532
8.35625e-06;0.00984600290384492
8.35650e-06;0.009857493561770552
8.35675e-06;0.009868984219696184
8.35700e-06;0.009881873779289509
8.35725e-06;0.00990326036045212
8.35750e-06;0.009924646941614733
8.35775e-06;0.009947065331793454
8.35800e-06;0.009976426971116715
8.35825e-06;0.01000989451349681
8.35850e-06;0.010043909798486229
8.35875e-06;0.010081562809689913
8.35900e-06;0.010121400971821626
8.35925e-06;0.010163338817755321
8.35950e-06;0.010207344692301617
8.35975e-06;0.010253489580721753
8.36000e-06;0.010301551140696719
8.36025e-06;0.010351165244601626
8.36050e-06;0.010401942614213866
8.36075e-06;0.010453438433324792
8.36100e-06;0.010505395023029454
8.36125e-06;0.010557616766583627
8.36150e-06;0.010609945446438384
8.36175e-06;0.01066228609691656
8.36200e-06;0.010714359740569668
8.36225e-06;0.010765798251425296
8.36250e-06;0.01081621788068888
8.36275e-06;0.010865201605536659
8.36300e-06;0.010912447477543583
8.36325e-06;0.010957694170522983
8.36350e-06;0.011000703168385712
8.36375e-06;0.011041276001885026
8.36400e-06;0.011078918316491928
8.36425e-06;0.011112788190224257
8.36450e-06;0.01114558673707671
8.36475e-06;0.011171877973357926
8.36500e-06;0.01119816920963932
8.36525e-06;0.011222780318662017
8.36550e-06;0.011237186223206665
8.36575e-06;0.011251592127751411
8.36600e-06;0.011265998032296156
8.36625e-06;0.011280403936840806
8.36650e-06;0.011285841365373557
8.36675e-06;0.011286263771901289
8.36700e-06;0.011286686178429019
8.36725e-06;0.01128710858495675
8.36750e-06;0.01128605056730915
8.36775e-06;0.011276000354965593
8.36800e-06;0.011265950142622105
8.36825e-06;0.011254886815999126
8.36850e-06;0.011237669766003069
8.36875e-06;0.011220452716007127
8.36900e-06;0.01120243056358668
8.36925e-06;0.01117951816560599
8.36950e-06;0.011156605767625455
8.36975e-06;0.01113310834727373
8.37000e-06;0.011106057462212307
8.37025e-06;0.011079006577151067
8.37050e-06;0.011051655150066703
8.37075e-06;0.011022478210787862
8.37100e-06;0.010993204309021131
8.37125e-06;0.010963341450666086
8.37150e-06;0.010933507490160511
8.37175e-06;0.010903849057110795
8.37200e-06;0.010874346106339798
8.37225e-06;0.010845787565250502
8.37250e-06;0.010817627603839135
8.37275e-06;0.010791888641844487
8.37300e-06;0.010766149679849839
8.37325e-06;0.010740870976997661
8.37350e-06;0.010718678345402332
8.37375e-06;0.010698557589612205
8.37400e-06;0.010680446408333905
8.37425e-06;0.0106629679165129
8.37450e-06;0.010643744062572432
8.37475e-06;0.010621339778421527
8.37500e-06;0.01059530139621914
8.37525e-06;0.010568524901064512
8.37550e-06;0.010537265058847755
8.37575e-06;0.010506005216630787
8.37600e-06;0.010473979153530587
8.37625e-06;0.010437299013929357
8.37650e-06;0.01039926104842076
8.37675e-06;0.010352975558225804
8.37700e-06;0.010306690068030847
8.37725e-06;0.010258961879581118
8.37750e-06;0.010202470646172667
8.37775e-06;0.010145979412764216
8.37800e-06;0.010089488179356147
8.37825e-06;0.010031506139465695
8.37850e-06;0.009964468842052942
8.37875e-06;0.009897431544640643
8.37900e-06;0.00983039424722789
8.37925e-06;0.00976238623879689
8.37950e-06;0.009688482067211353
8.37975e-06;0.009614577895625316
8.38000e-06;0.009540315057184919
8.38025e-06;0.00946387365246529
8.38050e-06;0.009387432247745141
8.38075e-06;0.009310832047477161
8.38100e-06;0.009233267312512124
8.38125e-06;0.00915589472520613
8.38150e-06;0.00907968925553822
8.38175e-06;0.00900395154923802
8.38200e-06;0.008931055068677717
8.38225e-06;0.00885876392894555
8.38250e-06;0.008790149669583793
8.38275e-06;0.008722344813312308
8.38300e-06;0.008659456325138823
8.38325e-06;0.00859801966316667
8.38350e-06;0.008545401489905185
8.38375e-06;0.008492783316643703
8.38400e-06;0.008442713113066293
8.38425e-06;0.008408119446473006
8.38450e-06;0.008373525779879721
8.38475e-06;0.008338932113286436
8.38500e-06;0.008304338446693383
8.38525e-06;0.008283863035048623
8.38550e-06;0.008271282315789554
8.38575e-06;0.00825870159653057
8.38600e-06;0.008246120877271501
8.38625e-06;0.008236146245213677
8.38650e-06;0.0082420011597994
8.38675e-06;0.008247856074385163
8.38700e-06;0.008255264802418713
8.38725e-06;0.008272111496470875
8.38750e-06;0.00828986883482667
8.38775e-06;0.008313753612240467
8.38800e-06;0.008341825269718273
8.38825e-06;0.008373843808817154
8.38850e-06;0.008409414007450615
8.38875e-06;0.008448202125462266
8.38900e-06;0.008489990447921003
8.38925e-06;0.00853459045270728
8.38950e-06;0.008581811218692961
8.38975e-06;0.008631461034832472
8.39000e-06;0.008683329568489622
8.39025e-06;0.008737105801790235
8.39050e-06;0.00879238176669204
8.39075e-06;0.008848788937401547
8.39100e-06;0.008906031255739513
8.39125e-06;0.008963830124603833
8.39150e-06;0.009021906410527882
8.39175e-06;0.009079981394506378
8.39200e-06;0.009137761261325346
8.39225e-06;0.009194893288394481
8.39250e-06;0.009250961408575505
8.39275e-06;0.009305575056395735
8.39300e-06;0.009358388823330543
8.39325e-06;0.009409069164245148
8.39350e-06;0.00945728173433495
8.39375e-06;0.009502692452102451
8.39400e-06;0.00954497673457254
8.39425e-06;0.009583874962186677
8.39450e-06;0.009619242258223226
8.39475e-06;0.009650742983006463
8.39500e-06;0.009677506865494295
8.39525e-06;0.00970264720229116
8.39550e-06;0.00971792601478904
8.39575e-06;0.009733204827286816
8.39600e-06;0.009748483639784696
8.39625e-06;0.009761597845376354
8.39650e-06;0.009761564084933025
8.39675e-06;0.009761530324489695
8.39700e-06;0.009761496564046365
8.39725e-06;0.009759724269924065
8.39750e-06;0.009747392006831836
8.39775e-06;0.009735059743739609
8.39800e-06;0.00972140954562215
8.39825e-06;0.009699754122676334
8.39850e-06;0.009678098699730516
8.39875e-06;0.009655520893416161
8.39900e-06;0.009627340469292159
8.39925e-06;0.009598561550300201
8.39950e-06;0.009566147333752217
8.39975e-06;0.009533255414030174
8.40000e-06;0.009497461893519977
8.40025e-06;0.009461326799113243
8.40050e-06;0.009423116962183207
8.40075e-06;0.009384720704502414
8.40100e-06;0.009345192114806989
