Time(s);Current(A)
4.50000e-06;0.0015547755818071148
4.50025e-06;0.001561916149801499
4.50050e-06;0.001567333808438466
4.50075e-06;0.0015727514670754335
4.50100e-06;0.0015781691257124191
4.50125e-06;0.0015835867843493865
4.50150e-06;0.001589004442986354
4.50175e-06;0.0015944221016233396
4.50200e-06;0.001599839760260307
4.50225e-06;0.0016052574188972742
4.50250e-06;0.00161067507753426
4.50275e-06;0.0016160927361712272
4.50300e-06;0.0016215103948081947
4.50325e-06;0.0016269280534451803
4.50350e-06;0.0016323457120821477
4.50375e-06;0.001637763370719115
4.50400e-06;0.001645059239011198
4.50425e-06;0.001654386046544897
4.50450e-06;0.0016637128540786278
4.50475e-06;0.0016730396616123269
4.50500e-06;0.001682366469146026
4.50525e-06;0.0016916932766797568
4.50550e-06;0.001701020084213456
4.50575e-06;0.001710346891747155
4.50600e-06;0.001734653707044979
4.50625e-06;0.001759258985591596
4.50650e-06;0.001783864264138213
4.50675e-06;0.0018084695426849135
4.50700e-06;0.0018330748212315306
4.50725e-06;0.0018576800997781476
4.50750e-06;0.001882285378324848
4.50775e-06;0.0019140168607638085
4.50800e-06;0.001953454025626768
4.50825e-06;0.001992891190489861
4.50850e-06;0.002032328355352821
4.50875e-06;0.002071765520215914
4.50900e-06;0.0021112026850788734
4.50925e-06;0.002150639849941833
4.50950e-06;0.0021900770148049263
4.50975e-06;0.0022374410246027323
4.51000e-06;0.002284962969691823
4.51025e-06;0.0023324849147810752
4.51050e-06;0.0023800068598701664
4.51075e-06;0.0024275288049592576
4.51100e-06;0.0024750507500485098
4.51125e-06;0.0025225726951376005
4.51150e-06;0.0025687002915737323
4.51175e-06;0.002613320155692834
4.51200e-06;0.0026579400198117847
4.51225e-06;0.0027025598839307357
4.51250e-06;0.0027471797480498376
4.51275e-06;0.002791799612168788
4.51300e-06;0.00283641947628789
4.51325e-06;0.002873585945779211
4.51350e-06;0.0029026929360803943
4.51375e-06;0.0029317999263816764
4.51400e-06;0.0029609069166828595
4.51425e-06;0.0029900139069840427
4.51450e-06;0.0030191208972853247
4.51475e-06;0.003048227887586508
4.51500e-06;0.003068706325743011
4.51525e-06;0.0030798545674020545
4.51550e-06;0.0030910028090610597
4.51575e-06;0.0030964887906049245
4.51600e-06;0.0030958520764047437
4.51625e-06;0.0030952153622045646
4.51650e-06;0.003084571855788324
4.51675e-06;0.0030631078390340708
4.51700e-06;0.0030416438222798906
4.51725e-06;0.0030201798055256375
4.51750e-06;0.0029987157887714573
4.51775e-06;0.002977251772017277
4.51800e-06;0.0029557877552630245
4.51825e-06;0.0029343237385088443
4.51850e-06;0.002901967693332745
4.51875e-06;0.0028578339172322434
4.51900e-06;0.002813700141131891
4.51925e-06;0.0027695663650315386
4.51950e-06;0.0027254325889310366
4.51975e-06;0.002681298812830684
4.52000e-06;0.002637165036730332
4.52025e-06;0.0025930312606298298
4.52050e-06;0.002544880559601549
4.52075e-06;0.0024923862910475967
4.52100e-06;0.0024398920224934667
4.52125e-06;0.002387397753939514
4.52150e-06;0.002334903485385384
4.52175e-06;0.0022824092168314317
4.52200e-06;0.0022321032719037908
4.52225e-06;0.0021841635975957258
4.52250e-06;0.002136223923287823
4.52275e-06;0.0020882842489799206
4.52300e-06;0.0020403445746718556
4.52325e-06;0.001992404900363953
4.52350e-06;0.0019495779022409001
4.52375e-06;0.0019122793256448913
4.52400e-06;0.0018749807490490086
4.52425e-06;0.001840893240134863
4.52450e-06;0.001810277911944532
4.52475e-06;0.0017796625837543047
4.52500e-06;0.0017537828032297583
4.52525e-06;0.0017330236489115803
4.52550e-06;0.0017122644945934727
4.52575e-06;0.001691505340275295
4.52600e-06;0.0016707461859571874
4.52625e-06;0.00164998703163908
4.52650e-06;0.0016292278773209021
4.52675e-06;0.0016084687230027946
4.52700e-06;0.001587709568684687
4.52725e-06;0.0015724064414513997
4.52750e-06;0.0015630030067658647
4.52775e-06;0.0015535995720803298
4.52800e-06;0.001544196137394763
4.52825e-06;0.0015347927027092281
4.52850e-06;0.0015253892680236931
4.52875e-06;0.0015159858333381264
4.52900e-06;0.0015065823986525916
4.52925e-06;0.0014971789639670566
4.52950e-06;0.0014909815930412465
4.52975e-06;0.0014882509920152076
4.53000e-06;0.0014855203909891594
4.53025e-06;0.0014827897899631205
4.53050e-06;0.0014800591889370816
4.53075e-06;0.0014773285879110336
4.53100e-06;0.0014745979868849947
4.53125e-06;0.0014718673858589559
4.53150e-06;0.0014691367848329077
4.53175e-06;0.0014664061838068688
4.53200e-06;0.0014661169060289057
4.53225e-06;0.0014658762694315663
4.53250e-06;0.0014656356328342278
4.53275e-06;0.0014653949962368893
4.53300e-06;0.0014651543596395499
4.53325e-06;0.0014649137230422114
4.53350e-06;0.0014646730864448728
4.53375e-06;0.0014644324498475335
4.53400e-06;0.001464191813250195
4.53425e-06;0.001465977426583548
4.53450e-06;0.0014699540575618343
4.53475e-06;0.0014739306885401206
4.53500e-06;0.0014812892267553547
4.53525e-06;0.001492304677337263
4.53550e-06;0.0015033201279191712
4.53575e-06;0.0015173778761679183
4.53600e-06;0.0015347253113244224
4.53625e-06;0.0015520727464809268
4.53650e-06;0.001573411614873245
4.53675e-06;0.0015990664862004266
4.53700e-06;0.0016247213575276084
4.53725e-06;0.0016540096876878547
4.53750e-06;0.0016872269371260213
4.53775e-06;0.001720444186564188
4.53800e-06;0.0017583723189073508
4.53825e-06;0.0018013944070407338
4.53850e-06;0.0018444164951742625
4.53875e-06;0.0018874385833076456
4.53900e-06;0.0019304606714410286
4.53925e-06;0.0019734827595745573
4.53950e-06;0.0020165048477079404
4.53975e-06;0.0020675843887035467
4.54000e-06;0.0021188244672354856
4.54025e-06;0.002170064545767251
4.54050e-06;0.0022213046242990165
4.54075e-06;0.0022725447028309554
4.54100e-06;0.002323784781362721
4.54125e-06;0.0023738581473113844
4.54150e-06;0.002422669927600365
4.54175e-06;0.0024714817078891806
4.54200e-06;0.002520293488177996
4.54225e-06;0.0025691052684669773
4.54250e-06;0.002617917048755793
4.54275e-06;0.0026667288290447735
4.54300e-06;0.002715540609333589
4.54325e-06;0.0027565219093112154
4.54350e-06;0.002789035981101827
4.54375e-06;0.0028215500528923285
4.54400e-06;0.00285406412468283
4.54425e-06;0.0028865781964734416
4.54450e-06;0.002919092268263943
4.54475e-06;0.0029516063400544445
4.54500e-06;0.002984120411845056
4.54525e-06;0.0030068793086920824
4.54550e-06;0.003019089773135755
4.54575e-06;0.0030313002375794693
4.54600e-06;0.003043510702023142
4.54625e-06;0.003055721166466815
4.54650e-06;0.003067931630910529
4.54675e-06;0.003080142095354202
4.54700e-06;0.003092352559797916
4.54725e-06;0.0031045630242415886
4.54750e-06;0.0031167734886852617
4.54775e-06;0.0031289839531289756
4.54800e-06;0.003133498547585972
4.54825e-06;0.003129691470232321
4.54850e-06;0.0031258843928786573
4.54875e-06;0.0031220773155250063
4.54900e-06;0.0031182702381713553
4.54925e-06;0.0031144631608176917
4.54950e-06;0.0031106560834640406
4.54975e-06;0.00310684900611039
4.55000e-06;0.003103041928756726
4.55025e-06;0.0030992348514030754
4.55050e-06;0.0030954277740494244
4.55075e-06;0.0030888936558306026
4.55100e-06;0.0030794107431113505
4.55125e-06;0.003069927830392067
4.55150e-06;0.0030604449176728147
4.55175e-06;0.003050962004953563
4.55200e-06;0.003041479092234279
4.55225e-06;0.003031996179515027
4.55250e-06;0.0030225132667957753
4.55275e-06;0.0030138016439508635
4.55300e-06;0.0030051053883663075
4.55325e-06;0.0029964091327817515
4.55350e-06;0.0029877128771971665
4.55375e-06;0.0029790166216126105
4.55400e-06;0.0029703203660280545
4.55425e-06;0.0029616241104434694
4.55450e-06;0.0029504106828536322
4.55475e-06;0.0029364753954412405
4.55500e-06;0.002928444626304151
4.55525e-06;0.0023298287493269203
4.55550e-06;-0.013574525868294147
4.55575e-06;-0.014908077056943
4.55600e-06;-0.01162942158807754
4.55625e-06;-0.008137316356482353
4.55650e-06;0.003073384161576993
4.55675e-06;0.006537035790435194
4.55700e-06;0.005595144470732502
4.55725e-06;0.005009212263415139
4.55750e-06;-0.0029849497636992
4.55775e-06;-0.006156191343618868
4.55800e-06;-0.0040284543330676
4.55825e-06;-0.0012149203779803681
4.55850e-06;0.0024166546317365705
4.55875e-06;0.005331118972690862
4.55900e-06;0.005363566060294036
4.55925e-06;0.003595708169442509
4.55950e-06;0.0006792814300912442
4.55975e-06;-0.0016774374369943473
4.56000e-06;-0.0013812032794880257
4.56025e-06;0.0002835949761954684
4.56050e-06;0.002470850813840581
4.56075e-06;0.004217449245519767
4.56100e-06;0.004166220373616873
4.56125e-06;0.0029939613297318758
4.56150e-06;0.0011082935861085313
4.56175e-06;-0.00042124336020127204
4.56200e-06;-0.00028393530539840006
4.56225e-06;0.0007152759729749013
4.56250e-06;0.002046141351076379
4.56275e-06;0.0031052442472881505
4.56300e-06;0.0030424601852803907
4.56325e-06;0.0022818078825160345
4.56350e-06;0.0010787036296554624
4.56375e-06;0.00010316981074417901
4.56400e-06;0.00017603627219596238
4.56425e-06;0.0007920760745236856
4.56450e-06;0.0016175405552219027
4.56475e-06;0.0022734225750355667
4.56500e-06;0.0022269896589600883
4.56525e-06;0.0017438479272338793
4.56550e-06;0.0009839795649202263
4.56575e-06;0.0003670551051111048
4.56600e-06;0.0004071732508002234
4.56625e-06;0.0007877876133444582
4.56650e-06;0.0012997930130254545
4.56675e-06;0.001705757738963766
4.56700e-06;0.0016719850234582854
4.56725e-06;0.0013648656527586003
4.56750e-06;0.0008846171790810504
4.56775e-06;0.0004941103226823305
4.56800e-06;0.000515339644287018
4.56825e-06;0.0007499799768526949
4.56850e-06;0.0010670228726184666
4.56875e-06;0.0013177294899716261
4.56900e-06;0.0012930774849020453
4.56925e-06;0.0010973039094197424
4.56950e-06;0.0007931877614490364
4.56975e-06;0.0005453833108815826
4.57000e-06;0.0005555637480872548
4.57025e-06;0.0006994710743384252
4.57050e-06;0.0008950241300452586
4.57075e-06;0.0010490434536031498
4.57100e-06;0.0010305984612946828
4.57125e-06;0.0009049871107170787
4.57150e-06;0.0007115330422055497
4.57175e-06;0.0005533682954718406
4.57200e-06;0.0005568029207126635
4.57225e-06;0.0006439820063080832
4.57250e-06;0.0007634759757311581
4.57275e-06;0.0008569085455583704
4.57300e-06;0.0008422625774872226
4.57325e-06;0.0007604399909107841
4.57350e-06;0.0006360696501770714
4.57375e-06;0.0005337518432130099
4.57400e-06;0.000532735186034009
4.57425e-06;0.0005848654174838667
4.57450e-06;0.0006588711360674741
4.57475e-06;0.0007187100945979708
4.57500e-06;0.0007130161827869863
4.57525e-06;0.00066729322495877
4.57550e-06;0.0005968498237969432
4.57575e-06;0.0005420300990165015
4.57600e-06;0.0005523496908630464
4.57625e-06;0.0005975184809947497
4.57650e-06;0.0006578240594769479
4.57675e-06;0.0007105673856568296
4.57700e-06;0.0007234531519744053
4.57725e-06;0.0007123380778993959
4.57750e-06;0.0006866914440357326
4.57775e-06;0.000671663130583712
4.57800e-06;0.0006981455796006251
4.57825e-06;0.0007470403944543004
4.57850e-06;0.0008058764827745817
4.57875e-06;0.0008603132709402215
4.57900e-06;0.0008900006102827193
4.57925e-06;0.0009045903232003184
4.57950e-06;0.0009099075348171028
4.57975e-06;0.0009225071203346744
4.58000e-06;0.000960372557755037
4.58025e-06;0.0010120982486852767
4.58050e-06;0.0010697308179091144
4.58075e-06;0.0011229459462897748
4.58100e-06;0.0011605206276962142
4.58125e-06;0.0011876219134300601
4.58150e-06;0.0012077900530293238
4.58175e-06;0.0012320712184297916
4.58200e-06;0.0012705317686197298
4.58225e-06;0.001316108044677911
4.58250e-06;0.0013637139368557435
4.58275e-06;0.0014079168420911108
4.58300e-06;0.0014400061571835695
4.58325e-06;0.0014634215316356156
4.58350e-06;0.0014802827776030634
4.58375e-06;0.0014988993507048813
4.58400e-06;0.0015234327003357112
4.58425e-06;0.0015499228851408382
4.58450e-06;0.00157527593034363
4.58475e-06;0.001596805349399112
4.58500e-06;0.0016072025764144583
4.58525e-06;0.0016146131698332987
4.58550e-06;0.0016133284103416166
4.58575e-06;0.0016126241317622656
4.58600e-06;0.0016136098784998384
4.58625e-06;0.0016139456925749248
4.58650e-06;0.0016123892779297596
4.58675e-06;0.0016078941033284696
4.58700e-06;0.0015948429562214347
4.58725e-06;0.0015794917016779372
4.58750e-06;0.0015574438620847202
4.58775e-06;0.0015354444467459117
4.58800e-06;0.0015135860148813819
4.58825e-06;0.0014911192142578818
4.58850e-06;0.0014668811950075485
4.58875e-06;0.0014403174126923965
4.58900e-06;0.001406982350948428
4.58925e-06;0.0013736472892045726
4.58950e-06;0.0013392530994319222
4.58975e-06;0.0013017753402531944
4.59000e-06;0.0012642108445144185
4.59025e-06;0.0012263938219839283
4.59050e-06;0.0011885767994535663
4.59075e-06;0.0011507597769232043
4.59100e-06;0.0011121153864226954
4.59125e-06;0.001071062178016612
4.59150e-06;0.0010300089696105288
4.59175e-06;0.0009889557612043065
4.59200e-06;0.0009488547637738915
4.59225e-06;0.0009115260550122094
4.59250e-06;0.0008741973462504008
4.59275e-06;0.0008373759610209565
4.59300e-06;0.0008020316090496015
4.59325e-06;0.0007666872570781267
4.59350e-06;0.0007360202425876113
4.59375e-06;0.000703538834779095
4.59400e-06;0.00067736738986386
4.59425e-06;0.0006516941218157245
4.59450e-06;0.0006283393077274105
4.59475e-06;0.0006069481943374428
4.59500e-06;0.0005876504402673912
4.59525e-06;0.0005707398429949421
4.59550e-06;0.0005568066521700848
4.59575e-06;0.0005461524979446817
4.59600e-06;0.0005395320897617515
4.59625e-06;0.0005367247931071369
4.59650e-06;0.0005366827221084679
4.59675e-06;0.0005393246563400758
4.59700e-06;0.0005445939179977688
4.59725e-06;0.0005525364717459338
4.59750e-06;0.0005633840469582166
4.59775e-06;0.0005771874785723004
4.59800e-06;0.0005942815141537943
4.59825e-06;0.0006146030273109066
4.59850e-06;0.0006375389702904361
4.59875e-06;0.0006612564710510005
4.59900e-06;0.0006879838573356201
4.59925e-06;0.0007156032160682423
4.59950e-06;0.0007466576822550597
4.59975e-06;0.0007777121484417719
4.60000e-06;0.0008096615294411666
4.60025e-06;0.0008450573493420641
4.60050e-06;0.0008804531692428419
4.60075e-06;0.0009158489891436196
4.60100e-06;0.0009512448090445171
4.60125e-06;0.0009868502887353328
4.60150e-06;0.0010225430194468854
4.60175e-06;0.001058235750158559
4.60200e-06;0.0010939284808701116
4.60225e-06;0.001128907839468866
4.60250e-06;0.0011611399048435185
4.60275e-06;0.001193371970218171
4.60300e-06;0.0012243540198943442
4.60325e-06;0.0012505220887652462
4.60350e-06;0.0012766901576361483
4.60375e-06;0.0013015790351364475
4.60400e-06;0.0013215415723423216
4.60425e-06;0.0013415041095481957
4.60450e-06;0.0013614666467541374
4.60475e-06;0.0013814291839600113
4.60500e-06;0.0014023401864704146
4.60525e-06;0.001423645897789544
4.60550e-06;0.0014449516091086013
4.60575e-06;0.0014662573204276585
4.60600e-06;0.0014887440491940884
4.60625e-06;0.0015157790370965642
4.60650e-06;0.0015428140249991317
4.60675e-06;0.0015698490129016072
4.60700e-06;0.001596884000804083
4.60725e-06;0.0016239189887066504
4.60750e-06;0.0016509539766091262
4.60775e-06;0.0016779889645116017
4.60800e-06;0.0017050239524141692
4.60825e-06;0.0017337642666157558
4.60850e-06;0.0017690720247930758
4.60875e-06;0.0018043797829705157
4.60900e-06;0.0018396875411478357
4.60925e-06;0.001874995299325156
4.60950e-06;0.0019103030575025957
4.60975e-06;0.001945610815679916
4.61000e-06;0.001980918573857236
4.61025e-06;0.002016226332034676
4.61050e-06;0.0020516158834167665
4.61075e-06;0.0020873204315771145
4.61100e-06;0.0021230249797373414
4.61125e-06;0.0021587295278975684
4.61150e-06;0.0021944340760579164
4.61175e-06;0.0022301386242181433
4.61200e-06;0.0022658431723783703
4.61225e-06;0.0023015477205387182
4.61250e-06;0.002329746912217055
4.61275e-06;0.002354822710450411
4.61300e-06;0.0023798985086838516
4.61325e-06;0.0024049743069172076
4.61350e-06;0.002430050105150563
4.61375e-06;0.002455125903384004
4.61400e-06;0.0024802017016173597
4.61425e-06;0.0025015619301891876
4.61450e-06;0.0025086129936477694
4.61475e-06;0.002515664057106327
4.61500e-06;0.0025227151205649088
4.61525e-06;0.0025297661840234663
4.61550e-06;0.0025368172474820243
4.61575e-06;0.002543868310940606
4.61600e-06;0.0025509193743991636
4.61625e-06;0.0025579704378577216
4.61650e-06;0.002565021501316303
4.61675e-06;0.002572072564774861
4.61700e-06;0.0025791236282334184
4.61725e-06;0.0025754827119533054
4.61750e-06;0.002567392272255336
4.61775e-06;0.0025593018325573667
4.61800e-06;0.00255121139285937
4.61825e-06;0.0025431209531614003
4.61850e-06;0.0025350305134634312
4.61875e-06;0.0025269400737654344
4.61900e-06;0.0025188496340674653
4.61925e-06;0.0025107591943694684
4.61950e-06;0.002502668754671499
4.61975e-06;0.00249457831497353
4.62000e-06;0.002485096191798313
4.62025e-06;0.002470254505898883
4.62050e-06;0.002455412819999453
4.62075e-06;0.0024405711340999728
4.62100e-06;0.0024257294482005433
4.62125e-06;0.0024108877623011133
4.62150e-06;0.002396046076401633
4.62175e-06;0.002381204390502203
4.62200e-06;0.0023663627046027736
4.62225e-06;0.0023513653920100566
4.62250e-06;0.002335768739813543
4.62275e-06;0.00232017208761703
4.62300e-06;0.0023045754354204637
4.62325e-06;0.0022889787832239506
4.62350e-06;0.0022733821310273843
4.62375e-06;0.0022577854788308712
4.62400e-06;0.0022421888266343577
4.62425e-06;0.002226592174437792
4.62450e-06;0.0022094322160313403
4.62475e-06;0.00218625175236959
4.62500e-06;0.0021630712887077616
4.62525e-06;0.0021382505454032156
4.62550e-06;0.002107112861663951
4.62575e-06;0.0020759751779245808
4.62600e-06;0.002043101576358731
4.62625e-06;0.002003542718679364
4.62650e-06;0.001963983860999863
4.62675e-06;0.0019222541061398577
4.62700e-06;0.0018721639303969533
4.62725e-06;0.0018220737546538793
4.62750e-06;0.0017702734264397953
4.62775e-06;0.0017118870680073236
4.62800e-06;0.001653500709574654
4.62825e-06;0.00159347165574723
4.62850e-06;0.0015271163580946215
4.62875e-06;0.001460761060442238
4.62900e-06;0.0013930488380635882
4.62925e-06;0.0013201109136484679
4.62950e-06;0.0012471729892335947
4.62975e-06;0.0011733888246761599
4.63000e-06;0.0010963456740078665
4.63025e-06;0.001019302523339834
4.63050e-06;0.0009422593726718016
4.63075e-06;0.0008649234640519497
4.63100e-06;0.0007864601046652896
4.63125e-06;0.0007079967452786294
4.63150e-06;0.0006295333858917034
4.63175e-06;0.0005516027658251149
4.63200e-06;0.0004757237974791822
4.63225e-06;0.00040032795054581347
4.63250e-06;0.0003271787543834378
4.63275e-06;0.0002559853396240785
4.63300e-06;0.0001871566701237942
4.63325e-06;0.00012112915632019473
4.63350e-06;5.8339178877281204e-05
4.63375e-06;-7.940812022345739e-07
4.63400e-06;-5.6171169690322044e-05
4.63425e-06;-0.0001089671749326132
4.63450e-06;-0.00016132645871868605
4.63475e-06;-0.00021441230207527967
4.63500e-06;-0.00026807559909073736
4.63525e-06;-0.00032181285343838955
4.63550e-06;-0.00037555010778604175
4.63575e-06;-0.00042905756971955896
4.63600e-06;-0.00048168006975050367
4.63625e-06;-0.0005343025697814484
4.63650e-06;-0.0005876920630890968
4.63675e-06;-0.0006440353520260594
4.63700e-06;-0.000700378640963213
4.63725e-06;-0.0007572613145382483
4.63750e-06;-0.0008162212318588077
4.63775e-06;-0.0008751811491795669
4.63800e-06;-0.0009347792130013815
4.63825e-06;-0.0009968348659624973
4.63850e-06;-0.0010588905189238232
4.63875e-06;-0.001120946171884939
4.63900e-06;-0.0011830018248460549
4.63925e-06;-0.001245057477807381
4.63950e-06;-0.0013088934562111292
4.63975e-06;-0.001373470326380301
4.64000e-06;-0.0014380471965496915
4.64025e-06;-0.0015026240667188634
4.64050e-06;-0.0015672009368880352
4.64075e-06;-0.0016313273471103447
4.64100e-06;-0.001693718974690256
4.64125e-06;-0.0017561106022703785
4.64150e-06;-0.0018185022298502897
4.64175e-06;-0.0018808938574302009
4.64200e-06;-0.0019432854850103235
4.64225e-06;-0.0020056771125902344
4.64250e-06;-0.002060578683127984
4.64275e-06;-0.0021123632271651113
4.64300e-06;-0.002164147771202063
4.64325e-06;-0.0022159323152390153
4.64350e-06;-0.0022677168592761428
4.64375e-06;-0.002319501403313095
4.64400e-06;-0.0023685705017527097
4.64425e-06;-0.002407182049153395
4.64450e-06;-0.0024457935965539485
4.64475e-06;-0.0024804369230377542
4.64500e-06;-0.0024997980900075493
4.64525e-06;-0.002519159256977279
4.64550e-06;-0.0025385204239470735
4.64575e-06;-0.002557881590916803
4.64600e-06;-0.0025772427578865326
4.64625e-06;-0.0025966039248563277
4.64650e-06;-0.002615965091826057
4.64675e-06;-0.0026353262587957864
4.64700e-06;-0.0026546874257655814
4.64725e-06;-0.0026556431258418236
