Time(s);Current(A)
2.80000e-06;0.0063000347657289875
2.80025e-06;0.006244636846815568
2.80050e-06;0.006189238927902054
2.80075e-06;0.006133841008988541
2.80100e-06;0.0060784430900750275
2.80125e-06;0.006023045171161608
2.80150e-06;0.005957059600087302
2.80175e-06;0.0058739319201631226
2.80200e-06;0.005790804240239084
2.80225e-06;0.005707676560314904
2.80250e-06;0.005624548880390725
2.80275e-06;0.005541421200466686
2.80300e-06;0.005458293520542506
2.80325e-06;0.005375165840618327
2.80350e-06;0.005282899129245676
2.80375e-06;0.005189407567535011
2.80400e-06;0.005095916005824187
2.80425e-06;0.005002424444113363
2.80450e-06;0.004908932882402697
2.80475e-06;0.004815441320691873
2.80500e-06;0.0047219497589810495
2.80525e-06;0.00463173239444354
2.80550e-06;0.004546816171603136
2.80575e-06;0.0044618999487625885
2.80600e-06;0.004376983725922041
2.80625e-06;0.004292067503081637
2.80650e-06;0.0042151465840545395
2.80675e-06;0.004151170590510676
2.80700e-06;0.004087194596966921
2.80725e-06;0.0040232186034230575
2.80750e-06;0.003959242609879194
2.80775e-06;0.0039021029702017295
2.80800e-06;0.0038609798620490216
2.80825e-06;0.0038278679296720013
2.80850e-06;0.0037947559972949805
2.80875e-06;0.0037693864292329686
2.80900e-06;0.0037565522608832506
2.80925e-06;0.003743718092533533
2.80950e-06;0.0037386924288676958
2.80975e-06;0.0037463092505441798
2.81000e-06;0.003753926072220677
2.81025e-06;0.003768796554375727
2.81050e-06;0.0037954111924211266
2.81075e-06;0.003822025830466572
2.81100e-06;0.0038552573797765027
2.81125e-06;0.003899202145900518
2.81150e-06;0.0039431469120246075
2.81175e-06;0.003995563952910283
2.81200e-06;0.0040616981667793445
2.81225e-06;0.004127832380648293
2.81250e-06;0.004193966594517354
2.81275e-06;0.004260100808386414
2.81300e-06;0.004326235022255364
2.81325e-06;0.004392369236124424
2.81350e-06;0.004464283290206016
2.81375e-06;0.0045455552877259175
2.81400e-06;0.004626827285245682
2.81425e-06;0.004708099282765584
2.81450e-06;0.0047893712802854855
2.81475e-06;0.004870643277805249
2.81500e-06;0.004951915275325151
2.81525e-06;0.0050309143338087
2.81550e-06;0.005106233353716816
2.81575e-06;0.00518155237362506
2.81600e-06;0.005256871393533303
2.81625e-06;0.005332190413441545
2.81650e-06;0.005407509433349661
2.81675e-06;0.005465743519097953
2.81700e-06;0.005521687812158048
2.81725e-06;0.005577632105218048
2.81750e-06;0.005633576398278143
2.81775e-06;0.0056895206913382375
2.81800e-06;0.005739993816259072
2.81825e-06;0.005781608758235693
2.81850e-06;0.0058232237002123835
2.81875e-06;0.005864838642189074
2.81900e-06;0.005906453584165695
2.81925e-06;0.0059480685261423865
2.81950e-06;0.005989683468119077
2.81975e-06;0.006031298410095698
2.82000e-06;0.00607291335207239
2.82025e-06;0.00611452829404908
2.82050e-06;0.006156143236025771
2.82075e-06;0.006197758178002393
2.82100e-06;0.006239373119979083
2.82125e-06;0.006280988061955774
2.82150e-06;0.006316131942982856
2.82175e-06;0.006350408545979574
2.82200e-06;0.006384685148976292
2.82225e-06;0.006418961751973011
2.82250e-06;0.00645323835496967
2.82275e-06;0.006487514957966388
2.82300e-06;0.006521791560963107
2.82325e-06;0.006556068163959767
2.82350e-06;0.006590344766956484
2.82375e-06;0.006624621369953202
2.82400e-06;0.006658897972949863
2.82425e-06;0.006693174575946581
2.82450e-06;0.006727451178943298
2.82475e-06;0.00675671484915135
2.82500e-06;0.006777862249743633
2.82525e-06;0.006799009650335951
2.82550e-06;0.006820157050928269
2.82575e-06;0.006841304451520551
2.82600e-06;0.006862451852112869
2.82625e-06;0.006883599252705187
2.82650e-06;0.006904746653297506
2.82675e-06;0.006925894053889788
2.82700e-06;0.006947041454482106
2.82725e-06;0.006968188855074425
2.82750e-06;0.006989336255666706
2.82775e-06;0.007010483656259024
2.82800e-06;0.007031631056851343
2.82825e-06;0.007052778457443625
2.82850e-06;0.007073925858035943
2.82875e-06;0.0070950732586282615
2.82900e-06;0.00709846652693893
2.82925e-06;0.007099480313894241
2.82950e-06;0.007100494100849555
2.82975e-06;0.007101507887804869
2.83000e-06;0.0071025216747601806
2.83025e-06;0.007103535461715493
2.83050e-06;0.007104549248670807
2.83075e-06;0.007105563035626121
2.83100e-06;0.0071065768225814325
2.83125e-06;0.007107590609536745
2.83150e-06;0.007108604396492059
2.83175e-06;0.007109618183447371
2.83200e-06;0.007110631970402684
2.83225e-06;0.007111645757357997
2.83250e-06;0.007112659544313309
2.83275e-06;0.007113673331268623
2.83300e-06;0.007111363217456683
2.83325e-06;0.007103671488542077
2.83350e-06;0.007095979759627485
2.83375e-06;0.007088288030712878
2.83400e-06;0.007080596301798273
2.83425e-06;0.00707290457288368
2.83450e-06;0.007065212843969075
2.83475e-06;0.007057521115054469
2.83500e-06;0.007049829386139863
2.83525e-06;0.00704213765722527
2.83550e-06;0.007034445928310665
2.83575e-06;0.007026754199396059
2.83600e-06;0.007019062470481467
2.83625e-06;0.00701137074156686
2.83650e-06;0.007003679012652255
2.83675e-06;0.006995386408511833
2.83700e-06;0.006987013272618323
2.83725e-06;0.006978640136724813
2.83750e-06;0.006970267000831303
2.83775e-06;0.006961893864937808
2.83800e-06;0.006953520729044298
2.83825e-06;0.0069451475931507885
2.83850e-06;0.0069367744572572925
2.83875e-06;0.006928401321363783
2.83900e-06;0.006920028185470274
2.83925e-06;0.006911655049576764
2.83950e-06;0.006903281913683268
2.83975e-06;0.006894908777789758
2.84000e-06;0.006886535641896248
2.84025e-06;0.006875951799908866
2.84050e-06;0.0068617886785938805
2.84075e-06;0.006847625557278895
2.84100e-06;0.006833462435963934
2.84125e-06;0.006819299314648948
2.84150e-06;0.006805136193333962
2.84175e-06;0.006790973072018977
2.84200e-06;0.0067768099507040155
2.84225e-06;0.00676264682938903
2.84250e-06;0.006748483708074045
2.84275e-06;0.006734320586759083
2.84300e-06;0.006720157465444098
2.84325e-06;0.006705994344129113
2.84350e-06;0.006691831222814127
2.84375e-06;0.006677519590463611
2.84400e-06;0.006662967508927641
2.84425e-06;0.006648415427391672
2.84450e-06;0.006633863345855727
2.84475e-06;0.006619311264319757
2.84500e-06;0.006604759182783788
2.84525e-06;0.006590207101247843
2.84550e-06;0.006575655019711873
2.84575e-06;0.006561102938175904
2.84600e-06;0.006546550856639935
2.84625e-06;0.00653199877510399
2.84650e-06;0.00651744669356802
2.84675e-06;0.006502894612032051
2.84700e-06;0.0064883425304961065
2.84725e-06;0.006471027351868596
2.84750e-06;0.006449238536366518
2.84775e-06;0.0064274497208644775
2.84800e-06;0.0064056609053624
2.84825e-06;0.006383872089860323
2.84850e-06;0.0063620832743582455
2.84875e-06;0.006340294458856205
2.84900e-06;0.006318505643354128
2.84925e-06;0.0062857790643773065
2.84950e-06;0.006235343523179735
2.84975e-06;0.006184907981982077
2.85000e-06;0.00613447244078442
2.85025e-06;0.006084036899586762
2.85050e-06;0.006033601358389189
2.85075e-06;0.005983165817191532
2.85100e-06;0.005932730275993875
2.85125e-06;0.005872133164998289
2.85150e-06;0.005795083800662454
2.85175e-06;0.005718034436326619
2.85200e-06;0.005640985071990915
2.85225e-06;0.00556393570765508
2.85250e-06;0.005486886343319245
2.85275e-06;0.00540983697898341
2.85300e-06;0.005332787614647705
2.85325e-06;0.005251503844333027
2.85350e-06;0.005163364290778671
2.85375e-06;0.005075224737224464
2.85400e-06;0.004987085183670108
2.85425e-06;0.004898945630115752
2.85450e-06;0.004810806076561396
2.85475e-06;0.004722666523007189
2.85500e-06;0.004634526969452833
2.85525e-06;0.004550276170294735
2.85550e-06;0.004472321521611399
2.85575e-06;0.00439436687292793
2.85600e-06;0.004316412224244462
2.85625e-06;0.004238457575561125
2.85650e-06;0.004160502926877656
2.85675e-06;0.004090785984086975
2.85700e-06;0.004034406431777263
2.85725e-06;0.003978026879467647
2.85750e-06;0.003921647327157935
2.85775e-06;0.0038652677748482233
2.85800e-06;0.003808888222538607
2.85825e-06;0.0037595428703242435
2.85850e-06;0.0037215863531344993
2.85875e-06;0.003683629835944755
2.85900e-06;0.003645673318755075
2.85925e-06;0.003607716801565331
2.85950e-06;0.003569760284375587
2.85975e-06;0.003531803767185907
2.86000e-06;0.003493847249996163
2.86025e-06;0.0034558907328064185
2.86050e-06;0.003417934215616739
2.86075e-06;0.0033799776984269943
2.86100e-06;0.0033537912076038903
2.86125e-06;0.00332918218381007
2.86150e-06;0.0033045731600162913
2.86175e-06;0.003279964136222471
2.86200e-06;0.0032553551124286507
2.86225e-06;0.0032307460886348725
2.86250e-06;0.003206137064841052
2.86275e-06;0.003181528041047232
2.86300e-06;0.0031569190172534116
2.86325e-06;0.003132309993459633
2.86350e-06;0.0031102783951549714
2.86375e-06;0.0030924198191254306
2.86400e-06;0.0030745612430959197
2.86425e-06;0.0030567026670663784
2.86450e-06;0.003038844091036837
2.86475e-06;0.003020985515007326
2.86500e-06;0.0030031269389777853
2.86525e-06;0.002985268362948244
2.86550e-06;0.0029717020744415815
2.86575e-06;0.0029587110558482936
2.86600e-06;0.0029457200372549836
2.86625e-06;0.002932729018661674
2.86650e-06;0.002919738000068386
2.86675e-06;0.002906746981475076
2.86700e-06;0.0028937559628817665
2.86725e-06;0.002883841864179717
2.86750e-06;0.002878909502214342
2.86775e-06;0.002873977140248958
2.86800e-06;0.0028747927971202953
2.86825e-06;0.0028849148765224923
2.86850e-06;0.0028950369559247063
2.86875e-06;0.002910602992190275
2.86900e-06;0.002934983154548531
2.86925e-06;0.002959363316906829
2.86950e-06;0.0029900429345371127
2.86975e-06;0.0030309217867455682
2.87000e-06;0.0030718006389539544
2.87025e-06;0.003119222646431347
2.87050e-06;0.0031772384548944435
2.87075e-06;0.003235254263357442
2.87100e-06;0.0032985922972164823
2.87125e-06;0.0033705473658742777
2.87150e-06;0.003442502434532073
2.87175e-06;0.0035217502538642358
2.87200e-06;0.0036128055187040066
2.87225e-06;0.003703860783543778
2.87250e-06;0.0037949160483833947
2.87275e-06;0.003885971313223166
2.87300e-06;0.003977026578062937
2.87325e-06;0.004068081842902554
2.87350e-06;0.004169612337380793
2.87375e-06;0.004272546764940155
2.87400e-06;0.004375481192499518
2.87425e-06;0.004478415620058705
2.87450e-06;0.004581350047618068
2.87475e-06;0.004684284475177431
2.87500e-06;0.0047830430985473515
2.87525e-06;0.004875040818848513
2.87550e-06;0.004967038539149675
2.87575e-06;0.005059036259450836
2.87600e-06;0.005151033979751842
2.87625e-06;0.005243031700053004
2.87650e-06;0.005335029420354165
2.87675e-06;0.005427027140655172
2.87700e-06;0.0054856202725812875
2.87725e-06;0.0055397363850717765
2.87750e-06;0.005593852497562174
2.87775e-06;0.005647968610052663
2.87800e-06;0.005702084722543152
2.87825e-06;0.005756200835033641
2.87850e-06;0.005810316947524038
2.87875e-06;0.0058445480766582715
2.87900e-06;0.00584658410302681
2.87925e-06;0.0058486201293953466
2.87950e-06;0.005850656155763886
2.87975e-06;0.005852692182132425
2.88000e-06;0.005854728208500965
2.88025e-06;0.0058567642348695
2.88050e-06;0.00585880026123804
2.88075e-06;0.005860836287606579
2.88100e-06;0.005845272832004192
2.88125e-06;0.0058012146514865555
2.88150e-06;0.005757156470968918
2.88175e-06;0.0057130982904513555
2.88200e-06;0.005669040109933719
2.88225e-06;0.005624981929416082
2.88250e-06;0.005580923748898445
2.88275e-06;0.005536865568380882
2.88300e-06;0.005492807387863245
2.88325e-06;0.005440523559173663
2.88350e-06;0.0053749218622482706
2.88375e-06;0.005309320165322766
2.88400e-06;0.0052437184683972625
2.88425e-06;0.005178116771471759
2.88450e-06;0.005112515074546366
2.88475e-06;0.005046913377620862
2.88500e-06;0.004982372771343598
2.88525e-06;0.004919550140980854
2.88550e-06;0.004856727510618002
2.88575e-06;0.004793904880255151
2.88600e-06;0.0047310822498924055
2.88625e-06;0.0046682596195295545
2.88650e-06;0.0046054369891667035
2.88675e-06;0.004554007921237333
2.88700e-06;0.004521025784183173
2.88725e-06;0.004488043647128957
2.88750e-06;0.004455061510074741
2.88775e-06;0.00442207937302058
2.88800e-06;0.004389097235966364
2.88825e-06;0.004356115098912148
2.88850e-06;0.004323132961857932
2.88875e-06;0.004290150824803772
2.88900e-06;0.004257168687749556
2.88925e-06;0.004240660267483757
2.88950e-06;0.00425082388387278
2.88975e-06;0.004260987500261819
2.89000e-06;0.004271151116650859
2.89025e-06;0.004281314733039881
2.89050e-06;0.00429147834942892
2.89075e-06;0.0043016419658179605
2.89100e-06;0.004311805582207
2.89125e-06;0.004321969198596023
2.89150e-06;0.004332132814985062
2.89175e-06;0.004353750016774888
2.89200e-06;0.004393911330592606
2.89225e-06;0.004434072644410391
2.89250e-06;0.004474233958228177
2.89275e-06;0.004514395272045962
2.89300e-06;0.00455455658586368
2.89325e-06;0.0045947178996814655
2.89350e-06;0.004634879213499251
2.89375e-06;0.004675040527316969
2.89400e-06;0.004722785789830732
2.89425e-06;0.004771547484139316
2.89450e-06;0.004820309178447818
2.89475e-06;0.004869070872756403
2.89500e-06;0.0049178325670649874
2.89525e-06;0.0049665942613735725
2.89550e-06;0.005015355955682074
2.89575e-06;0.005064117649990659
2.89600e-06;0.005108194807070075
2.89625e-06;0.005144687388652744
2.89650e-06;0.0051811799702354755
2.89675e-06;0.005217672551818208
2.89700e-06;0.0052541651334009395
2.89725e-06;0.0052906577149836095
2.89750e-06;0.005327150296566341
2.89775e-06;0.005363642878149073
2.89800e-06;0.005400135459731743
2.89825e-06;0.005433954433460489
2.89850e-06;0.005463444659305402
2.89875e-06;0.005492934885150265
2.89900e-06;0.005522425110995178
2.89925e-06;0.0055519153368400916
2.89950e-06;0.005581405562685005
2.89975e-06;0.0056108957885298676
2.90000e-06;0.005640386014374781
2.90025e-06;0.005669876240219694
2.90050e-06;0.005700375956162142
2.90075e-06;0.0057325101033161045
2.90100e-06;0.005764644250470067
2.90125e-06;0.005796778397624029
2.90150e-06;0.0058289125447779375
2.90175e-06;0.0058610466919319
2.90200e-06;0.005893180839085862
2.90225e-06;0.00592531498623977
2.90250e-06;0.005957449133393732
2.90275e-06;0.005989583280547694
2.90300e-06;0.006021717427701603
2.90325e-06;0.006053851574855565
2.90350e-06;0.006085985722009527
2.90375e-06;0.006118119869163489
2.90400e-06;0.00614644369882601
2.90425e-06;0.00617425685416804
2.90450e-06;0.006202070009510069
2.90475e-06;0.006229883164852052
2.90500e-06;0.006257696320194081
2.90525e-06;0.006285509475536111
2.90550e-06;0.00631332263087814
2.90575e-06;0.006341135786220123
2.90600e-06;0.006368948941562153
2.90625e-06;0.006396762096904182
2.90650e-06;0.006424575252246165
2.90675e-06;0.006452388407588195
2.90700e-06;0.006480201562930225
2.90725e-06;0.006499097732405196
2.90750e-06;0.006503556712205027
2.90775e-06;0.006508015692004859
2.90800e-06;0.006512474671804689
2.90825e-06;0.0065169336516045125
2.90850e-06;0.006521392631404344
2.90875e-06;0.006525851611204175
2.90900e-06;0.0065303105910039985
2.90925e-06;0.006534769570803829
2.90950e-06;0.00653922855060366
2.90975e-06;0.006543687530403491
2.91000e-06;0.006548146510203315
2.91025e-06;0.006552605490003145
2.91050e-06;0.0065570644698029765
2.91075e-06;0.0065615234496028
2.91100e-06;0.006544784572059653
2.91125e-06;0.006525204671052934
2.91150e-06;0.006505624770046249
2.91175e-06;0.00648604486903953
2.91200e-06;0.006466464968032812
2.91225e-06;0.006446885067026093
2.91250e-06;0.006427305166019408
2.91275e-06;0.006407725265012689
2.91300e-06;0.006388145364005971
2.91325e-06;0.006368565462999286
2.91350e-06;0.006348985561992568
2.91375e-06;0.006329405660985849
2.91400e-06;0.006309825759979131
2.91425e-06;0.006290245858972445
2.91450e-06;0.006269598114108842
2.91475e-06;0.006247221459439199
2.91500e-06;0.006224844804769594
2.91525e-06;0.006202468150099952
2.91550e-06;0.006180091495430309
2.91575e-06;0.006157714840760705
2.91600e-06;0.006135338186091062
2.91625e-06;0.00611296153142142
2.91650e-06;0.0060905848767517775
2.91675e-06;0.006068208222082173
2.91700e-06;0.006045831567412531
2.91725e-06;0.006023454912742888
2.91750e-06;0.006005135993406341
2.91775e-06;0.005993386815856065
2.91800e-06;0.005981637638305788
2.91825e-06;0.005969888460755512
2.91850e-06;0.0059581392832052564
2.91875e-06;0.00594639010565498
2.91900e-06;0.005934640928104704
2.91925e-06;0.005922891750554448
2.91950e-06;0.005911142573004171
2.91975e-06;0.0058993933954538955
2.92000e-06;0.00588764421790364
2.92025e-06;0.005875895040353363
2.92050e-06;0.005867796416736062
2.92075e-06;0.005865608281297171
2.92100e-06;0.005863420145858284
2.92125e-06;0.005861232010419393
2.92150e-06;0.005859043874980502
2.92175e-06;0.005856855739541615
2.92200e-06;0.005854667604102724
2.92225e-06;0.005852479468663833
2.92250e-06;0.0058502913332249456
2.92275e-06;0.005848103197786055
2.92300e-06;0.005845915062347164
2.92325e-06;0.005843726926908273
2.92350e-06;0.005841538791469386
2.92375e-06;0.005839350656030495
2.92400e-06;0.0058371625205916045
2.92425e-06;0.005834974385152717
2.92450e-06;0.005832786249713826
2.92475e-06;0.005830598114274935
2.92500e-06;0.005828409978836045
2.92525e-06;0.005826221843397157
2.92550e-06;0.005824033707958267
2.92575e-06;0.005821845572519376
2.92600e-06;0.005819657437080489
2.92625e-06;0.005817469301641598
2.92650e-06;0.005815281166202706
2.92675e-06;0.0058130930307638195
2.92700e-06;0.005810904895324928
2.92725e-06;0.005808716759886038
2.92750e-06;0.005806528624447147
2.92775e-06;0.00580434048900826
2.92800e-06;0.005802152353569369
2.92825e-06;0.0057999642181304776
2.92850e-06;0.005797776082691591
2.92875e-06;0.0057955879472526995
2.92900e-06;0.005796454021151577
2.92925e-06;0.005797729432666671
2.92950e-06;0.005799004844181763
2.92975e-06;0.005800280255696857
2.93000e-06;0.0058015556672119505
2.93025e-06;0.005802831078727042
2.93050e-06;0.005804106490242135
2.93075e-06;0.005805381901757229
2.93100e-06;0.00580665731327232
2.93125e-06;0.005807932724787414
2.93150e-06;0.005809208136302508
2.93175e-06;0.005810483547817601
2.93200e-06;0.005811758959332693
2.93225e-06;0.005813034370847786
2.93250e-06;0.00581430978236288
2.93275e-06;0.005815585193877972
2.93300e-06;0.005816860605393066
2.93325e-06;0.005818136016908159
2.93350e-06;0.005819411428423253
2.93375e-06;0.005820686839938344
2.93400e-06;0.005821962251453438
2.93425e-06;0.005823237662968532
2.93450e-06;0.005824513074483623
2.93475e-06;0.005825788485998717
2.93500e-06;0.00582706389751381
2.93525e-06;0.0058283393090289015
2.93550e-06;0.0058296147205439955
2.93575e-06;0.005830890132059089
2.93600e-06;0.0058321655435741825
2.93625e-06;0.005833440955089275
2.93650e-06;0.005834716366604368
2.93675e-06;0.005835991778119462
2.93700e-06;0.005837267189634553
2.93725e-06;0.005838844123738853
2.93750e-06;0.0058409092428506745
2.93775e-06;0.005842974361962496
2.93800e-06;0.005845039481074315
2.93825e-06;0.005847104600186137
2.93850e-06;0.005849169719297959
2.93875e-06;0.005851234838409778
2.93900e-06;0.0058532999575215995
2.93925e-06;0.005855365076633421
2.93950e-06;0.00585743019574524
2.93975e-06;0.005859495314857062
2.94000e-06;0.005861560433968883
2.94025e-06;0.005863625553080705
2.94050e-06;0.005865690672192524
2.94075e-06;0.0058677557913043455
2.94100e-06;0.005869820910416167
2.94125e-06;0.005871886029527986
2.94150e-06;0.0058739511486398084
2.94175e-06;0.00587601626775163
2.94200e-06;0.005878081386863452
2.94225e-06;0.0058801465059752705
2.94250e-06;0.0058825841430194025
2.94275e-06;0.005885624911225522
2.94300e-06;0.005888665679431636
2.94325e-06;0.005891706447637757
2.94350e-06;0.005894747215843876
2.94375e-06;0.005897787984049991
2.94400e-06;0.00590082875225611
2.94425e-06;0.0059038695204622306
2.94450e-06;0.00590691028866835
2.94475e-06;0.005909951056874464
2.94500e-06;0.005912991825080585
2.94525e-06;0.005916032593286704
2.94550e-06;0.005919073361492819
2.94575e-06;0.005922114129698939
2.94600e-06;0.005925154897905059
2.94625e-06;0.005928195666111178
2.94650e-06;0.0059312364343172925
2.94675e-06;0.005934277202523413
2.94700e-06;0.0059373179707295325
2.94725e-06;0.005940358738935647
2.94750e-06;0.005943399507141767
2.94775e-06;0.005941451324740587
2.94800e-06;0.005931425701454012
2.94825e-06;0.005921400078167418
2.94850e-06;0.005911374454880825
2.94875e-06;0.005901348831594232
2.94900e-06;0.005891323208307656
2.94925e-06;0.005881297585021063
2.94950e-06;0.00587127196173447
2.94975e-06;0.0058612463384478935
2.95000e-06;0.005851220715161301
2.95025e-06;0.005841195091874707
2.95050e-06;0.005831169468588114
