Time(s);Current(A)
7.05000e-06;-0.0021475279937839707
7.05025e-06;-0.002158218218761838
7.05050e-06;-0.002168908443739669
7.05075e-06;-0.0021795986687175
7.05100e-06;-0.002190288893695367
7.05125e-06;-0.002199536778427306
7.05150e-06;-0.002207309053363545
7.05175e-06;-0.0022150813282998103
7.05200e-06;-0.002222853603236049
7.05225e-06;-0.002230625878172288
7.05250e-06;-0.002238398153108553
7.05275e-06;-0.002245320771770666
7.05300e-06;-0.002251374135675023
7.05325e-06;-0.0022556131374029025
7.05350e-06;-0.002257995926210056
7.05375e-06;-0.002255573791397218
7.05400e-06;-0.0022482359008318227
7.05425e-06;-0.002235850135897641
7.05450e-06;-0.002218300060470884
7.05475e-06;-0.0021961996360600213
7.05500e-06;-0.002169443902644537
7.05525e-06;-0.002137878411913278
7.05550e-06;-0.002101392220238211
7.05575e-06;-0.002058798251342097
7.05600e-06;-0.002009955620992832
7.05625e-06;-0.0019554286796851623
7.05650e-06;-0.0018950863110153541
7.05675e-06;-0.0018299467008486025
7.05700e-06;-0.0017598991942517094
7.05725e-06;-0.0016854672380094426
7.05750e-06;-0.0016065496987963225
7.05775e-06;-0.0015230101970968417
7.05800e-06;-0.0014347421210271886
7.05825e-06;-0.001342692656384134
7.05850e-06;-0.0012467745802712676
7.05875e-06;-0.0011487285272062662
7.05900e-06;-0.0010474606437108158
7.05925e-06;-0.0009442510363186879
7.05950e-06;-0.0008393057073986887
7.05975e-06;-0.0007327619900264689
7.06000e-06;-0.0006249995419814027
7.06025e-06;-0.0005166164757930057
7.06050e-06;-0.00040826249165079717
7.06075e-06;-0.00030058721615403526
7.06100e-06;-0.00019423795975617017
7.06125e-06;-8.979213546218179e-05
7.06150e-06;1.2330615312027993e-05
7.06175e-06;0.00011175362138661583
7.06200e-06;0.00020794851006696643
7.06225e-06;0.00030025010658683214
7.06250e-06;0.00038796094099723116
7.06275e-06;0.0004703836698064939
7.06300e-06;0.0005468314967840968
7.06325e-06;0.0006169609582959017
7.06350e-06;0.0006812679038850699
7.06375e-06;0.0007406619255729718
7.06400e-06;0.0007955402847257382
7.06425e-06;0.0008457381998197688
7.06450e-06;0.00089094848025657
7.06475e-06;0.0009308639923175264
7.06500e-06;0.0009651843081509588
7.06525e-06;0.0009926238842579795
7.06550e-06;0.0010159955988909377
7.06575e-06;0.0010350675110954762
7.06600e-06;0.001049740440050932
7.06625e-06;0.001060293305247695
7.06650e-06;0.0010666310717832752
7.06675e-06;0.0010687268100618365
7.06700e-06;0.0010664826719029787
7.06725e-06;0.0010602460162513435
7.06750e-06;0.0010499247502334893
7.06775e-06;0.0010365537100004308
7.06800e-06;0.0010200625483410151
7.06825e-06;0.0010008904407053116
7.06850e-06;0.0009789755474096957
7.06875e-06;0.0009540004644355817
7.06900e-06;0.0009258946043252094
7.06925e-06;0.0008977887442148371
7.06950e-06;0.0008671878531866474
7.06975e-06;0.0008340343799422883
7.07000e-06;0.0008008809066979292
7.07025e-06;0.0007665833053730947
7.07050e-06;0.000731115185089958
7.07075e-06;0.0006956470648068211
7.07100e-06;0.0006599729082478248
7.07125e-06;0.0006240879629048867
7.07150e-06;0.000588203017561827
7.07175e-06;0.0005532910021174444
7.07200e-06;0.000519374358529572
7.07225e-06;0.0004869320928072455
7.07250e-06;0.00045599821349139236
7.07275e-06;0.0004264738455723185
7.07300e-06;0.00039949188641003926
7.07325e-06;0.00037481238257747033
7.07350e-06;0.00035251082235948265
7.07375e-06;0.00033256620034360717
7.07400e-06;0.0003149765822497061
7.07425e-06;0.0002997910392058229
7.07450e-06;0.0002870739776568867
7.07475e-06;0.0002768897903256185
7.07500e-06;0.0002693020633231709
7.07525e-06;0.00026434603914183175
7.07550e-06;0.0002619794313184962
7.07575e-06;0.00026209951644826833
7.07600e-06;0.00026461546856323194
7.07625e-06;0.00026946846234205177
7.07650e-06;0.00027660928320745367
7.07675e-06;0.00028598867342408997
7.07700e-06;0.0002975568995232214
7.07725e-06;0.00031124648014455546
7.07750e-06;0.00032694134163668777
7.07775e-06;0.00034489241842048995
7.07800e-06;0.0003641529259631952
7.07825e-06;0.0003849138140645265
7.07850e-06;0.00040720969105273626
7.07875e-06;0.0004307677740025022
7.07900e-06;0.0004556171774192401
7.07925e-06;0.0004818392113270803
7.07950e-06;0.000509465537324377
7.07975e-06;0.0005370918633215802
7.08000e-06;0.000564718189318877
7.08025e-06;0.00059234451531608
7.08050e-06;0.0006209708713179255
7.08075e-06;0.0006496029610206527
7.08100e-06;0.0006782350507232829
7.08125e-06;0.0007068671404259131
7.08150e-06;0.0007348281792270816
7.08175e-06;0.0007621026884204573
7.08200e-06;0.000788410631122016
7.08225e-06;0.0008137297121547506
7.08250e-06;0.0008377002496536797
7.08275e-06;0.0008602911376193142
7.08300e-06;0.0008811176979120621
7.08325e-06;0.0009001392339028218
7.08350e-06;0.0009167013826853923
7.08375e-06;0.0009307474151328078
7.08400e-06;0.0009419609882633667
7.08425e-06;0.0009502767675321365
7.08450e-06;0.0009557574404602583
7.08475e-06;0.0009583376114455696
7.08500e-06;0.0009580746343168839
7.08525e-06;0.0009549029279775395
7.08550e-06;0.0009487050692326073
7.08575e-06;0.0009394112557413357
7.08600e-06;0.000927110063573008
7.08625e-06;0.0009117321234286181
7.08650e-06;0.000893597595725313
7.08675e-06;0.0008726428960041257
7.08700e-06;0.0008491789759745901
7.08725e-06;0.0008231479570412207
7.08750e-06;0.0007947455068967212
7.08775e-06;0.0007639169252394606
7.08800e-06;0.0007309810824680559
7.08825e-06;0.0006958893717254929
7.08850e-06;0.0006587618407391311
7.08875e-06;0.0006195515305333139
7.08900e-06;0.0005803412203274968
7.08925e-06;0.0005394515077951208
7.08950e-06;0.0004968436552268917
7.08975e-06;0.0004542358026586627
7.09000e-06;0.00041084074823227035
7.09025e-06;0.00036664033406144886
7.09050e-06;0.0003224399198906273
7.09075e-06;0.0002784208508260456
7.09100e-06;0.00023458730984068487
7.09125e-06;0.00019123682911829324
7.09150e-06;0.00014885038344079248
7.09175e-06;0.0001075347426778529
7.09200e-06;6.755120717136301e-05
7.09225e-06;2.9184456051305763e-05
7.09250e-06;-7.275694448016172e-06
7.09275e-06;-4.153946281952105e-05
7.09300e-06;-7.331513836538364e-05
7.09325e-06;-0.00010225694411784181
7.09350e-06;-0.00012792112048205152
7.09375e-06;-0.00014990774070996161
7.09400e-06;-0.00016802347756392124
7.09425e-06;-0.00018222332769124707
7.09450e-06;-0.00019249375028584847
7.09475e-06;-0.00019882123381153238
7.09500e-06;-0.00020119105847406379
7.09525e-06;-0.00019955464776298746
7.09550e-06;-0.00019380207188286947
7.09575e-06;-0.00018385088008544896
7.09600e-06;-0.00016974803044902026
7.09625e-06;-0.00015163339945836954
7.09650e-06;-0.00012966656341581022
7.09675e-06;-0.00010400710581688556
7.09700e-06;-7.481385146129236e-05
7.09725e-06;-4.2224413306173805e-05
7.09750e-06;-6.337964858405744e-06
7.09775e-06;3.2729107487620975e-05
7.09800e-06;7.477936499867286e-05
7.09825e-06;0.00011955717671080653
7.09850e-06;0.00016679458196261878
7.09875e-06;0.00021622363960335558
7.09900e-06;0.0002675768983533253
7.09925e-06;0.0003209287539771669
7.09950e-06;0.0003753996431310572
7.09975e-06;0.00043091025877417636
7.10000e-06;0.0004874845836187731
7.10025e-06;0.0005444640613493169
7.10050e-06;0.000601858037370875
7.10075e-06;0.000659141011025356
7.10100e-06;0.0007160155664582953
7.10125e-06;0.0007721360255507732
7.10150e-06;0.0008271904902230426
7.10175e-06;0.0008808603163961771
7.10200e-06;0.0009327951224102915
7.10225e-06;0.0009826217933714824
7.10250e-06;0.0010299623869376177
7.10275e-06;0.0010744389319945343
7.10300e-06;0.0011156730827279846
7.10325e-06;0.0011532805007846644
7.10350e-06;0.0011868955921633118
7.10375e-06;0.0012162519587135278
7.10400e-06;0.0012401060022083769
7.10425e-06;0.0012605839811867523
7.10450e-06;0.001276571111670034
7.10475e-06;0.0012879638061023223
7.10500e-06;0.0012947545633563247
7.10525e-06;0.0012968372334638085
7.10550e-06;0.001294249776758302
7.10575e-06;0.0012868844703846165
7.10600e-06;0.0012750226186602925
7.10625e-06;0.0012585605026236726
7.10650e-06;0.001237889417353842
7.10675e-06;0.0012129122772252296
7.10700e-06;0.0011840157580204835
7.10725e-06;0.0011511094539069166
7.10750e-06;0.001114600349008427
7.10775e-06;0.0010744053398028005
7.10800e-06;0.0010310753912676053
7.10825e-06;0.0009845381917443054
7.10850e-06;0.000935405355216755
7.10875e-06;0.0008836170097718076
7.10900e-06;0.0008293734346717373
7.10925e-06;0.0007726179966902077
7.10950e-06;0.0007158625587088703
7.10975e-06;0.0006573460922429924
7.11000e-06;0.0005970279767652317
7.11025e-06;0.000536709861287471
7.11050e-06;0.00047616779416976125
7.11075e-06;0.00041539660966200383
7.11100e-06;0.0003546254251542464
7.11125e-06;0.00029451806817815254
7.11150e-06;0.00023571484335090976
7.11175e-06;0.0001783646994541275
7.11200e-06;0.00012285790744530432
7.11225e-06;6.959518035241229e-05
7.11250e-06;1.8978922660381786e-05
7.11275e-06;-2.8588509535696044e-05
7.11300e-06;-7.270966797890648e-05
7.11325e-06;-0.0001131485057171077
7.11350e-06;-0.00015006996261840436
7.11375e-06;-0.00018385378926680628
7.11400e-06;-0.00021466234614236096
7.11425e-06;-0.00024240492551227654
7.11450e-06;-0.0002669255159616663
7.11475e-06;-0.0002880681570902614
7.11500e-06;-0.0003056799604060917
7.11525e-06;-0.00031970916940801057
7.11550e-06;-0.00033035522369557314
7.11575e-06;-0.00033795207180296324
7.11600e-06;-0.0003426974858264843
7.11625e-06;-0.0003446306939794457
7.11650e-06;-0.0003437500219620014
7.11675e-06;-0.0003400538402914899
7.11700e-06;-0.0003335424465453946
7.11725e-06;-0.000324279496211551
7.11750e-06;-0.0003124859611140262
7.11775e-06;-0.00029846709477701145
7.11800e-06;-0.00028244278489222304
7.11825e-06;-0.00026453359156746077
7.11850e-06;-0.0002448345093736244
7.11875e-06;-0.00022344051196610164
7.11900e-06;-0.0002004477658767488
7.11925e-06;-0.00017599214292607606
7.11950e-06;-0.00015030803200679802
7.11975e-06;-0.00012368258867719863
7.12000e-06;-9.634950649918368e-05
7.12025e-06;-6.848023901610604e-05
7.12050e-06;-4.023017697342756e-05
7.12075e-06;-1.1754719333459917e-05
7.12100e-06;1.678998816148471e-05
7.12125e-06;4.5222957736709724e-05
7.12150e-06;7.330149945425521e-05
7.12175e-06;0.0001007498876839374
7.12200e-06;0.0001273259152826785
7.12225e-06;0.00015282637328481254
7.12250e-06;0.00017705811763322639
7.12275e-06;0.00019982801530884435
7.12300e-06;0.0002209435303117931
7.12325e-06;0.0002402348271334555
7.12350e-06;0.00025760015802385293
7.12375e-06;0.0002730052302590373
7.12400e-06;0.00028642818836486107
7.12425e-06;0.00029783200869643674
7.12450e-06;0.0003071735590452436
7.12475e-06;0.00031440972225239714
7.12500e-06;0.00031949775486308097
7.12525e-06;0.00032240913574892475
7.12550e-06;0.00032315800066744633
7.12575e-06;0.00032180074737733414
7.12600e-06;0.00031840155632446946
7.12625e-06;0.00031301511325468215
7.12650e-06;0.00030569227694581566
7.12675e-06;0.0002964839065074602
7.12700e-06;0.0002854410765074682
7.12725e-06;0.0002726237861422259
7.12750e-06;0.00025811877720297304
7.12775e-06;0.0002420392275574558
7.12800e-06;0.0002245031790038891
7.12825e-06;0.00020562273760357802
7.12850e-06;0.0001855075956936423
7.12875e-06;0.00016426743122501273
7.12900e-06;0.00014201208006275968
7.12925e-06;0.00011885694224273867
7.12950e-06;9.493413991812998e-05
7.12975e-06;7.039238552796411e-05
7.13000e-06;4.5383415615740034e-05
7.13025e-06;2.0055224714634254e-05
7.13050e-06;-5.433895730332817e-06
7.13075e-06;-3.0960829044145876e-05
7.13100e-06;-5.637984396851003e-05
7.13125e-06;-8.15164702816249e-05
7.13150e-06;-0.00010622229335162118
7.13175e-06;-0.00013032645256844284
7.13200e-06;-0.00015365619692482089
7.13225e-06;-0.00017604112023378307
7.13250e-06;-0.00019731178685564697
7.13275e-06;-0.0002172987835590957
7.13300e-06;-0.0002355614343864448
7.13325e-06;-0.0002527684193078616
7.13350e-06;-0.0002698996187871555
7.13375e-06;-0.00028695328472966796
7.13400e-06;-0.00030496334386567546
7.13425e-06;-0.00032395185671014364
7.13450e-06;-0.00034294036955461176
7.13475e-06;-0.0003624111754090454
7.13500e-06;-0.00038237539902021396
7.13525e-06;-0.0004027650957411368
7.13550e-06;-0.00042359007968997847
7.13575e-06;-0.0004456614018442353
7.13600e-06;-0.00046900781069669046
7.13625e-06;-0.0004936821407541031
7.13650e-06;-0.0005197150223325336
7.13675e-06;-0.0005457479039110523
7.13700e-06;-0.00057279495525209
7.13725e-06;-0.0006008795695662289
7.13750e-06;-0.000628964183880463
7.13775e-06;-0.0006588321777263381
7.13800e-06;-0.0006905246871881534
7.13825e-06;-0.0007222171966500758
7.13850e-06;-0.000753909706111891
7.13875e-06;-0.0007856022155737062
7.13900e-06;-0.0008172947250356287
7.13925e-06;-0.0008497775245502601
7.13950e-06;-0.0008830688432370519
7.13975e-06;-0.0009163601619237309
7.14000e-06;-0.0009496514806104099
7.14025e-06;-0.0009829427992972017
7.14050e-06;-0.0010162341179838807
7.14075e-06;-0.0010480450808680849
7.14100e-06;-0.0010783415415219065
7.14125e-06;-0.0011086380021756255
7.14150e-06;-0.0011389344628293444
7.14175e-06;-0.001169230923483166
7.14200e-06;-0.001199527384136885
7.14225e-06;-0.001229823844790604
7.14250e-06;-0.0012512528737818418
7.14275e-06;-0.0012726310611012545
7.14300e-06;-0.0012940092484206671
7.14325e-06;-0.0013153874357401522
7.14350e-06;-0.0013367656230595648
7.14375e-06;-0.00135814381037905
7.14400e-06;-0.0013754003765601146
7.14425e-06;-0.0013884402507834859
7.14450e-06;-0.0014014801250069014
7.14475e-06;-0.001411736442717303
7.14500e-06;-0.0014191449973830473
7.14525e-06;-0.0014265535520488165
7.14550e-06;-0.00142918591108383
7.14575e-06;-0.0014269319050144568
7.14600e-06;-0.001424677898945076
7.14625e-06;-0.001422423892875703
7.14650e-06;-0.0014201698868063297
7.14675e-06;-0.0014179158807369491
7.14700e-06;-0.001415661874667576
7.14725e-06;-0.001413407868598203
7.14750e-06;-0.001411153862528822
7.14775e-06;-0.0013983337729050673
7.14800e-06;-0.0013854531023408867
7.14825e-06;-0.0013725724317767496
7.14850e-06;-0.0013596917612126126
7.14875e-06;-0.001346811090648432
7.14900e-06;-0.001333930420084295
7.14925e-06;-0.0013210497495201579
7.14950e-06;-0.0013081690789559773
7.14975e-06;-0.001293273953329838
7.15000e-06;-0.001276317906485316
7.15025e-06;-0.0012593618596407363
7.15050e-06;-0.001242405812796214
7.15075e-06;-0.001225449765951692
7.15100e-06;-0.0012084937191071123
7.15125e-06;-0.0011921178691879164
7.15150e-06;-0.001176335599228268
7.15175e-06;-0.0011605533292685661
7.15200e-06;-0.0011447710593089177
7.15225e-06;-0.0011289887893492158
7.15250e-06;-0.0011132065193895674
7.15275e-06;-0.0010989280850270868
7.15300e-06;-0.001086188174282913
7.15325e-06;-0.0010731928832867343
7.15350e-06;-0.0010599363213443357
7.15375e-06;-0.0010432628257208197
7.15400e-06;-0.0010230935801759987
7.15425e-06;-0.0009993068888977691
7.15450e-06;-0.0009718193105615264
7.15475e-06;-0.0009413332297075965
7.15500e-06;-0.0009077794817816891
7.15525e-06;-0.0008709837770788822
7.15550e-06;-0.0008308713354403976
7.15575e-06;-0.0007872241531759951
7.15600e-06;-0.000737551156943499
7.15625e-06;-0.0006832219677192421
7.15650e-06;-0.0006246785562721747
7.15675e-06;-0.0005623628358280159
7.15700e-06;-0.0004967102445850691
7.15725e-06;-0.0004279547406899278
7.15750e-06;-0.0003558688869642672
7.15775e-06;-0.000280081917636427
7.15800e-06;-0.00020063866318234557
7.15825e-06;-0.00011796839561083078
7.15850e-06;-3.259217961036652e-05
7.15875e-06;5.496899781096132e-05
7.15900e-06;0.00014419823212762304
7.15925e-06;0.00023470488322483446
7.15950e-06;0.0003263873224380748
7.15975e-06;0.0004192336958558552
7.16000e-06;0.0005129718242891381
7.16025e-06;0.0006070887461254422
7.16050e-06;0.0007010139971833456
7.16075e-06;0.000794177242756688
7.16100e-06;0.0008860107837623327
7.16125e-06;0.0009760259579908192
7.16150e-06;0.0010639152318893102
7.16175e-06;0.0011494273351233591
7.16200e-06;0.0012321479095618736
7.16225e-06;0.0013115117581909124
7.16250e-06;0.0013869177685046869
7.16275e-06;0.0014577649470682054
7.16300e-06;0.0015234537377189722
7.16325e-06;0.0015834398610401217
7.16350e-06;0.0016373562468807096
7.16375e-06;0.001685035732524967
7.16400e-06;0.001726382510348598
7.16425e-06;0.0017612834462860409
7.16450e-06;0.0017896131610357724
7.16475e-06;0.0018112465054719753
7.16500e-06;0.0018260593715704115
7.16525e-06;0.0018322721579103745
7.16550e-06;0.0018332474272689796
7.16575e-06;0.0018276533877840105
7.16600e-06;0.00181533850937987
7.16625e-06;0.0017968126773641995
7.16650e-06;0.0017719326276139065
7.16675e-06;0.0017411839534814248
7.16700e-06;0.001704431287134696
7.16725e-06;0.001662220256321534
7.16750e-06;0.0016144249564152503
7.16775e-06;0.0015618255960436296
7.16800e-06;0.0015043113629944296
7.16825e-06;0.0014427145273237935
7.16850e-06;0.0013769409182294717
7.16875e-06;0.001307105796387624
7.16900e-06;0.0012331154774634354
7.16925e-06;0.0011591251585389962
7.16950e-06;0.0010818838628162805
7.16975e-06;0.0010013166020778183
7.17000e-06;0.0009207493413390831
7.17025e-06;0.0008390367536859121
7.17050e-06;0.0007561524205894675
7.17075e-06;0.0006732680874927421
7.17100e-06;0.0005910042800719246
7.17125e-06;0.0005093753115984008
7.17150e-06;0.00042886246646160113
7.17175e-06;0.0003505973269180351
7.17200e-06;0.0002748426821175436
7.17225e-06;0.0002021496125819625
7.17250e-06;0.00013306728241700662
7.17275e-06;6.8144808392441e-05
7.17300e-06;7.918127407115244e-06
7.17325e-06;-4.749895879587333e-05
7.17350e-06;-9.899828753443612e-05
7.17375e-06;-0.00014789629965098513
7.17400e-06;-0.00019478232655950075
7.17425e-06;-0.00023950846816573327
7.17450e-06;-0.0002817446793412508
7.17475e-06;-0.0003211609733316581
7.17500e-06;-0.000357435678987623
7.17525e-06;-0.00039051153690941375
7.17550e-06;-0.00042096119808876075
7.17575e-06;-0.0004496232700107233
7.17600e-06;-0.0004768807792077508
7.17625e-06;-0.0005022165767362138
7.17650e-06;-0.0005263044493253025
7.17675e-06;-0.0005484509169795443
7.17700e-06;-0.0005686111985445846
7.17725e-06;-0.0005869030553472302
7.17750e-06;-0.0006032833896202109
7.17775e-06;-0.0006186372253291969
7.17800e-06;-0.0006329408848837678
7.17825e-06;-0.0006459617832809145
7.17850e-06;-0.0006576703318839128
7.17875e-06;-0.0006693788804868712
7.17900e-06;-0.0006793182581289446
7.17925e-06;-0.0006874476564674688
7.17950e-06;-0.0006955770548059655
7.17975e-06;-0.00070209662917969
7.18000e-06;-0.0007069692468019243
7.18025e-06;-0.0007118418644241419
7.18050e-06;-0.0007167144820463596
7.18075e-06;-0.0007215870996685937
7.18100e-06;-0.0007264597172908113
7.18125e-06;-0.000731332334913029
7.18150e-06;-0.0007362049525352631
7.18175e-06;-0.0007385089174327804
7.18200e-06;-0.0007407981548873212
7.18225e-06;-0.0007430873923418542
7.18250e-06;-0.0007453766297963873
7.18275e-06;-0.0007476658672509281
7.18300e-06;-0.0007499551047054612
7.18325e-06;-0.0007522443421599942
7.18350e-06;-0.0007551853666412462
7.18375e-06;-0.0007587932125064367
7.18400e-06;-0.0007624010583716272
7.18425e-06;-0.0007660089042368299
7.18450e-06;-0.0007696167501020205
7.18475e-06;-0.000773224595967211
7.18500e-06;-0.0007768324418324137
7.18525e-06;-0.0007804402876976043
7.18550e-06;-0.0007840481335627948
7.18575e-06;-0.0007876559794279975
7.18600e-06;-0.000791263825293188
7.18625e-06;-0.0007948716711583907
7.18650e-06;-0.0007984795170235813
7.18675e-06;-0.0008054436423580089
7.18700e-06;-0.000812427011015561
7.18725e-06;-0.0008194103796730893
7.18750e-06;-0.0008263937483306178
7.18775e-06;-0.0008333771169881697
7.18800e-06;-0.0008403604856456982
7.18825e-06;-0.0008473438543032267
7.18850e-06;-0.0008543272229607787
7.18875e-06;-0.0008613105916183071
7.18900e-06;-0.0008682939602758355
7.18925e-06;-0.0008752773289333875
7.18950e-06;-0.000882260697590916
7.18975e-06;-0.0008897521741663394
7.19000e-06;-0.0008977634788621466
7.19025e-06;-0.0009057747835579267
7.19050e-06;-0.000913786088253734
7.19075e-06;-0.000921797392949514
7.19100e-06;-0.0009298086976452941
7.19125e-06;-0.0009373204485299445
7.19150e-06;-0.0009443211227131145
7.19175e-06;-0.0009513217968962845
7.19200e-06;-0.0009583224710794782
7.19225e-06;-0.0009653231452626482
7.19250e-06;-0.0009723238194458183
7.19275e-06;-0.0009783873992525302
7.19300e-06;-0.0009834922693223022
7.19325e-06;-0.0009885971393920742
7.19350e-06;-0.0009911999389923625
7.19375e-06;-0.0009912429544537775
7.19400e-06;-0.0009878882846993122
7.19425e-06;-0.000981057557483433
