Time(s);Current(A)
2.75000e-06;0.0019617985245694997
2.75025e-06;0.0019546447383680674
2.75050e-06;0.0019474909521666227
2.75075e-06;0.0019403371659651781
2.75100e-06;0.0019331833797637456
2.75125e-06;0.001926029593562301
2.75150e-06;0.0019188758073608563
2.75175e-06;0.0019117220211594117
2.75200e-06;0.0019045682349579792
2.75225e-06;0.0018974144487565346
2.75250e-06;0.00189026066255509
2.75275e-06;0.0018831068763536575
2.75300e-06;0.001875953090152213
2.75325e-06;0.0018687993039507684
2.75350e-06;0.0018647560342549918
2.75375e-06;0.0018619192515627843
2.75400e-06;0.0018590824688705769
2.75425e-06;0.0018562456861783694
2.75450e-06;0.0018534089034861667
2.75475e-06;0.0018505721207939592
2.75500e-06;0.0018477353381017518
2.75525e-06;0.001844898555409549
2.75550e-06;0.0018420617727173414
2.75575e-06;0.001839224990025134
2.75600e-06;0.0018363882073329264
2.75625e-06;0.0018335514246407237
2.75650e-06;0.0018307146419485163
2.75675e-06;0.0018278778592563088
2.75700e-06;0.001825041076564106
2.75725e-06;0.0018222042938718986
2.75750e-06;0.0018193675111796911
2.75775e-06;0.0018165307284874884
2.75800e-06;0.0018176956551072241
2.75825e-06;0.0018204127388263842
2.75850e-06;0.0018231298225455444
2.75875e-06;0.0018258469062647001
2.75900e-06;0.0018285639899838604
2.75925e-06;0.0018312810737030204
2.75950e-06;0.001833998157422176
2.75975e-06;0.0018367152411413363
2.76000e-06;0.0018394323248604966
2.76025e-06;0.0018421494085796566
2.76050e-06;0.0018448664922988123
2.76075e-06;0.0018475835760179726
2.76100e-06;0.0018503006597371328
2.76125e-06;0.0018530177434562883
2.76150e-06;0.0018568246965902755
2.76175e-06;0.0018610543812166934
2.76200e-06;0.0018652840658431044
2.76225e-06;0.0018695137504695224
2.76250e-06;0.0018737434350959404
2.76275e-06;0.0018779731197223583
2.76300e-06;0.0018822028043487692
2.76325e-06;0.0018864324889751873
2.76350e-06;0.0018906621736016053
2.76375e-06;0.001894891858228016
2.76400e-06;0.001899121542854434
2.76425e-06;0.001903351227480852
2.76450e-06;0.0019075809121072702
2.76475e-06;0.001911810596733681
2.76500e-06;0.0019190580184724867
2.76525e-06;0.0019274759405445993
2.76550e-06;0.0019358938626166976
2.76575e-06;0.0019443117846888102
2.76600e-06;0.0019527297067609228
2.76625e-06;0.001961147628833021
2.76650e-06;0.0019695655509051335
2.76675e-06;0.0019779834729772463
2.76700e-06;0.0019864013950493587
2.76725e-06;0.0019948193171214572
2.76750e-06;0.00201436143488722
2.76775e-06;0.0020382183336569563
2.76800e-06;0.002062075232426652
2.76825e-06;0.0020859321311963884
2.76850e-06;0.002109789029966125
2.76875e-06;0.002133645928735821
2.76900e-06;0.002157502827505557
2.76925e-06;0.0021813597262752933
2.76950e-06;0.0022052166250450295
2.76975e-06;0.0022290735238147254
2.77000e-06;0.0022610269359515
2.77025e-06;0.0022961207712736864
2.77050e-06;0.0023312146065958134
2.77075e-06;0.0023663084419179997
2.77100e-06;0.002401402277240186
2.77125e-06;0.0024364961125623724
2.77150e-06;0.0024715899478844994
2.77175e-06;0.0025066837832066857
2.77200e-06;0.0025422992704467458
2.77225e-06;0.002578117092655313
2.77250e-06;0.002613934914863941
2.77275e-06;0.0026497527370725692
2.77300e-06;0.0026855705592811366
2.77325e-06;0.0027213883814897646
2.77350e-06;0.0027572062036983927
2.77375e-06;0.0027930240259070207
2.77400e-06;0.0028229715584723665
2.77425e-06;0.0028506421610969817
2.77450e-06;0.002878312763721597
2.77475e-06;0.0029059833663461648
2.77500e-06;0.00293365396897078
2.77525e-06;0.002961324571595395
2.77550e-06;0.0029877723664279714
2.77575e-06;0.0030137458664909493
2.77600e-06;0.0030397193665539714
2.77625e-06;0.003065692866616993
2.77650e-06;0.0030916663666799714
2.77675e-06;0.003117639866742993
2.77700e-06;0.003150241170388996
2.77725e-06;0.003185413223578377
2.77750e-06;0.0032205852767678168
2.77775e-06;0.003255757329957257
2.77800e-06;0.0032909293831466973
2.77825e-06;0.003326101436336078
2.77850e-06;0.0033612734895255183
2.77875e-06;0.0033964455427149586
2.77900e-06;0.003431617595904339
2.77925e-06;0.0034667896490937792
2.77950e-06;0.0035019617022832195
2.77975e-06;0.003544979649213196
2.78000e-06;0.003591040810610651
2.78025e-06;0.003637101972008184
2.78050e-06;0.0036831631334057167
2.78075e-06;0.003729224294803172
2.78100e-06;0.003775285456200705
2.78125e-06;0.003821346617598238
2.78150e-06;0.003867407778995693
2.78175e-06;0.003913468940393226
2.78200e-06;0.003959530101790759
2.78225e-06;0.004005591263188292
2.78250e-06;0.004047675898141202
2.78275e-06;0.004088218143761977
2.78300e-06;0.004128760389382754
2.78325e-06;0.004169302635003462
2.78350e-06;0.0042098448806242375
2.78375e-06;0.004250387126245014
2.78400e-06;0.0042909293718657905
2.78425e-06;0.004331471617486498
2.78450e-06;0.004372013863107274
2.78475e-06;0.00441255610872805
2.78500e-06;0.004448943476015104
2.78525e-06;0.004470645021602711
2.78550e-06;0.004492346567190317
2.78575e-06;0.004514048112777886
2.78600e-06;0.004535749658365492
2.78625e-06;0.004557451203953098
2.78650e-06;0.004579152749540704
2.78675e-06;0.004600854295128273
2.78700e-06;0.004622555840715879
2.78725e-06;0.0046442573863034855
2.78750e-06;0.004665958931891054
2.78775e-06;0.004676196656625571
2.78800e-06;0.004681987868747217
2.78825e-06;0.004687779080868863
2.78850e-06;0.0046935702929905
2.78875e-06;0.004699361505112146
2.78900e-06;0.004705152717233792
2.78925e-06;0.004710943929355429
2.78950e-06;0.004716735141477075
2.78975e-06;0.004722526353598721
2.79000e-06;0.004728317565720358
2.79025e-06;0.004734108777842004
2.79050e-06;0.004739899989963651
2.79075e-06;0.004745691202085296
2.79100e-06;0.004751482414206933
2.79125e-06;0.0047572736263285795
2.79150e-06;0.004757503951276854
2.79175e-06;0.004755577355310835
2.79200e-06;0.0047536507593448135
2.79225e-06;0.004751724163378792
2.79250e-06;0.0047497975674127705
2.79275e-06;0.0047478709714467516
2.79300e-06;0.00474594437548073
2.79325e-06;0.0047440177795147085
2.79350e-06;0.00474209118354869
2.79375e-06;0.004740164587582668
2.79400e-06;0.004738237991616647
2.79425e-06;0.004736311395650629
2.79450e-06;0.004734384799684607
2.79475e-06;0.004732458203718585
2.79500e-06;0.004730531607752563
2.79525e-06;0.004721369362766645
2.79550e-06;0.004709400601084134
2.79575e-06;0.004697431839401623
2.79600e-06;0.004685463077719132
2.79625e-06;0.004673494316036621
2.79650e-06;0.004661525554354109
2.79675e-06;0.0046495567926715985
2.79700e-06;0.004637588030989108
2.79725e-06;0.004625619269306596
2.79750e-06;0.004613650507624085
2.79775e-06;0.004601681745941594
2.79800e-06;0.004589712984259083
2.79825e-06;0.004573337408380689
2.79850e-06;0.004541385518985031
2.79875e-06;0.004509433629589319
2.79900e-06;0.004477481740193608
2.79925e-06;0.004445529850797897
2.79950e-06;0.004413577961402239
2.79975e-06;0.004381626072006527
2.80000e-06;0.004349674182610816
2.80025e-06;0.004317722293215158
2.80050e-06;0.004285770403819446
2.80075e-06;0.004253818514423735
2.80100e-06;0.004221866625028023
2.80125e-06;0.004189914735632365
2.80150e-06;0.004152955515432866
2.80175e-06;0.0041140540841796865
2.80200e-06;0.0040751526529265725
2.80225e-06;0.0040362512216733926
2.80250e-06;0.003997349790420213
2.80275e-06;0.003958448359167099
2.80300e-06;0.003919546927913919
2.80325e-06;0.003880645496660739
2.80350e-06;0.0038472660139227165
2.80375e-06;0.003816028348824609
2.80400e-06;0.0037847906837264484
2.80425e-06;0.003753553018628288
2.80450e-06;0.0037223153535301803
2.80475e-06;0.00369107768843202
2.80500e-06;0.0036598400233338593
2.80525e-06;0.003628602358235699
2.80550e-06;0.003598520108657595
2.80575e-06;0.0035688860141709577
2.80600e-06;0.0035392519196843202
2.80625e-06;0.003509617825197733
2.80650e-06;0.003479983730711096
2.80675e-06;0.0034503496362244587
2.80700e-06;0.0034207155417378715
2.80725e-06;0.0033887700560166246
2.80750e-06;0.0033486547330989296
2.80775e-06;0.003308539410181234
2.80800e-06;0.0032684240872636067
2.80825e-06;0.0032283087643459117
2.80850e-06;0.0031881934414282162
2.80875e-06;0.003148078118510589
2.80900e-06;0.003107962795592894
2.80925e-06;0.003063450464549726
2.80950e-06;0.0030129848151568797
2.80975e-06;0.0029608715429072633
2.81000e-06;0.002908758270657559
2.81025e-06;0.0028566449984078544
2.81050e-06;0.002804531726158238
2.81075e-06;0.0027524184539085336
2.81100e-06;0.002700305181658829
2.81125e-06;0.002647583897898421
2.81150e-06;0.002592713538298837
2.81175e-06;0.002537843178699253
2.81200e-06;0.0024829728190996687
2.81225e-06;0.0024281024595001776
2.81250e-06;0.0023732320999005937
2.81275e-06;0.0023183617403010094
2.81300e-06;0.0022634913807015183
2.81325e-06;0.0022170884831904073
2.81350e-06;0.0021739698900544646
2.81375e-06;0.0021308512969185215
2.81400e-06;0.002087732703782652
2.81425e-06;0.002044614110646709
2.81450e-06;0.0020014955175107663
2.81475e-06;0.0019583769243748965
2.81500e-06;0.0019152583312389536
2.81525e-06;0.0018721397381030107
2.81550e-06;0.001833183280242802
2.81575e-06;0.0018089382944545237
2.81600e-06;0.001784693308666245
2.81625e-06;0.0017604483228779667
2.81650e-06;0.0017362033370897291
2.81675e-06;0.0017119583513014508
2.81700e-06;0.0016877133655131722
2.81725e-06;0.0016634683797249349
2.81750e-06;0.0016392233939366563
2.81775e-06;0.001614978408148378
2.81800e-06;0.001599254235885044
2.81825e-06;0.0015868350616068108
2.81850e-06;0.0015744158873285566
2.81875e-06;0.0015619967130503026
2.81900e-06;0.0015495775387720694
2.81925e-06;0.0015371583644938154
2.81950e-06;0.0015247391902155612
2.81975e-06;0.0015123200159373282
2.82000e-06;0.001499900841659074
2.82025e-06;0.0014890325141982304
2.82050e-06;0.0014836458056978771
2.82075e-06;0.0014782590971975328
2.82100e-06;0.0014728723886971793
2.82125e-06;0.0014674856801968259
2.82150e-06;0.0014620989716964815
2.82175e-06;0.001456712263196128
2.82200e-06;0.0014513255546957746
2.82225e-06;0.0014459388461954212
2.82250e-06;0.001440552137695077
2.82275e-06;0.0014372218796715119
2.82300e-06;0.001434689264345167
2.82325e-06;0.0014321566490188263
2.82350e-06;0.0014296240336924813
2.82375e-06;0.0014270914183661363
2.82400e-06;0.0014250876351158475
2.82425e-06;0.001423288971827492
2.82450e-06;0.0014214903085391366
2.82475e-06;0.001419691645250781
2.82500e-06;0.0014178929819624287
2.82525e-06;0.001418355640733378
2.82550e-06;0.0014196954064646244
2.82575e-06;0.0014269141784050462
2.82600e-06;0.001436413261212506
2.82625e-06;0.001451843020526852
2.82650e-06;0.0014695731322487704
2.82675e-06;0.0014925712237454827
2.82700e-06;0.0015176126251317437
2.82725e-06;0.00154844508417665
2.82750e-06;0.0015815237411741258
2.82775e-06;0.0016220238382593454
2.82800e-06;0.0016654025154784978
2.82825e-06;0.0017155286541456715
2.82850e-06;0.0017682719544755653
2.82875e-06;0.0018279190133120575
2.82900e-06;0.0018902438573023634
2.82925e-06;0.001952568701292564
2.82950e-06;0.0020230437798210445
2.82975e-06;0.002096680118556665
2.83000e-06;0.00217031645729216
2.83025e-06;0.002252550448370974
2.83050e-06;0.0023381192411785334
2.83075e-06;0.0024236880339860924
2.83100e-06;0.0025092568267935066
2.83125e-06;0.002594825619601066
2.83150e-06;0.002680394412408625
2.83175e-06;0.0027694303157434776
2.83200e-06;0.002859811019463431
2.83225e-06;0.0029501917231833847
2.83250e-06;0.0030405724269031856
2.83275e-06;0.003130953130623139
2.83300e-06;0.0032213338343430927
2.83325e-06;0.0033020804440960947
2.83350e-06;0.003379090243853138
2.83375e-06;0.0034561000436103126
2.83400e-06;0.0035331098433674865
2.83425e-06;0.00361011964312453
2.83450e-06;0.0036871294428817043
2.83475e-06;0.0037641392426388783
2.83500e-06;0.0038237571461273144
2.83525e-06;0.003876629193487679
2.83550e-06;0.003929501240848133
2.83575e-06;0.003982373288208587
2.83600e-06;0.004035245335568953
2.83625e-06;0.0040881173829294066
2.83650e-06;0.0041409894302898605
2.83675e-06;0.0041800017821756125
2.83700e-06;0.004213638325109569
2.83725e-06;0.004247274868043526
2.83750e-06;0.004280911410977482
2.83775e-06;0.0043145479539113815
2.83800e-06;0.004348184496845338
2.83825e-06;0.004381821039779295
2.83850e-06;0.004415457582713194
2.83875e-06;0.0044490941256471505
2.83900e-06;0.004482730668581106
2.83925e-06;0.004516367211515063
2.83950e-06;0.004550003754448963
2.83975e-06;0.004583640297382919
2.84000e-06;0.004614537560225394
2.84025e-06;0.00463575257107367
2.84050e-06;0.004656967581921982
2.84075e-06;0.004678182592770293
2.84100e-06;0.0046993976036185684
2.84125e-06;0.00472061261446688
2.84150e-06;0.004741827625315192
2.84175e-06;0.004763042636163503
2.84200e-06;0.004784257647011779
2.84225e-06;0.004805472657860091
2.84250e-06;0.0048266876687084025
2.84275e-06;0.004847902679556678
2.84300e-06;0.004869117690404989
2.84325e-06;0.004890332701253301
2.84350e-06;0.004902242522110417
2.84375e-06;0.004910543106116085
2.84400e-06;0.004918843690121769
2.84425e-06;0.004927144274127451
2.84450e-06;0.00493544485813312
2.84475e-06;0.004943745442138802
2.84500e-06;0.004952046026144486
2.84525e-06;0.004960346610150154
2.84550e-06;0.004968647194155837
2.84575e-06;0.00497694777816152
2.84600e-06;0.004985248362167203
2.84625e-06;0.004993548946172871
2.84650e-06;0.005001849530178555
2.84675e-06;0.005010150114184237
2.84700e-06;0.005018450698189906
2.84725e-06;0.005026751282195589
2.84750e-06;0.005035051866201272
2.84775e-06;0.00504335245020694
2.84800e-06;0.005051653034212624
2.84825e-06;0.0050502924557043125
2.84850e-06;0.005045184568026855
2.84875e-06;0.005040076680349406
2.84900e-06;0.00503496879267195
2.84925e-06;0.005029860904994492
2.84950e-06;0.005024753017317044
2.84975e-06;0.005019645129639587
2.85000e-06;0.0050145372419621295
2.85025e-06;0.005009429354284673
2.85050e-06;0.005004321466607224
2.85075e-06;0.004999213578929767
2.85100e-06;0.00499410569125231
2.85125e-06;0.004988997803574861
2.85150e-06;0.004983889915897404
2.85175e-06;0.004978782028219947
2.85200e-06;0.004973674140542499
2.85225e-06;0.004968566252865042
2.85250e-06;0.004963458365187585
2.85275e-06;0.004958350477510127
2.85300e-06;0.00495175829300492
2.85325e-06;0.004944590389055536
2.85350e-06;0.004937422485106151
2.85375e-06;0.004930254581156779
2.85400e-06;0.0049230866772073945
2.85425e-06;0.00491591877325801
2.85450e-06;0.004908750869308625
2.85475e-06;0.004901582965359252
2.85500e-06;0.004894415061409868
2.85525e-06;0.004887247157460484
2.85550e-06;0.004880079253511111
2.85575e-06;0.004871476580913213
2.85600e-06;0.004857802578934421
2.85625e-06;0.004844128576955651
2.85650e-06;0.004830454574976859
2.85675e-06;0.004816780572998067
2.85700e-06;0.004803106571019274
2.85725e-06;0.004789432569040505
2.85750e-06;0.004775758567061713
2.85775e-06;0.004762084565082921
2.85800e-06;0.004748410563104152
2.85825e-06;0.0047347365611253595
2.85850e-06;0.004721062559146567
2.85875e-06;0.004698732216095873
2.85900e-06;0.004673044307511495
2.85925e-06;0.004647356398927074
2.85950e-06;0.0046216684903426525
2.85975e-06;0.004595980581758275
2.86000e-06;0.004570292673173854
2.86025e-06;0.0045446047645894315
2.86050e-06;0.004518916856005054
2.86075e-06;0.0044932289474206326
2.86100e-06;0.004467541038836211
2.86125e-06;0.00444185313025179
2.86150e-06;0.004414171949953256
2.86175e-06;0.0043857176323266285
2.86200e-06;0.0043572633147000005
2.86225e-06;0.00432880899707342
2.86250e-06;0.004300354679446792
2.86275e-06;0.0042719003618201645
2.86300e-06;0.0042434460441935365
2.86325e-06;0.004214991726566957
2.86350e-06;0.004186537408940328
2.86375e-06;0.0041580830913137004
2.86400e-06;0.004129628773687121
2.86425e-06;0.004105945832878236
2.86450e-06;0.004084113582819582
2.86475e-06;0.0040622813327609655
2.86500e-06;0.004040449082702313
2.86525e-06;0.004018616832643659
2.86550e-06;0.003996784582585005
2.86575e-06;0.003974952332526389
2.86600e-06;0.003951727937930221
2.86625e-06;0.003923582873019971
2.86650e-06;0.003895437808109769
2.86675e-06;0.0038672927431995193
2.86700e-06;0.0038391476782892696
2.86725e-06;0.00381100261337902
2.86750e-06;0.003782857548468818
2.86775e-06;0.003754712483558568
2.86800e-06;0.0037156027689816662
2.86825e-06;0.003672240157076999
2.86850e-06;0.003628877545172259
2.86875e-06;0.0035855149332675185
2.86900e-06;0.003542152321362852
2.86925e-06;0.0034987897094581116
2.86950e-06;0.0034554270975533713
2.86975e-06;0.003412064485648631
2.87000e-06;0.003368701873743964
2.87025e-06;0.003317835716866444
2.87050e-06;0.003264059133542568
2.87075e-06;0.003210282550218783
2.87100e-06;0.003156505966894907
2.87125e-06;0.003102729383571031
2.87150e-06;0.0030489528002471547
2.87175e-06;0.00299517621692337
2.87200e-06;0.002941399633599494
2.87225e-06;0.0028876230502756176
2.87250e-06;0.0028371770389036617
2.87275e-06;0.002788022868218318
2.87300e-06;0.0027388686975329734
2.87325e-06;0.0026897145268477123
2.87350e-06;0.002640560356162368
2.87375e-06;0.0025914061854770236
2.87400e-06;0.0025422520147916797
2.87425e-06;0.0024930978441064186
2.87450e-06;0.002443943673421074
2.87475e-06;0.0024079469936086886
2.87500e-06;0.002377053756175241
2.87525e-06;0.0023461605187417413
2.87550e-06;0.0023152672813082417
2.87575e-06;0.002284374043874742
2.87600e-06;0.0022534808064412944
2.87625e-06;0.0022225875690077947
2.87650e-06;0.002191694331574295
2.87675e-06;0.0021608010941408474
2.87700e-06;0.002141357364640435
2.87725e-06;0.0021263545961536967
2.87750e-06;0.002111351827666984
2.87775e-06;0.0020963490591802457
2.87800e-06;0.002081346290693508
2.87825e-06;0.0020663435222067696
2.87850e-06;0.002051340753720057
2.87875e-06;0.0020363379852333186
2.87900e-06;0.0020213352167465803
2.87925e-06;0.0020063324482598676
2.87950e-06;0.0019985013828836586
2.87975e-06;0.0019934520312808656
2.88000e-06;0.0019884026796780727
2.88025e-06;0.0019833533280752885
2.88050e-06;0.001978303976472496
2.88075e-06;0.001973254624869703
2.88100e-06;0.001968205273266919
2.88125e-06;0.0019631559216641264
2.88150e-06;0.0019581065700613335
2.88175e-06;0.0019530572184585494
2.88200e-06;0.0019512981911499355
2.88225e-06;0.0019508153935272547
2.88250e-06;0.0019503325959045737
2.88275e-06;0.0019498497982818935
2.88300e-06;0.0019493670006592127
2.88325e-06;0.0019488842030365317
2.88350e-06;0.0019484014054138516
2.88375e-06;0.0019479186077911708
2.88400e-06;0.0019474358101684898
2.88425e-06;0.001946953012545809
2.88450e-06;0.001945776960578439
2.88475e-06;0.0019443320136039227
2.88500e-06;0.0019428870666294063
2.88525e-06;0.0019414421196548924
2.88550e-06;0.001939997172680376
2.88575e-06;0.0019385522257058595
2.88600e-06;0.0019371072787313455
2.88625e-06;0.0019356623317568291
2.88650e-06;0.0019342173847823128
2.88675e-06;0.0019327724378077964
2.88700e-06;0.0019266735462452947
2.88725e-06;0.001918769512785247
2.88750e-06;0.0019108654793251996
2.88775e-06;0.0019029614458651654
2.88800e-06;0.001895057412405118
2.88825e-06;0.0018871533789450706
2.88850e-06;0.001879249345485023
2.88875e-06;0.0018713453120249887
2.88900e-06;0.0018634412785649413
2.88925e-06;0.0018555372451048938
2.88950e-06;0.0018476332116448596
2.88975e-06;0.0018385533465453835
2.89000e-06;0.0018253173901149492
2.89025e-06;0.0018120814336845374
2.89050e-06;0.001798845477254103
2.89075e-06;0.001785609520823669
2.89100e-06;0.0017723735643932347
2.89125e-06;0.001759137607962823
2.89150e-06;0.0017459016515323888
2.89175e-06;0.0017326656951019545
2.89200e-06;0.0017194297386715427
2.89225e-06;0.0017061937822411086
2.89250e-06;0.0016929578258106743
2.89275e-06;0.0016801283850278867
2.89300e-06;0.0016674566209027891
2.89325e-06;0.0016547848567776704
2.89350e-06;0.0016421130926525514
2.89375e-06;0.001629441328527454
2.89400e-06;0.0016167695644023353
2.89425e-06;0.0016040978002772163
2.89450e-06;0.001591426036152119
2.89475e-06;0.0015833515549803178
2.89500e-06;0.0015770602381581466
2.89525e-06;0.0015707689213359753
2.89550e-06;0.0015644776045138148
2.89575e-06;0.0015581862876916435
2.89600e-06;0.0015518949708694723
2.89625e-06;0.0015456036540473117
2.89650e-06;0.0015393123372251405
2.89675e-06;0.0015417933200285562
2.89700e-06;0.001547676845619902
2.89725e-06;0.0015535603712112376
2.89750e-06;0.0015594438968025831
2.89775e-06;0.001565327422393929
2.89800e-06;0.0015712109479852645
2.89825e-06;0.0015770944735766102
2.89850e-06;0.0015829779991679558
2.89875e-06;0.0015888615247592914
2.89900e-06;0.0015947450503506371
