Time(s);Current(A)
1.32500e-05;-0.01370154915871533
1.32503e-05;-0.013691334985838532
1.32505e-05;-0.013681120812961734
1.32508e-05;-0.013670906640085004
1.32510e-05;-0.013660692467208206
1.32513e-05;-0.013650478294331409
1.32515e-05;-0.013641052391868087
1.32518e-05;-0.013633894246559593
1.32520e-05;-0.013626736101251098
1.32523e-05;-0.013619577955942652
1.32525e-05;-0.013612419810634158
1.32528e-05;-0.013605951831570439
1.32530e-05;-0.013601469376018844
1.32533e-05;-0.01359698692046722
1.32535e-05;-0.013592504464915596
1.32538e-05;-0.013588022009363971
1.32540e-05;-0.013583442052515968
1.32543e-05;-0.013578581596414372
1.32545e-05;-0.013573721140312776
1.32548e-05;-0.013568860684211212
1.32550e-05;-0.013564000228109616
1.32553e-05;-0.01355913977200802
1.32555e-05;-0.013554279315906456
1.32558e-05;-0.01354941885980486
1.32560e-05;-0.013544072218458398
1.32563e-05;-0.013537326881881149
1.32565e-05;-0.013530581545303852
1.32568e-05;-0.013523836208726556
1.32570e-05;-0.013517090872149305
1.32573e-05;-0.013510345535572009
1.32575e-05;-0.013503600198994712
1.32578e-05;-0.013496854862417461
1.32580e-05;-0.013489785432371731
1.32583e-05;-0.013481783625225957
1.32585e-05;-0.013473781818080236
1.32588e-05;-0.013465780010934462
1.32590e-05;-0.013457778203788687
1.32593e-05;-0.013449776396642969
1.32595e-05;-0.013441774589497194
1.32598e-05;-0.01343377278235142
1.32600e-05;-0.013426142513099206
1.32603e-05;-0.013419581112730396
1.32605e-05;-0.013413019712361586
1.32608e-05;-0.013406458311992822
1.32610e-05;-0.013399896911624012
1.32613e-05;-0.013393335511255202
1.32615e-05;-0.013386774110886436
1.32618e-05;-0.013380212710517626
1.32620e-05;-0.013374304181471872
1.32623e-05;-0.01337027388303021
1.32625e-05;-0.013366690402971757
1.32628e-05;-0.013364392364518885
1.32630e-05;-0.013362910370177684
1.32633e-05;-0.013363776034510784
1.32635e-05;-0.01336573508264553
1.32638e-05;-0.013370839661677014
1.32640e-05;-0.01337700975841739
1.32643e-05;-0.013386245218728596
1.32645e-05;-0.013396511123907913
1.32648e-05;-0.01340974149240281
1.32650e-05;-0.013424436111964973
1.32653e-05;-0.0134433432019931
1.32655e-05;-0.013462250292021099
1.32658e-05;-0.013482895169244839
1.32660e-05;-0.013508539446777735
1.32663e-05;-0.013534183724310457
1.32665e-05;-0.013561758129138622
1.32668e-05;-0.013594885273117694
1.32670e-05;-0.013628012417096543
1.32673e-05;-0.013661139561075616
1.32675e-05;-0.013694266705054688
1.32678e-05;-0.013728697789992486
1.32680e-05;-0.013767221752767225
1.32683e-05;-0.013807021771030697
1.32685e-05;-0.01384791064894512
1.32688e-05;-0.013889710559446107
1.32690e-05;-0.013932288885371518
1.32693e-05;-0.01397556048825596
1.32695e-05;-0.01401940361589032
1.32698e-05;-0.014063623566309406
1.32700e-05;-0.014107998444515223
1.32703e-05;-0.014152306144862918
1.32705e-05;-0.014196325943902003
1.32708e-05;-0.014239842403130911
1.32710e-05;-0.014282667539667612
1.32713e-05;-0.014324644532786512
1.32715e-05;-0.014365591840954709
1.32718e-05;-0.014405067794737715
1.32720e-05;-0.014442855742541451
1.32723e-05;-0.014477717223963883
1.32725e-05;-0.014504159621062978
1.32728e-05;-0.014530602018162253
1.32730e-05;-0.014557044415261528
1.32733e-05;-0.014583486812360623
1.32735e-05;-0.014609929209459898
1.32738e-05;-0.014636371606559173
1.32740e-05;-0.01466281400365827
1.32743e-05;-0.014689256400757545
1.32745e-05;-0.014715698797856818
1.32748e-05;-0.014742141194955915
1.32750e-05;-0.01476858359205519
1.32753e-05;-0.014795025989154465
1.32755e-05;-0.01481847283672438
1.32758e-05;-0.014833301856238795
1.32760e-05;-0.014848130875753209
1.32763e-05;-0.014862959895267522
1.32765e-05;-0.014877788914781935
1.32768e-05;-0.01489261793429635
1.32770e-05;-0.014907446953810664
1.32773e-05;-0.014922275973325077
1.32775e-05;-0.01493710499283949
1.32778e-05;-0.014951934012353806
1.32780e-05;-0.014966763031868219
1.32783e-05;-0.014981592051382633
1.32785e-05;-0.014996421070896946
1.32788e-05;-0.015010018215702092
1.32790e-05;-0.015020071408277864
1.32793e-05;-0.015030124600853637
1.32795e-05;-0.015040177793429341
1.32798e-05;-0.015050230986005114
1.32800e-05;-0.015060284178580886
1.32803e-05;-0.015070337371156591
1.32805e-05;-0.015080390563732364
1.32808e-05;-0.015089272361648325
1.32810e-05;-0.015097780055455551
1.32813e-05;-0.015106287749262837
1.32815e-05;-0.01511479544307012
1.32818e-05;-0.015123303136877347
1.32820e-05;-0.015131810830684631
1.32823e-05;-0.015140318524491915
1.32825e-05;-0.015148636664808814
1.32828e-05;-0.015156409483016555
1.32830e-05;-0.015164182301224296
1.32833e-05;-0.015171488922904163
1.32835e-05;-0.015177454354435434
1.32838e-05;-0.015183419785966705
1.32840e-05;-0.015188566414546172
1.32843e-05;-0.015191357447605133
1.32845e-05;-0.015194148480664091
1.32848e-05;-0.015196939513723032
1.32850e-05;-0.015199730546781991
1.32853e-05;-0.015202521579840951
1.32855e-05;-0.01520471739077644
1.32858e-05;-0.01520315876982921
1.32860e-05;-0.01520160014888198
1.32863e-05;-0.015200041527934761
1.32865e-05;-0.015198482906987531
1.32868e-05;-0.015196924286040303
1.32870e-05;-0.015195379356678956
1.32873e-05;-0.01624216063695166
1.32875e-05;-0.021044148706805526
1.32878e-05;-0.025007008563119902
1.32880e-05;-0.025183058580824827
1.32883e-05;-0.023333099025948507
1.32885e-05;-0.019601889379521772
1.32888e-05;-0.01608051354858808
1.32890e-05;-0.01506488229356016
1.32893e-05;-0.016060961694635233
1.32895e-05;-0.018594364570637473
1.32898e-05;-0.021070920109064546
1.32900e-05;-0.021579079541536674
1.32903e-05;-0.02028601345021424
1.32905e-05;-0.018101716136700887
1.32908e-05;-0.016049022841030425
1.32910e-05;-0.015173734036926062
1.32913e-05;-0.01570826025944872
1.32915e-05;-0.017234816678748474
1.32918e-05;-0.018385847758707732
1.32920e-05;-0.018846785833362124
1.32923e-05;-0.017949893676085
1.32925e-05;-0.016417028065782123
1.32928e-05;-0.015152340343547064
1.32930e-05;-0.01452928981681901
1.32933e-05;-0.0149386484250934
1.32935e-05;-0.01593800565065474
1.32938e-05;-0.016827555428075073
1.32940e-05;-0.017158080169482975
1.32943e-05;-0.016602477822575307
1.32945e-05;-0.015646422827459202
1.32948e-05;-0.014858641874699168
1.32950e-05;-0.014473026783392491
1.32953e-05;-0.014734288517655377
1.32955e-05;-0.015365238992561293
1.32958e-05;-0.015927490538443334
1.32960e-05;-0.016139655285892698
1.32963e-05;-0.01579686544257636
1.32965e-05;-0.015203371649460022
1.32968e-05;-0.014715413678818798
1.32970e-05;-0.014479472236123656
1.32973e-05;-0.014648791671138424
1.32975e-05;-0.015049700669494171
1.32978e-05;-0.01540757261121242
1.32980e-05;-0.01554614833304401
1.32983e-05;-0.015337113073777033
1.32985e-05;-0.014971261650947264
1.32988e-05;-0.014670984293939803
1.32990e-05;-0.014514864641225936
1.32993e-05;-0.01455533891432938
1.32995e-05;-0.01487276746739673
1.32998e-05;-0.015086780348375583
1.33000e-05;-0.015208041643455168
1.33003e-05;-0.015129771777750146
1.33005e-05;-0.014905183286612077
1.33008e-05;-0.014708215182398687
1.33010e-05;-0.01460152222902185
1.33013e-05;-0.014639637952035605
1.33015e-05;-0.014795333767303132
1.33018e-05;-0.014943750003578659
1.33020e-05;-0.015021260618185293
1.33023e-05;-0.014973088743898418
1.33025e-05;-0.014833115048076613
1.33028e-05;-0.014710307477569502
1.33030e-05;-0.014644182086983468
1.33033e-05;-0.014669472623052033
1.33035e-05;-0.014769496933339465
1.33038e-05;-0.01486607396244466
1.33040e-05;-0.01491928986621973
1.33043e-05;-0.014867942515507836
1.33045e-05;-0.014812667589381648
1.33048e-05;-0.01474423597679346
1.33050e-05;-0.014711096068267962
1.33053e-05;-0.014758622435426777
1.33055e-05;-0.014809175090438364
1.33058e-05;-0.014879107079916864
1.33060e-05;-0.014923285840406147
1.33063e-05;-0.014902651807217063
1.33065e-05;-0.014879582947043916
1.33068e-05;-0.014848820663776427
1.33070e-05;-0.014840467376614451
1.33073e-05;-0.014882948252696444
1.33075e-05;-0.014927336017925341
1.33078e-05;-0.014984030030589708
1.33080e-05;-0.015024627162539429
1.33083e-05;-0.015024552815404126
1.33085e-05;-0.015022950474914495
1.33088e-05;-0.015016333863391103
1.33090e-05;-0.015023534815034989
1.33093e-05;-0.01506212481059964
1.33095e-05;-0.015101892284535585
1.33098e-05;-0.015148797884353422
1.33100e-05;-0.015185136382775135
1.33103e-05;-0.015195165889655967
1.33105e-05;-0.015204207169210365
1.33108e-05;-0.015209173876971955
1.33110e-05;-0.015222052598008103
1.33113e-05;-0.015253383239211157
1.33115e-05;-0.015285406300278132
1.33118e-05;-0.015320591146523923
1.33120e-05;-0.015336304859295028
1.33123e-05;-0.015351270902628307
1.33125e-05;-0.015366236945961486
1.33128e-05;-0.015375048549848336
1.33130e-05;-0.015383625285702508
1.33133e-05;-0.015397587257124897
1.33135e-05;-0.015417789133884344
1.33138e-05;-0.015437991010643928
1.33140e-05;-0.015445166338445823
1.33143e-05;-0.015451844542187503
1.33145e-05;-0.015458522745929227
1.33148e-05;-0.015462628501194273
1.33150e-05;-0.015466636085713114
1.33153e-05;-0.015470643670231984
1.33155e-05;-0.015474651254750851
1.33158e-05;-0.015476268258240163
1.33160e-05;-0.015475115280892786
1.33163e-05;-0.015473962303545408
1.33165e-05;-0.015472809326198038
1.33168e-05;-0.01547165634885066
1.33170e-05;-0.01546865178273611
1.33173e-05;-0.015465576555594742
1.33175e-05;-0.015462501328453353
1.33178e-05;-0.015459426101311962
1.33180e-05;-0.015453918396854293
1.33183e-05;-0.015445592166076645
1.33185e-05;-0.015437265935298998
1.33188e-05;-0.015428939704521407
1.33190e-05;-0.015420613473743761
1.33193e-05;-0.015412079820369172
1.33195e-05;-0.015403538251255493
1.33198e-05;-0.015394996682141757
1.33200e-05;-0.015386455113028021
1.33203e-05;-0.015377913543914344
1.33205e-05;-0.015369371974800608
1.33208e-05;-0.015360830405686872
1.33210e-05;-0.015352288836573193
1.33213e-05;-0.015343747267459457
1.33215e-05;-0.015335205698345723
1.33218e-05;-0.015326664129231986
1.33220e-05;-0.015318122560118308
1.33223e-05;-0.015311590333081741
1.33225e-05;-0.015307386342979927
1.33228e-05;-0.015303182352878142
1.33230e-05;-0.015298978362776328
1.33233e-05;-0.015294774372674513
1.33235e-05;-0.015290570382572727
1.33238e-05;-0.015286366392470913
1.33240e-05;-0.015282162402369098
1.33243e-05;-0.015277958412267312
1.33245e-05;-0.015273754422165498
1.33248e-05;-0.015269550432063683
1.33250e-05;-0.015265346441961898
1.33253e-05;-0.015261142451860084
1.33255e-05;-0.015264319509513765
1.33258e-05;-0.015267778245487956
1.33260e-05;-0.01527123698146217
1.33263e-05;-0.015274695717436384
1.33265e-05;-0.015278154453410575
1.33268e-05;-0.015281613189384789
1.33270e-05;-0.015285071925359002
1.33273e-05;-0.015288530661333193
1.33275e-05;-0.015291989397307406
1.33278e-05;-0.015297343547936056
1.33280e-05;-0.01530489392709935
1.33283e-05;-0.015312444306262695
1.33285e-05;-0.015319994685426042
1.33288e-05;-0.015327545064589337
1.33290e-05;-0.015335095443752682
1.33293e-05;-0.015342645822916029
1.33295e-05;-0.015350196202079324
1.33298e-05;-0.015357746581242669
1.33300e-05;-0.015365296960406016
1.33303e-05;-0.015372357583123813
1.33305e-05;-0.01537939951557187
1.33308e-05;-0.015386441448019974
1.33310e-05;-0.01539348338046808
1.33313e-05;-0.015400525312916137
1.33315e-05;-0.015407567245364243
1.33318e-05;-0.015414609177812347
1.33320e-05;-0.015421651110260405
1.33323e-05;-0.01542869304270851
1.33325e-05;-0.015435734975156615
1.33328e-05;-0.015442776907604674
1.33330e-05;-0.015445886783297556
1.33333e-05;-0.015444440560816034
1.33335e-05;-0.015442994338334523
1.33338e-05;-0.015441548115853002
1.33340e-05;-0.01544010189337148
1.33343e-05;-0.01543865567088997
1.33345e-05;-0.015437209448408448
1.33348e-05;-0.015435763225926928
1.33350e-05;-0.015434317003445415
1.33353e-05;-0.015432870780963896
1.33355e-05;-0.015431424558482374
1.33358e-05;-0.015429978336000863
1.33360e-05;-0.015418823415678325
1.33363e-05;-0.0154072979883766
1.33365e-05;-0.015395772561074952
1.33368e-05;-0.015384247133773229
1.33370e-05;-0.015372721706471503
1.33373e-05;-0.015361196279169858
1.33375e-05;-0.015349670851868133
1.33378e-05;-0.015335654369147331
1.33380e-05;-0.015318751485299893
1.33383e-05;-0.015301848601452337
1.33385e-05;-0.015284945717604782
1.33388e-05;-0.015268042833757229
1.33390e-05;-0.015251139949909788
1.33393e-05;-0.015234237066062233
1.33395e-05;-0.01521733418221468
1.33398e-05;-0.015199024964069646
1.33400e-05;-0.015180662076865952
1.33403e-05;-0.015162299189662259
1.33405e-05;-0.01514393630245869
1.33408e-05;-0.015125573415254997
1.33410e-05;-0.015107210528051303
1.33413e-05;-0.015091064194745409
1.33415e-05;-0.015075002450403161
1.33418e-05;-0.015058940706060914
1.33420e-05;-0.015042878961718775
1.33423e-05;-0.015026817217376528
1.33425e-05;-0.01501075547303428
1.33428e-05;-0.014998738547079525
1.33430e-05;-0.014986875981005789
1.33433e-05;-0.014975013414932055
1.33435e-05;-0.014967717921732392
1.33438e-05;-0.014960596718886025
1.33440e-05;-0.014953475516039656
1.33443e-05;-0.01495411800814696
1.33445e-05;-0.014955056781302172
1.33448e-05;-0.014955995554457386
1.33450e-05;-0.014956934327612593
1.33453e-05;-0.014957873100767806
1.33455e-05;-0.01495881187392302
1.33458e-05;-0.014964754992963094
1.33460e-05;-0.014976496678142683
1.33463e-05;-0.01498823836332227
1.33465e-05;-0.014999980048501779
1.33468e-05;-0.015011721733681368
1.33470e-05;-0.015023463418860955
1.33473e-05;-0.015035205104040545
1.33475e-05;-0.015055125438113267
1.33478e-05;-0.01507535788886246
1.33480e-05;-0.015095590339611652
1.33483e-05;-0.015115822790360708
1.33485e-05;-0.015136055241109902
1.33488e-05;-0.015156287691859095
1.33490e-05;-0.01517652014260815
1.33493e-05;-0.015200194462094144
1.33495e-05;-0.015224000131469973
1.33498e-05;-0.01524780580084564
1.33500e-05;-0.015271611470221469
1.33503e-05;-0.015295417139597298
1.33505e-05;-0.015319222808972964
1.33508e-05;-0.015343028478348793
1.33510e-05;-0.015365621755218412
1.33513e-05;-0.01538816876430884
1.33515e-05;-0.015410715773399423
1.33518e-05;-0.015430669003264768
1.33520e-05;-0.015450523248351144
1.33523e-05;-0.015470377493437654
1.33525e-05;-0.015486173613337923
1.33528e-05;-0.015501814865537625
1.33530e-05;-0.015517456117737435
1.33533e-05;-0.015524002097985008
1.33535e-05;-0.015530200981041612
1.33538e-05;-0.015536399864098258
1.33540e-05;-0.015542598747154905
1.33543e-05;-0.01554879763021151
1.33545e-05;-0.015554996513268155
1.33548e-05;-0.015561195396324803
1.33550e-05;-0.015553904901584894
1.33553e-05;-0.015546099620133109
1.33555e-05;-0.015538294338681322
1.33557e-05;-0.01553048905722959
1.33560e-05;-0.015522683775777806
1.33563e-05;-0.01551487849432602
1.33565e-05;-0.015507073212874234
1.33568e-05;-0.015488062144282421
1.33570e-05;-0.015468623436224653
1.33573e-05;-0.015449184728166882
1.33575e-05;-0.015429746020109244
1.33578e-05;-0.015410307312051473
1.33580e-05;-0.015390868603993703
1.33583e-05;-0.015368207805256842
1.33585e-05;-0.015341813550370655
1.33588e-05;-0.015315419295484467
1.33590e-05;-0.01528902504059846
1.33593e-05;-0.015262630785712272
1.33595e-05;-0.015236236530826085
1.33598e-05;-0.015209842275940078
1.33600e-05;-0.015181696561062615
1.33603e-05;-0.015153484006309788
1.33605e-05;-0.015125271451557152
1.33608e-05;-0.015097749953270678
1.33610e-05;-0.015070254827341164
1.33613e-05;-0.015042759701411836
1.33615e-05;-0.015018476208827139
1.33618e-05;-0.01499431527980292
1.33620e-05;-0.014970154350778864
1.33623e-05;-0.014945993421754645
1.33625e-05;-0.014921832492730424
1.33628e-05;-0.014902013108761962
1.33630e-05;-0.014882359408469851
1.33633e-05;-0.01486243747899111
1.33635e-05;-0.014842505313249325
1.33638e-05;-0.01482028437805984
1.33640e-05;-0.014797976097989218
1.33642e-05;-0.014775667817918746
1.33645e-05;-0.014751868279259815
1.33648e-05;-0.014728011830629323
1.33650e-05;-0.01470415538199883
1.33653e-05;-0.014677144773434798
1.33655e-05;-0.014650013794631959
1.33658e-05;-0.014622882815829118
1.33660e-05;-0.014589266392200118
1.33663e-05;-0.014555402468584238
1.33665e-05;-0.014521538544968357
1.33668e-05;-0.014487674621352708
1.33670e-05;-0.01445381069773683
1.33673e-05;-0.014419946774120949
1.33675e-05;-0.0143860828505053
1.33678e-05;-0.01435221892688942
1.33680e-05;-0.01431835500327354
1.33683e-05;-0.014279772050116208
1.33685e-05;-0.01424100900757685
1.33688e-05;-0.014201737316379255
1.33690e-05;-0.014162446213940355
1.33693e-05;-0.014122790445399654
1.33695e-05;-0.014082822927257129
1.33698e-05;-0.014042725627536235
1.33700e-05;-0.014002728768042804
1.33703e-05;-0.013963066939360926
1.33705e-05;-0.013923972143516929
1.33708e-05;-0.01388567179439345
1.33710e-05;-0.013848294455065099
1.33713e-05;-0.01381185727224744
1.33715e-05;-0.013776440566024567
1.33718e-05;-0.013742245639666516
1.33720e-05;-0.013709509713527824
1.33723e-05;-0.013678468514924394
1.33725e-05;-0.013649361256818157
1.33727e-05;-0.013622427289110974
1.33730e-05;-0.013597960684046556
1.33733e-05;-0.013576268367254797
1.33735e-05;-0.013557529391661289
1.33738e-05;-0.013541794116501466
1.33740e-05;-0.013529085749391736
1.33743e-05;-0.013519425744986435
1.33745e-05;-0.013512838214967522
1.33748e-05;-0.013509344682459193
1.33750e-05;-0.013509004245559052
1.33753e-05;-0.01351342446776721
1.33755e-05;-0.013518021941656815
1.33758e-05;-0.013529999306528397
1.33760e-05;-0.013542258305578005
1.33763e-05;-0.013554517304627697
1.33765e-05;-0.013576613865762832
1.33768e-05;-0.013599085851645864
1.33770e-05;-0.013621557837529046
1.33773e-05;-0.01364402982341223
1.33775e-05;-0.013671094102506155
1.33778e-05;-0.013703479499794688
1.33780e-05;-0.013735864897083222
1.33783e-05;-0.013768250294371537
1.33785e-05;-0.013800635691660072
1.33788e-05;-0.013838345104386675
1.33790e-05;-0.013876257694194722
1.33793e-05;-0.013914170284003028
1.33795e-05;-0.013954316023828626
1.33798e-05;-0.013994546985965734
1.33800e-05;-0.014034777948103115
1.33803e-05;-0.014075322292835315
1.33805e-05;-0.01411587859699182
1.33808e-05;-0.014155566968914388
1.33810e-05;-0.014195222218480227
1.33812e-05;-0.01423307118220231
1.33815e-05;-0.014270851213764162
1.33818e-05;-0.014303676854890392
1.33820e-05;-0.014336313424703286
1.33823e-05;-0.014368949994515958
1.33825e-05;-0.014401586564328852
1.33828e-05;-0.014427037686893284
1.33830e-05;-0.014452214595713981
1.33833e-05;-0.014477391504534849
1.33835e-05;-0.014502568413355716
1.33838e-05;-0.014524932081908717
1.33840e-05;-0.01454718839052743
1.33843e-05;-0.014569444699146145
1.33845e-05;-0.014591701007764708
1.33848e-05;-0.014613957316383422
1.33850e-05;-0.014636213625002135
1.33853e-05;-0.014658469933620698
1.33855e-05;-0.014680726242239412
1.33858e-05;-0.014702639846113193
1.33860e-05;-0.014724156355905432
1.33863e-05;-0.014745672865697815
1.33865e-05;-0.0147671893754902
1.33868e-05;-0.014788705885282439
1.33870e-05;-0.014810222395074821
1.33873e-05;-0.014831738904867206
1.33875e-05;-0.014853255414659443
1.33878e-05;-0.014874771924451828
1.33880e-05;-0.014896551650294309
1.33883e-05;-0.014918341421086674
1.33885e-05;-0.014940131191879187
1.33888e-05;-0.0149619209626717
1.33890e-05;-0.014983710733464063
1.33893e-05;-0.015005500504256575
1.33895e-05;-0.015027290275049088
1.33897e-05;-0.015049080045841453
1.33900e-05;-0.015069343887212941
1.33903e-05;-0.01508783962484272
1.33905e-05;-0.015106335362472497
1.33908e-05;-0.01512483110010215
1.33910e-05;-0.015143326837731928
1.33913e-05;-0.015161822575361706
1.33915e-05;-0.01518031831299136
1.33918e-05;-0.015198814050621137
1.33920e-05;-0.015217309788250916
1.33923e-05;-0.015231629451268758
1.33925e-05;-0.0152457897453545
1.33928e-05;-0.015256170160919881
1.33930e-05;-0.015266406327337433
1.33933e-05;-0.015276642493755056
1.33935e-05;-0.015279195404074982
1.33938e-05;-0.015281455103081848
1.33940e-05;-0.015283714802088729
1.33943e-05;-0.01527785466237541
1.33945e-05;-0.01527168465031861
1.33948e-05;-0.015265514638261769
1.33950e-05;-0.01524714627394573
1.33953e-05;-0.015228312391516475
1.33955e-05;-0.01520947850908709
1.33958e-05;-0.015190644626657708
1.33960e-05;-0.015171810744228452
1.33963e-05;-0.015145916845055405
1.33965e-05;-0.015111842461352259
1.33968e-05;-0.015077768077649345
1.33970e-05;-0.0150436936939462
1.33973e-05;-0.015009619310243055
