Time(s);Current(A)
7.50000e-06;0.001033934045297412
7.50025e-06;0.0010304307142425374
7.50050e-06;0.0010269273831876747
7.50075e-06;0.0010234240521328122
7.50100e-06;0.0010196907087808777
7.50125e-06;0.0010138951600392452
7.50150e-06;0.0010080996112976125
7.50175e-06;0.0010023040625559603
7.50200e-06;0.0009965085138143278
7.50225e-06;0.0009907129650726756
7.50250e-06;0.000984917416331043
7.50275e-06;0.0009795176079233168
7.50300e-06;0.0009743812475089732
7.50325e-06;0.0009699115615262826
7.50350e-06;0.0009658856868668635
7.50375e-06;0.0009618598122074308
7.50400e-06;0.0009593115147163634
7.50425e-06;0.0009577468539859022
7.50450e-06;0.0009561821932554355
7.50475e-06;0.0009562225412599236
7.50500e-06;0.0009573313583952179
7.50525e-06;0.0009584401755305159
7.50550e-06;0.0009619513350158813
7.50575e-06;0.0009670617559798607
7.50600e-06;0.0009721721769438573
7.50625e-06;0.0009772825979078368
7.50650e-06;0.0009823930188718334
7.50675e-06;0.0009879949433741814
7.50700e-06;0.0009980035072544003
7.50725e-06;0.0010080120711346533
7.50750e-06;0.0010180206350148724
7.50775e-06;0.0010280291988950916
7.50800e-06;0.0010380377627753445
7.50825e-06;0.0010501432539938187
7.50850e-06;0.0010636446890981573
7.50875e-06;0.0010771461242025417
7.50900e-06;0.0010906475593068803
7.50925e-06;0.001104326867472558
7.50950e-06;0.0011196009198773107
7.50975e-06;0.0011348749722820115
7.51000e-06;0.0011501490246867124
7.51025e-06;0.001165423077091465
7.51050e-06;0.001180993801986729
7.51075e-06;0.0011967556645674376
7.51100e-06;0.0012124502530976924
7.51125e-06;0.001227982875194018
7.51150e-06;0.001243265850971438
7.51175e-06;0.0012582264266752727
7.51200e-06;0.0012727935627854868
7.51225e-06;0.0012868797307152167
7.51250e-06;0.0013003840422966548
7.51275e-06;0.0013132026085368005
7.51300e-06;0.0013252315869686233
7.51325e-06;0.0013363669254569462
7.51350e-06;0.001346502056051154
7.51375e-06;0.0013555347695113542
7.51400e-06;0.001363390783350109
7.51425e-06;0.0013700328101831063
7.51450e-06;0.001375442668867951
7.51475e-06;0.0013796055047693911
7.51500e-06;0.0013821213264527828
7.51525e-06;0.001383874075538215
7.51550e-06;0.001384067488573441
7.51575e-06;0.0013832228372059228
7.51600e-06;0.001380455821250293
7.51625e-06;0.0013764090694431597
7.51650e-06;0.0013723623176360126
7.51675e-06;0.0013655428972226809
7.51700e-06;0.0013568776857239434
7.51725e-06;0.0013482124742251768
7.51750e-06;0.0013395472627264395
7.51775e-06;0.001330882051227702
7.51800e-06;0.0013194092450889486
7.51825e-06;0.0013060673972817797
7.51850e-06;0.0012927255494746106
7.51875e-06;0.0012793837016673965
7.51900e-06;0.0012660418538602276
7.51925e-06;0.001251179791726726
7.51950e-06;0.0012353057088832094
7.51975e-06;0.001219431626039747
7.52000e-06;0.001202951695788345
7.52025e-06;0.001186068447325072
7.52050e-06;0.0011691851988617989
7.52075e-06;0.0011522113039221134
7.52100e-06;0.0011351770647864308
7.52125e-06;0.0011181428256507482
7.52150e-06;0.0011014238922806819
7.52175e-06;0.0010849148608694215
7.52200e-06;0.0010693428358640998
7.52225e-06;0.0010543945846725224
7.52250e-06;0.0010394463334809957
7.52275e-06;0.001024498082289469
7.52300e-06;0.001010718136280636
7.52325e-06;0.0009983134257997557
7.52350e-06;0.0009866663261429434
7.52375e-06;0.0009744330986003334
7.52400e-06;0.0009616502014986182
7.52425e-06;0.0009469157668325115
7.52450e-06;0.0009308821755955924
7.52475e-06;0.0009132436979298184
7.52500e-06;0.0008945368325538936
7.52525e-06;0.000874112360889014
7.52550e-06;0.000852544462862657
7.52575e-06;0.0008309765648362268
7.52600e-06;0.0008064926621523001
7.52625e-06;0.0007800675482508042
7.52650e-06;0.0007512745310308583
7.52675e-06;0.0007209051787143744
7.52700e-06;0.0006887214816115305
7.52725e-06;0.0006553299584364759
7.52750e-06;0.0006203434556468485
7.52775e-06;0.0005842951602048335
7.52800e-06;0.0005462726131621967
7.52825e-06;0.000506935788605384
7.52850e-06;0.00046599727505691806
7.52875e-06;0.00042399250236213663
7.52900e-06;0.0003808689236109135
7.52925e-06;0.0003370005453403475
7.52950e-06;0.00029313216706993003
7.52975e-06;0.00024843954884656833
7.53000e-06;0.00020319822647803164
7.53025e-06;0.00015795690410964824
7.53050e-06;0.0001125713650843852
7.53075e-06;6.708981969925782e-05
7.53100e-06;2.2012164090654928e-05
7.53125e-06;-2.2305750445973362e-05
7.53150e-06;-6.568632628189548e-05
7.53175e-06;-0.00010800365042576349
7.53200e-06;-0.0001491608419035742
7.53225e-06;-0.00018897039120907347
7.53250e-06;-0.0002271633821526453
7.53275e-06;-0.0002634510640261844
7.53300e-06;-0.00029754471809514407
7.53325e-06;-0.00032915639732853313
7.53350e-06;-0.0003580660630947226
7.53375e-06;-0.0003842302459026896
7.53400e-06;-0.00040772224590954176
7.53425e-06;-0.0004285642288379407
7.53450e-06;-0.0004466966573804599
7.53475e-06;-0.00046203689997185407
7.53500e-06;-0.00047450237741366083
7.53525e-06;-0.00048401097641950964
7.53550e-06;-0.0004905231691738475
7.53575e-06;-0.000494110028030009
7.53600e-06;-0.0004949157904290761
7.53625e-06;-0.0004930525854578858
7.53650e-06;-0.000488581384826611
7.53675e-06;-0.0004815487255601805
7.53700e-06;-0.00047200112721111366
7.53725e-06;-0.00045998546461958813
7.53750e-06;-0.0004449206041209468
7.53775e-06;-0.00042847749288561527
7.53800e-06;-0.0004096374567825657
7.53825e-06;-0.00038920176566991326
7.53850e-06;-0.00036671611532697524
7.53875e-06;-0.00034286578820215603
7.53900e-06;-0.0003172714686495337
7.53925e-06;-0.0002905161572395003
7.53950e-06;-0.000262372734298486
7.53975e-06;-0.0002333052326981199
7.54000e-06;-0.00020334134787152488
7.54025e-06;-0.000172780732457237
7.54050e-06;-0.0001417767958433935
7.54075e-06;-0.00011047773621477846
7.54100e-06;-7.91626806631553e-05
7.54125e-06;-4.783697647775704e-05
7.54150e-06;-1.6776917312725603e-05
7.54175e-06;1.3752555970764577e-05
7.54200e-06;4.3550778142829226e-05
7.54225e-06;7.239207534793673e-05
7.54250e-06;0.00010006337724832525
7.54275e-06;0.00012635520030388492
7.54300e-06;0.00015105805367632494
7.54325e-06;0.0001739619267444662
7.54350e-06;0.0001948133585860006
7.54375e-06;0.0002132831083566067
7.54400e-06;0.00022907860521469787
7.54425e-06;0.00024206044558439495
7.54450e-06;0.0002521962920719124
7.54475e-06;0.0002594772592728429
7.54500e-06;0.0002638945345925026
7.54525e-06;0.00026543893844184106
7.54550e-06;0.00026407406973469083
7.54575e-06;0.00025971613326200853
7.54600e-06;0.0002523042507786955
7.54625e-06;0.00024187349924516976
7.54650e-06;0.00022852605451452007
7.54675e-06;0.00021237879175408392
7.54700e-06;0.0001935485744745727
7.54725e-06;0.00017215205362353862
7.54750e-06;0.00014828884190159778
7.54775e-06;0.00012202881717509023
7.54800e-06;9.345626492963043e-05
7.54825e-06;6.271555500674047e-05
7.54850e-06;2.999305882496074e-05
7.54875e-06;-4.515643331997195e-06
7.54900e-06;-4.0614993738727754e-05
7.54925e-06;-7.810956862023691e-05
7.54950e-06;-0.00011681464223062816
7.54975e-06;-0.00015680271841245018
7.55000e-06;-0.00019734173489393913
7.55025e-06;-0.00023860117653530446
7.55050e-06;-0.0002803402118556037
7.55075e-06;-0.0003220792471757615
7.55100e-06;-0.00036351479385305643
7.55125e-06;-0.00040474830533959727
7.55150e-06;-0.0004459818168259984
7.55175e-06;-0.00048601855778286813
7.55200e-06;-0.0005252585975516298
7.55225e-06;-0.0005628454486196655
7.55250e-06;-0.0005993317567100542
7.55275e-06;-0.0006335060380105201
7.55300e-06;-0.0006661411817357216
7.55325e-06;-0.0006958447646000549
7.55350e-06;-0.0007235967803398283
7.55375e-06;-0.0007483495473910416
7.55400e-06;-0.0007711056869060865
7.55425e-06;-0.0007909834688216363
7.55450e-06;-0.0008089451015148227
7.55475e-06;-0.0008238397627473173
7.55500e-06;-0.0008366927127689418
7.55525e-06;-0.0008462946202757154
7.55550e-06;-0.0008537322787719416
7.55575e-06;-0.000858080548800974
7.55600e-06;-0.0008603721844111372
7.55625e-06;-0.0008598541985895519
7.55650e-06;-0.0008574658218469505
7.55675e-06;-0.0008523537002013926
7.55700e-06;-0.0008454283564326979
7.55725e-06;-0.0008352664430669957
7.55750e-06;-0.000822949915445796
7.55775e-06;-0.0008106333878245546
7.55800e-06;-0.0007951132026622061
7.55825e-06;-0.0007774603131037218
7.55850e-06;-0.0007598074235452972
7.55875e-06;-0.0007396153493633664
7.55900e-06;-0.0007177329165399123
7.55925e-06;-0.0006958504837165325
7.55950e-06;-0.0006721071423323123
7.55975e-06;-0.000647124976942223
7.56000e-06;-0.0006221428115522182
7.56025e-06;-0.000596251187804903
7.56050e-06;-0.0005697541292344283
7.56075e-06;-0.0005432570706640433
7.56100e-06;-0.0005166864710336931
7.56125e-06;-0.0004900669144408255
7.56150e-06;-0.00046344735784804815
7.56175e-06;-0.0004374624663686457
7.56200e-06;-0.0004119000773132921
7.56225e-06;-0.0003874032561086061
7.56250e-06;-0.00036361579325749286
7.56275e-06;-0.000341326137627915
7.56300e-06;-0.00032003358609087066
7.56325e-06;-0.00030013254008625593
7.56350e-06;-0.0002822366789842465
7.56375e-06;-0.00026624884727248434
7.56400e-06;-0.00025231059856237165
7.56425e-06;-0.00024049228157586367
7.56450e-06;-0.00023082485636471343
7.56475e-06;-0.00022333184756007527
7.56500e-06;-0.00021803673319191938
7.56525e-06;-0.00021496309617433259
7.56550e-06;-0.0002141395658804957
7.56575e-06;-0.00021559537847276554
7.56600e-06;-0.00021933080938160883
7.56625e-06;-0.00022530154152991026
7.56650e-06;-0.0002334385540390608
7.56675e-06;-0.0002436681705874053
7.56700e-06;-0.0002559167264595695
7.56725e-06;-0.00027011058025345347
7.56750e-06;-0.00028617926758652516
7.56775e-06;-0.0003040527287443938
7.56800e-06;-0.0003241078800092995
7.56825e-06;-0.00034514280443921207
7.56850e-06;-0.0003678767649781199
7.56875e-06;-0.0003917417895373197
7.56900e-06;-0.0004172602503221699
7.56925e-06;-0.00044387941886387457
7.56950e-06;-0.00047049858740557917
7.56975e-06;-0.0004985998739823448
7.57000e-06;-0.000527687820215156
7.57025e-06;-0.0005567757664479673
7.57050e-06;-0.000585863712680877
7.57075e-06;-0.000614950582901079
7.57100e-06;-0.0006440278059893669
7.57125e-06;-0.0006731050290775561
7.57150e-06;-0.0007021822521657455
7.57175e-06;-0.0007312594752540333
7.57200e-06;-0.0007587538600587406
7.57225e-06;-0.0007851945348082541
7.57250e-06;-0.0008116352095578572
7.57275e-06;-0.0008356047951989968
7.57300e-06;-0.0008579293540121217
7.57325e-06;-0.0008802539128253222
7.57350e-06;-0.0008994907954597181
7.57375e-06;-0.00091667218356219
7.57400e-06;-0.000930273560017234
7.57425e-06;-0.0009414916896744429
7.57450e-06;-0.0009489519393091297
7.57475e-06;-0.0009539105335270429
7.57500e-06;-0.0009551564311819095
7.57525e-06;-0.0009539307524660504
7.57550e-06;-0.000948886005608831
7.57575e-06;-0.0009412988698394042
7.57600e-06;-0.0009296178610363636
7.57625e-06;-0.0009152115231679413
7.57650e-06;-0.0008969407415029291
7.57675e-06;-0.000876097363933168
7.57700e-06;-0.0008517586980705839
7.57725e-06;-0.0008250931865295153
7.57750e-06;-0.0007952066150005774
7.57775e-06;-0.0007631757541071491
7.57800e-06;-0.0007280924587355215
7.57825e-06;-0.0006909771295573457
7.57850e-06;-0.0006512938912358821
7.57875e-06;-0.0006099011720956058
7.57900e-06;-0.000566512518185574
7.57925e-06;-0.0005217951520769032
7.57950e-06;-0.00047559424490833127
7.57975e-06;-0.00042840573076324004
7.58000e-06;-0.00038017991900620167
7.58025e-06;-0.00033126356865438935
7.58050e-06;-0.0002819649410750794
7.58075e-06;-0.00023238988276352452
7.58100e-06;-0.00018295299339541013
7.58125e-06;-0.0001339450753991109
7.58150e-06;-8.564302781738692e-05
7.58175e-06;-3.8296095411064846e-05
7.58200e-06;7.845155104816428e-06
7.58225e-06;5.2492479341124707e-05
7.58250e-06;9.532860014074392e-05
7.58275e-06;0.00013602959443203888
7.58300e-06;0.00017427157151429968
7.58325e-06;0.0002097341831902529
7.58350e-06;0.00024240657554920934
7.58375e-06;0.0002729889197733553
7.58400e-06;0.00030243326372461426
7.58425e-06;0.0003311555051767511
7.58450e-06;0.0003587233898881948
7.58475e-06;0.0003857046343339732
7.58500e-06;0.0004110691198981774
7.58525e-06;0.0004353573141523004
7.58550e-06;0.00045790760508679856
7.58575e-06;0.0004793009577406298
7.58600e-06;0.0005006943103945335
7.58625e-06;0.0005210527300257603
7.58650e-06;0.0005407221851914172
7.58675e-06;0.0005603916403571407
7.58700e-06;0.0005800610955227978
7.58725e-06;0.0005994677128669821
7.58750e-06;0.0006165178232916046
7.58775e-06;0.0006335679337161693
7.58800e-06;0.0006506180441407919
7.58825e-06;0.0006676681545653566
7.58850e-06;0.00068341710307973
7.58875e-06;0.0006982998561008642
7.58900e-06;0.000713182609121948
7.58925e-06;0.0007280653621430318
7.58950e-06;0.000742948115164166
7.58975e-06;0.0007578308681852497
7.59000e-06;0.0007727136212063335
7.59025e-06;0.0007875963742274677
7.59050e-06;0.0008005674003995417
7.59075e-06;0.0008122657723631172
7.59100e-06;0.0008239641443267324
7.59125e-06;0.0008356625162903079
7.59150e-06;0.0008473608882538833
7.59175e-06;0.0008590592602174985
7.59200e-06;0.000870757632181074
7.59225e-06;0.000882456004144689
7.59250e-06;0.0008929833627128767
7.59275e-06;0.0009024104446655645
7.59300e-06;0.0009112575890768338
7.59325e-06;0.0009194467034245768
7.59350e-06;0.0009267205590289464
7.59375e-06;0.0009324350270026142
7.59400e-06;0.0009358746455616609
7.59425e-06;0.0009367148576457791
7.59450e-06;0.0009342216973080222
7.59475e-06;0.0009302129648047422
7.59500e-06;0.0009233420890284326
7.59525e-06;0.0009145658580580053
7.59550e-06;0.0009028249386776991
7.59575e-06;0.0008891103988592334
7.59600e-06;0.0008718354164083334
7.59625e-06;0.0008521902144347164
7.59650e-06;0.0008291891708769598
7.59675e-06;0.0008039541126028397
7.59700e-06;0.0007758169518244253
7.59725e-06;0.0007457478346228313
7.59750e-06;0.0007130357121796908
7.59775e-06;0.0006785641167526694
7.59800e-06;0.0006413996500384407
7.59825e-06;0.0006024425140537666
7.59850e-06;0.0005612439744581749
7.59875e-06;0.000518553311790875
7.59900e-06;0.00047422873240853273
7.59925e-06;0.00042881643958813124
7.59950e-06;0.0003820203756551745
7.59975e-06;0.000334303122520899
7.60000e-06;0.00028658586938662357
7.60025e-06;0.00023803004315958072
7.60050e-06;0.00018891597108508794
7.60075e-06;0.00013980189901042876
7.60100e-06;9.090630247048601e-05
7.60125e-06;4.255820837455976e-05
7.60150e-06;-4.971967681985371e-06
7.60175e-06;-5.14787349283371e-05
7.60200e-06;-9.676759971025055e-05
7.60225e-06;-0.0001405838905386919
7.60250e-06;-0.0001826218567735486
7.60275e-06;-0.00022256353906723256
7.60300e-06;-0.00026009102175296635
7.60325e-06;-0.00029488737922077997
7.60350e-06;-0.00032672406292587623
7.60375e-06;-0.0003555967792837734
7.60400e-06;-0.0003816368359678662
7.60425e-06;-0.00040489134064094476
7.60450e-06;-0.0004252931295568097
7.60475e-06;-0.00044274373282539027
7.60500e-06;-0.00045714469218837095
7.60525e-06;-0.00046839817839129357
7.60550e-06;-0.00047646173140872625
7.60575e-06;-0.0004814333977183026
7.60600e-06;-0.0004834961155593791
7.60625e-06;-0.0004827801173926408
7.60650e-06;-0.00047934400716040615
7.60675e-06;-0.00047322678404569473
7.60700e-06;-0.0004644674879166379
7.60725e-06;-0.0004531055488735519
7.60750e-06;-0.0004392150326251243
7.60775e-06;-0.00042295805584187596
7.60800e-06;-0.0004045499051784598
7.60825e-06;-0.0003841727886147357
7.60850e-06;-0.00036146686118134505
7.60875e-06;-0.00033771790269792625
7.60900e-06;-0.00031213028667223346
7.60925e-06;-0.000285318659350266
7.60950e-06;-0.0002570330832804613
7.60975e-06;-0.0002277662859250851
7.61000e-06;-0.00019755568979259606
7.61025e-06;-0.0001667167981033961
7.61050e-06;-0.00013539929983291067
7.61075e-06;-0.00010376318874377505
7.61100e-06;-7.20781485633038e-05
7.61125e-06;-4.0360535835060106e-05
7.61150e-06;-8.888516803176297e-06
7.61175e-06;2.2069371199788482e-05
7.61200e-06;5.229279748072353e-05
7.61225e-06;8.154678037522881e-05
7.61250e-06;0.00010961397110857379
7.61275e-06;0.000136281866608843
7.61300e-06;0.0001613379739942069
7.61325e-06;0.0001845709069554639
7.61350e-06;0.00020586850352297419
7.61375e-06;0.00022535678640231405
7.61400e-06;0.0002432732233954048
7.61425e-06;0.00025971661934637676
7.61450e-06;0.0002746373132605987
7.61475e-06;0.0002879472893641738
7.61500e-06;0.00029955860172233917
7.61525e-06;0.0003093839916119528
7.61550e-06;0.0003173983021786822
7.61575e-06;0.00032330051089320117
7.61600e-06;0.0003282768293438458
7.61625e-06;0.0003315948571711
7.61650e-06;0.0003338089456250187
7.61675e-06;0.00033435875044446356
7.61700e-06;0.0003338006262877948
7.61725e-06;0.00033157445320835426
7.61750e-06;0.000328237844565642
7.61775e-06;0.0003238827653256066
7.61800e-06;0.0003205304386289097
7.61825e-06;-0.0023712346158060657
7.61850e-06;-0.008418121274965374
7.61875e-06;-0.010350360369402697
7.61900e-06;-0.00909868519121845
7.61925e-06;-0.006349943495223051
7.61950e-06;-0.0024405403537245216
7.61975e-06;-4.667788017586564e-05
7.62000e-06;-2.6502828877776065e-05
7.62025e-06;-0.0018232857688551965
7.62050e-06;-0.004695075589371135
7.62075e-06;-0.006477734524297016
7.62100e-06;-0.00599752587577648
7.62125e-06;-0.004080968662186911
7.62150e-06;-0.0017539643997760155
7.62175e-06;-0.00013725155809716277
7.62200e-06;4.887468719528979e-06
7.62225e-06;-0.001098782729975966
7.62250e-06;-0.002485752008761226
7.62275e-06;-0.003462018429498831
7.62300e-06;-0.0032954009981570865
7.62325e-06;-0.002075885415052465
7.62350e-06;-0.0007093919174603247
7.62375e-06;0.0003133770353679591
7.62400e-06;0.00038664269226231656
7.62425e-06;-0.00033680929632366014
7.62450e-06;-0.0012925447771655945
7.62475e-06;-0.0020017418653627463
7.62500e-06;-0.0018744191883500703
7.62525e-06;-0.0011152805637922333
7.62550e-06;-0.00026877168643993604
7.62575e-06;0.00036143712126653955
7.62600e-06;0.00039600120545286787
7.62625e-06;-6.924790608569458e-05
7.62650e-06;-0.000680643899821215
7.62675e-06;-0.0011381781307230037
7.62700e-06;-0.0010722426666766808
7.62725e-06;-0.0006110311440990134
7.62750e-06;-9.552953880275514e-05
7.62775e-06;0.00028412133857236586
7.62800e-06;0.0002903976020047642
7.62825e-06;-1.656707220196727e-05
7.62850e-06;-0.00041514460530060434
7.62875e-06;-0.0007173370518884046
7.62900e-06;-0.0006915689098572146
7.62925e-06;-0.0004180938547861003
7.62950e-06;-0.00011044526350250571
7.62975e-06;0.00011234775125802657
7.63000e-06;0.00010158766156570981
7.63025e-06;-0.00010496594044502553
7.63050e-06;-0.00036840170313181587
7.63075e-06;-0.0005708858941336723
7.63100e-06;-0.0005673000298610115
7.63125e-06;-0.0004078594211249162
7.63150e-06;-0.0002262572150514996
7.63175e-06;-9.697970401513214e-05
7.63200e-06;-0.00011308990865268288
7.63225e-06;-0.00025085119220073066
7.63250e-06;-0.0004231706933709549
7.63275e-06;-0.000556165943578676
7.63300e-06;-0.0005588709082174683
7.63325e-06;-0.0004626790960580563
7.63350e-06;-0.0003512155031250202
7.63375e-06;-0.0002708879993143806
7.63400e-06;-0.00027974322138562413
7.63425e-06;-0.00036285535460504556
7.63450e-06;-0.0004657510409578922
7.63475e-06;-0.0005422572419099916
7.63500e-06;-0.0005355047502694056
7.63525e-06;-0.00046527195786541764
7.63550e-06;-0.00038405164501911885
7.63575e-06;-0.00032102015152382955
7.63600e-06;-0.00031264132155454195
7.63625e-06;-0.00034966789593737367
7.63650e-06;-0.0003980821336283826
7.63675e-06;-0.0004290684735666189
7.63700e-06;-0.00040711421320753093
7.63725e-06;-0.0003447196410809311
7.63750e-06;-0.00027487528952816864
7.63775e-06;-0.0002159639132230649
7.63800e-06;-0.00019093130600467977
7.63825e-06;-0.00019408910674831374
7.63850e-06;-0.00020423394699630845
7.63875e-06;-0.0002034229257612256
7.63900e-06;-0.0001695198996396419
7.63925e-06;-0.00011046465500777005
7.63950e-06;-4.7030736828858556e-05
7.63975e-06;9.160088095014269e-06
7.64000e-06;4.362895562979517e-05
7.64025e-06;5.9833891928574056e-05
7.64050e-06;7.095073945180455e-05
7.64075e-06;8.811186092768656e-05
7.64100e-06;0.0001250751393065333
7.64125e-06;0.0001767585135252829
7.64150e-06;0.0002300417108702902
7.64175e-06;0.0002775380646464374
7.64200e-06;0.00031007192251056385
7.64225e-06;0.0003297036668874338
7.64250e-06;0.0003445803811170871
7.64275e-06;0.00036156846690791846
7.64300e-06;0.0003891782059106798
7.64325e-06;0.0004241183512412013
7.64350e-06;0.0004580224251810168
7.64375e-06;0.0004860353847606195
