Time(s);Current(A)
8.50000e-06;0.002056811913399492
8.50025e-06;0.0020662274682135325
8.50050e-06;0.0020755047188978836
8.50075e-06;0.002084498733831528
8.50100e-06;0.0020934007369871567
8.50125e-06;0.002102114307410581
8.50150e-06;0.002110664976118094
8.50175e-06;0.002118882035193926
8.50200e-06;0.0021270990942697586
8.50225e-06;0.002134934508809835
8.50250e-06;0.002141988345989973
8.50275e-06;0.0021490421831701105
8.50300e-06;0.0021560960203502
8.50325e-06;0.0021631498575303376
8.50350e-06;0.0021698359226022612
8.50375e-06;0.0021757688199315517
8.50400e-06;0.002181701717260882
8.50425e-06;0.0021876346145902124
8.50450e-06;0.0021935675119195428
8.50475e-06;0.0021992688761934553
8.50500e-06;0.0022044960793639137
8.50525e-06;0.0022097232825343724
8.50550e-06;0.002214882931464528
8.50575e-06;0.0022199042347357816
8.50600e-06;0.0022249255380070356
8.50625e-06;0.002229919824674817
8.50650e-06;0.002234858783508432
8.50675e-06;0.002239797742342047
8.50700e-06;0.002244808647841994
8.50725e-06;0.0022499668943368237
8.50750e-06;0.0022552381216699702
8.50775e-06;0.0022607407246867267
8.50800e-06;0.0022663799130577507
8.50825e-06;0.0022722988172653976
8.50850e-06;0.002278353275561973
8.50875e-06;0.002284796790784713
8.50900e-06;0.00229159551309043
8.50925e-06;0.002298815193484367
8.50950e-06;0.0023069382597079697
8.50975e-06;0.002317683178424821
8.51000e-06;0.0023334196195281026
8.51025e-06;0.002355382497074634
8.51050e-06;0.0023835567135047564
8.51075e-06;0.0024176241421083764
8.51100e-06;0.002457267045447403
8.51125e-06;0.002502179148246507
8.51150e-06;0.002553436536053139
8.51175e-06;0.0026106998358759463
8.51200e-06;0.0026727822764459966
8.51225e-06;0.0027447339302538645
8.51250e-06;0.0028211404971981283
8.51275e-06;0.00290667036848309
8.51300e-06;0.002995092671452575
8.51325e-06;0.0030911345298230246
8.51350e-06;0.003192322475239286
8.51375e-06;0.0032987653091382735
8.51400e-06;0.0034108268297520184
8.51425e-06;0.003528425661788293
8.51450e-06;0.00365098981155066
8.51475e-06;0.003777828703349166
8.51500e-06;0.003908251837886485
8.51525e-06;0.004041573226534422
8.51550e-06;0.00417720929916372
8.51575e-06;0.004314880567860505
8.51600e-06;0.00445446694269087
8.51625e-06;0.004595569917985591
8.51650e-06;0.004737483198285088
8.51675e-06;0.004879426640830954
8.51700e-06;0.005020620270287171
8.51725e-06;0.00516028668661772
8.51750e-06;0.005297713284126854
8.51775e-06;0.005432376914407684
8.51800e-06;0.005563855481809239
8.51825e-06;0.005691551463726184
8.51850e-06;0.005814675617453099
8.51875e-06;0.0059323917754208555
8.51900e-06;0.006043863908195504
8.51925e-06;0.006148274662113802
8.51950e-06;0.006245230245851721
8.51975e-06;0.006335654421710116
8.52000e-06;0.006421353209910122
8.52025e-06;0.0065032716372495905
8.52050e-06;0.00658045892454982
8.52075e-06;0.006653192190828429
8.52100e-06;0.006722527017937029
8.52125e-06;0.006784902114541257
8.52150e-06;0.006843963106556091
8.52175e-06;0.006896237078515685
8.52200e-06;0.006946369914629833
8.52225e-06;0.006992117876478807
8.52250e-06;0.007035162293697654
8.52275e-06;0.00707267006862686
8.52300e-06;0.007110177843556065
8.52325e-06;0.0071441427512519235
8.52350e-06;0.007170852151369321
8.52375e-06;0.007197561551486718
8.52400e-06;0.007221936523546575
8.52425e-06;0.0072415307744143394
8.52450e-06;0.007261125025282104
8.52475e-06;0.007278609842162041
8.52500e-06;0.007291774707635947
8.52525e-06;0.007304939573109854
8.52550e-06;0.007316260077962326
8.52575e-06;0.007323803480375852
8.52600e-06;0.00733134688278938
8.52625e-06;0.007337963928904491
8.52650e-06;0.007342683871712642
8.52675e-06;0.0073474038145207934
8.52700e-06;0.007351343662453814
8.52725e-06;0.007353685938728972
8.52750e-06;0.00735602821500413
8.52775e-06;0.007358193164581593
8.52800e-06;0.007359994963322615
8.52825e-06;0.007361796762063638
8.52850e-06;0.007364007960380355
8.52875e-06;0.007367057576150933
8.52900e-06;0.0073701071919215115
8.52925e-06;0.0073738721747576026
8.52950e-06;0.007379102171895785
8.52975e-06;0.007384332169033968
8.53000e-06;0.0073917889313114835
8.53025e-06;0.007403805929772062
8.53050e-06;0.007415822928232721
8.53075e-06;0.00742783992669338
8.53100e-06;0.0074398569251539586
8.53125e-06;0.007451873923614618
8.53150e-06;0.007463890922075278
8.53175e-06;0.007484311563787659
8.53200e-06;0.007506476754502715
8.53225e-06;0.007528641945217771
8.53250e-06;0.007550807135932678
8.53275e-06;0.007572972326647734
8.53300e-06;0.00759513751736279
8.53325e-06;0.007620445385628279
8.53350e-06;0.007652189205143189
8.53375e-06;0.0076839330246581
8.53400e-06;0.007715676844172795
8.53425e-06;0.007747420663687705
8.53450e-06;0.007779164483202616
8.53475e-06;0.007810908302717311
8.53500e-06;0.007842652122232221
8.53525e-06;0.0078790720111193
8.53550e-06;0.007916462625668367
8.53575e-06;0.007953853240217686
8.53600e-06;0.007991243854767004
8.53625e-06;0.00802863446931607
8.53650e-06;0.00806602508386539
8.53675e-06;0.008103415698414707
8.53700e-06;0.008140842919060918
8.53725e-06;0.008178345106054677
8.53750e-06;0.008215847293048435
8.53775e-06;0.008252884977799236
8.53800e-06;0.00828897139925915
8.53825e-06;0.00832446824255178
8.53850e-06;0.008358757677103973
8.53875e-06;0.008391978669922385
8.53900e-06;0.008423011579872004
8.53925e-06;0.008454044489821625
8.53950e-06;0.008483348540859224
8.53975e-06;0.00850911202768167
8.54000e-06;0.008534875514504117
8.54025e-06;0.008557572145767127
8.54050e-06;0.008573988103128606
8.54075e-06;0.008590404060490083
8.54100e-06;0.00860682001785145
8.54125e-06;0.008623235975212928
8.54150e-06;0.008639651932574407
8.54175e-06;0.008651897198600909
8.54200e-06;0.008655601223700588
8.54225e-06;0.008659305248800268
8.54250e-06;0.008663009273899921
8.54275e-06;0.0086667132989996
8.54300e-06;0.008670417324099278
8.54325e-06;0.008669973428081214
8.54350e-06;0.008661034922712132
8.54375e-06;0.00865209641734305
8.54400e-06;0.008643157911974031
8.54425e-06;0.00863421940660495
8.54450e-06;0.008625280901235868
8.54475e-06;0.008616342395866847
8.54500e-06;0.008607403890497765
8.54525e-06;0.008598465385128684
8.54550e-06;0.008583456913968541
8.54575e-06;0.008567188352100422
8.54600e-06;0.008550919790232302
8.54625e-06;0.008534651228364293
8.54650e-06;0.008518382666496174
8.54675e-06;0.008502114104628054
8.54700e-06;0.008485845542759935
8.54725e-06;0.008469576980891924
8.54750e-06;0.008453546725926438
8.54775e-06;0.008438004504360398
8.54800e-06;0.008422462282794462
8.54825e-06;0.008407860880703269
8.54850e-06;0.00839518620134447
8.54875e-06;0.008382511521985754
8.54900e-06;0.008371019614755509
8.54925e-06;0.008361949929862616
8.54950e-06;0.008353412072282518
8.54975e-06;0.008345532209063138
8.55000e-06;0.008335407819258758
8.55025e-06;0.008322495031761802
8.55050e-06;0.008307612604013215
8.55075e-06;0.0082886965112002
8.55100e-06;0.008269780418387314
8.55125e-06;0.008249364789500105
8.55150e-06;0.008225878231152164
8.55175e-06;0.008198769960888698
8.55200e-06;0.008164244715460614
8.55225e-06;0.008129719470032527
8.55250e-06;0.008095194224604677
8.55275e-06;0.008060668979176592
8.55300e-06;0.008021644697742006
8.55325e-06;0.007973406751857866
8.55350e-06;0.0079251688059734
8.55375e-06;0.007876930860088935
8.55400e-06;0.007828692914204795
8.55425e-06;0.00777726719245445
8.55450e-06;0.007719313161722136
8.55475e-06;0.007661359130990215
8.55500e-06;0.0076020900206165394
8.55525e-06;0.00754012773274351
8.55550e-06;0.00747816544487048
8.55575e-06;0.007415459321919013
8.55600e-06;0.007351229884458511
8.55625e-06;0.007287000446998009
8.55650e-06;0.007222821070463761
8.55675e-06;0.0071587442146850665
8.55700e-06;0.007094667358906372
8.55725e-06;0.00703190578647611
8.55750e-06;0.006971837808719848
8.55775e-06;0.006911769830963586
8.55800e-06;0.006853376093255209
8.55825e-06;0.006798411064715909
8.55850e-06;0.006746010474579394
8.55875e-06;0.006698861648358088
8.55900e-06;0.006651712822136464
8.55925e-06;0.0066087593357608745
8.55950e-06;0.006574397568488952
8.55975e-06;0.006540035801216798
8.56000e-06;0.006510098849407803
8.56025e-06;0.006489223564338798
8.56050e-06;0.00646834827926965
8.56075e-06;0.006453366365340777
8.56100e-06;0.006450453602248535
8.56125e-06;0.006447540839156274
8.56150e-06;0.006444628076064012
8.56175e-06;0.00644171531297177
8.56200e-06;0.006456155373322939
8.56225e-06;0.006474197782080734
8.56250e-06;0.006492240190838405
8.56275e-06;0.006510282599596199
8.56300e-06;0.006532834879859452
8.56325e-06;0.006564623014806655
8.56350e-06;0.006598954249878048
8.56375e-06;0.006638493549783348
8.56400e-06;0.006680196826148109
8.56425e-06;0.006726331752526523
8.56450e-06;0.006773891658320456
8.56475e-06;0.006825226597979475
8.56500e-06;0.006879103145659936
8.56525e-06;0.006935307271913971
8.56550e-06;0.006993604568978168
8.56575e-06;0.0070536945354355484
8.56600e-06;0.007115215061548966
8.56625e-06;0.0071778177292140906
8.56650e-06;0.0072411933969405064
8.56675e-06;0.007305044674588869
8.56700e-06;0.007369073218732453
8.56725e-06;0.0074329811735693325
8.56750e-06;0.007496457660389781
8.56775e-06;0.007559150000784509
8.56800e-06;0.007620667053914116
8.56825e-06;0.007680626649035647
8.56850e-06;0.007738671427234242
8.56875e-06;0.007794450265256557
8.56900e-06;0.007847613000457637
8.56925e-06;0.007897806065103511
8.56950e-06;0.007944626623076309
8.56975e-06;0.007987542819833209
8.57000e-06;0.008025248537592839
8.57025e-06;0.008058213165782419
8.57050e-06;0.008086065383460921
8.57075e-06;0.008103447794954142
8.57100e-06;0.008120830206447247
8.57125e-06;0.008138212617940468
8.57150e-06;0.00815559502943369
8.57175e-06;0.008154548163843995
8.57200e-06;0.008149675484133591
8.57225e-06;0.008144802804423189
8.57250e-06;0.008139930124712785
8.57275e-06;0.008129302730235538
8.57300e-06;0.00810689014203651
8.57325e-06;0.008084477553837479
8.57350e-06;0.008058059073040726
8.57375e-06;0.008023436845888538
8.57400e-06;0.007988814618736349
8.57425e-06;0.007950802100686591
8.57450e-06;0.007905846539128186
8.57475e-06;0.007860890977569781
8.57500e-06;0.007813483398254302
8.57525e-06;0.007761054283475466
8.57550e-06;0.00770862516869663
8.57575e-06;0.007654813725597221
8.57600e-06;0.007598171385101039
8.57625e-06;0.007540948938800385
8.57650e-06;0.007482538482396691
8.57675e-06;0.00742408272671132
8.57700e-06;0.007365534201735543
8.57725e-06;0.0073074735034216335
8.57750e-06;0.00725041183493623
8.57775e-06;0.007194344764498485
8.57800e-06;0.007140314550993821
8.57825e-06;0.0070878374993555
8.57850e-06;0.007038541198497241
8.57875e-06;0.006992065115288107
8.57900e-06;0.0069513646113526905
8.57925e-06;0.006910664107417274
8.57950e-06;0.006875390116170323
8.57975e-06;0.006851229187146038
8.58000e-06;0.006827068258121753
8.58025e-06;0.0068029073290976315
8.58050e-06;0.006778746400073346
8.58075e-06;0.006761597799790879
8.58100e-06;0.006758809885663763
8.58125e-06;0.006756021971536667
8.58150e-06;0.006753234057409551
8.58175e-06;0.0067504461432824365
8.58200e-06;0.006753147361288485
8.58225e-06;0.006767089881112227
8.58250e-06;0.006781032400935969
8.58275e-06;0.006798701887934065
8.58300e-06;0.006824003904420789
8.58325e-06;0.0068493059209075126
8.58350e-06;0.00687750179502107
8.58375e-06;0.006911624057171119
8.58400e-06;0.006947657903157
8.58425e-06;0.006987606519333573
8.58450e-06;0.00702881694584448
8.58475e-06;0.007073376886583712
8.58500e-06;0.007120212650637807
8.58525e-06;0.0071691491640057245
8.58550e-06;0.007219988086192652
8.58575e-06;0.007272453814500499
8.58600e-06;0.007326204516939233
8.58625e-06;0.007380924291161776
8.58650e-06;0.007436348211536536
8.58675e-06;0.0074922259197140835
8.58700e-06;0.007548306104057759
8.58725e-06;0.007604337787775674
8.58750e-06;0.007660054519366197
8.58775e-06;0.007715141681150313
8.58800e-06;0.007769243653363023
8.58825e-06;0.007822020123528915
8.58850e-06;0.007873163689307438
8.58875e-06;0.007922375090591741
8.58900e-06;0.00796935535819369
8.58925e-06;0.008013806177971337
8.58950e-06;0.008054867863354052
8.58975e-06;0.00809274754643113
8.59000e-06;0.008128333084457788
8.59025e-06;0.00815922039764491
8.59050e-06;0.008186201872184763
8.59075e-06;0.008205184502821747
8.59100e-06;0.008224167133458733
8.59125e-06;0.00824314976409559
8.59150e-06;0.008262132394732575
8.59175e-06;0.008267144607446954
8.59200e-06;0.008269256640085602
8.59225e-06;0.008271368672724265
8.59250e-06;0.008273480705362926
8.59275e-06;0.0082712843069788
8.59300e-06;0.008260264587835067
8.59325e-06;0.008249244868691333
8.59350e-06;0.008235204178929598
8.59375e-06;0.008214976783931524
8.59400e-06;0.00819474938893345
8.59425e-06;0.008172007132656702
8.59450e-06;0.008144114642428684
8.59475e-06;0.008116222152200668
8.59500e-06;0.008086470634470513
8.59525e-06;0.008052911977698536
8.59550e-06;0.008019353320926558
8.59575e-06;0.007984611942954032
8.59600e-06;0.007947448446936576
8.59625e-06;0.00791028495091912
8.59650e-06;0.007872723310122915
8.59675e-06;0.007834346300790735
8.59700e-06;0.0077960925849492125
8.59725e-06;0.007758091364276147
8.59750e-06;0.007720590039887115
8.59775e-06;0.007684112462945863
8.59800e-06;0.007648528954786904
8.59825e-06;0.007614776427699206
8.59850e-06;0.007582344302089544
8.59875e-06;0.007552616252677174
8.59900e-06;0.00752464211810101
8.59925e-06;0.007500259860266933
8.59950e-06;0.00747831971494992
8.59975e-06;0.007461380819962871
8.60000e-06;0.007447752286448639
8.60025e-06;0.00744090310740425
8.60050e-06;0.0074383360727277486
8.60075e-06;0.007444538525854272
8.60100e-06;0.007450740978980797
8.60125e-06;0.007462121402227811
8.60150e-06;0.007484105892483375
8.60175e-06;0.0075060903827389395
8.60200e-06;0.007533575056214959
8.60225e-06;0.00757232366325441
8.60250e-06;0.007611072270293862
8.60275e-06;0.007653285623034278
8.60300e-06;0.007704180200761451
8.60325e-06;0.007759825070209008
8.60350e-06;0.007820005732408217
8.60375e-06;0.007884623477950933
8.60400e-06;0.007953613664309137
8.60425e-06;0.008026757516997813
8.60450e-06;0.008103689289808378
8.60475e-06;0.008184010056475989
8.60500e-06;0.008267321531140556
8.60525e-06;0.008353225704219088
8.60550e-06;0.00844135152862531
8.60575e-06;0.008531399683753483
8.60600e-06;0.008623091503020581
8.60625e-06;0.008716053864776765
8.60650e-06;0.008809819726357814
8.60675e-06;0.00890390136565172
8.60700e-06;0.008997812952478238
8.60725e-06;0.009091067710690279
8.60750e-06;0.009183195379027224
8.60775e-06;0.009273772291643749
8.60800e-06;0.009362386456403332
8.60825e-06;0.009448566393663517
8.60850e-06;0.00953178322934186
8.60875e-06;0.009611493987734426
8.60900e-06;0.009687157264864793
8.60925e-06;0.009758246614559424
8.60950e-06;0.009824602398373867
8.60975e-06;0.00988719173675189
8.61000e-06;0.009947699556018163
8.61025e-06;0.01000700500855591
8.61050e-06;0.010064644953143782
8.61075e-06;0.010103577723035356
8.61100e-06;0.010161340160831134
8.61125e-06;-0.000862929830594137
8.61150e-06;-0.023485371302842773
8.61175e-06;-0.0038258106289449697
8.61200e-06;0.017461846064517776
8.61225e-06;0.03253967566376559
8.61250e-06;0.039638989757101735
8.61275e-06;0.02656040178775102
8.61300e-06;0.011448154995115525
8.61325e-06;-0.0027902249091445105
8.61350e-06;-0.010083990701199334
8.61375e-06;0.0021559449413890417
8.61400e-06;0.015448374698984725
8.61425e-06;0.024872473313430125
8.61450e-06;0.029303976327555166
8.61475e-06;0.02109895708279875
8.61500e-06;0.011622877009924083
8.61525e-06;0.002696751355033472
8.61550e-06;-0.0018771387370548835
8.61575e-06;0.005786058101942209
8.61600e-06;0.014108986718585634
8.61625e-06;0.020009179372935476
8.61650e-06;0.022782511431894907
8.61675e-06;0.017641212603628026
8.61700e-06;0.011704867288819445
8.61725e-06;0.006114068014614271
8.61750e-06;0.0032503116469815943
8.61775e-06;0.00805208489407946
8.61800e-06;0.013266885821494755
8.61825e-06;0.01696382350455124
8.61850e-06;0.018701914673160132
8.61875e-06;0.015482341913435482
8.61900e-06;0.011764980852861557
8.61925e-06;0.008264226260656192
8.61950e-06;0.006471453917003814
8.61975e-06;0.009478783873108108
8.62000e-06;0.01274156023133965
8.62025e-06;0.015049574892755869
8.62050e-06;0.016126738809193852
8.62075e-06;0.0140949990664562
8.62100e-06;0.011748377099968767
8.62125e-06;0.009534582539342145
8.62150e-06;0.008387966292071404
8.62175e-06;0.01024545216422242
8.62200e-06;0.012260340345445259
8.62225e-06;0.013674791416835778
8.62250e-06;0.014316139425464947
8.62275e-06;0.013008312850299906
8.62300e-06;0.011501797799536239
8.62325e-06;0.01007726125456511
8.62350e-06;0.009320161903347564
8.62375e-06;0.010443887232066287
8.62400e-06;0.011665397719240012
8.62425e-06;0.012510214540636303
8.62450e-06;0.01287043942604498
8.62475e-06;0.012009681303149276
8.62500e-06;0.01102472430786704
8.62525e-06;0.010091601568672481
8.62550e-06;0.00957724465286991
8.62575e-06;0.010241866146406315
8.62600e-06;0.0109687377335807
8.62625e-06;0.011460876771758373
8.62650e-06;0.011650942460594392
8.62675e-06;0.011077932692442201
8.62700e-06;0.010429133385912732
8.62725e-06;0.00981503630174907
8.62750e-06;0.00946569674775706
8.62775e-06;0.009857487280810795
8.62800e-06;0.010291079410193199
8.62825e-06;0.010580673210043797
8.62850e-06;0.010684324094434696
8.62875e-06;0.010313516602540257
8.62900e-06;0.009899012967292866
8.62925e-06;0.009510245917259382
8.62950e-06;0.009291456128245503
8.62975e-06;0.009540865392507902
8.63000e-06;0.009819958072037418
8.63025e-06;0.010011973235143742
8.63050e-06;0.010090436879377973
8.63075e-06;0.00987447129022202
8.63100e-06;0.009633752165701948
8.63125e-06;0.00941160401862702
8.63150e-06;0.009298205075931348
8.63175e-06;0.009480173981714765
8.63200e-06;0.009682641737968463
8.63225e-06;0.00983230354193273
8.63250e-06;0.009912412751535747
8.63275e-06;0.009809511227669265
8.63300e-06;0.009692364018503645
8.63325e-06;0.009587941547508746
8.63350e-06;0.009552558696690364
8.63375e-06;0.009702934142458746
8.63400e-06;0.009866712243569688
8.63425e-06;0.009997807697260393
8.63450e-06;0.010085565142423692
8.63475e-06;0.01005875406732459
8.63500e-06;0.010022926324081936
8.63525e-06;0.009994807327636303
8.63550e-06;0.010009501971634421
8.63575e-06;0.01013994841084471
8.63600e-06;0.010278007693872807
8.63625e-06;0.010394644902074866
8.63650e-06;0.010483019964542055
8.63675e-06;0.010498350650118041
8.63700e-06;0.010506589289987885
8.63725e-06;0.010518044612169082
8.63750e-06;0.0105545374338969
8.63775e-06;0.010661582951358693
8.63800e-06;0.010771271120618282
8.63825e-06;0.010865247336719423
8.63850e-06;0.01093905922044
8.63875e-06;0.010964491269715639
8.63900e-06;0.010982690077049854
8.63925e-06;0.010999951745694722
8.63950e-06;0.011029897938618938
8.63975e-06;0.011101404587622484
8.64000e-06;0.011172630180043053
8.64025e-06;0.011232549210555241
8.64050e-06;0.011278521240686649
8.64075e-06;0.011292949682702374
8.64100e-06;0.011301684977294946
8.64125e-06;0.011308747445444632
8.64150e-06;0.01132274462379667
8.64175e-06;0.011361837469121016
8.64200e-06;0.011399890550285065
8.64225e-06;0.01143007447758412
8.64250e-06;0.01145081083632428
8.64275e-06;0.011451152451445543
8.64300e-06;0.01144737047407153
8.64325e-06;0.011442058198659403
8.64350e-06;0.01144068129277013
8.64375e-06;0.01145469099528683
8.64400e-06;0.011467791601353876
8.64425e-06;0.011475779565515131
8.64450e-06;0.011477742391048918
8.64475e-06;0.01146689880316795
8.64500e-06;0.011453517794460974
8.64525e-06;0.011439297595016993
8.64550e-06;0.011427739692903399
8.64575e-06;0.01142608941290725
8.64600e-06;0.011424215554543314
8.64625e-06;0.011419560128210222
8.64650e-06;0.011411627055266447
8.64675e-06;0.01139624459557691
8.64700e-06;0.01137992017878407
8.64725e-06;0.011363793546580766
8.64750e-06;0.011350133630383235
8.64775e-06;0.011343553757855639
8.64800e-06;0.011337782463160025
8.64825e-06;0.011331291953249115
8.64850e-06;0.011323848439251409
8.64875e-06;0.011312913181766974
8.64900e-06;0.011302638264464163
8.64925e-06;0.011293799365599624
8.64950e-06;0.011287649833636363
8.64975e-06;0.01128612807658332
8.65000e-06;0.011283854195432095
8.65025e-06;0.011279083998111318
8.65050e-06;0.011271633467863666
8.65075e-06;0.011260032405578524
8.65100e-06;0.011247001565146944
8.65125e-06;0.01123314677361981
