Time(s);Current(A)
1.00000e-06;-0.012486985823921925
1.00025e-06;-0.012501537569818914
1.00050e-06;-0.012514681452633956
1.00075e-06;-0.012519515101461903
1.00100e-06;-0.012524348750289847
1.00125e-06;-0.012529182399117794
1.00150e-06;-0.012534016047945736
1.00175e-06;-0.01253884969677368
1.00200e-06;-0.012543683345601627
1.00225e-06;-0.012548516994429569
1.00250e-06;-0.012553350643257516
1.00275e-06;-0.01255818429208546
1.00300e-06;-0.012563017940913402
1.00325e-06;-0.0125670305948753
1.00350e-06;-0.012566197138781234
1.00375e-06;-0.012565363682687167
1.00400e-06;-0.012564530226593101
1.00425e-06;-0.012563696770499034
1.00450e-06;-0.012562863314404968
1.00475e-06;-0.012562029858310902
1.00500e-06;-0.012561196402216835
1.00525e-06;-0.012560362946122769
1.00550e-06;-0.012559529490028701
1.00575e-06;-0.012558696033934634
1.00600e-06;-0.012557862577840568
1.00625e-06;-0.012556732531817586
1.00650e-06;-0.012553851795873872
1.00675e-06;-0.012550971059930154
1.00700e-06;-0.01254809032398644
1.00725e-06;-0.012545209588042724
1.00750e-06;-0.012542328852099008
1.00775e-06;-0.012539448116155292
1.00800e-06;-0.012536567380211576
1.00825e-06;-0.01253368664426786
1.00850e-06;-0.012530805908324146
1.00875e-06;-0.012527925172380428
1.00900e-06;-0.012525044436436714
1.00925e-06;-0.012522048481233295
1.00950e-06;-0.012518372417985207
1.00975e-06;-0.012514696354737113
1.01000e-06;-0.012511020291489025
1.01025e-06;-0.012507344228240935
1.01050e-06;-0.012503668164992841
1.01075e-06;-0.012499992101744753
1.01100e-06;-0.01249631603849666
1.01125e-06;-0.012492639975248571
1.01150e-06;-0.01248896391200048
1.01175e-06;-0.012485287848752389
1.01200e-06;-0.012480708338258272
1.01225e-06;-0.012475631299765793
1.01250e-06;-0.012470554261273317
1.01275e-06;-0.012465477222780843
1.01300e-06;-0.012460400184288362
1.01325e-06;-0.012455323145795888
1.01350e-06;-0.012450246107303409
1.01375e-06;-0.012445169068810933
1.01400e-06;-0.012440092030318454
1.01425e-06;-0.012435014991825978
1.01450e-06;-0.012429853685577055
1.01475e-06;-0.012424179017198136
1.01500e-06;-0.012418410186036245
1.01525e-06;-0.012412641354874347
1.01550e-06;-0.012406872523712456
1.01575e-06;-0.012401103692550564
1.01600e-06;-0.012395334861388666
1.01625e-06;-0.012389566030226775
1.01650e-06;-0.012383797199064878
1.01675e-06;-0.012378028367902985
1.01700e-06;-0.012372639387327798
1.01725e-06;-0.012367459590302506
1.01750e-06;-0.012362279793277217
1.01775e-06;-0.012357099996251926
1.01800e-06;-0.012351920199226638
1.01825e-06;-0.012346740402201345
1.01850e-06;-0.012341560605176058
1.01875e-06;-0.012336380808150771
1.01900e-06;-0.012331194683069426
1.01925e-06;-0.012325971205189266
1.01950e-06;-0.012320747727309102
1.01975e-06;-0.012315524249428942
1.02000e-06;-0.012310300771548783
1.02025e-06;-0.012305077293668618
1.02050e-06;-0.012299853815788459
1.02075e-06;-0.012294630337908294
1.02100e-06;-0.012289406860028135
1.02125e-06;-0.012284183382147975
1.02150e-06;-0.01227895990426781
1.02175e-06;-0.012272703939762873
1.02200e-06;-0.012265879385330861
1.02225e-06;-0.012259054830898855
1.02250e-06;-0.012252230276466844
1.02275e-06;-0.012245405722034836
1.02300e-06;-0.01223858116760283
1.02325e-06;-0.012231756613170818
1.02350e-06;-0.012224932058738812
1.02375e-06;-0.0122181075043068
1.02400e-06;-0.012211282949874794
1.02425e-06;-0.01220432457877879
1.02450e-06;-0.012196576324203947
1.02475e-06;-0.012188828069629112
1.02500e-06;-0.012181079815054272
1.02525e-06;-0.012173331560479436
1.02550e-06;-0.012165583305904601
1.02575e-06;-0.012157835051329759
1.02600e-06;-0.012150086796754923
1.02625e-06;-0.012142410556225157
1.02650e-06;-0.012135159395074523
1.02675e-06;-0.012127908233923883
1.02700e-06;-0.01212065707277325
1.02725e-06;-0.012113405911622615
1.02750e-06;-0.012106154750471974
1.02775e-06;-0.01209890358932134
1.02800e-06;-0.0120916524281707
1.02825e-06;-0.012084550742542671
1.02850e-06;-0.012078331370389389
1.02875e-06;-0.012072269450958548
1.02900e-06;-0.012067136932249842
1.02925e-06;-0.012062390759617164
1.02950e-06;-0.012059925083100869
1.02975e-06;-0.012057994030759982
1.03000e-06;-0.012059218719945603
1.03025e-06;-0.012060443409131223
1.03050e-06;-0.012062266697498736
1.03075e-06;-0.012067623354507066
1.03100e-06;-0.0120729800115154
1.03125e-06;-0.012079395707857713
1.03150e-06;-0.012092062626195058
1.03175e-06;-0.012104729544532414
1.03200e-06;-0.012117396462869759
1.03225e-06;-0.012130063381207114
1.03250e-06;-0.01214273029954446
1.03275e-06;-0.012156577033932778
1.03300e-06;-0.012177387902523868
1.03325e-06;-0.012198198771114938
1.03350e-06;-0.012219009639706025
1.03375e-06;-0.012239820508297096
1.03400e-06;-0.012260631376888166
1.03425e-06;-0.012282201956310681
1.03450e-06;-0.012308256902750288
1.03475e-06;-0.012334311849189917
1.03500e-06;-0.012360366795629523
1.03525e-06;-0.012386421742069153
1.03550e-06;-0.012412476688508759
1.03575e-06;-0.012438531634948367
1.03600e-06;-0.012464537007584328
1.03625e-06;-0.012490249759500804
1.03650e-06;-0.012515962511417303
1.03675e-06;-0.012541675263333779
1.03700e-06;-0.012567388015250256
1.03725e-06;-0.012593100767166755
1.03750e-06;-0.01261881351908323
1.03775e-06;-0.01264314456505502
1.03800e-06;-0.012659319775530942
1.03825e-06;-0.012675494986006864
1.03850e-06;-0.0126916701964828
1.03875e-06;-0.01270784540695872
1.03900e-06;-0.012724020617434656
1.03925e-06;-0.012740195827910578
1.03950e-06;-0.012756371038386512
1.03975e-06;-0.012772546248862433
1.04000e-06;-0.012788721459338355
1.04025e-06;-0.012803164730343458
1.04050e-06;-0.012807384832325814
1.04075e-06;-0.012811604934308172
1.04100e-06;-0.012815825036290527
1.04125e-06;-0.012820045138272883
1.04150e-06;-0.01282426524025524
1.04175e-06;-0.012828485342237596
1.04200e-06;-0.012832705444219956
1.04225e-06;-0.01283692554620231
1.04250e-06;-0.012841145648184666
1.04275e-06;-0.012844143152617244
1.04300e-06;-0.01283992399526207
1.04325e-06;-0.012835704837906895
1.04350e-06;-0.012831485680551723
1.04375e-06;-0.012827266523196549
1.04400e-06;-0.012823047365841373
1.04425e-06;-0.012818828208486201
1.04450e-06;-0.012814609051131026
1.04475e-06;-0.012810389893775852
1.04500e-06;-0.012806170736420677
1.04525e-06;-0.012801951579065505
1.04550e-06;-0.012795573757635148
1.04575e-06;-0.012788007160854637
1.04600e-06;-0.012780440564074133
1.04625e-06;-0.012772873967293622
1.04650e-06;-0.012765307370513118
1.04675e-06;-0.012757740773732614
1.04700e-06;-0.012750174176952104
1.04725e-06;-0.0127426075801716
1.04750e-06;-0.012735040983391089
1.04775e-06;-0.012727474386610585
1.04800e-06;-0.012720015979067016
1.04825e-06;-0.012713196183249873
1.04850e-06;-0.012706376387432737
1.04875e-06;-0.012699556591615594
1.04900e-06;-0.012692736795798458
1.04925e-06;-0.012685916999981315
1.04950e-06;-0.012679097204164179
1.04975e-06;-0.012672277408347041
1.05000e-06;-0.0126654576125299
1.05025e-06;-0.012658637816712762
1.05050e-06;-0.012651498784488884
1.05075e-06;-0.012642475386327949
1.05100e-06;-0.012633451988167016
1.05125e-06;-0.012624428590006074
1.05150e-06;-0.012615405191845138
1.05175e-06;-0.012606381793684196
1.05200e-06;-0.012597358395523263
1.05225e-06;-0.012588334997362328
1.05250e-06;-0.012579311599201386
1.05275e-06;-0.01257028820104045
1.05300e-06;-0.012560878156426798
1.05325e-06;-0.012549185842655297
1.05350e-06;-0.012537493528883788
1.05375e-06;-0.012525801215112289
1.05400e-06;-0.01251410890134079
1.05425e-06;-0.01250241658756928
1.05450e-06;-0.012490724273797781
1.05475e-06;-0.012479031960026272
1.05500e-06;-0.012467339646254773
1.05525e-06;-0.012455647332483274
1.05550e-06;-0.012443836988501744
1.05575e-06;-0.012431961645335844
1.05600e-06;-0.012420086302169935
1.05625e-06;-0.012408210959004037
1.05650e-06;-0.012396335615838137
1.05675e-06;-0.012384460272672228
1.05700e-06;-0.012372584929506329
1.05725e-06;-0.01236070958634042
1.05750e-06;-0.012348834243174522
1.05775e-06;-0.012337505300069815
1.05800e-06;-0.012329401608351019
1.05825e-06;-0.012321297916632225
1.05850e-06;-0.012313194224913422
1.05875e-06;-0.012305090533194627
1.05900e-06;-0.012296986841475826
1.05925e-06;-0.01228888314975703
1.05950e-06;-0.012280779458038236
1.05975e-06;-0.012272675766319434
1.06000e-06;-0.012264572074600638
1.06025e-06;-0.012256468382881837
1.06050e-06;-0.012249149354481275
1.06075e-06;-0.012246461980859378
1.06100e-06;-0.012243774607237478
1.06125e-06;-0.012241087233615581
1.06150e-06;-0.012238399859993683
1.06175e-06;-0.012235712486371784
1.06200e-06;-0.012233025112749886
1.06225e-06;-0.012230337739127987
1.06250e-06;-0.01222765036550609
1.06275e-06;-0.012224962991884192
1.06300e-06;-0.012222275618262293
1.06325e-06;-0.012220121836057604
1.06350e-06;-0.01222111769928664
1.06375e-06;-0.012222113562515676
1.06400e-06;-0.012223109425744713
1.06425e-06;-0.01222410528897375
1.06450e-06;-0.012225101152202787
1.06475e-06;-0.012226097015431822
1.06500e-06;-0.01222709287866086
1.06525e-06;-0.012228088741889897
1.06550e-06;-0.012229084605118934
1.06575e-06;-0.012230200345592138
1.06600e-06;-0.012232023688928721
1.06625e-06;-0.012233847032265304
1.06650e-06;-0.012235670375601887
1.06675e-06;-0.012237493718938468
1.06700e-06;-0.012239317062275053
1.06725e-06;-0.012241140405611634
1.06750e-06;-0.012242963748948218
1.06775e-06;-0.012244787092284801
1.06800e-06;-0.012246610435621383
1.06825e-06;-0.01224830610328418
1.06850e-06;-0.012249248136068404
1.06875e-06;-0.012250277260311393
1.06900e-06;-0.01225182046181753
1.06925e-06;-0.012254045014008043
1.06950e-06;-0.012260291394515994
1.06975e-06;-0.012267334280720025
1.07000e-06;-0.012279078724047224
1.07025e-06;-0.012291673056784188
1.07050e-06;-0.012309284056229323
1.07075e-06;-0.012326895055674445
1.07100e-06;-0.012346321718750398
1.07125e-06;-0.012376465751857317
1.07150e-06;-0.01240660978496421
1.07175e-06;-0.012436753818071128
1.07200e-06;-0.012466897851178022
1.07225e-06;-0.012497041884284915
1.07250e-06;-0.01253693358513338
1.07275e-06;-0.01258219332228903
1.07300e-06;-0.012627453059444719
1.07325e-06;-0.01267271279660037
1.07350e-06;-0.012717972533756021
1.07375e-06;-0.01276493590142503
1.07400e-06;-0.01282195533801369
1.07425e-06;-0.012878974774602394
1.07450e-06;-0.012935994211191052
1.07475e-06;-0.012993013647779758
1.07500e-06;-0.013050033084368416
1.07525e-06;-0.013107052520957074
1.07550e-06;-0.01316606626008835
1.07575e-06;-0.01322617826074631
1.07600e-06;-0.013286290261404318
1.07625e-06;-0.013346402262062277
1.07650e-06;-0.013406514262720234
1.07675e-06;-0.013466626263378243
1.07700e-06;-0.013525999693040426
1.07725e-06;-0.013581013538404725
1.07750e-06;-0.013636027383768977
1.07775e-06;-0.013688396778952077
1.07800e-06;-0.013725156701853898
1.07825e-06;-0.013761916624755689
1.07850e-06;-0.01379867654765751
1.07875e-06;-0.013835436470559301
1.07900e-06;-0.013872196393461123
1.07925e-06;-0.013908956316362915
1.07950e-06;-0.013945716239264706
1.07975e-06;-0.013982476162166527
1.08000e-06;-0.014019236085068318
1.08025e-06;-0.01405599600797014
1.08050e-06;-0.0140767147231012
1.08075e-06;-0.014088599552219338
1.08100e-06;-0.014100484381337486
1.08125e-06;-0.014112369210455623
1.08150e-06;-0.01412425403957377
1.08175e-06;-0.01413613886869191
1.08200e-06;-0.014148023697810047
1.08225e-06;-0.014159908526928194
1.08250e-06;-0.014171793356046333
1.08275e-06;-0.014183678185164481
1.08300e-06;-0.014193244751505855
1.08325e-06;-0.014189127241357397
1.08350e-06;-0.014185009731208937
1.08375e-06;-0.01418089222106048
1.08400e-06;-0.01417677471091202
1.08425e-06;-0.014172657200763562
1.08450e-06;-0.014168539690615102
1.08475e-06;-0.014164422180466645
1.08500e-06;-0.014160304670318188
1.08525e-06;-0.014156187160169727
1.08550e-06;-0.014152069650021271
1.08575e-06;-0.014144152799582867
1.08600e-06;-0.014134143654130004
1.08625e-06;-0.01412413450867714
1.08650e-06;-0.01411412536322427
1.08675e-06;-0.014104116217771407
1.08700e-06;-0.014094107072318535
1.08725e-06;-0.014084097926865671
1.08750e-06;-0.014074088781412808
1.08775e-06;-0.014064079635959938
1.08800e-06;-0.014054070490507074
1.08825e-06;-0.014044268031065711
1.08850e-06;-0.01403568558309977
1.08875e-06;-0.014027103135133823
1.08900e-06;-0.014019774714227058
1.08925e-06;-0.014019848474974967
1.08950e-06;-0.014019922235722876
1.08975e-06;-0.014019995996470786
1.09000e-06;-0.014020069757218695
1.09025e-06;-0.014020143517966606
1.09050e-06;-0.014020217278714515
1.09075e-06;-0.014020291039462425
1.09100e-06;-0.014030722040700966
1.09125e-06;-0.014046856769688991
1.09150e-06;-0.014062991498677001
1.09175e-06;-0.014079126227665013
1.09200e-06;-0.014095260956653036
1.09225e-06;-0.014111395685641048
1.09250e-06;-0.014127530414629072
1.09275e-06;-0.014145771811348844
1.09300e-06;-0.014176448296388163
1.09325e-06;-0.014207124781427457
1.09350e-06;-0.014237801266466751
1.09375e-06;-0.01426847775150607
1.09400e-06;-0.014299154236545365
1.09425e-06;-0.014329830721584684
1.09450e-06;-0.014360507206623978
1.09475e-06;-0.014392177603541789
1.09500e-06;-0.014429714792742342
1.09525e-06;-0.014467251981942863
1.09550e-06;-0.014504789171143414
1.09575e-06;-0.014542326360343935
1.09600e-06;-0.014579863549544455
1.09625e-06;-0.014617400738745007
1.09650e-06;-0.014654937927945528
1.09675e-06;-0.014691514386446228
1.09700e-06;-0.0147224199121637
1.09725e-06;-0.014753325437881196
1.09750e-06;-0.014784230963598667
1.09775e-06;-0.014815136489316138
1.09800e-06;-0.014846042015033633
1.09825e-06;-0.014876947540751103
1.09850e-06;-0.0149078530664686
1.09875e-06;-0.014938758592186071
1.09900e-06;-0.01496662099137189
1.09925e-06;-0.014976520639899203
1.09950e-06;-0.014986420288426509
1.09975e-06;-0.014996319936953821
1.10000e-06;-0.015006219585481125
1.10025e-06;-0.015016119234008429
1.10050e-06;-0.015026018882535743
1.10075e-06;-0.015035918531063047
1.10100e-06;-0.015045818179590359
1.10125e-06;-0.015052414823266387
1.10150e-06;-0.01503951472503941
1.10175e-06;-0.015026614626812446
1.10200e-06;-0.015013714528585482
1.10225e-06;-0.015000814430358507
1.10250e-06;-0.014987914332131543
1.10275e-06;-0.014975014233904568
1.10300e-06;-0.014962114135677603
1.10325e-06;-0.014946935357903675
1.10350e-06;-0.014918306152714006
1.10375e-06;-0.01488967694752436
1.10400e-06;-0.01486104774233469
1.10425e-06;-0.014832418537145045
1.10450e-06;-0.0148037893319554
1.10475e-06;-0.01477516012676573
1.10500e-06;-0.014746530921576085
1.10525e-06;-0.014717126318587325
1.10550e-06;-0.014683144752669084
1.10575e-06;-0.01464916318675081
1.10600e-06;-0.014615181620832569
1.10625e-06;-0.014581200054914326
1.10650e-06;-0.014547218488996054
1.10675e-06;-0.014513236923077813
1.10700e-06;-0.014479255357159541
1.10725e-06;-0.014445273791241298
1.10750e-06;-0.014411292225323056
1.10775e-06;-0.014377310659404785
1.10800e-06;-0.014351434265068078
1.10825e-06;-0.01433002138512989
1.10850e-06;-0.01430860850519172
1.10875e-06;-0.01428719562525355
1.10900e-06;-0.014265782745315361
1.10925e-06;-0.014244369865377192
1.10950e-06;-0.014222956985439003
1.10975e-06;-0.014201544105500834
1.11000e-06;-0.014180131225562645
1.11025e-06;-0.014158718345624474
1.11050e-06;-0.014140210315400265
1.11075e-06;-0.014138848825276462
1.11100e-06;-0.01413748733515266
1.11125e-06;-0.014136125845028857
1.11150e-06;-0.014134764354905056
1.11175e-06;-0.014133402864781253
1.11200e-06;-0.01413204137465745
1.11225e-06;-0.01413067988453365
1.11250e-06;-0.014129318394409847
1.11275e-06;-0.014130090259002921
1.11300e-06;-0.014143454737948653
1.11325e-06;-0.014156819216894398
1.11350e-06;-0.01417018369584013
1.11375e-06;-0.014183548174785872
1.11400e-06;-0.014196912653731604
1.11425e-06;-0.014210277132677349
1.11450e-06;-0.01422364161162308
1.11475e-06;-0.014237006090568813
1.11500e-06;-0.014251172030960449
1.11525e-06;-0.01427006878091999
1.11550e-06;-0.01428896553087955
1.11575e-06;-0.014307862280839091
1.11600e-06;-0.014326759030798632
1.11625e-06;-0.014345655780758191
1.11650e-06;-0.014364552530717733
1.11675e-06;-0.014383449280677292
1.11700e-06;-0.014402346030636833
1.11725e-06;-0.014421242780596377
1.11750e-06;-0.014440139530555934
1.11775e-06;-0.014459036280515477
1.11800e-06;-0.014477933030475034
1.11825e-06;-0.014494873074113348
1.11850e-06;-0.014500263210974237
1.11875e-06;-0.01450565334783512
1.11900e-06;-0.014511043484696005
1.11925e-06;-0.014516433621556893
1.11950e-06;-0.014521823758417778
1.11975e-06;-0.014527213895278666
1.12000e-06;-0.01453260403213955
1.12025e-06;-0.014537994169000435
1.12050e-06;-0.014543384305861324
1.12075e-06;-0.014548774442722208
1.12100e-06;-0.014554164579583096
1.12125e-06;-0.014559554716443981
1.12150e-06;-0.014562237986625752
1.12175e-06;-0.014548943356873106
1.12200e-06;-0.01453564872712047
1.12225e-06;-0.014522354097367822
1.12250e-06;-0.014509059467615186
1.12275e-06;-0.01449576483786255
1.12300e-06;-0.014482470208109903
1.12325e-06;-0.014469175578357267
1.12350e-06;-0.01445588094860462
1.12375e-06;-0.014441150175524223
1.12400e-06;-0.014417942237846502
1.12425e-06;-0.0143947343001688
1.12450e-06;-0.014371526362491099
1.12475e-06;-0.014348318424813378
1.12500e-06;-0.014325110487135678
1.12525e-06;-0.014301902549457957
1.12550e-06;-0.014278694611780255
1.12575e-06;-0.014255486674102553
1.12600e-06;-0.014231989435973473
1.12625e-06;-0.014206784535735227
1.12650e-06;-0.014181579635496959
1.12675e-06;-0.014156374735258713
1.12700e-06;-0.014131169835020465
1.12725e-06;-0.014107425016878172
1.12750e-06;-0.014084484265299098
1.12775e-06;-0.014061543513720003
1.12800e-06;-0.01403860276214093
1.12825e-06;-0.014016151631112764
1.12850e-06;-0.013996590597416828
1.12875e-06;-0.013977152476686005
1.12900e-06;-0.013958439877855527
1.12925e-06;-0.013938853261255576
1.12950e-06;-0.013914107554786734
1.12975e-06;-0.013888076209284892
1.13000e-06;-0.01385445608522299
1.13025e-06;-0.013820835961161059
1.13050e-06;-0.013785941014227166
1.13075e-06;-0.013743521133598544
1.13100e-06;-0.013701101252969958
1.13125e-06;-0.013656329400747637
1.13150e-06;-0.013597674498037726
1.13175e-06;-0.013539019595327866
1.13200e-06;-0.013480364692617956
1.13225e-06;-0.013421709789908094
1.13250e-06;-0.013352405096436565
1.13275e-06;-0.01327723556791249
1.13300e-06;-0.013202066039388416
1.13325e-06;-0.013126896510864279
1.13350e-06;-0.013049914274703147
1.13375e-06;-0.012962232116948176
1.13400e-06;-0.012874549959193278
1.13425e-06;-0.01278606866478371
1.13450e-06;-0.012692870283419286
1.13475e-06;-0.012599401250674007
1.13500e-06;-0.012504172056507041
1.13525e-06;-0.012407814682116927
1.13550e-06;-0.012310345355783639
1.13575e-06;-0.012212151035712729
1.13600e-06;-0.012113813528671644
1.13625e-06;-0.01201591331846606
1.13650e-06;-0.011919032346784349
1.13675e-06;-0.01182373705253179
1.13700e-06;-0.011730473201681624
1.13725e-06;-0.011639482885607491
1.13750e-06;-0.011551021920324622
1.13775e-06;-0.011465579538911058
1.13800e-06;-0.0113837672155354
1.13825e-06;-0.011306194305003436
1.13850e-06;-0.011233471620003117
1.13875e-06;-0.011166163708468131
1.13900e-06;-0.011104451778346928
1.13925e-06;-0.01104780099536666
1.13950e-06;-0.010995543768646327
1.13975e-06;-0.01094759200521366
1.14000e-06;-0.010904190386187815
1.14025e-06;-0.01086558730485443
1.14050e-06;-0.010832029966458497
1.14075e-06;-0.010804091168532353
1.14100e-06;-0.01078277086649295
1.14125e-06;-0.010762711130680998
1.14150e-06;-0.010750092175456246
1.14175e-06;-0.010739394096974664
1.14200e-06;-0.010740034432984854
1.14225e-06;-0.010740674768995047
1.14250e-06;-0.010741315105005237
1.14275e-06;-0.010741955441015428
1.14300e-06;-0.010753057652285547
1.14325e-06;-0.010769921213624394
1.14350e-06;-0.010786784774963256
1.14375e-06;-0.010803648336302102
1.14400e-06;-0.010821955716470651
1.14425e-06;-0.010848785567641055
1.14450e-06;-0.010875615418811437
1.14475e-06;-0.010903320861828953
1.14500e-06;-0.01093619468606773
1.14525e-06;-0.010969068510306535
1.14550e-06;-0.01100238483021452
1.14575e-06;-0.011038313082057178
1.14600e-06;-0.011074241333899866
1.14625e-06;-0.011110309363823621
1.14650e-06;-0.011147202465853611
1.14675e-06;-0.01118409556788357
1.14700e-06;-0.0112208363891598
1.14725e-06;-0.011256678338443906
