Time(s);Current(A)
1.30000e-06;0.012665168777257997
1.30025e-06;0.012645444451670627
1.30050e-06;0.012610763147092247
1.30075e-06;0.012570934322281563
1.30100e-06;0.012531105497470845
1.30125e-06;0.012491276672660161
1.30150e-06;0.012451447847849444
1.30175e-06;0.01241161902303876
1.30200e-06;0.012371790198228077
1.30225e-06;0.012331961373417358
1.30250e-06;0.012280667222171537
1.30275e-06;0.012225427220642035
1.30300e-06;0.01217018721911258
1.30325e-06;0.012114947217583077
1.30350e-06;0.012059707216053622
1.30375e-06;0.012004467214524167
1.30400e-06;0.011949227212994665
1.30425e-06;0.01189398721146521
1.30450e-06;0.011836070312877528
1.30475e-06;0.011777232146581046
1.30500e-06;0.011718393980284564
1.30525e-06;0.011661121003700581
1.30550e-06;0.011604386695100156
1.30575e-06;0.011547652386499683
1.30600e-06;0.011494236455616527
1.30625e-06;0.011441962561266792
1.30650e-06;0.011389688666917015
1.30675e-06;0.011342917764345501
1.30700e-06;0.011298040744324183
1.30725e-06;0.011253163724302902
1.30750e-06;0.011216672952422745
1.30775e-06;0.011183068350403754
1.30800e-06;0.01114946374838476
1.30825e-06;0.011133839010247374
1.30850e-06;0.011124402133519389
1.30875e-06;0.011114965256791395
1.30900e-06;0.01110552838006341
1.30925e-06;0.011096091503335424
1.30950e-06;0.011086654626607432
1.30975e-06;0.011085546708167233
1.31000e-06;0.011110250254379521
1.31025e-06;0.011134953800591789
1.31050e-06;0.011159657346804058
1.31075e-06;0.011184360893016346
1.31100e-06;0.011209064439228615
1.31125e-06;0.011233767985440903
1.31150e-06;0.011282979666728532
1.31175e-06;0.011340625947090078
1.31200e-06;0.011398272227451675
1.31225e-06;0.011455918507813221
1.31250e-06;0.011513564788174816
1.31275e-06;0.011571211068536362
1.31300e-06;0.011628857348897957
1.31325e-06;0.011686503629259505
1.31350e-06;0.011744149909621051
1.31375e-06;0.011813361703263844
1.31400e-06;0.011886553827001444
1.31425e-06;0.011959745950739106
1.31450e-06;0.012032938074476706
1.31475e-06;0.012106130198214306
1.31500e-06;0.012179322321951968
1.31525e-06;0.01225251444568957
1.31550e-06;0.012325706569427232
1.31575e-06;0.012398898693164831
1.31600e-06;0.012467278768888338
1.31625e-06;0.012534002753865006
1.31650e-06;0.012600726738841614
1.31675e-06;0.012643238125156886
1.31700e-06;0.012677416622755337
1.31725e-06;0.012711595120353818
1.31750e-06;0.01274577361795227
1.31775e-06;0.01277995211555072
1.31800e-06;0.012814130613149202
1.31825e-06;0.012848309110747653
1.31850e-06;0.012882487608346134
1.31875e-06;0.012916666105944587
1.31900e-06;0.012950844603543038
1.31925e-06;0.012985023101141519
1.31950e-06;0.01301920159873997
1.31975e-06;0.013053380096338451
1.32000e-06;0.013087558593936902
1.32025e-06;0.013121737091535354
1.32050e-06;0.013155915589133834
1.32075e-06;0.013190094086732287
1.32100e-06;0.013198151445700905
1.32125e-06;0.013197219082236353
1.32150e-06;0.0131962867187718
1.32175e-06;0.013195354355307248
1.32200e-06;0.013194421991842698
1.32225e-06;0.013193489628378144
1.32250e-06;0.013192557264913593
1.32275e-06;0.01319162490144904
1.32300e-06;0.013190692537984489
1.32325e-06;0.013189760174519937
1.32350e-06;0.013188827811055385
1.32375e-06;0.013187895447590832
1.32400e-06;0.01318696308412628
1.32425e-06;0.013186030720661728
1.32450e-06;0.013185098357197176
1.32475e-06;0.013184165993732623
1.32500e-06;0.013183233630268071
1.32525e-06;0.013176444069831178
1.32550e-06;0.013167638725329046
1.32575e-06;0.013158833380826908
1.32600e-06;0.013150028036324776
1.32625e-06;0.013141222691822645
1.32650e-06;0.013132417347320506
1.32675e-06;0.013123612002818376
1.32700e-06;0.013114806658316236
1.32725e-06;0.013106001313814106
1.32750e-06;0.013099014440916993
1.32775e-06;0.013092653404252079
1.32800e-06;0.013086292367587168
1.32825e-06;0.013079931330922254
1.32850e-06;0.013073570294257344
1.32875e-06;0.013067209257592433
1.32900e-06;0.01306084822092752
1.32925e-06;0.013054487184262609
1.32950e-06;0.013048126147597695
1.32975e-06;0.013043762770815835
1.33000e-06;0.013040086898821485
1.33025e-06;0.013036411026827139
1.33050e-06;0.013032735154832793
1.33075e-06;0.013029059282838443
1.33100e-06;0.013025383410844096
1.33125e-06;0.013021707538849746
1.33150e-06;0.0130180316668554
1.33175e-06;0.013014355794861054
1.33200e-06;0.013010679922866704
1.33225e-06;0.013007004050872358
1.33250e-06;0.01300332817887801
1.33275e-06;0.012999652306883663
1.33300e-06;0.012995976434889317
1.33325e-06;0.012992300562894967
1.33350e-06;0.01298862469090062
1.33375e-06;0.012985996522533634
1.33400e-06;0.012983728926687428
1.33425e-06;0.01298146133084122
1.33450e-06;0.012979193734995014
1.33475e-06;0.012976926139148809
1.33500e-06;0.0129746585433026
1.33525e-06;0.012972390947456395
1.33550e-06;0.012970123351610187
1.33575e-06;0.012967855755763981
1.33600e-06;0.012965588159917775
1.33625e-06;0.012963320564071568
1.33650e-06;0.012961052968225362
1.33675e-06;0.012958785372379154
1.33700e-06;0.012956517776532948
1.33725e-06;0.012954250180686742
1.33750e-06;0.012951982584840534
1.33775e-06;0.012952584546771784
1.33800e-06;0.012954174081576009
1.33825e-06;0.012955763616380234
1.33850e-06;0.01295735315118446
1.33875e-06;0.012958942685988685
1.33900e-06;0.01296053222079291
1.33925e-06;0.012962121755597137
1.33950e-06;0.012963711290401362
1.33975e-06;0.012965300825205589
1.34000e-06;0.012966890360009814
1.34025e-06;0.012968479894814039
1.34050e-06;0.012970069429618265
1.34075e-06;0.012977092438405058
1.34100e-06;0.012985985404839426
1.34125e-06;0.012994878371273786
1.34150e-06;0.013003771337708145
1.34175e-06;0.013012664304142512
1.34200e-06;0.013021557270576871
1.34225e-06;0.013030450237011238
1.34250e-06;0.013039343203445597
1.34275e-06;0.013048236169879966
1.34300e-06;0.013057129136314325
1.34325e-06;0.013066022102748685
1.34350e-06;0.013074915069183051
1.34375e-06;0.013085394664277255
1.34400e-06;0.013096420305677346
1.34425e-06;0.013107445947077426
1.34450e-06;0.013118471588477506
1.34475e-06;0.013129497229877595
1.34500e-06;0.013140522871277677
1.34525e-06;0.013151548512677766
1.34550e-06;0.013162574154077846
1.34575e-06;0.013173599795477926
1.34600e-06;0.013184625436878017
1.34625e-06;0.013195651078278097
1.34650e-06;0.013206676719678187
1.34675e-06;0.013217702361078268
1.34700e-06;0.013221382531500712
1.34725e-06;0.013222534720805907
1.34750e-06;0.013223686910111103
1.34775e-06;0.013224839099416298
1.34800e-06;0.013225991288721494
1.34825e-06;0.013227143478026691
1.34850e-06;0.013228295667331887
1.34875e-06;0.013229447856637083
1.34900e-06;0.013230600045942278
1.34925e-06;0.013231752235247474
1.34950e-06;0.013232904424552671
1.34975e-06;0.013234056613857865
1.35000e-06;0.01323520880316306
1.35025e-06;0.013223891759682126
1.35050e-06;0.013208283366453154
1.35075e-06;0.01319267497322417
1.35100e-06;0.013177066579995199
1.35125e-06;0.013161458186766228
1.35150e-06;0.013145849793537244
1.35175e-06;0.013130241400308273
1.35200e-06;0.013114633007079289
1.35225e-06;0.013099024613850317
1.35250e-06;0.013083416220621332
1.35275e-06;0.013067807827392362
1.35300e-06;0.013052199434163391
1.35325e-06;0.013036591040934407
1.35350e-06;0.013015999751372177
1.35375e-06;0.012993693572747343
1.35400e-06;0.01297138739412253
1.35425e-06;0.012949081215497718
1.35450e-06;0.012926775036872885
1.35475e-06;0.012904468858248072
1.35500e-06;0.012882162679623239
1.35525e-06;0.012859856500998426
1.35550e-06;0.012837550322373612
1.35575e-06;0.01281524414374878
1.35600e-06;0.012792937965123968
1.35625e-06;0.012770631786499134
1.35650e-06;0.012748325607874322
1.35675e-06;0.01273265198179064
1.35700e-06;0.012719260982325876
1.35725e-06;0.012705869982861115
1.35750e-06;0.012692478983396342
1.35775e-06;0.012679087983931579
1.35800e-06;0.012665696984466806
1.35825e-06;0.012652305985002044
1.35850e-06;0.012638914985537281
1.35875e-06;0.012625523986072508
1.35900e-06;0.012612132986607745
1.35925e-06;0.01260222820978294
1.35950e-06;0.012603127246508302
1.35975e-06;0.012604026283233665
1.36000e-06;0.012604925319959027
1.36025e-06;0.012605824356684388
1.36050e-06;0.012606723393409751
1.36075e-06;0.012607622430135114
1.36100e-06;0.012608521466860477
1.36125e-06;0.01260942050358584
1.36150e-06;0.0126103195403112
1.36175e-06;0.012611218577036563
1.36200e-06;0.012620466100576206
1.36225e-06;0.01263258679822355
1.36250e-06;0.012644707495870882
1.36275e-06;0.012656828193518216
1.36300e-06;0.012668948891165557
1.36325e-06;0.01268106958881289
1.36350e-06;0.012693190286460234
1.36375e-06;0.012705310984107567
1.36400e-06;0.0127174316817549
1.36425e-06;0.012729552379402244
1.36450e-06;0.012741673077049577
1.36475e-06;0.01275379377469692
1.36500e-06;0.012765914472344254
1.36525e-06;0.012778035169991597
1.36550e-06;0.012788138828749034
1.36575e-06;0.01279754831333558
1.36600e-06;0.012806957797922134
1.36625e-06;0.012816367282508678
1.36650e-06;0.012825776767095232
1.36675e-06;0.012835186251681778
1.36700e-06;0.012844595736268323
1.36725e-06;0.012854005220854876
1.36750e-06;0.012863414705441422
1.36775e-06;0.012872824190027976
1.36800e-06;0.01288223367461452
1.36825e-06;0.012891643159201067
1.36850e-06;0.01290105264378762
1.36875e-06;0.012910462128374165
1.36900e-06;0.012908685836652263
1.36925e-06;0.012903059903243525
1.36950e-06;0.012897433969834783
1.36975e-06;0.012891808036426046
1.37000e-06;0.012886182103017308
1.37025e-06;0.012880556169608566
1.37050e-06;0.012874930236199829
1.37075e-06;0.012869304302791087
1.37100e-06;0.01286367836938235
1.37125e-06;0.012858052435973611
1.37150e-06;0.01285242650256487
1.37175e-06;0.012846800569156132
1.37200e-06;0.01284117463574739
1.37225e-06;0.012835548702338653
1.37250e-06;0.012829922768929915
1.37275e-06;0.012824296835521174
1.37300e-06;0.012818670902112436
1.37325e-06;0.012811355872087529
1.37350e-06;0.012798806327003802
1.37375e-06;0.012786256781920064
1.37400e-06;0.012773707236836337
1.37425e-06;0.01276115769175261
1.37450e-06;0.012748608146668873
1.37475e-06;0.012736058601585146
1.37500e-06;0.012723509056501409
1.37525e-06;0.012710959511417682
1.37550e-06;0.012698409966333956
1.37575e-06;0.012685860421250217
1.37600e-06;0.012673310876166492
1.37625e-06;0.012660761331082755
1.37650e-06;0.012648211785999027
1.37675e-06;0.0126356622409153
1.37700e-06;0.012623112695831563
1.37725e-06;0.012610563150747836
1.37750e-06;0.012598013605664099
1.37775e-06;0.01258553020971621
1.37800e-06;0.012573069579329132
1.37825e-06;0.012560608948942065
1.37850e-06;0.012548148318554997
1.37875e-06;0.012535687688167919
1.37900e-06;0.012523227057780851
1.37925e-06;0.012510766427393773
1.37950e-06;0.012498305797006705
1.37975e-06;0.012485845166619637
1.38000e-06;0.012473384536232559
1.38025e-06;0.012456241986214641
1.38050e-06;0.012437488129794108
1.38075e-06;0.01241873427337359
1.38100e-06;0.012399980416953074
1.38125e-06;0.012381226560532541
1.38150e-06;0.012362472704112023
1.38175e-06;0.012343718847691492
1.38200e-06;0.012324964991270974
1.38225e-06;0.01230621113485044
1.38250e-06;0.012287457278429925
1.38275e-06;0.012265583504896677
1.38300e-06;0.012242635996054905
1.38325e-06;0.012219688487213151
1.38350e-06;0.01219674097837138
1.38375e-06;0.012173793469529626
1.38400e-06;0.012150845960687873
1.38425e-06;0.0121278984518461
1.38450e-06;0.012104950943004348
1.38475e-06;0.012082003434162575
1.38500e-06;0.012059055925320823
1.38525e-06;0.012038547590390039
1.38550e-06;0.012018878709539946
1.38575e-06;0.011999209828689869
1.38600e-06;0.011979540947839776
1.38625e-06;0.011959872066989698
1.38650e-06;0.011940203186139623
1.38675e-06;0.01192053430528953
1.38700e-06;0.011900865424439452
1.38725e-06;0.01188119654358936
1.38750e-06;0.011861527662739282
1.38775e-06;0.011846143713589413
1.38800e-06;0.01183223444543096
1.38825e-06;0.011818325177272508
1.38850e-06;0.011804415909114043
1.38875e-06;0.01179050664095559
1.38900e-06;0.011776597372797125
1.38925e-06;0.011762688104638671
1.38950e-06;0.01174877883648022
1.38975e-06;0.011734869568321754
1.39000e-06;0.011720960300163301
1.39025e-06;0.011707051032004836
1.39050e-06;0.011693141763846383
1.39075e-06;0.01167923249568793
1.39100e-06;0.011665467461969847
1.39125e-06;0.01165214941117913
1.39150e-06;0.011638831360388402
1.39175e-06;0.011625513309597687
1.39200e-06;0.011612195258806957
1.39225e-06;0.011598877208016242
1.39250e-06;0.011585559157225525
1.39275e-06;0.011572241106434797
1.39300e-06;0.01155892305564408
1.39325e-06;0.011545605004853353
1.39350e-06;0.011532286954062635
1.39375e-06;0.01151896890327192
1.39400e-06;0.011505650852481192
1.39425e-06;0.011492332801690475
1.39450e-06;0.01147980366384043
1.39475e-06;0.011467546034382789
1.39500e-06;0.011455288404925148
1.39525e-06;0.011443030775467496
1.39550e-06;0.011430773146009855
1.39575e-06;0.011418515516552203
1.39600e-06;0.011406257887094562
1.39625e-06;0.01139400025763691
1.39650e-06;0.01138303115980373
1.39675e-06;0.011376055225017773
1.39700e-06;0.011369079290231811
1.39725e-06;0.011362103355445857
1.39750e-06;0.011355127420659895
1.39775e-06;0.011348151485873939
1.39800e-06;0.011341175551087984
1.39825e-06;0.011334199616302023
1.39850e-06;0.011327223681516068
1.39875e-06;0.011332281146153625
1.39900e-06;0.011341479966274035
1.39925e-06;0.011350678786394444
1.39950e-06;0.01135987760651486
1.39975e-06;0.011369076426635271
1.40000e-06;0.011378275246755687
1.40025e-06;0.011387474066876097
1.40050e-06;0.011396672886996514
1.40075e-06;0.011405871707116924
1.40100e-06;0.011419352759458466
1.40125e-06;0.011446104461227565
1.40150e-06;0.011472856162996642
1.40175e-06;0.011499607864765742
1.40200e-06;0.011526359566534819
1.40225e-06;0.011553111268303896
1.40250e-06;0.011579862970072996
1.40275e-06;0.011606614671842073
1.40300e-06;0.011633366373611172
1.40325e-06;0.01166011807538025
1.40350e-06;0.011692544515202338
1.40375e-06;0.011726923944925456
1.40400e-06;0.011761303374648546
1.40425e-06;0.011795682804371663
1.40450e-06;0.011830062234094751
1.40475e-06;0.011864441663817869
1.40500e-06;0.011898821093540958
1.40525e-06;0.011933200523264046
1.40550e-06;0.011967579952987164
1.40575e-06;0.011999885531862884
1.40600e-06;0.012025764241260723
1.40625e-06;0.01205164295065854
1.40650e-06;0.012077521660056356
1.40675e-06;0.012103400369454195
1.40700e-06;0.012129279078852011
1.40725e-06;0.01215515778824985
1.40750e-06;0.012181036497647667
1.40775e-06;0.012206915207045484
1.40800e-06;0.012232793916443323
1.40825e-06;0.012242633428301557
1.40850e-06;0.012246952968925669
1.40875e-06;0.012251272509549776
1.40900e-06;0.012255592050173889
1.40925e-06;0.012259911590797996
1.40950e-06;0.012264231131422103
1.40975e-06;0.012268550672046213
1.41000e-06;0.012272870212670322
1.41025e-06;0.012277189753294433
1.41050e-06;0.01228150929391854
1.41075e-06;0.012285828834542649
1.41100e-06;0.01229014837516676
1.41125e-06;0.012294467915790867
1.41150e-06;0.012298787456414979
1.41175e-06;0.012289773140629217
1.41200e-06;0.012276169910489179
1.41225e-06;0.012262566680349129
1.41250e-06;0.01224896345020909
1.41275e-06;0.012235360220069038
1.41300e-06;0.012221756989929
1.41325e-06;0.01220815375978895
1.41350e-06;0.012194550529648912
1.41375e-06;0.012180947299508872
1.41400e-06;0.012167344069368822
1.41425e-06;0.012153740839228783
1.41450e-06;0.012140137609088733
1.41475e-06;0.012126534378948693
1.41500e-06;0.012112931148808655
1.41525e-06;0.01209774634756716
1.41550e-06;0.01208201724060448
1.41575e-06;0.012066288133641785
1.41600e-06;0.012050559026679104
1.41625e-06;0.012034829919716425
1.41650e-06;0.01201910081275373
1.41675e-06;0.01200337170579105
1.41700e-06;0.011987642598828355
1.41725e-06;0.011971913491865674
1.41750e-06;0.01195492053964601
1.41775e-06;0.011937492628667033
1.41800e-06;0.011920064717688056
1.41825e-06;0.011902636806709065
1.41850e-06;0.011885208895730089
1.41875e-06;0.011867780984751098
1.41900e-06;0.011846863801728573
1.41925e-06;0.01181513335505063
1.41950e-06;0.01178340290837266
1.41975e-06;0.011751672461694717
1.42000e-06;0.011719942015016745
1.42025e-06;0.011688211568338802
1.42050e-06;0.011656481121660858
1.42075e-06;0.011611118254100173
1.42100e-06;0.011561063719706973
1.42125e-06;0.01151100918531373
1.42150e-06;0.011460954650920528
1.42175e-06;0.011410900116527286
1.42200e-06;0.011360845582134085
1.42225e-06;0.011310791047740885
1.42250e-06;0.01126073651334764
1.42275e-06;0.011207719545713783
1.42300e-06;0.011145521989323252
1.42325e-06;0.011083324432932773
1.42350e-06;0.011021126876542294
1.42375e-06;0.010958929320151762
1.42400e-06;0.010896731763761283
1.42425e-06;0.010834534207370752
1.42450e-06;0.010772336650980274
1.42475e-06;0.010710139094589795
1.42500e-06;0.010649073212382119
1.42525e-06;0.01058839680158786
1.42550e-06;0.010527720390793551
1.42575e-06;0.010467043979999292
1.42600e-06;0.010406367569205035
1.42625e-06;0.010353187024470054
1.42650e-06;0.01030258622008153
1.42675e-06;0.010251985415692964
1.42700e-06;0.010201384611304442
1.42725e-06;0.010150783806915876
1.42750e-06;0.010113583396682259
1.42775e-06;0.010080994800105028
1.42800e-06;0.010048406203527769
1.42825e-06;0.010015817606950538
1.42850e-06;0.00998322901037328
1.42875e-06;0.00995064041379605
1.42900e-06;0.009918051817218818
1.42925e-06;0.00988546322064156
1.42950e-06;0.009852874624064329
1.42975e-06;0.009820286027487071
1.43000e-06;0.009787697430909839
1.43025e-06;0.009758265630182705
1.43050e-06;0.009738616748472595
1.43075e-06;0.009718967866762502
1.43100e-06;0.009699318985052392
1.43125e-06;0.009679670103342298
1.43150e-06;0.009660021221632188
1.43175e-06;0.009640372339922095
1.43200e-06;0.009620723458212002
1.43225e-06;0.009601074576501892
1.43250e-06;0.009581425694791798
1.43275e-06;0.00956177681308169
1.43300e-06;0.009542127931371595
1.43325e-06;0.009529888363038723
1.43350e-06;0.009520198747507314
1.43375e-06;0.009510509131975911
1.43400e-06;0.009500819516444502
1.43425e-06;0.009491129900913102
1.43450e-06;0.0094814402853817
1.43475e-06;0.00947175066985029
1.43500e-06;0.00946206105431889
1.43525e-06;0.009452371438787481
1.43550e-06;0.00944268182325608
1.43575e-06;0.00943299220772467
1.43600e-06;0.00942330259219327
1.43625e-06;0.00941361297666187
1.43650e-06;0.009403923361130459
1.43675e-06;0.009394233745599058
1.43700e-06;0.00938454413006765
1.43725e-06;0.009374854514536249
1.43750e-06;0.009365164899004847
1.43775e-06;0.009355475283473438
1.43800e-06;0.009345785667942037
1.43825e-06;0.009336096052410627
1.43850e-06;0.009326406436879226
1.43875e-06;0.009316716821347826
1.43900e-06;0.009307027205816417
1.43925e-06;0.009297337590285015
1.43950e-06;0.009287647974753606
1.43975e-06;0.009277958359222205
1.44000e-06;0.009269836167063419
1.44025e-06;0.009266571424244674
1.44050e-06;0.009263306681425927
1.44075e-06;0.009260041938607178
1.44100e-06;0.009256777195788433
1.44125e-06;0.009253512452969685
1.44150e-06;0.00925024771015094
1.44175e-06;0.009246982967332193
1.44200e-06;0.009243718224513444
1.44225e-06;0.009240453481694699
1.44250e-06;0.00923718873887595
1.44275e-06;0.009233923996057205
1.44300e-06;0.009230659253238458
1.44325e-06;0.00922739451041971
1.44350e-06;0.009224129767600965
1.44375e-06;0.009220865024782216
1.44400e-06;0.00921760028196347
1.44425e-06;0.00921433553914472
1.44450e-06;0.009211070796325976
1.44475e-06;0.00920780605350723
1.44500e-06;0.009204541310688482
1.44525e-06;0.009201276567869735
1.44550e-06;0.009198011825050987
1.44575e-06;0.009194747082232241
1.44600e-06;0.009191482339413496
1.44625e-06;0.009188217596594748
1.44650e-06;0.009184952853776001
1.44675e-06;0.009181688110957252
1.44700e-06;0.009179260231387428
1.44725e-06;0.00917712036255182
1.44750e-06;0.00917498049371621
1.44775e-06;0.00918151968986882
1.44800e-06;0.00919104583028358
1.44825e-06;0.009200571970698332
1.44850e-06;0.00921009811111309
1.44875e-06;0.009219624251527843
1.44900e-06;0.009229150391942597
1.44925e-06;0.00924443050002442
1.44950e-06;0.009277542169720715
1.44975e-06;0.009310653839417034
1.45000e-06;0.009343765509113327
1.45025e-06;0.009376877178809619
1.45050e-06;0.009409988848505938
1.45075e-06;0.00944310051820223
1.45100e-06;0.009496381397486285
1.45125e-06;0.009556603612608933
1.45150e-06;0.009616825827731578
1.45175e-06;0.009677048042854276
