Time(s);Current(A)
7.50000e-06;-0.0006687496820153137
7.50025e-06;-0.0006359343463846636
7.50050e-06;-0.0006039802290723694
7.50075e-06;-0.0005721708652344598
7.50100e-06;-0.0005405878524520295
7.50125e-06;-0.0005098161596922332
7.50150e-06;-0.00047921796395686804
7.50175e-06;-0.00045029105326195844
7.50200e-06;-0.000421744866748691
7.50225e-06;-0.0003940967057189609
7.50250e-06;-0.0003666531178225468
7.50275e-06;-0.00033855655624267833
7.50300e-06;-0.0003103112451285769
7.50325e-06;-0.00028199838950841765
7.50350e-06;-0.00025367014702952544
7.50375e-06;-0.00022534190455053723
7.50400e-06;-0.00019759868037987226
7.50425e-06;-0.00016998872528729066
7.50450e-06;-0.0001423787701946155
7.50475e-06;-0.00011416659955245845
7.50500e-06;-8.581724224456988e-05
7.50525e-06;-5.733748931336885e-05
7.50550e-06;-2.8828031834137793e-05
7.50575e-06;-6.109952692535841e-07
7.50600e-06;2.718957351562111e-05
7.50625e-06;5.465972997430866e-05
7.50650e-06;8.202908102981953e-05
7.50675e-06;0.00010936559262285835
7.50700e-06;0.00013639248408599827
7.50725e-06;0.00016335003073791865
7.50750e-06;0.00018972040004351252
7.50775e-06;0.0002153771022864004
7.50800e-06;0.00024021376295608985
7.50825e-06;0.0002642243206266866
7.50850e-06;0.0002874990816997723
7.50875e-06;0.0003100271249799687
7.50900e-06;0.00033167463173717197
7.50925e-06;0.00035177813446138166
7.50950e-06;0.0003715683462703165
7.50975e-06;0.000389123829307603
7.51000e-06;0.0004061702338444165
7.51025e-06;0.00042120530781930256
7.51050e-06;0.0004357821941342013
7.51075e-06;0.0004503590804491
7.51100e-06;0.000463513237762753
7.51125e-06;0.00047634329277108494
7.51150e-06;0.0004891733477794604
7.51175e-06;0.0005000452165608679
7.51200e-06;0.0005104710041351692
7.51225e-06;0.0005208967917095056
7.51250e-06;0.0005301430215665254
7.51275e-06;0.0005391205443296387
7.51300e-06;0.0005480980670927822
7.51325e-06;0.0005550834104505754
7.51350e-06;0.0005616149288444099
7.51375e-06;0.0005681464472382666
7.51400e-06;0.0005746779656321011
7.51425e-06;0.0005812094840259357
7.51450e-06;0.0005877410024197924
7.51475e-06;0.0005942725208136269
7.51500e-06;0.0006008040392074614
7.51525e-06;0.0006073355576013182
7.51550e-06;0.0006130703449420976
7.51575e-06;0.0006170682370344356
7.51600e-06;0.00062106612912676
7.51625e-06;0.0006250640212190846
7.51650e-06;0.0006290619133114226
7.51675e-06;0.000633059805403747
7.51700e-06;0.0006370576974960715
7.51725e-06;0.0006410555895884095
7.51750e-06;0.000645053481680734
7.51775e-06;0.0006490513737730585
7.51800e-06;0.0006519688257388885
7.51825e-06;0.0006546401499211902
7.51850e-06;0.000657311474103492
7.51875e-06;0.0006599827982858027
7.51900e-06;0.0006626541224681045
7.51925e-06;0.0006650353098701309
7.51950e-06;0.0006672303661860062
7.51975e-06;0.0006692623486661612
7.52000e-06;0.0006709963625344718
7.52025e-06;0.0006718484831040257
7.52050e-06;0.0006709539838276884
7.52075e-06;0.0006678627393368814
7.52100e-06;0.0006625809355096081
7.52125e-06;0.0006552141635424567
7.52150e-06;0.0006458723302988894
7.52175e-06;0.0006346653318427701
7.52200e-06;0.0006207640782675146
7.52225e-06;0.0006063270358579116
7.52250e-06;0.0005878402149648999
7.52275e-06;0.0005684308413294737
7.52300e-06;0.0005449673039732236
7.52325e-06;0.0005205802149032909
7.52350e-06;0.0004927547560951631
7.52375e-06;0.0004641460254501472
7.52400e-06;0.00043254696594549396
7.52425e-06;0.0004002666997768573
7.52450e-06;0.00036559397851825156
7.52475e-06;0.00032878959822860496
7.52500e-06;0.00029022637656214896
7.52525e-06;0.00025014416896086873
7.52550e-06;0.0002087844898094587
7.52575e-06;0.00016638886639688987
7.52600e-06;0.00012317033922205694
7.52625e-06;7.923156952791964e-05
7.52650e-06;3.460628073718517e-05
7.52675e-06;-1.056994653470035e-05
7.52700e-06;-5.604133188018709e-05
7.52725e-06;-0.00010155793282909972
7.52750e-06;-0.00014659754211928685
7.52775e-06;-0.00019152848668776442
7.52800e-06;-0.00023516078471676782
7.52825e-06;-0.00027849724682984275
7.52850e-06;-0.00031996601267989623
7.52875e-06;-0.000361009311231709
7.52900e-06;-0.0004001703948293462
7.52925e-06;-0.00043733077393750365
7.52950e-06;-0.0004723225756205503
7.52975e-06;-0.0005048530174488274
7.53000e-06;-0.0005346483308841096
7.53025e-06;-0.0005615335093413274
7.53050e-06;-0.0005854597360179257
7.53075e-06;-0.0006064025613151189
7.53100e-06;-0.0006243058910901701
7.53125e-06;-0.0006378076066445249
7.53150e-06;-0.0006504355840567617
7.53175e-06;-0.0006577759371679672
7.53200e-06;-0.0006639117522240081
7.53225e-06;-0.0006647373767850362
7.53250e-06;-0.0006643533226383292
7.53275e-06;-0.0006589481718015106
7.53300e-06;-0.000652399198768306
7.53325e-06;-0.0006410890669479947
7.53350e-06;-0.000628694327633039
7.53375e-06;-0.0006117892651036412
7.53400e-06;-0.0005938567362409116
7.53425e-06;-0.0005717818411277219
7.53450e-06;-0.0005487633014773562
7.53475e-06;-0.000522991283188375
7.53500e-06;-0.0004949405568310684
7.53525e-06;-0.0004649964733867475
7.53550e-06;-0.00043332374552680804
7.53575e-06;-0.000400087066427846
7.53600e-06;-0.00036545587546370234
7.53625e-06;-0.000329623898178542
7.53650e-06;-0.0002928157942770179
7.53675e-06;-0.0002552622083205075
7.53700e-06;-0.0002171859949538042
7.53725e-06;-0.00017880761056969673
7.53750e-06;-0.00014034739486860025
7.53775e-06;-0.00010202565739479493
7.53800e-06;-6.406562110937447e-05
7.53825e-06;-2.6705699120958946e-05
7.53850e-06;9.796288737686398e-06
7.53875e-06;4.517882879661056e-05
7.53900e-06;7.918529618438158e-05
7.53925e-06;0.00011156056628733228
7.53950e-06;0.00014204963483192625
7.53975e-06;0.0001703975257107395
7.54000e-06;0.00019637230781491526
7.54025e-06;0.0002198530599413013
7.54050e-06;0.00024084475041101765
7.54075e-06;0.00025935071910746275
7.54100e-06;0.0002753215524571544
7.54125e-06;0.00028869403772846807
7.54150e-06;0.0002994041917976684
7.54175e-06;0.0003073880864535896
7.54200e-06;0.0003125962454116242
7.54225e-06;0.0003150487572357504
7.54250e-06;0.0003148445484735409
7.54275e-06;0.0003120814923377498
7.54300e-06;0.0003068244502891484
7.54325e-06;0.0002991296043502053
7.54350e-06;0.0002890526883562096
7.54375e-06;0.00027664948355051984
7.54400e-06;0.00026198476578653037
7.54425e-06;0.0002451669223971703
7.54450e-06;0.0002263537031512778
7.54475e-06;0.0002057021797149431
7.54500e-06;0.00018334876916944803
7.54525e-06;0.00015942442205349122
7.54550e-06;0.00013405981186574294
7.54575e-06;0.00010738559110113787
7.54600e-06;7.953810766298382e-05
7.54625e-06;5.06809669442515e-05
7.54650e-06;2.1008695548122058e-05
7.54675e-06;-9.284600195605413e-06
7.54700e-06;-4.011114944218796e-05
7.54725e-06;-7.103443860173364e-05
7.54750e-06;-0.0001019414146373912
7.54775e-06;-0.00013284467672370855
7.54800e-06;-0.0001637479388099212
7.54825e-06;-0.00019373764930187556
7.54850e-06;-0.0002235192497623866
7.54875e-06;-0.0002517622600916042
7.54900e-06;-0.00027965477457281344
7.54925e-06;-0.00030596882881960864
7.54950e-06;-0.0003306464895094807
7.54975e-06;-0.0003535880792601581
7.55000e-06;-0.0003748684478055292
7.55025e-06;-0.0003956770371494361
7.55050e-06;-0.00041795503989156067
7.55075e-06;-0.0004427138806354193
7.55100e-06;-0.00047073131516691525
7.55125e-06;-0.0004993801508903007
7.55150e-06;-0.0005302978728285665
7.55175e-06;-0.0005634609490532158
7.55200e-06;-0.0005970177819852652
7.55225e-06;-0.000634105797610508
7.55250e-06;-0.0006719982281655834
7.55275e-06;-0.0007153041037765212
7.55300e-06;-0.000759843179819814
7.55325e-06;-0.0008089003302812975
7.55350e-06;-0.0008589867128251355
7.55375e-06;-0.0009124323530566034
7.55400e-06;-0.0009666432431412921
7.55425e-06;-0.001025363358156172
7.55450e-06;-0.0010851106893110152
7.55475e-06;-0.0011448580204660608
7.55500e-06;-0.0012098408034509254
7.55525e-06;-0.0012760162394310863
7.55550e-06;-0.0013421916754114717
7.55575e-06;-0.0014108887729554736
7.55600e-06;-0.0014801603132247293
7.55625e-06;-0.0015494318534942197
7.55650e-06;-0.0016202021493474047
7.55675e-06;-0.0016913138666087787
7.55700e-06;-0.0017624255838703936
7.55725e-06;-0.0018332827677373807
7.55750e-06;-0.0019040819680673103
7.55775e-06;-0.0019730386576183975
7.55800e-06;-0.0020415756172069252
7.55825e-06;-0.002107359216676607
7.55850e-06;-0.002172515591734602
7.55875e-06;-0.0022342028411327314
7.55900e-06;-0.0022950998123959293
7.55925e-06;-0.0023496050830300636
7.55950e-06;-0.0024026543034231652
7.55975e-06;-0.0024557035238164464
7.56000e-06;-0.0024989013679095847
7.56025e-06;-0.0025398550363648674
7.56050e-06;-0.002580808704820289
7.56075e-06;-0.002612218579889112
7.56100e-06;-0.0026414543477105827
7.56125e-06;-0.0026706901155321527
7.56150e-06;-0.0026896638276065372
7.56175e-06;-0.00270629980992625
7.56200e-06;-0.002722935792246019
7.56225e-06;-0.002729327291373055
7.56250e-06;-0.0027333850638306682
7.56275e-06;-0.002737442836288268
7.56300e-06;-0.002732427039217464
7.56325e-06;-0.0027253442534272746
7.56350e-06;-0.0027182614676371096
7.56375e-06;-0.0027038951740794553
7.56400e-06;-0.002687869673707349
7.56425e-06;-0.0026665828367530195
7.56450e-06;-0.0026440974501727907
7.56475e-06;-0.0026182696120300563
7.56500e-06;-0.0025896567907057284
7.56525e-06;-0.0025586897106863052
7.56550e-06;-0.0025255281369919807
7.56575e-06;-0.002490331412180757
7.56600e-06;-0.0024532785141285762
7.56625e-06;-0.002414631989877543
7.56650e-06;-0.00237473175513277
7.56675e-06;-0.002333885166263589
7.56700e-06;-0.002292340536578992
7.56725e-06;-0.0022503326552902538
7.56750e-06;-0.0022080957500247465
7.56775e-06;-0.0021658636691465074
7.56800e-06;-0.0021238826903258734
7.56825e-06;-0.0020824510570090038
7.56850e-06;-0.0020419159378662326
7.56875e-06;-0.0020026037051791208
7.56900e-06;-0.001964804073583828
7.56925e-06;-0.0019287977515460044
7.56950e-06;-0.001894865424824862
7.56975e-06;-0.0018632876975446591
7.57000e-06;-0.0018355101341019089
7.57025e-06;-0.0018084965407485778
7.57050e-06;-0.0017875717110919993
7.57075e-06;-0.0017680339216553213
7.57100e-06;-0.001748496132218577
7.57125e-06;-0.0017366352418901568
7.57150e-06;-0.0017265231742056256
7.57175e-06;-0.0017164111065210601
7.57200e-06;-0.0017142895258679986
7.57225e-06;-0.0017139882042100031
7.57250e-06;-0.0017136868825520066
7.57275e-06;-0.0017210858479345195
7.57300e-06;-0.0017302389638080551
7.57325e-06;-0.0017393920796816215
7.57350e-06;-0.0017556032310146663
7.57375e-06;-0.0017734222258347842
7.57400e-06;-0.0017912412206549625
7.57425e-06;-0.001815332226781265
7.57450e-06;-0.00184085201753002
7.57475e-06;-0.0018663718082788617
7.57500e-06;-0.0018969636197807647
7.57525e-06;-0.0019287108541452228
7.57550e-06;-0.0019604580885095734
7.57575e-06;-0.0019959696421647105
7.57600e-06;-0.002032338720026143
7.57625e-06;-0.002068707797887452
7.57650e-06;-0.0021073692091562192
7.57675e-06;-0.0021465528214483637
7.57700e-06;-0.002185736433740375
7.57725e-06;-0.0022255228857871647
7.57750e-06;-0.002265446666695487
7.57775e-06;-0.0023053704476036743
7.57800e-06;-0.0023441699010799356
7.57825e-06;-0.0023827132291020293
7.57850e-06;-0.002421256557123993
7.57875e-06;-0.0024574816669864948
7.57900e-06;-0.002493178679195018
7.57925e-06;-0.0025260048543327388
7.57950e-06;-0.0025581770434269743
7.57975e-06;-0.00258549557288062
7.58000e-06;-0.0026117084228453177
7.58025e-06;-0.002637921272810105
7.58050e-06;-0.0026544591926193494
7.58075e-06;-0.0026687931317991276
7.58100e-06;-0.002683127070978954
7.58125e-06;-0.0026974610101587323
7.58150e-06;-0.0027117949493385106
7.58175e-06;-0.002713108763458805
7.58200e-06;-0.0027114565506453085
7.58225e-06;-0.0027098043378318117
7.58250e-06;-0.0027081521250183096
7.58275e-06;-0.0027064999122048132
7.58300e-06;-0.0026946425079234794
7.58325e-06;-0.0026804603277571872
7.58350e-06;-0.0026662781475909427
7.58375e-06;-0.0026463360886223902
7.58400e-06;-0.002625081910485803
7.58425e-06;-0.002599619611242317
7.58450e-06;-0.0025731986882923173
7.58475e-06;-0.0025430710309331016
7.58500e-06;-0.0025120989673916893
7.58525e-06;-0.0024787208545236535
7.58550e-06;-0.002443392308003681
7.58575e-06;-0.002406492925852444
7.58600e-06;-0.0023682082308940423
7.58625e-06;-0.002328729098844438
7.58650e-06;-0.0022882635440626595
7.58675e-06;-0.002247040655736847
7.58700e-06;-0.0022052995655618204
7.58725e-06;-0.0021632809772242196
7.58750e-06;-0.002121225447977557
7.58775e-06;-0.002079374060772661
7.58800e-06;-0.002037966890364779
7.58825e-06;-0.001997248113850456
7.58850e-06;-0.001957472288675508
7.58875e-06;-0.0019189072989055076
7.58900e-06;-0.001881827180339093
7.58925e-06;-0.0018465070739987872
7.58950e-06;-0.0018132219960733955
7.58975e-06;-0.0017822470143692448
7.59000e-06;-0.0017550586784919517
7.59025e-06;-0.0017286331571367399
7.59050e-06;-0.001707290670987078
7.59075e-06;-0.0016871061168274367
7.59100e-06;-0.0016736402202687198
7.59125e-06;-0.0016617048558137352
7.59150e-06;-0.0016497694913587505
7.59175e-06;-0.001646149706193554
7.59200e-06;-0.0016444242370985424
7.59225e-06;-0.001642698768003525
7.59250e-06;-0.0016493999076656477
7.59275e-06;-0.0016580206562724687
7.59300e-06;-0.0016666414048793188
7.59325e-06;-0.001683072174176984
7.59350e-06;-0.0017012820916477967
7.59375e-06;-0.001719492009118671
7.59400e-06;-0.001744701934693764
7.59425e-06;-0.0017715064849342013
7.59450e-06;-0.0017983110351747292
7.59475e-06;-0.0018310555829009585
7.59500e-06;-0.001865153281418102
7.59525e-06;-0.0018992509799353613
7.59550e-06;-0.001937832081842618
7.59575e-06;-0.0019774345176574557
7.59600e-06;-0.0020170369534724276
7.59625e-06;-0.0020596124695482785
7.59650e-06;-0.002102865262999575
7.59675e-06;-0.0021461180564507254
7.59700e-06;-0.002190587338428881
7.59725e-06;-0.0022353337404592225
7.59750e-06;-0.0022800801424894125
7.59775e-06;-0.002324125917923947
7.59800e-06;-0.002368012088336199
7.59825e-06;-0.0024118982587483023
7.59850e-06;-0.002453759223864638
7.59875e-06;-0.0024951588406128726
7.59900e-06;-0.0025338416013786407
7.59925e-06;-0.0025719054534951062
7.59950e-06;-0.0026062793536236837
7.59975e-06;-0.0026398126706606104
7.60000e-06;-0.0026684194462029366
7.60025e-06;-0.0026959039395331504
7.60050e-06;-0.0027164559653142573
7.60075e-06;-0.0027354287523890662
7.60100e-06;-0.0027449464621908423
7.60125e-06;-0.002752310274567898
7.60150e-06;-0.0027596740869449783
7.60175e-06;-0.0027557168759293075
7.60200e-06;-0.0027491806988802266
7.60225e-06;-0.002742644521831124
7.60250e-06;-0.0027240125487274875
7.60275e-06;-0.002702625113852516
7.60300e-06;-0.002681237678977472
7.60325e-06;-0.0026502748453998866
7.60350e-06;-0.0026171307047838273
7.60375e-06;-0.002578783823835885
7.60400e-06;-0.0025359970896790007
7.60425e-06;-0.0024892734483324646
7.60450e-06;-0.002438668476087487
7.60475e-06;-0.002384374568204203
7.60500e-06;-0.0023267125064191136
7.60525e-06;-0.002266029378973361
7.60550e-06;-0.0022026736469427876
7.60575e-06;-0.0021369940474326022
7.60600e-06;-0.0020693209664548236
7.60625e-06;-0.0019999221931211453
7.60650e-06;-0.0019290417815712954
7.60675e-06;-0.0018570090199436396
7.60700e-06;-0.0017842334571420992
7.60725e-06;-0.001711141603018594
7.60750e-06;-0.00163816032254096
7.60775e-06;-0.0015657165839106498
7.60800e-06;-0.001494226399878691
7.60825e-06;-0.0014240661098197046
7.60850e-06;-0.0013555971386664094
7.60875e-06;-0.0012892345306555753
7.60900e-06;-0.0012254433315615483
7.60925e-06;-0.0011646992048637951
7.60950e-06;-0.001107478099597125
7.60975e-06;-0.0010542562060447758
7.61000e-06;-0.0010054545015943913
7.61025e-06;-0.00096124082315216
7.61050e-06;-0.0009215189512129106
7.61075e-06;-0.000886237394573562
7.61100e-06;-0.0008554893032072127
7.61125e-06;-0.0008294038516022037
7.61150e-06;-0.0008081118647716095
7.61175e-06;-0.0007917441827376282
7.61200e-06;-0.0007803971907272386
7.61225e-06;-0.0007740087600619172
7.61250e-06;-0.0007723512627927696
7.61275e-06;-0.0007752250259520836
7.61300e-06;-0.0007825211116343186
7.61325e-06;-0.0007941530384321585
7.61350e-06;-0.0008100354631150828
7.61375e-06;-0.000831727256490512
7.61400e-06;-0.0008545634606430662
7.61425e-06;-0.0008835642654445113
7.61450e-06;-0.0009139693863686265
7.61475e-06;-0.000949606474638749
7.61500e-06;-0.0009864354221252297
7.61525e-06;-0.0010287176847726264
7.61550e-06;-0.001072242230390028
7.61575e-06;-0.001115766776007577
7.61600e-06;-0.0011636395332859663
7.61625e-06;-0.0012125028273546903
7.61650e-06;-0.001263642035871076
7.61675e-06;-0.0013152997051172728
7.61700e-06;-0.0013681595456834772
7.61725e-06;-0.0014212932447952977
7.61750e-06;-0.0014746333582111946
7.61775e-06;-0.0015280204934786331
7.61800e-06;-0.0015805839626636294
7.61825e-06;-0.0016329597980301765
7.61850e-06;-0.0016832966165787697
7.61875e-06;-0.0017331689404494286
7.61900e-06;-0.0017787286876503076
7.61925e-06;-0.0018233060158282484
7.61950e-06;-0.0018678833440060382
7.61975e-06;-0.0019051604135976452
7.62000e-06;-0.0019407744604868127
7.62025e-06;-0.0019763885073758596
7.62050e-06;-0.002004838419765119
7.62075e-06;-0.0020316563189625497
7.62100e-06;-0.0020584742181598897
7.62125e-06;-0.0020781027934223344
7.62150e-06;-0.00209609361725753
7.62175e-06;-0.0021140844410926646
7.62200e-06;-0.0021243772218623876
7.62225e-06;-0.0021329163633286075
7.62250e-06;-0.002141455504794828
7.62275e-06;-0.002143406771447227
7.62300e-06;-0.002143857298742697
7.62325e-06;-0.0021443078260381674
7.62350e-06;-0.002138462890882807
7.62375e-06;-0.0021311838288600414
7.62400e-06;-0.002123904766837276
7.62425e-06;-0.002111045470614358
7.62450e-06;-0.0020969149788510047
7.62475e-06;-0.0020827844870876513
7.62500e-06;-0.0020650176143425293
7.62525e-06;-0.0020464223621564693
7.62550e-06;-0.002025299885870316
7.62575e-06;-0.0020036016996962075
7.62600e-06;-0.001979758160625759
7.62625e-06;-0.001955425903172324
7.62650e-06;-0.0019296821208004457
7.62675e-06;-0.0019036167884510559
7.62700e-06;-0.0018767603592951174
7.62725e-06;-0.0018497237157080646
7.62750e-06;-0.0018223810536703794
7.62775e-06;-0.0017949686796320374
7.62800e-06;-0.0017677819201261762
7.62825e-06;-0.001740646556346214
7.62850e-06;-0.0017144890767770424
7.62875e-06;-0.0016885543624187425
7.62900e-06;-0.0016648174657777593
7.62925e-06;-0.0016415812391767754
7.62950e-06;-0.0016183450125758702
7.62975e-06;-0.0015980930387149669
7.63000e-06;-0.001578520887355929
7.63025e-06;-0.0015602040516519609
7.63050e-06;-0.001541508331565531
7.63075e-06;-0.0015226611566231652
7.63100e-06;-0.0015027254946742435
7.63125e-06;-0.0014825418718371769
7.63150e-06;-0.0014618521215054505
7.63175e-06;-0.0014410470736804717
7.63200e-06;-0.0014202420258554928
7.63225e-06;-0.0013980492835187373
7.63250e-06;-0.0013755404198486066
7.63275e-06;-0.001353031556178476
7.63300e-06;-0.00132791165111614
7.63325e-06;-0.0013021969423137134
7.63350e-06;-0.0012764822335111128
7.63375e-06;-0.0012490825054647927
7.63400e-06;-0.0012212989245423264
7.63425e-06;-0.0011935153436196716
7.63450e-06;-0.0011648702025068335
7.63475e-06;-0.0011343468368774695
7.63500e-06;-0.0011038234712478989
7.63525e-06;-0.001073300105618328
7.63550e-06;-0.0010416081064219043
7.63575e-06;-0.001009649888689296
7.63600e-06;-0.0009775208837423817
7.63625e-06;-0.0009453529729115507
7.63650e-06;-0.0009128851118501328
7.63675e-06;-0.0008803489211484842
7.63700e-06;-0.0008478329973545132
7.63725e-06;-0.0008153216904279051
7.63750e-06;-0.0007834809692462841
7.63775e-06;-0.0007517930096835116
7.63800e-06;-0.0007213305698660631
7.63825e-06;-0.0006911473074415196
7.63850e-06;-0.0006623566541552977
7.63875e-06;-0.0006338832417700873
7.63900e-06;-0.0006067090685247804
7.63925e-06;-0.0005809146598081495
7.63950e-06;-0.0005566152998617537
7.63975e-06;-0.0005340126998302207
7.64000e-06;-0.0005133881472414893
7.64025e-06;-0.0004953167396523875
7.64050e-06;-0.00048051585428182577
7.64075e-06;-0.0004693585400936051
7.64100e-06;-0.00046187546303628075
7.64125e-06;-0.00045802463749236
7.64150e-06;-0.00045776096332436736
7.64175e-06;-0.0004610393058910705
7.64200e-06;-0.0004678644220405604
7.64225e-06;-0.0004784250003081558
7.64250e-06;-0.0004929989369905917
7.64275e-06;-0.0005116482923595813
7.64300e-06;-0.000534220759831684
7.64325e-06;-0.0005605185038590175
7.64350e-06;-0.0005903417083416983
7.64375e-06;-0.0006234906886035646
