Time(s);Current(A)
2.50000e-06;0.0023618742845577943
2.50025e-06;0.002346904373019578
2.50050e-06;0.0023434838871374945
2.50075e-06;0.002340063401255405
2.50100e-06;0.002336642915373316
2.50125e-06;0.0023332224294912323
2.50150e-06;0.0023298019436091433
2.50175e-06;0.002326381457727054
2.50200e-06;0.0023229609718449645
2.50225e-06;0.0023217501206577165
2.50250e-06;0.0023257536901414738
2.50275e-06;0.002329757259625231
2.50300e-06;0.0023337608291089814
2.50325e-06;0.0023377643985927387
2.50350e-06;0.002341767968076496
2.50375e-06;0.0023457715375602467
2.50400e-06;0.002349775107044004
2.50425e-06;0.0023537786765277613
2.50450e-06;0.0023577822460115186
2.50475e-06;0.002361785815495269
2.50500e-06;0.002365789384979026
2.50525e-06;0.0023697929544627835
2.50550e-06;0.002375306861870518
2.50575e-06;0.0023812039591600805
2.50600e-06;0.002387101056449643
2.50625e-06;0.0023929981537392057
2.50650e-06;0.0023988952510287584
2.50675e-06;0.002404792348318321
2.50700e-06;0.0024106894456078836
2.50725e-06;0.0024165865428974363
2.50750e-06;0.002422483640186999
2.50775e-06;0.0024283807374765615
2.50800e-06;0.002434277834766114
2.50825e-06;0.002440174932055677
2.50850e-06;0.002447643403973671
2.50875e-06;0.0024588200944329233
2.50900e-06;0.0024699967848921564
2.50925e-06;0.0024811734753514086
2.50950e-06;0.0024923501658106607
2.50975e-06;0.002503526856269894
2.51000e-06;0.002514703546729146
2.51025e-06;0.002525880237188398
2.51050e-06;0.0025370569276476503
2.51075e-06;0.002548233618106884
2.51100e-06;0.002559410308566136
2.51125e-06;0.002570586999025388
2.51150e-06;0.0025817636894846212
2.51175e-06;0.0025937903963089764
2.51200e-06;0.0026060327619374566
2.51225e-06;0.002618275127565916
2.51250e-06;0.002630517493194396
2.51275e-06;0.0026427598588228763
2.51300e-06;0.002655002224451356
2.51325e-06;0.0026672445900798153
2.51350e-06;0.0026794869557082955
2.51375e-06;0.0026917293213367757
2.51400e-06;0.002703971686965235
2.51425e-06;0.002716214052593715
2.51450e-06;0.0027284564182221954
2.51475e-06;0.0027381553415983485
2.51500e-06;0.0027418521063876248
2.51525e-06;0.002745548871176907
2.51550e-06;0.0027492456359661894
2.51575e-06;0.0027529424007554652
2.51600e-06;0.002756639165544748
2.51625e-06;0.0027603359303340303
2.51650e-06;0.002764032695123306
2.51675e-06;0.0027677294599125885
2.51700e-06;0.002771426224701871
2.51725e-06;0.002775122989491153
2.51750e-06;0.0027788197542804294
2.51775e-06;0.0027825165190697118
2.51800e-06;0.002786213283858994
2.51825e-06;0.0027899100486482704
2.51850e-06;0.0027936068134375527
2.51875e-06;0.002788800038191616
2.51900e-06;0.002781835818277286
2.51925e-06;0.002774871598362968
2.51950e-06;0.0027679073784486383
2.51975e-06;0.002760943158534308
2.52000e-06;0.00275397893861999
2.52025e-06;0.0027470147187056604
2.52050e-06;0.0027400504987913307
2.52075e-06;0.0027330862788770127
2.52100e-06;0.002726122058962683
2.52125e-06;0.002719157839048353
2.52150e-06;0.0027121936191340235
2.52175e-06;0.0027052293992197054
2.52200e-06;0.0026982651793053753
2.52225e-06;0.0026913009593910455
2.52250e-06;0.0026841118456595726
2.52275e-06;0.00267639201480463
2.52300e-06;0.0026686721839496866
2.52325e-06;0.002660952353094744
2.52350e-06;0.002653232522239814
2.52375e-06;0.0026455126913848713
2.52400e-06;0.002637792860529928
2.52425e-06;0.0026300730296749983
2.52450e-06;0.0026223531988200555
2.52475e-06;0.0026146333679651123
2.52500e-06;0.0026069135371101825
2.52525e-06;0.0025991937062552397
2.52550e-06;0.002591473875400297
2.52575e-06;0.0025837540445453537
2.52600e-06;0.002576034213690424
2.52625e-06;0.002568314382835481
2.52650e-06;0.002560594551980538
2.52675e-06;0.002552874721125608
2.52700e-06;0.0025451548902706653
2.52725e-06;0.0025384018840178507
2.52750e-06;0.0025339304450319447
2.52775e-06;0.002529459006046046
2.52800e-06;0.00252498756706014
2.52825e-06;0.002520516128074234
2.52850e-06;0.0025160446890883353
2.52875e-06;0.0025115732501024292
2.52900e-06;0.0025071018111165228
2.52925e-06;0.0025026303721306245
2.52950e-06;0.002498158933144718
2.52975e-06;0.002493687494158812
2.53000e-06;0.002489216055172906
2.53025e-06;0.0024847446161870073
2.53050e-06;0.0024802731772011013
2.53075e-06;0.002475801738215195
2.53100e-06;0.0024713302992292966
2.53125e-06;0.00246685886024339
2.53150e-06;0.002462387421257484
2.53175e-06;0.002457915982271578
2.53200e-06;0.0024536629213995757
2.53225e-06;0.002449925201526752
2.53250e-06;0.0024461874816539284
2.53275e-06;0.002442449761781111
2.53300e-06;0.0024387120419082876
2.53325e-06;0.0024349743220354637
2.53350e-06;0.0024312366021626464
2.53375e-06;0.0024280587359094765
2.53400e-06;0.002425022910877022
2.53425e-06;0.002421987085844567
2.53450e-06;0.0024189512608121175
2.53475e-06;0.002415915435779663
2.53500e-06;0.002412879610747208
2.53525e-06;0.002411033358774272
2.53550e-06;0.0024119943284508466
2.53575e-06;0.0024129552981274212
2.53600e-06;0.0024180977198644048
2.53625e-06;0.0024331077681892595
2.53650e-06;0.00244811781651414
2.53675e-06;0.0024671838878901667
2.53700e-06;0.002495821591398257
2.53725e-06;0.0025244592949063955
2.53750e-06;0.0025576664257308842
2.53775e-06;0.002601656749050841
2.53800e-06;0.002645647072370872
2.53825e-06;0.0026947907955272026
2.53850e-06;0.0027560958024931974
2.53875e-06;0.002817400809459088
2.53900e-06;0.00288280217079296
2.53925e-06;0.002957870340376837
2.53950e-06;0.003032938509960587
2.53975e-06;0.0031137343590936775
2.54000e-06;0.0032080467097175477
2.54025e-06;0.003302359060341418
2.54050e-06;0.0033966714109651287
2.54075e-06;0.0034909837615889994
2.54100e-06;0.0035852961122128696
2.54125e-06;0.0036796084628365803
2.54150e-06;0.003783846922423118
2.54175e-06;0.003890603748569423
2.54200e-06;0.003997360574715547
2.54225e-06;0.0041041174008618515
2.54250e-06;0.004210874227008156
2.54275e-06;0.004317631053154461
2.54300e-06;0.004421569344546122
2.54325e-06;0.004518856298536071
2.54350e-06;0.00461614325252602
2.54375e-06;0.004713430206515803
2.54400e-06;0.004810717160505752
2.54425e-06;0.0049080041144957
2.54450e-06;0.005005291068485484
2.54475e-06;0.005093198328305909
2.54500e-06;0.005158970856400814
2.54525e-06;0.005224743384495719
2.54550e-06;0.005290515912590512
2.54575e-06;0.005356288440685416
2.54600e-06;0.005422060968780321
2.54625e-06;0.005487833496875114
2.54650e-06;0.0055420201301945495
2.54675e-06;0.00556886571507207
2.54700e-06;0.005595711299949592
2.54725e-06;0.0056225568848270666
2.54750e-06;0.005649402469704588
2.54775e-06;0.005676248054582109
2.54800e-06;0.0057030936394595845
2.54825e-06;0.005729939224337105
2.54850e-06;0.005756784809214626
2.54875e-06;0.0057836303940921015
2.54900e-06;0.005810475978969622
2.54925e-06;0.0058274990549666665
2.54950e-06;0.005821342420088636
2.54975e-06;0.005815185785210616
2.55000e-06;0.005809029150332586
2.55025e-06;0.0058028725154545555
2.55050e-06;0.005796715880576535
2.55075e-06;0.005790559245698505
2.55100e-06;0.005784402610820474
2.55125e-06;0.0057782459759424445
2.55150e-06;0.005772089341064424
2.55175e-06;0.005765932706186394
2.55200e-06;0.005756123249079025
2.55225e-06;0.005737693655895956
2.55250e-06;0.005719264062712856
2.55275e-06;0.0057008344695297555
2.55300e-06;0.0056824048763466865
2.55325e-06;0.005663975283163586
2.55350e-06;0.005645545689980486
2.55375e-06;0.005627116096797386
2.55400e-06;0.005608619319401896
2.55425e-06;0.00559050224278457
2.55450e-06;0.005573655349163227
2.55475e-06;0.005556808455541913
2.55500e-06;0.005539961561920571
2.55525e-06;0.005523114668299228
2.55550e-06;0.005506267774677886
2.55575e-06;0.0054894208810565715
2.55600e-06;0.0054680776692932545
2.55625e-06;0.005436123792189074
2.55650e-06;0.005404169915084948
2.55675e-06;0.005372216037980768
2.55700e-06;0.005340262160876588
2.55725e-06;0.0053083082837724616
2.55750e-06;0.005276354406668282
2.55775e-06;0.005235218516964412
2.55800e-06;0.005172414395659458
2.55825e-06;0.00510961027435461
2.55850e-06;0.005046806153049655
2.55875e-06;0.0049840020317447
2.55900e-06;0.004921197910439852
2.55925e-06;0.004858393789134898
2.55950e-06;0.0047955896678299435
2.55975e-06;0.004732785546524988
2.56000e-06;0.004649291148704061
2.56025e-06;0.004560547392781455
2.56050e-06;0.004471803636858848
2.56075e-06;0.0043830598809363915
2.56100e-06;0.004294316125013784
2.56125e-06;0.004205572369091177
2.56150e-06;0.004116828613168721
2.56175e-06;0.004028084857246114
2.56200e-06;0.0039375408967883925
2.56225e-06;0.0038427487120580215
2.56250e-06;0.0037479565273278114
2.56275e-06;0.0036531643425974404
2.56300e-06;0.00355837215786707
2.56325e-06;0.0034635799731368593
2.56350e-06;0.003372597134405458
2.56375e-06;0.003290603805377169
2.56400e-06;0.0032086104763488807
2.56425e-06;0.003126617147320731
2.56450e-06;0.0030446238182924427
2.56475e-06;0.002962630489264154
2.56500e-06;0.002886562883998632
2.56525e-06;0.0028244791361398294
2.56550e-06;0.002762395388281027
2.56575e-06;0.0027029557901940174
2.56600e-06;0.0026497560059846863
2.56625e-06;0.0025965562217753558
2.56650e-06;0.0025455529697794585
2.56675e-06;0.002499733218482102
2.56700e-06;0.002453913467184668
2.56725e-06;0.00241193715776012
2.56750e-06;0.0023790308194068114
2.56775e-06;0.0023461244810534473
2.56800e-06;0.0023132181427000832
2.56825e-06;0.002280311804346719
2.56850e-06;0.0022474054659934106
2.56875e-06;0.0022144991276400465
2.56900e-06;0.0021815927892866824
2.56925e-06;0.002148686450933374
2.56950e-06;0.0021250421063936883
2.56975e-06;0.002103747634859827
2.57000e-06;0.0020824531633260013
2.57025e-06;0.0020611586917921396
2.57050e-06;0.002039864220258278
2.57075e-06;0.0020185697487244167
2.57100e-06;0.001997275277190591
2.57125e-06;0.0019759808056567293
2.57150e-06;0.0019570665823324413
2.57175e-06;0.00194376940308428
2.57200e-06;0.001930472223836096
2.57225e-06;0.001917175044587912
2.57250e-06;0.001903877865339728
2.57275e-06;0.0018905806860915666
2.57300e-06;0.0018772835068433828
2.57325e-06;0.0018639863275951988
2.57350e-06;0.0018506891483470373
2.57375e-06;0.0018373919690988533
2.57400e-06;0.0018255718099865798
2.57425e-06;0.001817237206360313
2.57450e-06;0.0018089026027340318
2.57475e-06;0.0018005679991077508
2.57500e-06;0.0017922333954814697
2.57525e-06;0.0017838987918552028
2.57550e-06;0.001775564188228922
2.57575e-06;0.0017672295846026408
2.57600e-06;0.001758894980976374
2.57625e-06;0.001750560377350093
2.57650e-06;0.0017417314434991457
2.57675e-06;0.0017317359612819118
2.57700e-06;0.0017217404790646948
2.57725e-06;0.001711744996847461
2.57750e-06;0.0017017495146302271
2.57775e-06;0.00169175403241301
2.57800e-06;0.001681758550195776
2.57825e-06;0.0016717630679785422
2.57850e-06;0.0016617675857613253
2.57875e-06;0.0016517721035440914
2.57900e-06;0.0016417766213268573
2.57925e-06;0.0016317811391096235
2.57950e-06;0.0016217856568924065
2.57975e-06;0.0016107769982651146
2.58000e-06;0.001597377388757265
2.58025e-06;0.001583977779249438
2.58050e-06;0.0015705781697415886
2.58075e-06;0.001557178560233739
2.58100e-06;0.0015437789507258893
2.58125e-06;0.0015303793412180624
2.58150e-06;0.001516979731710213
2.58175e-06;0.0015035801222023633
2.58200e-06;0.0014901805126945364
2.58225e-06;0.001476780903186687
2.58250e-06;0.0014633812936788373
2.58275e-06;0.0014499816841710104
2.58300e-06;0.0014368600307848466
2.58325e-06;0.0014243943139437157
2.58350e-06;0.001411928597102585
2.58375e-06;0.0013994628802614752
2.58400e-06;0.0013869971634203446
2.58425e-06;0.0013745314465792137
2.58450e-06;0.0013620657297381041
2.58475e-06;0.001353456517198686
2.58500e-06;0.0013458257435936226
2.58525e-06;0.001338194969988559
2.58550e-06;0.0013305641963835086
2.58575e-06;0.0013229334227784454
2.58600e-06;0.001315302649173382
2.58625e-06;0.0013101225290153581
2.58650e-06;0.0013107255991875297
2.58675e-06;0.0013113286693597012
2.58700e-06;0.0013136521612433904
2.58725e-06;0.0013200356013902375
2.58750e-06;0.0013264190415370849
2.58775e-06;0.0013347606987795485
2.58800e-06;0.0013477234672547413
2.58825e-06;0.0013606862357299558
2.58850e-06;0.0013754914131354336
2.58875e-06;0.001394644411128334
2.58900e-06;0.0014137974091212669
2.58925e-06;0.001435454161202497
2.58950e-06;0.0014630194135044454
2.58975e-06;0.0014905846658063472
2.59000e-06;0.0015181499181082957
2.59025e-06;0.001545715170410244
2.59050e-06;0.0015732804227121457
2.59075e-06;0.0016008456750140941
2.59100e-06;0.0016305044780557166
2.59125e-06;0.0016651037603022732
2.59150e-06;0.0016997030425488883
2.59175e-06;0.0017343023247955035
2.59200e-06;0.0017689016070421189
2.59225e-06;0.0018035008892886754
2.59250e-06;0.0018381001715352906
2.59275e-06;0.0018722811079423846
2.59300e-06;0.0019054748082239653
2.59325e-06;0.0019386685085056024
2.59350e-06;0.0019718622087872397
2.59375e-06;0.0020050559090688765
2.59400e-06;0.0020382496093504575
2.59425e-06;0.0020714433096320943
2.59450e-06;0.0021023772682117925
2.59475e-06;0.0021279785607729567
2.59500e-06;0.0021535798533341643
2.59525e-06;0.002179181145895372
2.59550e-06;0.002204782438456536
2.59575e-06;0.0022303837310177436
2.59600e-06;0.0022559850235789507
2.59625e-06;0.002284502002871902
2.59650e-06;0.002319899584289294
2.59675e-06;0.002355297165706746
2.59700e-06;0.0023906947471241985
2.59725e-06;0.0024260923285415906
2.59750e-06;0.002461489909959043
2.59775e-06;0.002496887491376495
2.59800e-06;0.0025322850727939475
2.59825e-06;0.0025676826542113396
2.59850e-06;0.002603080235628792
2.59875e-06;0.002638477817046244
2.59900e-06;0.0026793689055768745
2.59925e-06;0.0027332238822729213
2.59950e-06;0.0027870788589689686
2.59975e-06;0.002840933835664924
2.60000e-06;0.002894788812360971
2.60025e-06;0.002948643789057018
2.60050e-06;0.003002498765753065
2.60075e-06;0.0030563537424490206
2.60100e-06;0.0031102087191450674
2.60125e-06;0.0031640636958411143
2.60150e-06;0.00321791867253707
2.60175e-06;0.003273249847244943
2.60200e-06;0.003332064637344809
2.60225e-06;0.0033908794274446746
2.60250e-06;0.003449694217544441
2.60275e-06;0.003508509007644307
2.60300e-06;0.0035673237977441727
2.60325e-06;0.003626138587843939
2.60350e-06;0.003684953377943805
2.60375e-06;0.003734378933798927
2.60400e-06;0.0037814223343050203
2.60425e-06;0.0038284657348111937
2.60450e-06;0.0038755091353173668
2.60475e-06;0.00392255253582354
2.60500e-06;0.003969595936329634
2.60525e-06;0.0040166393368358064
2.60550e-06;0.0040602428823670175
2.60575e-06;0.004095728863966099
2.60600e-06;0.0041312148455652405
2.60625e-06;0.004166700827164383
2.60650e-06;0.004202186808763524
2.60675e-06;0.004237672790362606
2.60700e-06;0.004273158771961747
2.60725e-06;0.004308644753560889
2.60750e-06;0.004344130735159971
2.60775e-06;0.004379616716759112
2.60800e-06;0.004415102698358254
2.60825e-06;0.004450588679957336
2.60850e-06;0.004488743956559201
2.60875e-06;0.004527576463614942
2.60900e-06;0.004566408970670684
2.60925e-06;0.004605241477726359
2.60950e-06;0.004644073984782101
2.60975e-06;0.004682906491837843
2.61000e-06;0.004721738998893518
2.61025e-06;0.00476057150594926
2.61050e-06;0.004799404013005001
2.61075e-06;0.004838236520060743
2.61100e-06;0.004877069027116419
2.61125e-06;0.004916175605947656
2.61150e-06;0.004955928954824688
2.61175e-06;0.004995682303701654
2.61200e-06;0.005035435652578686
2.61225e-06;0.005075189001455718
2.61250e-06;0.005114942350332684
2.61275e-06;0.005154695699209717
2.61300e-06;0.005194449048086749
2.61325e-06;0.005234202396963782
2.61350e-06;0.005270960541139381
2.61375e-06;0.005300650432196263
2.61400e-06;0.005330340323253145
2.61425e-06;0.005360030214309977
2.61450e-06;0.005389720105366858
2.61475e-06;0.00541940999642374
2.61500e-06;0.005449099887480623
2.61525e-06;0.0054787897785374545
2.61550e-06;0.005508479669594336
2.61575e-06;0.005527248297886851
2.61600e-06;0.005520244313856305
2.61625e-06;0.005513240329825748
2.61650e-06;0.0055062363457951905
2.61675e-06;0.005499232361764645
2.61700e-06;0.005492228377734088
2.61725e-06;0.00548522439370353
2.61750e-06;0.005478220409672973
2.61775e-06;0.005471216425642428
2.61800e-06;0.005425014345438625
2.61825e-06;0.005368867263113307
2.61850e-06;0.005312720180788083
2.61875e-06;0.005256573098462765
2.61900e-06;0.0052004260161374475
2.61925e-06;0.005144278933812224
2.61950e-06;0.005088131851486906
2.61975e-06;0.0050319847691615875
2.62000e-06;0.004965636584806517
2.62025e-06;0.004875215264079421
2.62050e-06;0.0047847939433521705
2.62075e-06;0.004694372622624921
2.62100e-06;0.004603951301897824
2.62125e-06;0.004513529981170574
2.62150e-06;0.0044231086604433235
2.62175e-06;0.004323505083216751
2.62200e-06;0.004221571863245372
2.62225e-06;0.004119638643273821
2.62250e-06;0.004017705423302269
2.62275e-06;0.00391577220333089
2.62300e-06;0.0038138389833593375
2.62325e-06;0.003714668852162748
2.62350e-06;0.0036220192138205444
2.62375e-06;0.003529369575478184
2.62400e-06;0.003436719937135823
2.62425e-06;0.0033440702987934624
2.62450e-06;0.0032514206604512584
2.62475e-06;0.0031665551972388643
2.62500e-06;0.0031000592698777136
2.62525e-06;0.003033563342516676
2.62550e-06;0.0029670674151555253
2.62575e-06;0.0029005714877943746
2.62600e-06;0.0028340755604332243
2.62625e-06;0.0027725879810709202
2.62650e-06;0.0027229193840134585
2.62675e-06;0.0026732507869559967
2.62700e-06;0.0026271348799621927
2.62725e-06;0.002589402811512934
2.62750e-06;0.002551670743063675
2.62775e-06;0.002516488579383796
2.62800e-06;0.0024873238249086397
2.62825e-06;0.0024581590704334834
2.62850e-06;0.002433131314160275
2.62875e-06;0.0024178662797581783
2.62900e-06;0.0024026012453560557
2.62925e-06;0.002387336210953933
2.62950e-06;0.0023720711765518364
2.62975e-06;0.002356806142149714
2.63000e-06;0.002341541107747591
2.63025e-06;0.002326276073345469
2.63050e-06;0.002311011038943372
2.63075e-06;0.0023068040626808214
2.63100e-06;0.002305402641340748
2.63125e-06;0.0023040012200006774
2.63150e-06;0.002302599798660604
2.63175e-06;0.0023011983773205307
2.63200e-06;0.00229979695598046
2.63225e-06;0.0022983955346403866
2.63250e-06;0.0022969941133003133
2.63275e-06;0.0022970977748492565
2.63300e-06;0.002300753215954616
2.63325e-06;0.002304408657059982
2.63350e-06;0.0023080640981653477
2.63375e-06;0.0023117195392707074
2.63400e-06;0.002315374980376073
2.63425e-06;0.002319030421481439
2.63450e-06;0.00232309514526459
2.63475e-06;0.002328125717412889
2.63500e-06;0.002333156289561196
2.63525e-06;0.0023381868617095036
2.63550e-06;0.002343217433857802
2.63575e-06;0.0023482480060061095
2.63600e-06;0.0023532785781544166
2.63625e-06;0.0023638185263099238
2.63650e-06;0.0023873598109462944
2.63675e-06;0.002410901095582665
2.63700e-06;0.0024344423802190357
2.63725e-06;0.0024579836648553665
2.63750e-06;0.0024815249494917375
2.63775e-06;0.002505066234128108
2.63800e-06;0.002528607518764439
2.63825e-06;0.0025521488034008096
2.63850e-06;0.0025756900880371802
2.63875e-06;0.002599231372673551
2.63900e-06;0.0026429948878683896
2.63925e-06;0.0026918890125948477
2.63950e-06;0.0027407831373213063
2.63975e-06;0.0027896772620476817
2.64000e-06;0.0028385713867741403
2.64025e-06;0.0028874655115005985
2.64050e-06;0.0029363596362269742
2.64075e-06;0.0029852537609534324
2.64100e-06;0.0030341478856798906
2.64125e-06;0.003083042010406349
2.64150e-06;0.0031348097695016925
2.64175e-06;0.0031933588931848385
2.64200e-06;0.0032519080168679844
2.64225e-06;0.0033104571405510315
2.64250e-06;0.0033690062642341774
2.64275e-06;0.003427555387917324
2.64300e-06;0.0034861045116004697
2.64325e-06;0.003542548051477345
2.64350e-06;0.0035940227158376297
2.64375e-06;0.0036454973801979145
2.64400e-06;0.003696972044558112
2.64425e-06;0.003748446708918397
2.64450e-06;0.0037999213732786818
2.64475e-06;0.003851396037638879
2.64500e-06;0.0038940720849573473
2.64525e-06;0.003915984659137216
2.64550e-06;0.0039378972333170845
2.64575e-06;0.003959809807496916
2.64600e-06;0.003981722381676784
2.64625e-06;0.004003634955856653
2.64650e-06;0.004025547530036484
2.64675e-06;0.004047460104216353
2.64700e-06;0.004069372678396221
2.64725e-06;0.00409128525257609
2.64750e-06;0.004076140807336014
2.64775e-06;0.004051594575457572
2.64800e-06;0.00402704834357913
2.64825e-06;0.004002502111700729
2.64850e-06;0.003977955879822287
2.64875e-06;0.003953409647943844
2.64900e-06;0.003928863416065444
