Time(s);Current(A)
6.50000e-06;-0.00042895171050133204
6.50025e-06;-0.0004422922078907678
6.50050e-06;-0.0004556327052802488
6.50075e-06;-0.00047008452995865417
6.50100e-06;-0.00048549601359055156
6.50125e-06;-0.0005009074972225012
6.50150e-06;-0.0005163189808543986
6.50175e-06;-0.000531730464486296
6.50200e-06;-0.0005471484539694982
6.50225e-06;-0.000562737608548916
6.50250e-06;-0.000578326763128334
6.50275e-06;-0.0005939159177078047
6.50300e-06;-0.0006095050722872225
6.50325e-06;-0.0006250942268666933
6.50350e-06;-0.0006396476945614507
6.50375e-06;-0.0006533068206867268
6.50400e-06;-0.0006669659468120492
6.50425e-06;-0.0006794946069620402
6.50450e-06;-0.0006910470814235361
6.50475e-06;-0.0007007685926950661
6.50500e-06;-0.0007089090213853059
6.50525e-06;-0.0007136076384647634
6.50550e-06;-0.0007153341649989539
6.50575e-06;-0.0007134950165595736
6.50600e-06;-0.000708576818458351
6.50625e-06;-0.0007011277534220109
6.50650e-06;-0.0006898745797732694
6.50675e-06;-0.0006755056676150174
6.50700e-06;-0.0006576637521796592
6.50725e-06;-0.0006359713275419326
6.50750e-06;-0.0006103775174772682
6.50775e-06;-0.0005810744319466272
6.50800e-06;-0.0005483032338147512
6.50825e-06;-0.0005123051001302657
6.50850e-06;-0.0004733161918562594
6.50875e-06;-0.0004314751711083361
6.50900e-06;-0.0003867323945102141
6.50925e-06;-0.00033902553639743294
6.50950e-06;-0.0002884969154786828
6.50975e-06;-0.00023544105043759163
6.51000e-06;-0.000180183122635041
6.51025e-06;-0.00012304829709690896
6.51050e-06;-6.435862296374143e-05
6.51075e-06;-4.375036806982597e-06
6.51100e-06;5.6759508454221804e-05
6.51125e-06;0.0001190701329670189
6.51150e-06;0.0001819514907020418
6.51175e-06;0.0002449580288861964
6.51200e-06;0.0003080726635236069
6.51225e-06;0.00037118729816101734
6.51250e-06;0.0004332671898335225
6.51275e-06;0.0004944535550346604
6.51300e-06;0.0005540756669911569
6.51325e-06;0.000612347007085861
6.51350e-06;0.000668343624869087
6.51375e-06;0.00072237596295374
6.51400e-06;0.0007732596321988139
6.51425e-06;0.0008214243470250848
6.51450e-06;0.0008656849373838123
6.51475e-06;0.0009065742184649866
6.51500e-06;0.0009439960594166772
6.51525e-06;0.0009784236789558785
6.51550e-06;0.0010097689733150914
6.51575e-06;0.0010384526026676907
6.51600e-06;0.001063720470603319
6.51625e-06;0.0010860387429890653
6.51650e-06;0.001104651703239573
6.51675e-06;0.0011200650336418505
6.51700e-06;0.0011322303671261558
6.51725e-06;0.0011415909739082941
6.51750e-06;0.0011481285080411358
6.51775e-06;0.001152228248222254
6.51800e-06;0.0011527591846990824
6.51825e-06;0.0011502083697774166
6.51850e-06;0.0011476575548557593
6.51875e-06;0.0011411692249898486
6.51900e-06;0.0011312807523334062
6.51925e-06;0.0011213922796769972
6.51950e-06;0.0011085679022556944
6.51975e-06;0.0010932082975244402
6.52000e-06;0.001077848692793238
6.52025e-06;0.0010592873107873805
6.52050e-06;0.0010379611138994203
6.52075e-06;0.00101663491701146
6.52100e-06;0.0009953087201234276
6.52125e-06;0.0009739825232354673
6.52150e-06;0.0009525401069179184
6.52175e-06;0.0009280400261948661
6.52200e-06;0.0009035399454718969
6.52225e-06;0.0008790398647489276
6.52250e-06;0.0008545397840258753
6.52275e-06;0.0008300397033029061
6.52300e-06;0.0008067742211820358
6.52325e-06;0.0007845748458810452
6.52350e-06;0.0007623754705801299
6.52375e-06;0.0007401760952792146
6.52400e-06;0.000717976719978224
6.52425e-06;0.0006960635130013665
6.52450e-06;0.0006816792252531662
6.52475e-06;0.0006672949375050146
6.52500e-06;0.000652910649756863
6.52525e-06;0.0006385263620086627
6.52550e-06;0.0006241420742605112
6.52575e-06;0.0006136239970723923
6.52600e-06;0.0006064444895523182
6.52625e-06;0.0006014377056523008
6.52650e-06;0.0005983071230253918
6.52675e-06;0.0005974006928488864
6.52700e-06;0.0005984148740288122
6.52725e-06;0.0006016275322880241
6.52750e-06;0.0006067386305775312
6.52775e-06;0.0006139230619385035
6.52800e-06;0.0006228978683441074
6.52825e-06;0.0006338082291569456
6.52850e-06;0.0006463899896863743
6.52875e-06;0.0006611806130140301
6.52900e-06;0.0006778786447002765
6.52925e-06;0.0006945766763865229
6.52950e-06;0.0007135019788418904
6.52975e-06;0.0007343505853997862
6.53000e-06;0.0007551991919576819
6.53025e-06;0.0007782287370051145
6.53050e-06;0.0008031415770709712
6.53075e-06;0.0008280544171368281
6.53100e-06;0.0008529672572027692
6.53125e-06;0.000877880097268626
6.53150e-06;0.0009027929373344828
6.53175e-06;0.0009283665173546977
6.53200e-06;0.0009545106628769644
6.53225e-06;0.0009806548083992309
6.53250e-06;0.0010067989539215862
6.53275e-06;0.0010329430994438528
6.53300e-06;0.001059087244966208
6.53325e-06;0.0010827714900286868
6.53350e-06;0.0011043315494233743
6.53375e-06;0.0011258916088181348
6.53400e-06;0.0011474516682128222
6.53425e-06;0.0011690117276075096
6.53450e-06;0.00119057178700227
6.53475e-06;0.0012093875282107973
6.53500e-06;0.001225833481920181
6.53525e-06;0.0012422794356296205
6.53550e-06;0.0012587253893390044
6.53575e-06;0.0012751713430483882
6.53600e-06;0.0012916172967578276
6.53625e-06;0.0013073990627368566
6.53650e-06;0.0013226072859727832
6.53675e-06;0.001337815509208761
6.53700e-06;0.0013530237324446877
6.53725e-06;0.0013682319556806656
6.53750e-06;0.001383440178916592
6.53775e-06;0.0013986484021525185
6.53800e-06;0.0014138566253884964
6.53825e-06;0.001429064848624423
6.53850e-06;0.0014442730718603493
6.53875e-06;0.0014594812950963273
6.53900e-06;0.0014746895183322538
6.53925e-06;0.0014898977415681804
6.53950e-06;0.0015051059648041583
6.53975e-06;0.0015201805948985667
6.54000e-06;0.0015351398639687661
6.54025e-06;0.0015500991330390165
6.54050e-06;0.001565058402109216
6.54075e-06;0.0015800176711794156
6.54100e-06;0.0015949769402496658
6.54125e-06;0.0016099362093198654
6.54150e-06;0.0016248954783901156
6.54175e-06;0.0016398547474603153
6.54200e-06;0.0016548140165305147
6.54225e-06;0.001669773285600765
6.54250e-06;0.0016847325546709645
6.54275e-06;0.0016996918237411642
6.54300e-06;0.0017146510928114143
6.54325e-06;0.0017276795254834937
6.54350e-06;0.0017390406325584597
6.54375e-06;0.0017504017396334642
6.54400e-06;0.0017617628467084302
6.54425e-06;0.0017731239537833962
6.54450e-06;0.0017844850608584007
6.54475e-06;0.0017909411621075274
6.54500e-06;0.0017931616679560543
6.54525e-06;0.0017953821738045889
6.54550e-06;0.0017976026796531158
6.54575e-06;0.0017998231855016504
6.54600e-06;0.0018020436913501773
6.54625e-06;0.001798431285958891
6.54650e-06;0.001789782015598193
6.54675e-06;0.0017811327452375246
6.54700e-06;0.0017681299897663628
6.54725e-06;0.0017513678908479475
6.54750e-06;0.0017346057919295891
6.54775e-06;0.0017135240252589578
6.54800e-06;0.001688712117277041
6.54825e-06;0.0016639002092952082
6.54850e-06;0.0016354670119852932
6.54875e-06;0.0016039067406276898
6.54900e-06;0.001572346469270193
6.54925e-06;0.0015363397945748266
6.54950e-06;0.0014964935392153547
6.54975e-06;0.0014566472838560178
6.55000e-06;0.0014168010284965461
6.55025e-06;0.0013769547731372093
6.55050e-06;0.0013368933131457587
6.55075e-06;0.0012911699466791823
6.55100e-06;0.001245446580212761
6.55125e-06;0.0011997232137463394
6.55150e-06;0.001153999847279763
6.55175e-06;0.0011082764808133417
6.55200e-06;0.0010626058015790348
6.55225e-06;0.0010169806190893091
6.55250e-06;0.0009713554365997377
6.55275e-06;0.0009257302541101665
6.55300e-06;0.0008803045757817544
6.55325e-06;0.000840127733834002
6.55350e-06;0.0007999508918862498
6.55375e-06;0.0007597740499383612
6.55400e-06;0.0007195972079906089
6.55425e-06;0.000683257503058842
6.55450e-06;0.000650231262059963
6.55475e-06;0.0006202720878252288
6.55500e-06;0.0005929614025705028
6.55525e-06;0.0005679138669698401
6.55550e-06;0.0005463416804973318
6.55575e-06;0.0005276490424758653
6.55600e-06;0.0005119196739687211
6.55625e-06;0.0004992371924121471
6.55650e-06;0.0004896831650710766
6.55675e-06;0.0004832919963519454
6.55700e-06;0.00047998647869408476
6.55725e-06;0.0004796227949218352
6.55750e-06;0.0004820915410324809
6.55775e-06;0.0004873289108397824
6.55800e-06;0.0004952821348363243
6.55825e-06;0.0005058984832755083
6.55850e-06;0.0005197880411323276
6.55875e-06;0.0005354482302244868
6.55900e-06;0.000553556965765548
6.55925e-06;0.000573780082500613
6.55950e-06;0.0005960807959185814
6.55975e-06;0.0006201755661154067
6.56000e-06;0.0006464295975425428
6.56025e-06;0.0006745482051306552
6.56050e-06;0.0007026668127187675
6.56075e-06;0.0007330157542129878
6.56100e-06;0.0007652906449040297
6.56125e-06;0.0007975655355950716
6.56150e-06;0.000829840426286223
6.56175e-06;0.0008621153169772649
6.56200e-06;0.0008948295251378393
6.56225e-06;0.0009279230949382091
6.56250e-06;0.0009610166647384668
6.56275e-06;0.0009941102345388366
6.56300e-06;0.0010272038043390942
6.56325e-06;0.0010586623381854262
6.56350e-06;0.0010887089775286308
6.56375e-06;0.0011187556168717335
6.56400e-06;0.001146213229252825
6.56425e-06;0.0011714351519982178
6.56450e-06;0.001196657074743525
6.56475e-06;0.0012183034886171947
6.56500e-06;0.0012368623610152466
6.56525e-06;0.0012506854705539884
6.56550e-06;0.0012604191302349212
6.56575e-06;0.0012652467012673025
6.56600e-06;0.0012658377418562179
6.56625e-06;0.0012616925822924304
6.56650e-06;0.0012534575952570088
6.56675e-06;0.0012402787561621663
6.56700e-06;0.0012228307769726516
6.56725e-06;0.0011998668409819236
6.56750e-06;0.0011721397381211152
6.56775e-06;0.0011392662538741126
6.56800e-06;0.0011019487403858795
6.56825e-06;0.0010600674765308038
6.56850e-06;0.0010142452999140096
6.56875e-06;0.0009642054594416994
6.56900e-06;0.0009105235605795759
6.56925e-06;0.0008527417859693112
6.56950e-06;0.0007914196659510078
6.56975e-06;0.0007267053046532728
6.57000e-06;0.0006590616580365549
6.57025e-06;0.000588866825956854
6.57050e-06;0.0005164689813237665
6.57075e-06;0.0004422126318223448
6.57100e-06;0.00036635141681299076
6.57125e-06;0.000289181394293431
6.57150e-06;0.00021088118370435368
6.57175e-06;0.0001321912119231742
6.57200e-06;5.316467158903565e-05
6.57225e-06;-2.552706206136429e-05
6.57250e-06;-0.00010337388180977377
6.57275e-06;-0.00017997025898574116
6.57300e-06;-0.000254953804171803
6.57325e-06;-0.0003279612697546435
6.57350e-06;-0.00039854839152002986
6.57375e-06;-0.0004662125004420094
6.57400e-06;-0.0005304393119562049
6.57425e-06;-0.0005907146770962426
6.57450e-06;-0.0006465433945979069
6.57475e-06;-0.0006969489430246327
6.57500e-06;-0.0007445395556914754
6.57525e-06;-0.0007899388753842066
6.57550e-06;-0.0008313747340101258
6.57575e-06;-0.0008710220382302508
6.57600e-06;-0.0009074145674826548
6.57625e-06;-0.0009409965170203885
6.57650e-06;-0.0009708748879768621
6.57675e-06;-0.0009975551260561417
6.57700e-06;-0.0010213941125722735
6.57725e-06;-0.0010427796071918814
6.57750e-06;-0.001061376835635003
6.57775e-06;-0.0010775663263904568
6.57800e-06;-0.0010937558171458558
6.57825e-06;-0.0011061659265870593
6.57850e-06;-0.001115312445592389
6.57875e-06;-0.0011244589645976876
6.57900e-06;-0.0011306203937378875
6.57925e-06;-0.00113420412300502
6.57950e-06;-0.0011377878522721404
6.57975e-06;-0.001139661841012318
6.58000e-06;-0.0011400594259796065
6.58025e-06;-0.0011396505780144946
6.58050e-06;-0.004175793727964875
6.58075e-06;-0.009250270360712206
6.58100e-06;-0.010947429051446338
6.58125e-06;-0.009858748370664253
6.58150e-06;-0.007120938968250368
6.58175e-06;-0.003343484849367627
6.58200e-06;-0.0014815088035890504
6.58225e-06;-0.001598428953393982
6.58250e-06;-0.0034032188668091873
6.58275e-06;-0.006209680941388968
6.58300e-06;-0.0073474789089482805
6.58325e-06;-0.006690785599545458
6.58350e-06;-0.004935431701244368
6.58375e-06;-0.0026537367299489193
6.58400e-06;-0.0014212946663167618
6.58425e-06;-0.0014630389436718631
6.58450e-06;-0.0025844109713882863
6.58475e-06;-0.0042845858214846134
6.58500e-06;-0.005212028185930232
6.58525e-06;-0.004813922559711313
6.58550e-06;-0.0036205087244898194
6.58575e-06;-0.001976253606415432
6.58600e-06;-0.0008010420315460177
6.58625e-06;-0.0005000148194883758
6.58650e-06;-0.0010783240976995152
6.58675e-06;-0.002173912732901406
6.58700e-06;-0.0029205565215119646
6.58725e-06;-0.00291964136420232
6.58750e-06;-0.0022084506153452663
6.58775e-06;-0.0011446624372182794
6.58800e-06;-0.00037584607139118744
6.58825e-06;-0.00015356124143078148
6.58850e-06;-0.00048114730699023664
6.58875e-06;-0.0011319367758839125
6.58900e-06;-0.0015634897934200464
6.58925e-06;-0.0015263150574937538
6.58950e-06;-0.0010439787294513109
6.58975e-06;-0.00034073190952674953
6.59000e-06;0.0001776141532466557
6.59025e-06;0.000353332490729332
6.59050e-06;0.00018418723704538342
6.59075e-06;-0.00018798886734613872
6.59100e-06;-0.00042358662545238633
6.59125e-06;-0.00036652285737418834
6.59150e-06;-3.176448371853516e-05
6.59175e-06;0.00044001920784476347
6.59200e-06;0.000794447267703856
6.59225e-06;0.000932554101571891
6.59250e-06;0.0008527776209808048
6.59275e-06;0.0006437956233394501
6.59300e-06;0.0005181585549168765
6.59325e-06;0.0005734419749637755
6.59350e-06;0.0008000715444299034
6.59375e-06;0.0011097371728841774
6.59400e-06;0.0013429110588045292
6.59425e-06;0.0014374272112283473
6.59450e-06;0.001392151701550811
6.59475e-06;0.0012626300577268745
6.59500e-06;0.0011823859346068355
6.59525e-06;0.0012131328504115647
6.59550e-06;0.0013492341400553965
6.59575e-06;0.0015355062329935401
6.59600e-06;0.0016721283569668126
6.59625e-06;0.0017202732464084308
6.59650e-06;0.0016793455458778675
6.59675e-06;0.0015842523501055541
6.59700e-06;0.001518740603178855
6.59725e-06;0.0015215699728242207
6.59750e-06;0.0015893101456653487
6.59775e-06;0.0016874964401167958
6.59800e-06;0.0017537078953713326
6.59825e-06;0.0017637337433850256
6.59850e-06;0.0017173126811236361
6.59875e-06;0.0016364211066750174
6.59900e-06;0.0015736250570445882
6.59925e-06;0.001553307206349495
6.59950e-06;0.0015734213748407645
6.59975e-06;0.0016124826748862811
6.60000e-06;0.0016314969768105657
6.60025e-06;0.0016154073973647057
6.60050e-06;0.0015641598584282736
6.60075e-06;0.0014916292948121289
6.60100e-06;0.001430849749300511
6.60125e-06;0.0013971987951179412
6.60150e-06;0.001389498542485061
6.60175e-06;0.0013943953823490015
6.60200e-06;0.001387569665511954
6.60225e-06;0.0013596976349697842
6.60250e-06;0.0013108534237591932
6.60275e-06;0.0012498360211804756
6.60300e-06;0.0011974442870354286
6.60325e-06;0.0011634158226353304
6.60350e-06;0.0011471172483461217
6.60375e-06;0.001140288883373121
6.60400e-06;0.0011278030689206885
6.60425e-06;0.0011039262980347298
6.60450e-06;0.0010693932251296314
6.60475e-06;0.0010290159677376841
6.60500e-06;0.000992797046660422
6.60525e-06;0.0009691309044510477
6.60550e-06;0.0009557790589403949
6.60575e-06;0.0009475478054043007
6.60600e-06;0.0009350087167923817
6.60625e-06;0.000914618499993988
6.60650e-06;0.0008865030975442602
6.60675e-06;0.0008540371321053552
6.60700e-06;0.000824892603118109
6.60725e-06;0.0008022509149781231
6.60750e-06;0.0007852634014366306
6.60775e-06;0.0007709923963798321
6.60800e-06;0.0007547485896029178
6.60825e-06;0.0007325331730501215
6.60850e-06;0.0007051919553755266
6.60875e-06;0.0006748866989597659
6.60900e-06;0.0006464707786323069
6.60925e-06;0.000621984408691038
6.60950e-06;0.0006009405622663017
6.60975e-06;0.0005815485927214229
6.61000e-06;0.0005609280574640202
6.61025e-06;0.0005366074386678292
6.61050e-06;0.0005091700905658886
6.61075e-06;0.00048001803271626
6.61100e-06;0.0004522390388834959
6.61125e-06;0.00042715849607293926
6.61150e-06;0.00040464950134264875
6.61175e-06;0.00038353113481133337
6.61200e-06;0.0003615821618634955
6.61225e-06;0.0003380282094691305
6.61250e-06;0.0003129968658688083
6.61275e-06;0.0002874140549342917
6.61300e-06;0.00026326158350197047
6.61325e-06;0.0002414171050359719
6.61350e-06;0.00022184855126036393
6.61375e-06;0.00020386366849070334
6.61400e-06;0.00018611862934257492
6.61425e-06;0.00016817602129982678
6.61450e-06;0.00015014477482921352
6.61475e-06;0.00013246095078438212
6.61500e-06;0.00011581928279862504
6.61525e-06;0.00010008693791851257
6.61550e-06;8.494117609113444e-05
6.61575e-06;6.995510108614022e-05
6.61600e-06;5.4335668320343335e-05
6.61625e-06;3.785768116946089e-05
6.61650e-06;2.0638171339386277e-05
6.61675e-06;2.9990833562971544e-06
6.61700e-06;-1.4575669449748285e-05
6.61725e-06;-3.2120556004343346e-05
6.61750e-06;-4.978899559342597e-05
6.61775e-06;-6.779964585953836e-05
6.61800e-06;-8.660046349297324e-05
6.61825e-06;-0.00010628369150592157
6.61850e-06;-0.00012675563223649687
6.61875e-06;-0.00014774261538168945
6.61900e-06;-0.00016884758617754424
6.61925e-06;-0.00019021025369279725
6.61950e-06;-0.00021157292120812268
6.61975e-06;-0.00023329846277057517
6.62000e-06;-0.00025581655720559895
6.62025e-06;-0.000278334651640699
6.62050e-06;-0.0003010107812007021
6.62075e-06;-0.00032403207513174303
6.62100e-06;-0.0003470533690628619
6.62125e-06;-0.0003700746629939029
6.62150e-06;-0.0003930959569249438
6.62175e-06;-0.00041611725085606273
6.62200e-06;-0.00043814264190628483
6.62225e-06;-0.00045994055896989353
6.62250e-06;-0.0004817384760335761
6.62275e-06;-0.0005035363930971849
6.62300e-06;-0.0005253343101608674
6.62325e-06;-0.0005462704729791725
6.62350e-06;-0.000565324479143445
6.62375e-06;-0.0005843784853077822
6.62400e-06;-0.0006027494349796568
6.62425e-06;-0.0006196285215951745
6.62450e-06;-0.0006356806336114105
6.62475e-06;-0.0006499265511663553
6.62500e-06;-0.0006624547014883302
6.62525e-06;-0.0006712310779779098
6.62550e-06;-0.0006779766662659246
6.62575e-06;-0.0006802868119122583
6.62600e-06;-0.0006807276613407006
6.62625e-06;-0.0006770857826203277
6.62650e-06;-0.0006720937439002934
6.62675e-06;-0.0006631628106629555
6.62700e-06;-0.0006509410885180086
6.62725e-06;-0.0006350882682156436
6.62750e-06;-0.0006155777165397925
6.62775e-06;-0.0005926166403078353
6.62800e-06;-0.0005664639405360561
6.62825e-06;-0.0005373442470093592
6.62850e-06;-0.0005054535397934122
6.62875e-06;-0.0004709033511642583
6.62900e-06;-0.00043363578563665196
6.62925e-06;-0.0003935941311917152
6.62950e-06;-0.000350918119780348
6.62975e-06;-0.0003058939304844443
6.63000e-06;-0.0002588401431988126
6.63025e-06;-0.000210053836398507
6.63050e-06;-0.00015981410118714437
6.63075e-06;-0.00010834714158172842
6.63100e-06;-5.577302216683644e-05
6.63125e-06;-2.212515360852465e-06
6.63150e-06;5.2104496533314615e-05
6.63175e-06;0.00010680884206321362
6.63200e-06;0.00016151318759311263
6.63225e-06;0.0002160317698302377
6.63250e-06;0.00026987959502548184
6.63275e-06;0.00032280733892078736
6.63300e-06;0.00037458361394545773
6.63325e-06;0.00042497658172891464
6.63350e-06;0.0004736773723728677
6.63375e-06;0.0005203196718318825
6.63400e-06;0.0005645245329365898
6.63425e-06;0.0006059213807835302
6.63450e-06;0.0006441411979232691
6.63475e-06;0.0006787931766609235
6.63500e-06;0.0007094637855301706
6.63525e-06;0.0007358192990791988
6.63550e-06;0.0007577048167207206
6.63575e-06;0.0007750642311660445
6.63600e-06;0.0007878486682501054
6.63625e-06;0.0007960147190558689
6.63650e-06;0.0007995197904133944
6.63675e-06;0.0007983077149856727
6.63700e-06;0.0007923080910297235
6.63725e-06;0.0007815005414441099
6.63750e-06;0.0007659766802800254
6.63775e-06;0.0007458899983098816
6.63800e-06;0.0007213986000851675
6.63825e-06;0.0006926638382368486
6.63850e-06;0.0006598477306141541
6.63875e-06;0.0006231037432041347
6.63900e-06;0.0005825764398972506
6.63925e-06;0.0005384416370580776
6.63950e-06;0.0004909453045121513
6.63975e-06;0.0004403722225528259
6.64000e-06;0.0003870099897254706
6.64025e-06;0.0003311482935503564
6.64050e-06;0.0002730771214384861
6.64075e-06;0.00021308115502990122
6.64100e-06;0.00015143942147769165
6.64125e-06;8.845055782164449e-05
6.64150e-06;2.4457153505581273e-05
6.64175e-06;-4.014011142540558e-05
6.64200e-06;-0.00010492762453619226
6.64225e-06;-0.00016971513764719843
6.64250e-06;-0.00023403221077084632
6.64275e-06;-0.0002973218079356858
6.64300e-06;-0.000359694950889757
6.64325e-06;-0.0004200664670457673
6.64350e-06;-0.0004794364413251701
6.64375e-06;-0.0005357759695346537
6.64400e-06;-0.0005892996186429904
6.64425e-06;-0.0006395875935466256
6.64450e-06;-0.0006862328783675003
6.64475e-06;-0.000728387619736653
6.64500e-06;-0.0007665800525762059
6.64525e-06;-0.0008025399144971423
