Time(s);Current(A)
1.25000e-05;0.000193023518605386
1.25003e-05;0.0002093293751707093
1.25005e-05;0.00022575417039523974
1.25008e-05;0.0002421789656198815
1.25010e-05;0.0002592761189410891
1.25012e-05;0.0002764533815754773
1.25015e-05;0.0002936306442099819
1.25018e-05;0.00031080790684448646
1.25020e-05;0.0003291700068028798
1.25023e-05;0.0003476732763326559
1.25025e-05;0.00036617654586255737
1.25028e-05;0.0003846798153924588
1.25030e-05;0.00040341605406083174
1.25033e-05;0.00042218005025587983
1.25035e-05;0.0004409592855998053
1.25038e-05;0.00045974033663937375
1.25040e-05;0.0004785968812783709
1.25043e-05;0.0004973920762025362
1.25045e-05;0.0005160029374433634
1.25048e-05;0.0005343113523617422
1.25050e-05;0.000552199165602805
1.25053e-05;0.0005695853512881527
1.25055e-05;0.0005864684116549598
1.25058e-05;0.0006028574616276071
1.25060e-05;0.0006186875950957354
1.25063e-05;0.0006338470951078608
1.25065e-05;0.0006482197209650285
1.25068e-05;0.0006616894400112915
1.25070e-05;0.0006741401403571438
1.25073e-05;0.0006852639861054514
1.25075e-05;0.0006943692409286938
1.25078e-05;0.0007007852787744118
1.25080e-05;0.000704293286164182
1.25083e-05;0.0007049381708221187
1.25085e-05;0.000702790008575053
1.25088e-05;0.0006979189854681866
1.25090e-05;0.0006903952479299281
1.25093e-05;0.0006801688433766526
1.25095e-05;0.0006654753832522503
1.25097e-05;0.0006502840568688519
1.25100e-05;0.0006293326182690381
1.25103e-05;0.0006076948807508617
1.25105e-05;0.0005821048725720309
1.25108e-05;0.0005536318095797852
1.25110e-05;0.0005226260421659562
1.25113e-05;0.0004891993010097289
1.25115e-05;0.00045331259954414674
1.25118e-05;0.00041493523161581725
1.25120e-05;0.0003742138043970077
1.25123e-05;0.0003313984171101
1.25125e-05;0.0002867490251681627
1.25128e-05;0.00024052555797973949
1.25130e-05;0.0001929879548576492
1.25133e-05;0.00014434898291543162
1.25135e-05;9.472707133495064e-05
1.25138e-05;4.424585442192659e-05
1.25140e-05;-6.860019116895911e-06
1.25143e-05;-5.818845233402895e-05
1.25145e-05;-0.00010953581168890965
1.25148e-05;-0.00016088317104413828
1.25150e-05;-0.00021107862853301861
1.25153e-05;-0.00026113683856846545
1.25155e-05;-0.00030921199584467597
1.25158e-05;-0.0003570508787370685
1.25160e-05;-0.0004019677198456263
1.25163e-05;-0.0004465364090364089
1.25165e-05;-0.00048817940268870296
1.25168e-05;-0.0005271253418240224
1.25170e-05;-0.0005631446416923072
1.25173e-05;-0.0005952317792702277
1.25175e-05;-0.000626887986553972
1.25178e-05;-0.0006557651556033843
1.25180e-05;-0.0006843112111494147
1.25182e-05;-0.0007095011432172172
1.25185e-05;-0.0007342912039236539
1.25188e-05;-0.0007590812646300905
1.25190e-05;-0.0007788330789469793
1.25193e-05;-0.0007979846023457059
1.25195e-05;-0.0008171361257445622
1.25198e-05;-0.0008330455072174929
1.25200e-05;-0.0008485685978655421
1.25203e-05;-0.0008640916885136966
1.25205e-05;-0.0008766074310848893
1.25208e-05;-0.0008887648577661766
1.25210e-05;-0.0009009222844475461
1.25213e-05;-0.0009083411419953204
1.25215e-05;-0.0009151954142099698
1.25218e-05;-0.0009220496864246656
1.25220e-05;-0.0009289039586393614
1.25223e-05;-0.0009357582308540107
1.25225e-05;-0.0009426125030687065
1.25228e-05;-0.0009494667752834023
1.25230e-05;-0.0009563210474980517
1.25233e-05;-0.0009590249206132
1.25235e-05;-0.0009612342869706196
1.25238e-05;-0.0009634436533280243
1.25240e-05;-0.0009656530196854439
1.25243e-05;-0.0009678623860428636
1.25245e-05;-0.0009700717524002683
1.25248e-05;-0.0009722811187576879
1.25250e-05;-0.0009744904851151075
1.25253e-05;-0.0009750172250681883
1.25255e-05;-0.0009753434854751266
1.25258e-05;-0.000975669745882065
1.25260e-05;-0.000975996006289001
1.25263e-05;-0.0009762446071583916
1.25265e-05;-0.0009763735306597974
1.25267e-05;-0.0009765024541612021
1.25270e-05;-0.0009766313776626077
1.25273e-05;-0.0009767603011640133
1.25275e-05;-0.0009750233849036067
1.25278e-05;-0.0009730641598123944
1.25280e-05;-0.0009711049347211688
1.25283e-05;-0.0009691457096299433
1.25285e-05;-0.000967186484538731
1.25288e-05;-0.0009652272594475054
1.25290e-05;-0.0009616910059239998
1.25293e-05;-0.0009557244699397103
1.25295e-05;-0.0009497579339553806
1.25298e-05;-0.0009437913979710508
1.25300e-05;-0.0009378248619867613
1.25303e-05;-0.0009318583260024316
1.25305e-05;-0.0009258917900181018
1.25308e-05;-0.0009170120310728781
1.25310e-05;-0.0009077851709436037
1.25313e-05;-0.0008985583108143293
1.25315e-05;-0.0008893314506851173
1.25318e-05;-0.0008802094663349776
1.25320e-05;-0.0008710999775979792
1.25323e-05;-0.0008608569946370329
1.25325e-05;-0.004515632752537084
1.25328e-05;-0.01972283974452162
1.25330e-05;-0.017523082219134435
1.25333e-05;-0.014583290955444255
1.25335e-05;-0.00997479868471736
1.25338e-05;0.0022645696453844656
1.25340e-05;0.002118081077234601
1.25343e-05;0.0016756224190295557
1.25345e-05;-0.0003826560294093778
1.25348e-05;-0.01212079407090461
1.25350e-05;-0.010275403542564412
1.25352e-05;-0.006935275507867959
1.25355e-05;-0.0031741352831741627
1.25358e-05;0.0011579771091099135
1.25360e-05;0.003201349542299762
1.25363e-05;0.002218158660799317
1.25365e-05;-0.0006577849321418746
1.25368e-05;-0.004061913579398882
1.25370e-05;-0.005425442616095135
1.25373e-05;-0.00406881364846186
1.25375e-05;-0.0014767032321530043
1.25378e-05;0.0011929125212306719
1.25380e-05;0.0024353986779511727
1.25383e-05;0.0018974779757846205
1.25385e-05;0.0007303935138668499
1.25388e-05;-0.0015778967842021397
1.25390e-05;-0.003223911431239633
1.25393e-05;-0.002472602045070435
1.25395e-05;-0.0008212743893580525
1.25398e-05;0.0008694545548643581
1.25400e-05;0.001793447244270358
1.25403e-05;0.0014841523001708832
1.25405e-05;0.0003682710741985366
1.25408e-05;-0.0009950332676742207
1.25410e-05;-0.0016988705013898473
1.25413e-05;-0.0012784292298576368
1.25415e-05;-0.00027719247426081703
1.25418e-05;0.0007780177668678305
1.25420e-05;0.0013532650925094352
1.25423e-05;0.0011562999965587907
1.25425e-05;0.0004544156119943381
1.25428e-05;-0.00040214172126529164
1.25430e-05;-0.0008453456090893274
1.25433e-05;-0.0005841212906571734
1.25435e-05;4.101826823749421e-05
1.25437e-05;0.0007000305623712495
1.25440e-05;0.0010584500017653535
1.25443e-05;0.0009332293410672509
1.25445e-05;0.0004918207031133983
1.25448e-05;-4.637784215934509e-05
1.25450e-05;-0.0003255762082807894
1.25453e-05;-0.00016348986890713188
1.25455e-05;0.0002265423557827114
1.25458e-05;0.0006377602836837648
1.25460e-05;0.0008606527565232312
1.25463e-05;0.00078057215880753
1.25465e-05;0.0005024241603802765
1.25468e-05;0.00016364255170310256
1.25470e-05;-1.2936991865195308e-05
1.25473e-05;8.664401863634594e-05
1.25475e-05;0.00032819797952531786
1.25478e-05;0.0005816486240478876
1.25480e-05;0.0007155663051877081
1.25483e-05;0.0006582018042550819
1.25485e-05;0.0004753719351752396
1.25488e-05;0.0002532622108451975
1.25490e-05;0.00013154354569811305
1.25493e-05;0.00018167679228823464
1.25495e-05;0.0003196850182412406
1.25498e-05;0.0004641742298954146
1.25500e-05;0.0005329101909148933
1.25503e-05;0.0004810482644994864
1.25505e-05;0.0003499152146934749
1.25508e-05;0.00019359237353793938
1.25510e-05;9.965781583253733e-05
1.25513e-05;0.00011295687990997218
1.25515e-05;0.00018096929348065607
1.25518e-05;0.00025279746580738705
1.25520e-05;0.00027702218879107693
1.25522e-05;0.00022564868962135493
1.25525e-05;0.00012465992357973846
1.25528e-05;8.02561642842708e-06
1.25530e-05;-6.930626308923157e-05
1.25533e-05;-7.915923522794988e-05
1.25535e-05;-5.434630647161104e-05
1.25538e-05;-2.6661055076977587e-05
1.25540e-05;-2.8220870765323457e-05
1.25543e-05;-7.646783373809477e-05
1.25545e-05;-0.00015503237207306465
1.25548e-05;-0.00024254372653779625
1.25550e-05;-0.00030449292951796017
1.25553e-05;-0.0003231430323051677
1.25555e-05;-0.0003189606532518835
1.25558e-05;-0.00031177199820284424
1.25560e-05;-0.00032160429058332636
1.25563e-05;-0.00035929072900344356
1.25565e-05;-0.00041448487714537517
1.25568e-05;-0.0004737086702356976
1.25570e-05;-0.0005152707692641724
1.25573e-05;-0.0005281442549145702
1.25575e-05;-0.0005255461151057253
1.25578e-05;-0.000520378481048985
1.25580e-05;-0.0005254263897708378
1.25583e-05;-0.0005475264134662903
1.25585e-05;-0.0005802179864816825
1.25588e-05;-0.0006150795650359687
1.25590e-05;-0.0006385457820537416
1.25593e-05;-0.0006437324208314969
1.25595e-05;-0.0006389415518999764
1.25598e-05;-0.0006322772276165131
1.25600e-05;-0.0006317693894983402
1.25603e-05;-0.0006417213634925344
1.25605e-05;-0.000658107117121555
1.25607e-05;-0.0006756726738560072
1.25610e-05;-0.0006859426638755195
1.25613e-05;-0.0006846272649992656
1.25615e-05;-0.0006769492514141568
1.25618e-05;-0.0006680070187031176
1.25620e-05;-0.0006628520372353435
1.25623e-05;-0.000664200929323632
1.25625e-05;-0.0006695529346463853
1.25628e-05;-0.0006756383883819535
1.25630e-05;-0.0006771700436338557
1.25633e-05;-0.0006714828834396139
1.25635e-05;-0.0006618705370626842
1.25638e-05;-0.0006515483985706688
1.25640e-05;-0.0006437021978916119
1.25643e-05;-0.0006400549146441308
1.25645e-05;-0.000638918326386582
1.25648e-05;-0.0006385244933528429
1.25650e-05;-0.0006356645405171034
1.25653e-05;-0.0006283236561335338
1.25655e-05;-0.0006188912612025926
1.25658e-05;-0.0006091599298280964
1.25660e-05;-0.0006010701531390957
1.25663e-05;-0.0005960677047695891
1.25665e-05;-0.0005930368203188134
1.25668e-05;-0.0005907461451350475
1.25670e-05;-0.0005871622708357157
1.25673e-05;-0.0005812583344315597
1.25675e-05;-0.0005745739882796367
1.25678e-05;-0.0005680672740082993
1.25680e-05;-0.0005628875431361346
1.25683e-05;-0.0005601815191681751
1.25685e-05;-0.0005589901582054136
1.25688e-05;-0.0005583341966720231
1.25690e-05;-0.0005576782351386327
1.25692e-05;-0.0005562849557589247
1.25695e-05;-0.0005542926664325589
1.25698e-05;-0.0005526314779977439
1.25700e-05;-0.0005522897505764321
1.25703e-05;-0.0005535179613255326
1.25705e-05;-0.0005555010731653745
1.25708e-05;-0.0005583823911856984
1.25710e-05;-0.0005612637092060027
1.25713e-05;-0.0005637914307952253
1.25715e-05;-0.0005663348098203662
1.25718e-05;-0.0005693974058993144
1.25720e-05;-0.0005724600019782834
1.25723e-05;-0.0005763626066582342
1.25725e-05;-0.0005814212757779051
1.25728e-05;-0.00058666626623942
1.25730e-05;-0.0005919112567009348
1.25733e-05;-0.0005971562471624141
1.25735e-05;-0.0006024506950212406
1.25738e-05;-0.0006078039889202733
1.25740e-05;-0.0006131572828192699
1.25743e-05;-0.0006185105767183026
1.25745e-05;-0.0006238638706173355
1.25748e-05;-0.0006290183577672878
1.25750e-05;-0.0006341638373818238
1.25753e-05;-0.0006393093169963597
1.25755e-05;-0.0006444547966108609
1.25758e-05;-0.0006490858047846434
1.25760e-05;-0.0006531046778939925
1.25763e-05;-0.0006571235510033145
1.25765e-05;-0.0006611424241126637
1.25768e-05;-0.0006636661471497154
1.25770e-05;-0.0006661221279327658
1.25773e-05;-0.0006685781087158329
1.25775e-05;-0.0006705828974015171
1.25777e-05;-0.000672050842869604
1.25780e-05;-0.0006735187883377008
1.25783e-05;-0.0006749867338057976
1.25785e-05;-0.0006764546792738945
1.25788e-05;-0.0006774754271132255
1.25790e-05;-0.0006784759133240419
1.25793e-05;-0.0006794763995348584
1.25795e-05;-0.0006804768857456681
1.25798e-05;-0.0006814796116013814
1.25800e-05;-0.0006824850022603567
1.25803e-05;-0.000683490392919325
1.25805e-05;-0.0006844957835783003
1.25808e-05;-0.0006855011742372755
1.25810e-05;-0.0006865065648962437
1.25813e-05;-0.000687511955555219
1.25815e-05;-0.0006885173462141942
1.25818e-05;-0.0006895227368731626
1.25820e-05;-0.0006905281275321378
1.25823e-05;-0.000691533518191113
1.25825e-05;-0.0006925389088500814
1.25828e-05;-0.0006935442995090565
1.25830e-05;-0.0006940675274982055
1.25833e-05;-0.0006945689096628595
1.25835e-05;-0.0006950702918275169
1.25838e-05;-0.0006955716739921742
1.25840e-05;-0.0006960730561568283
1.25843e-05;-0.0006965744383214856
1.25845e-05;-0.000697075820486143
1.25848e-05;-0.000697577202650797
1.25850e-05;-0.0006980785848154544
1.25853e-05;-0.0006985799669801118
1.25855e-05;-0.0006990813491447658
1.25858e-05;-0.0006995827313094232
1.25860e-05;-0.000699614158937529
1.25862e-05;-0.0006990864191798607
1.25865e-05;-0.0006984019719129779
1.25868e-05;-0.000697399307526103
1.25870e-05;-0.0006960544409909316
1.25873e-05;-0.0006935477705650327
1.25875e-05;-0.0006899212586671409
1.25878e-05;-0.0006839891887029332
1.25880e-05;-0.0006753138898166184
1.25883e-05;-0.0006643312253649169
1.25885e-05;-0.0006506031813691194
1.25888e-05;-0.0006347719261672833
1.25890e-05;-0.0006164382010017075
1.25893e-05;-0.0005964756002252409
1.25895e-05;-0.0005732106731131987
1.25898e-05;-0.0005468567305144212
1.25900e-05;-0.0005173686553484242
1.25903e-05;-0.00048493700144892145
1.25905e-05;-0.00044978124381999805
1.25908e-05;-0.0004121197274629297
1.25910e-05;-0.00037215717756606983
1.25913e-05;-0.00032999500909148996
1.25915e-05;-0.0002855458839253523
1.25918e-05;-0.00023871037508597196
1.25920e-05;-0.0001896050545535397
1.25923e-05;-0.00013849418282796814
1.25925e-05;-8.566003225680177e-05
1.25928e-05;-3.138416624246958e-05
1.25930e-05;2.4060377837066186e-05
1.25933e-05;8.046530252460854e-05
1.25935e-05;0.00013774057166432004
1.25938e-05;0.00019580369025334375
1.25940e-05;0.0002544368780881594
1.25943e-05;0.0003133298940467081
1.25945e-05;0.0003721612170980203
1.25947e-05;0.0004306097747975386
1.25950e-05;0.0004883598724400841
1.25953e-05;0.0005451363921535065
1.25955e-05;0.000600738305138827
1.25958e-05;0.0006549693288050972
1.25960e-05;0.0007075484680598932
1.25963e-05;0.0007581368044792664
1.25965e-05;0.000806388363169525
1.25968e-05;0.0008519574969489711
1.25970e-05;0.0008945039747348832
1.25973e-05;0.0009337445488922338
1.25975e-05;0.0009695360266852142
1.25978e-05;0.001001845406335142
1.25980e-05;0.0010306339803144756
1.25983e-05;0.0010558289418388254
1.25985e-05;0.0010773508324049145
1.25988e-05;0.001095120469410097
1.25990e-05;0.0011090621129706114
1.25993e-05;0.0011191356091359704
1.25995e-05;0.00112538865479384
1.25998e-05;0.0011279379844065564
1.26000e-05;0.0011268966100566103
1.26003e-05;0.0011223562938725725
1.26005e-05;0.0011136567476299065
1.26008e-05;0.0011022396059799956
1.26010e-05;0.001087924830712967
1.26013e-05;0.001070162355531596
1.26015e-05;0.001049806198962242
1.26018e-05;0.0010263639948520766
1.26020e-05;0.0010002211833808506
1.26023e-05;0.0009708651003242716
1.26025e-05;0.0009415090172678914
1.26028e-05;0.0009099660641527303
1.26030e-05;0.0008758211010149249
1.26032e-05;0.000840375788508799
1.26035e-05;0.0008033832774952763
1.26038e-05;0.0007655697499115808
1.26040e-05;0.0007267793497718561
1.26043e-05;0.0006876441160271841
1.26045e-05;0.0006480985879021662
1.26048e-05;0.0006086791195451446
1.26050e-05;0.000569409641252275
1.26053e-05;0.0005307612847543251
1.26055e-05;0.0004928519594256695
1.26058e-05;0.00045575246676706285
1.26060e-05;0.0004207705813156036
1.26063e-05;0.0003871618125982178
1.26065e-05;0.00035497960585751775
1.26068e-05;0.000325627446792916
1.26070e-05;0.00029887467751687623
1.26073e-05;0.00027481853023375065
1.26075e-05;0.00025318505118858447
1.26078e-05;0.00023358589628693564
1.26080e-05;0.00021590309410527735
1.26083e-05;0.00020023394232018327
1.26085e-05;0.00018671069126033682
1.26088e-05;0.00017546557956322172
1.26090e-05;0.00016662003123714116
1.26093e-05;0.0001601802713490074
1.26095e-05;0.00015592004551464824
1.26098e-05;0.0001535414576262959
1.26100e-05;0.000152915998080354
1.26103e-05;0.0001540499735798647
1.26105e-05;0.00015697160693369078
1.26108e-05;0.00016170912221215278
1.26110e-05;0.00016828394416697833
1.26113e-05;0.00017664533707619314
1.26115e-05;0.00018659695150640993
1.26117e-05;0.00019789757838303335
1.26120e-05;0.00021041213509254679
1.26123e-05;0.00022434260781599444
1.26125e-05;0.00023919482364287084
1.26128e-05;0.000255021636974438
1.26130e-05;0.0002720080585166802
1.26133e-05;0.000289784789080877
1.26135e-05;0.0003085018553491868
1.26138e-05;0.00032767861115425386
1.26140e-05;0.000347402320710528
1.26143e-05;0.00036735691833406157
1.26145e-05;0.0003876928899190555
1.26148e-05;0.0004082269608651338
1.26150e-05;0.0004288788240656662
1.26153e-05;0.0004495398775241927
1.26155e-05;0.00047004442388314514
1.26158e-05;0.0004902091506676102
1.26160e-05;0.0005098924178880092
1.26163e-05;0.0005289857549774742
1.26165e-05;0.0005473860553090853
1.26168e-05;0.0005649902647424066
1.26170e-05;0.0005816962810019611
1.26173e-05;0.0005974151865560996
1.26175e-05;0.0006120929061949494
1.26178e-05;0.0006257076269942799
1.26180e-05;0.0006382436977644527
1.26183e-05;0.0006496805923772157
1.26185e-05;0.000659732742538321
1.26188e-05;0.000668855571025566
1.26190e-05;0.0006769086790485364
1.26193e-05;0.0006836889984300417
1.26195e-05;0.0006891654464782301
1.26198e-05;0.0006930905054689559
1.26200e-05;0.0006970155644596816
1.26202e-05;0.0006994869600638789
1.26205e-05;0.0007002287390920082
1.26208e-05;0.0007009705181201375
1.26210e-05;0.0007003882243550649
1.26213e-05;0.0006982305051701003
1.26215e-05;0.0006960727859851355
1.26218e-05;0.0006925063746987018
1.26220e-05;0.0006872638551524372
1.26223e-05;0.0006820213356061371
1.26225e-05;0.0006767788160598368
1.26228e-05;0.0006715362965135722
1.26230e-05;0.000665167540260748
1.26233e-05;0.000657458750480012
1.26235e-05;0.0006497499606993283
1.26238e-05;0.0006420411709185923
1.26240e-05;0.0006343323811378563
1.26243e-05;0.0006263159886887937
1.26245e-05;0.0006179336004534134
1.26248e-05;0.0006095512122180332
1.26250e-05;0.0006012865063470082
1.26253e-05;0.0005931618228290455
1.26255e-05;0.0005853175276004522
1.26258e-05;0.0005778068475936861
1.26260e-05;0.0005708961199353434
1.26263e-05;0.0005646992353417275
1.26265e-05;0.0005585023507481536
1.26268e-05;0.0005533310712376748
1.26270e-05;0.0005493800904352977
1.26273e-05;0.0005454291096329474
1.26275e-05;0.0005422548306628473
1.26278e-05;0.0005400046971149153
1.26280e-05;0.0005377545635669987
1.26283e-05;0.0005368396751707692
1.26285e-05;0.0005375135054348711
1.26288e-05;0.0005381873356989684
1.26290e-05;0.0005388611659630703
1.26293e-05;0.0005395349962271722
1.26295e-05;0.0005402088264912694
1.26298e-05;0.0005408826567553713
1.26300e-05;0.0005415564870194731
1.26303e-05;0.0005422303172835751
1.26305e-05;0.0005429041475476723
1.26308e-05;0.00054673839512869
1.26310e-05;0.0005507158348871126
1.26313e-05;0.0005546932746455081
1.26315e-05;0.0005586707144039307
1.26318e-05;0.0005626481541623532
1.26320e-05;0.0005666255939207488
1.26323e-05;0.0005706030336791714
1.26325e-05;0.0005745804734375938
1.26328e-05;0.0005785579131959894
1.26330e-05;0.0005832900356760252
1.26333e-05;0.0005889201045151946
1.26335e-05;0.000594550173354326
1.26338e-05;0.0006001802421934955
1.26340e-05;0.0006058103110326649
1.26343e-05;0.0006114403798717962
1.26345e-05;0.0006170704487109657
1.26348e-05;0.0006232174257584436
1.26350e-05;0.0006293878228812938
1.26353e-05;0.0006355582200041859
1.26355e-05;0.0006417286171270779
1.26358e-05;0.0006478990142499281
1.26360e-05;0.0006540694113728202
1.26363e-05;0.0006602505308090505
1.26365e-05;0.000666431755513497
1.26368e-05;0.0006725835190340826
1.26370e-05;0.0006787281884012943
1.26373e-05;0.0006851521364886175
1.26375e-05;0.0006926318540673214
1.26378e-05;0.0007019835408193721
1.26380e-05;0.0007135017148302172
1.26383e-05;0.0007271161626653175
1.26385e-05;0.0007427010659425749
1.26388e-05;0.0007601306113258872
1.26390e-05;0.0007792954074097041
1.26393e-05;0.00080025140925528
1.26395e-05;0.000823361582117381
1.26398e-05;0.0008495909056677686
1.26400e-05;0.0008779555279347318
1.26403e-05;0.0009084441210644115
1.26405e-05;0.0009414598846841024
1.26408e-05;0.0009762352087526909
1.26410e-05;0.001013104115798264
1.26413e-05;0.0010511750362891363
1.26415e-05;0.0010915734157593278
1.26418e-05;0.001133945584203064
1.26420e-05;0.0011782062112877805
1.26423e-05;0.0012241269860442624
1.26425e-05;0.0012714577521293067
1.26428e-05;0.0013199483128322775
1.26430e-05;0.0013693549975427911
1.26433e-05;0.0014194989610863329
1.26435e-05;0.0014703219200556394
1.26438e-05;0.0015217753087765772
1.26440e-05;0.0015736822528018642
1.26443e-05;0.0016257762462958062
1.26445e-05;0.0016777772572483807
1.26448e-05;0.0017294052435566558
