Time(s);Current(A)
1.75000e-06;-0.008137255638208146
1.75025e-06;-0.00810943861269481
1.75050e-06;-0.008087637233528658
1.75075e-06;-0.008065835854362487
1.75100e-06;-0.008044034475196334
1.75125e-06;-0.008022233096030163
1.75150e-06;-0.008000431716864011
1.75175e-06;-0.00797863033769784
1.75200e-06;-0.007956828958531689
1.75225e-06;-0.007935027579365535
1.75250e-06;-0.007913226200199365
1.75275e-06;-0.007894495563255655
1.75300e-06;-0.007877092559185518
1.75325e-06;-0.007859689555115396
1.75350e-06;-0.007843551419191389
1.75375e-06;-0.007827960147969737
1.75400e-06;-0.0078123688767480996
1.75425e-06;-0.0077977607175742205
1.75450e-06;-0.007784198878282258
1.75475e-06;-0.007771717428179914
1.75500e-06;-0.007761254731012295
1.75525e-06;-0.00775448974169313
1.75550e-06;-0.007752601491737651
1.75575e-06;-0.00775579037818174
1.75600e-06;-0.007765507324377251
1.75625e-06;-0.007777387740800334
1.75650e-06;-0.0077955036364153255
1.75675e-06;-0.007816315436328988
1.75700e-06;-0.007846098675517246
1.75725e-06;-0.007879760709095034
1.75750e-06;-0.007913422742672795
1.75775e-06;-0.007962048669245504
1.75800e-06;-0.008017144222643683
1.75825e-06;-0.008072239776041816
1.75850e-06;-0.008127335329439994
1.75875e-06;-0.008182430882838126
1.75900e-06;-0.0082528064162265
1.75925e-06;-0.008329788236392677
1.75950e-06;-0.008406770056558788
1.75975e-06;-0.008483751876724965
1.76000e-06;-0.008560733696891075
1.76025e-06;-0.008646744542943723
1.76050e-06;-0.008736659080909974
1.76075e-06;-0.008826573618876225
1.76100e-06;-0.008920159872274989
1.76125e-06;-0.009015333588820094
1.76150e-06;-0.00911050730536528
1.76175e-06;-0.009207082650131952
1.76200e-06;-0.00930426398770707
1.76225e-06;-0.009401445325282271
1.76250e-06;-0.0094964417526824
1.76275e-06;-0.009590493535966032
1.76300e-06;-0.009684545319249583
1.76325e-06;-0.009774601367587581
1.76350e-06;-0.009862929863209337
1.76375e-06;-0.009944814163390776
1.76400e-06;-0.010023912320975511
1.76425e-06;-0.010103010478560178
1.76450e-06;-0.010162272139878968
1.76475e-06;-0.01021295750835731
1.76500e-06;-0.010263642876835607
1.76525e-06;-0.010314328245313947
1.76550e-06;-0.010365013613792246
1.76575e-06;-0.010415698982270587
1.76600e-06;-0.010466384350748885
1.76625e-06;-0.010517069719227183
1.76650e-06;-0.010567755087705525
1.76675e-06;-0.010594178872025467
1.76700e-06;-0.010610113180395434
1.76725e-06;-0.010626047488765389
1.76750e-06;-0.010641981797135342
1.76775e-06;-0.010657916105505311
1.76800e-06;-0.010673850413875266
1.76825e-06;-0.010689784722245233
1.76850e-06;-0.010705719030615188
1.76875e-06;-0.010721653338985141
1.76900e-06;-0.010720580288296002
1.76925e-06;-0.010712154119910328
1.76950e-06;-0.010703727951524645
1.76975e-06;-0.010695301783138971
1.77000e-06;-0.01068687561475329
1.77025e-06;-0.010678449446367616
1.77050e-06;-0.01067002327798194
1.77075e-06;-0.01066159710959626
1.77100e-06;-0.010650932973717117
1.77125e-06;-0.010631212711252747
1.77150e-06;-0.010611492448788392
1.77175e-06;-0.010591772186324039
1.77200e-06;-0.010572051923859667
1.77225e-06;-0.010552331661395313
1.77250e-06;-0.010532611398930943
1.77275e-06;-0.010512891136466588
1.77300e-06;-0.010493170874002235
1.77325e-06;-0.010472921649523344
1.77350e-06;-0.0104524437287527
1.77375e-06;-0.010431965807982037
1.77400e-06;-0.010413272920462222
1.77425e-06;-0.010395351790599739
1.77450e-06;-0.01037743066073727
1.77475e-06;-0.010360774615756433
1.77500e-06;-0.010344665529183296
1.77525e-06;-0.010324663657008152
1.77550e-06;-0.010302978742180788
1.77575e-06;-0.010274296956489338
1.77600e-06;-0.010242590079436554
1.77625e-06;-0.010210883202383744
1.77650e-06;-0.010172302343472826
1.77675e-06;-0.010130749524161172
1.77700e-06;-0.010089196704849554
1.77725e-06;-0.01003806049369087
1.77750e-06;-0.009982780910951948
1.77775e-06;-0.009927501328213071
1.77800e-06;-0.009860727541564095
1.77825e-06;-0.009788984245311733
1.77850e-06;-0.009717240949059309
1.77875e-06;-0.009645497652806945
1.77900e-06;-0.009570486185978307
1.77925e-06;-0.00948224978781116
1.77950e-06;-0.009394013389644087
1.77975e-06;-0.00930577699147694
1.78000e-06;-0.009217540593309868
1.78025e-06;-0.009122737508044704
1.78050e-06;-0.0090250953210155
1.78075e-06;-0.008925849399948045
1.78100e-06;-0.008825066788112602
1.78125e-06;-0.008723003427783316
1.78150e-06;-0.008619792336160748
1.78175e-06;-0.008515910364423477
1.78200e-06;-0.008411966616732618
1.78225e-06;-0.008308579034213358
1.78250e-06;-0.008206366753235791
1.78275e-06;-0.008105922725966446
1.78300e-06;-0.008007673998779795
1.78325e-06;-0.007911868507808242
1.78350e-06;-0.00781885510355027
1.78375e-06;-0.0077291955402839976
1.78400e-06;-0.00764353517297084
1.78425e-06;-0.007562525839439182
1.78450e-06;-0.007486819184374986
1.78475e-06;-0.007416959849527586
1.78500e-06;-0.007352791984855397
1.78525e-06;-0.0072933119080807116
1.78550e-06;-0.0072377397955478515
1.78575e-06;-0.007186050252477838
1.78600e-06;-0.007138523522997446
1.78625e-06;-0.007095469131304718
1.78650e-06;-0.0070571967421556425
1.78675e-06;-0.00702559309588308
1.78700e-06;-0.006996236411347313
1.78725e-06;-0.0069723790098291565
1.78750e-06;-0.006950899218798869
1.78775e-06;-0.006935442235290464
1.78800e-06;-0.0069225892076586245
1.78825e-06;-0.006909736180026774
1.78850e-06;-0.006906496345368009
1.78875e-06;-0.006907412766781431
1.78900e-06;-0.006908329188194853
1.78925e-06;-0.006909245609608275
1.78950e-06;-0.0069101620310216974
1.78975e-06;-0.006919761308444954
1.79000e-06;-0.00693311461151979
1.79025e-06;-0.006946467914594638
1.79050e-06;-0.006959821217669475
1.79075e-06;-0.006973174520744323
1.79100e-06;-0.006991513931450699
1.79125e-06;-0.007012009081688992
1.79150e-06;-0.0070325042319272675
1.79175e-06;-0.00705469577061318
1.79200e-06;-0.007077620741448647
1.79225e-06;-0.007100545712284094
1.79250e-06;-0.007124244916367559
1.79275e-06;-0.00714827885955873
1.79300e-06;-0.007172225024888486
1.79325e-06;-0.007196133239532104
1.79350e-06;-0.0072190220931221205
1.79375e-06;-0.007241470226799384
1.79400e-06;-0.007258308959354404
1.79425e-06;-0.0072727224719497255
1.79450e-06;-0.0072871359845450585
1.79475e-06;-0.00730154949714038
1.79500e-06;-0.007315963009735713
1.79525e-06;-0.007330376522331035
1.79550e-06;-0.007344790034926369
1.79575e-06;-0.007359203547521689
1.79600e-06;-0.007373617060117011
1.79625e-06;-0.007388030572712344
1.79650e-06;-0.007402444085307666
1.79675e-06;-0.007414819040586364
1.79700e-06;-0.00741894479959191
1.79725e-06;-0.007423070558597457
1.79750e-06;-0.007427196317603008
1.79775e-06;-0.007431322076608554
1.79800e-06;-0.007435447835614104
1.79825e-06;-0.007439573594619651
1.79850e-06;-0.0074436993536251975
1.79875e-06;-0.0074478251126307475
1.79900e-06;-0.007451950871636295
1.79925e-06;-0.007456076630641845
1.79950e-06;-0.007460202389647392
1.79975e-06;-0.007460438583120424
1.80000e-06;-0.007458993126135927
1.80025e-06;-0.00745754766915143
1.80050e-06;-0.007456102212166932
1.80075e-06;-0.007454656755182434
1.80100e-06;-0.007453211298197936
1.80125e-06;-0.007451765841213439
1.80150e-06;-0.007450320384228942
1.80175e-06;-0.007448874927244443
1.80200e-06;-0.007447429470259946
1.80225e-06;-0.007445667307531321
1.80250e-06;-0.007442623567962702
1.80275e-06;-0.007439579828394082
1.80300e-06;-0.00743653608882546
1.80325e-06;-0.00743349234925684
1.80350e-06;-0.0074304486096882175
1.80375e-06;-0.007427404870119598
1.80400e-06;-0.007424361130550979
1.80425e-06;-0.007421317390982356
1.80450e-06;-0.007418273651413737
1.80475e-06;-0.007415229911845115
1.80500e-06;-0.007411590878187398
1.80525e-06;-0.007407694469620091
1.80550e-06;-0.007403798061052788
1.80575e-06;-0.007399901652485485
1.80600e-06;-0.00739600524391818
1.80625e-06;-0.007392108835350877
1.80650e-06;-0.00738821242678357
1.80675e-06;-0.007384316018216267
1.80700e-06;-0.007380419609648964
1.80725e-06;-0.007375982153718933
1.80750e-06;-0.007369355303430768
1.80775e-06;-0.007362728453142596
1.80800e-06;-0.007356101602854431
1.80825e-06;-0.007349474752566265
1.80850e-06;-0.007342847902278094
1.80875e-06;-0.007336221051989928
1.80900e-06;-0.007329594201701757
1.80925e-06;-0.0073229673514135915
1.80950e-06;-0.007316340501125421
1.80975e-06;-0.007308310732938913
1.81000e-06;-0.007299674414353462
1.81025e-06;-0.007291038095768003
1.81050e-06;-0.007282401777182552
1.81075e-06;-0.007273765458597092
1.81100e-06;-0.007265129140011641
1.81125e-06;-0.00725649282142619
1.81150e-06;-0.00724785650284073
1.81175e-06;-0.007239239887157916
1.81200e-06;-0.0072307030009532165
1.81225e-06;-0.007222166114748525
1.81250e-06;-0.007213629228543833
1.81275e-06;-0.007205092342339134
1.81300e-06;-0.007196555456134442
1.81325e-06;-0.007188018569929742
1.81350e-06;-0.007179481683725051
1.81375e-06;-0.007170944797520351
1.81400e-06;-0.007163111377248619
1.81425e-06;-0.007155831454041208
1.81450e-06;-0.007148942178669771
1.81475e-06;-0.007142586444378521
1.81500e-06;-0.007137485257846542
1.81525e-06;-0.007134963745778826
1.81550e-06;-0.007135956783435371
1.81575e-06;-0.0071418307126743024
1.81600e-06;-0.007149328790722532
1.81625e-06;-0.007161440895801101
1.81650e-06;-0.007175547871669445
1.81675e-06;-0.00719408226533681
1.81700e-06;-0.007214530849446372
1.81725e-06;-0.0072421250933140885
1.81750e-06;-0.007272808757298255
1.81775e-06;-0.007303492421282394
1.81800e-06;-0.007345059791360063
1.81825e-06;-0.007391332722811206
1.81850e-06;-0.00743760565426235
1.81875e-06;-0.007483878585713533
1.81900e-06;-0.007530151517164676
1.81925e-06;-0.007579623084838711
1.81950e-06;-0.007642038207147231
1.81975e-06;-0.00770445332945575
1.82000e-06;-0.007766868451764322
1.82025e-06;-0.00782928357407284
1.82050e-06;-0.007891698696381413
1.82075e-06;-0.007959371781550258
1.82100e-06;-0.008029318142635038
1.82125e-06;-0.008099264503719877
1.82150e-06;-0.008170915272464423
1.82175e-06;-0.00824330294045819
1.82200e-06;-0.008315690608451894
1.82225e-06;-0.008387266602146849
1.82250e-06;-0.008458491669126576
1.82275e-06;-0.0085297167361063
1.82300e-06;-0.008597743437898486
1.82325e-06;-0.00866438732913368
1.82350e-06;-0.008731031220368928
1.82375e-06;-0.008784733460834505
1.82400e-06;-0.008832840389239517
1.82425e-06;-0.008880947317644569
1.82450e-06;-0.00892905424604958
1.82475e-06;-0.008977161174454632
1.82500e-06;-0.009025268102859642
1.82525e-06;-0.009073375031264654
1.82550e-06;-0.009121481959669706
1.82575e-06;-0.009169588888074716
1.82600e-06;-0.009213464314038607
1.82625e-06;-0.009240216604011413
1.82650e-06;-0.009266968893984241
1.82675e-06;-0.009293721183957047
1.82700e-06;-0.009320473473929853
1.82725e-06;-0.009347225763902683
1.82750e-06;-0.009373978053875489
1.82775e-06;-0.009400730343848317
1.82800e-06;-0.009427482633821123
1.82825e-06;-0.009454234923793929
1.82850e-06;-0.009471852104996946
1.82875e-06;-0.009485519729440716
1.82900e-06;-0.009499187353884497
1.82925e-06;-0.009512854978328267
1.82950e-06;-0.009526522602772036
1.82975e-06;-0.009540190227215818
1.83000e-06;-0.009553857851659587
1.83025e-06;-0.009567525476103367
1.83050e-06;-0.009581193100547137
1.83075e-06;-0.009594860724990918
1.83100e-06;-0.009608528349434688
1.83125e-06;-0.009622195973878457
1.83150e-06;-0.009630504055492196
1.83175e-06;-0.009636494943173838
1.83200e-06;-0.009642485830855488
1.83225e-06;-0.00964847671853713
1.83250e-06;-0.009654467606218773
1.83275e-06;-0.00966045849390042
1.83300e-06;-0.009666449381582065
1.83325e-06;-0.009672440269263713
1.83350e-06;-0.009678431156945356
1.83375e-06;-0.009684422044627
1.83400e-06;-0.009690412932308648
1.83425e-06;-0.00969640381999029
1.83450e-06;-0.009700031424212807
1.83475e-06;-0.009702637264776581
1.83500e-06;-0.009705243105340359
1.83525e-06;-0.009702844524125755
1.83550e-06;-0.009698282285273573
1.83575e-06;-0.009693720046421385
1.83600e-06;-0.00968264924169632
1.83625e-06;-0.009668764463872225
1.83650e-06;-0.009654879686048142
1.83675e-06;-0.009630898178438126
1.83700e-06;-0.009602551358014102
1.83725e-06;-0.009574204537590102
1.83750e-06;-0.009545857717166078
1.83775e-06;-0.009517510896742076
1.83800e-06;-0.009489164076318076
1.83825e-06;-0.009447316153865369
1.83850e-06;-0.009399631041061195
1.83875e-06;-0.009351945928256979
1.83900e-06;-0.009304260815452804
1.83925e-06;-0.00925657570264859
1.83950e-06;-0.009208890589844415
1.83975e-06;-0.009151801477132473
1.84000e-06;-0.009090646552799326
1.84025e-06;-0.009029491628466231
1.84050e-06;-0.008968336704133082
1.84075e-06;-0.008907181779799987
1.84100e-06;-0.008842036278824673
1.84125e-06;-0.008775165455322077
1.84150e-06;-0.008708294631819536
1.84175e-06;-0.008641423808316938
1.84200e-06;-0.008574552984814398
1.84225e-06;-0.008507592432831291
1.84250e-06;-0.008440593086813396
1.84275e-06;-0.008375111647591808
1.84300e-06;-0.008310286474124354
1.84325e-06;-0.00824705333098063
1.84350e-06;-0.008185832321028727
1.84375e-06;-0.008126794875059053
1.84400e-06;-0.008070363691158171
1.84425e-06;-0.008016962995355826
1.84450e-06;-0.007967017558720129
1.84475e-06;-0.007921001110939782
1.84500e-06;-0.007879655262726734
1.84525e-06;-0.007843939634237558
1.84550e-06;-0.007814488698035313
1.84575e-06;-0.007791465092441071
1.84600e-06;-0.007777096058221994
1.84625e-06;-0.007765628916191397
1.84650e-06;-0.007763079029571937
1.84675e-06;-0.007764384510990905
1.84700e-06;-0.007777444477548035
1.84725e-06;-0.007795586486081131
1.84750e-06;-0.007813728494614211
1.84775e-06;-0.007844295657672497
1.84800e-06;-0.007880234826064291
1.84825e-06;-0.007916877860324195
1.84850e-06;-0.007953658129445072
1.84875e-06;-0.008008361141089956
1.84900e-06;-0.014457763343204977
1.84925e-06;-0.028523058509560398
1.84950e-06;-0.02469822718861186
1.84975e-06;-0.021482777614214712
1.85000e-06;-0.014767686892259917
1.85025e-06;-0.003954302531784789
1.85050e-06;-0.004892734396084345
1.85075e-06;-0.005687458307378609
1.85100e-06;-0.010079792128866593
1.85125e-06;-0.015992755522447794
1.85150e-06;-0.01659909256091428
1.85175e-06;-0.014044718940299843
1.85200e-06;-0.010034161330109133
1.85225e-06;-0.006409202793319441
1.85250e-06;-0.0054899762791255765
1.85275e-06;-0.0070114948891014574
1.85300e-06;-0.010162084300573972
1.85325e-06;-0.01317405771421653
1.85350e-06;-0.013688429322297522
1.85375e-06;-0.012178183085512228
1.85400e-06;-0.009740374616570607
1.85425e-06;-0.007530620949492237
1.85450e-06;-0.0070036289670082266
1.85475e-06;-0.007994508966352766
1.85500e-06;-0.009996213605809342
1.85525e-06;-0.011903383294319314
1.85550e-06;-0.012240173797246375
1.85575e-06;-0.01130400392908686
1.85600e-06;-0.009782758243342465
1.85625e-06;-0.008400841261875364
1.85650e-06;-0.008069857482319875
1.85675e-06;-0.008686801479046909
1.85700e-06;-0.009934312211323917
1.85725e-06;-0.011120253732625816
1.85750e-06;-0.011320462117633094
1.85775e-06;-0.010721551618601416
1.85800e-06;-0.009754675558190519
1.85825e-06;-0.00887380694463577
1.85850e-06;-0.008650120269577129
1.85875e-06;-0.009019206311946741
1.85900e-06;-0.00978238750898754
1.85925e-06;-0.010506249608638388
1.85950e-06;-0.010612077758735591
1.85975e-06;-0.010216963231953985
1.86000e-06;-0.009591156070881684
1.86025e-06;-0.009019170907129776
1.86050e-06;-0.008858906455632512
1.86075e-06;-0.009070115952147316
1.86100e-06;-0.009528453760818937
1.86125e-06;-0.00996255171278494
1.86150e-06;-0.010010053399017005
1.86175e-06;-0.009744468248303191
1.86200e-06;-0.009335230766752139
1.86225e-06;-0.00896069441973261
1.86250e-06;-0.008845163866553778
1.86275e-06;-0.008963533951056157
1.86300e-06;-0.009238024821494021
1.86325e-06;-0.009498774409842235
1.86350e-06;-0.009518943428823394
1.86375e-06;-0.00934472527061998
1.86400e-06;-0.009082393535057564
1.86425e-06;-0.008843801011491828
1.86450e-06;-0.008769569498065016
1.86475e-06;-0.008843970112594609
1.86500e-06;-0.00901778382841693
1.86525e-06;-0.009183536450107277
1.86550e-06;-0.00919822106867876
1.86575e-06;-0.009090511364056024
1.86600e-06;-0.008927014129706234
1.86625e-06;-0.008777828191114027
1.86650e-06;-0.00873106779432797
1.86675e-06;-0.008776904803449666
1.86700e-06;-0.008884534874509315
1.86725e-06;-0.008986666557856182
1.86750e-06;-0.00899375874595376
1.86775e-06;-0.008923814378856388
1.86800e-06;-0.008818594031551275
1.86825e-06;-0.008722041684031656
1.86850e-06;-0.008689383072801905
1.86875e-06;-0.008714489275457787
1.86900e-06;-0.008778092984532878
1.86925e-06;-0.008838075051798807
1.86950e-06;-0.00883838275463188
1.86975e-06;-0.00879033160846464
1.87000e-06;-0.008720117552382545
1.87025e-06;-0.00865530050140827
1.87050e-06;-0.008630504064407261
1.87075e-06;-0.00864191944256705
1.87100e-06;-0.008677508496756954
1.87125e-06;-0.008710920102510952
1.87150e-06;-0.008707077990925446
1.87175e-06;-0.008673105584800748
1.87200e-06;-0.008625447511989563
1.87225e-06;-0.008581400992962855
1.87250e-06;-0.008562686350052601
1.87275e-06;-0.008566949150277866
1.87300e-06;-0.008586678872515196
1.87325e-06;-0.008605401889708712
1.87350e-06;-0.008601181244514979
1.87375e-06;-0.008578513896536636
1.87400e-06;-0.008547734529624769
1.87425e-06;-0.008519712185430676
1.87450e-06;-0.008508084655560945
1.87475e-06;-0.008511443130973673
1.87500e-06;-0.008525290520887699
1.87525e-06;-0.008539654493493145
1.87550e-06;-0.008541044411243866
1.87575e-06;-0.008532298120555157
1.87600e-06;-0.00851981106869401
1.87625e-06;-0.008510309912757074
1.87650e-06;-0.008512254987599586
1.87675e-06;-0.008524682155879563
1.87700e-06;-0.008543301925999561
1.87725e-06;-0.008563939102930466
1.87750e-06;-0.008579944091380727
1.87775e-06;-0.008588351688830594
1.87800e-06;-0.008596621287967683
1.87825e-06;-0.008606534751113186
1.87850e-06;-0.008621256137885953
1.87875e-06;-0.008645187542454785
1.87900e-06;-0.008673405861477983
1.87925e-06;-0.00870314205996288
1.87950e-06;-0.00873008473456051
1.87975e-06;-0.00875291001487223
1.88000e-06;-0.008775642667596038
1.88025e-06;-0.008798375320319827
1.88050e-06;-0.00882425676690298
1.88075e-06;-0.00885628846282626
1.88100e-06;-0.00889061452939972
1.88125e-06;-0.008924940595973211
1.88150e-06;-0.0089573689762752
1.88175e-06;-0.008986483254840442
1.88200e-06;-0.009014784285237882
1.88225e-06;-0.009043085315635297
1.88250e-06;-0.009072727252697366
1.88275e-06;-0.009104517949966917
1.88300e-06;-0.009136603254425854
1.88325e-06;-0.009168688558884818
1.88350e-06;-0.009198258349291966
1.88375e-06;-0.009224177987866112
1.88400e-06;-0.009248751590209159
1.88425e-06;-0.009271372018562726
1.88450e-06;-0.009293992446916274
1.88475e-06;-0.009316612875269822
1.88500e-06;-0.009336695878090244
1.88525e-06;-0.00935309693429051
1.88550e-06;-0.00936949799049079
1.88575e-06;-0.009385899046691055
1.88600e-06;-0.009397760864054305
1.88625e-06;-0.009403035991532253
1.88650e-06;-0.009408311119010197
1.88675e-06;-0.009413586246488146
1.88700e-06;-0.00941886137396609
1.88725e-06;-0.009424136501444033
1.88750e-06;-0.00942941162892198
1.88775e-06;-0.009434686756399925
1.88800e-06;-0.009434818638592307
1.88825e-06;-0.009427487383700256
1.88850e-06;-0.0094201561288082
1.88875e-06;-0.009412824873916148
1.88900e-06;-0.009405493619024097
1.88925e-06;-0.009398162364132039
1.88950e-06;-0.009390831109239987
1.88975e-06;-0.00938349985434793
1.89000e-06;-0.009372758764865827
1.89025e-06;-0.009357069814341215
1.89050e-06;-0.009341380863816591
1.89075e-06;-0.009325691913291979
1.89100e-06;-0.009310002962767353
1.89125e-06;-0.009294314012242743
1.89150e-06;-0.009278625061718131
1.89175e-06;-0.009262936111193507
1.89200e-06;-0.009247247160668895
1.89225e-06;-0.009230511619686832
1.89250e-06;-0.009213670020516934
1.89275e-06;-0.00919682842134702
1.89300e-06;-0.009179986822177123
1.89325e-06;-0.009163145223007223
1.89350e-06;-0.009146303623837311
1.89375e-06;-0.009129462024667412
1.89400e-06;-0.009112620425497498
1.89425e-06;-0.00909711651444079
1.89450e-06;-0.009083553663786664
1.89475e-06;-0.009070003605384642
1.89500e-06;-0.009056472109257196
1.89525e-06;-0.009042940613129737
1.89550e-06;-0.009026114162163161
1.89575e-06;-0.009004506547109508
1.89600e-06;-0.008982898932055837
1.89625e-06;-0.008958473095202237
1.89650e-06;-0.008929957860612635
1.89675e-06;-0.008901442626023059
1.89700e-06;-0.008867654680726693
