Time(s);Current(A)
2.25000e-06;-0.007069174034945133
2.25025e-06;-0.0070637039894133405
2.25050e-06;-0.007058233943881548
2.25075e-06;-0.0070527638983497645
2.25100e-06;-0.007047293852817972
2.25125e-06;-0.007035247064927327
2.25150e-06;-0.007013271189405659
2.25175e-06;-0.006991295313883953
2.25200e-06;-0.006969319438362247
2.25225e-06;-0.0069473435628405415
2.25250e-06;-0.006925367687318873
2.25275e-06;-0.006898265391142458
2.25300e-06;-0.0068634235976378355
2.25325e-06;-0.0068285818041332715
2.25350e-06;-0.0067937400106286485
2.25375e-06;-0.0067588982171240255
2.25400e-06;-0.0067240564236194615
2.25425e-06;-0.006682677510431299
2.25450e-06;-0.006640559716979637
2.25475e-06;-0.006598441923527975
2.25500e-06;-0.006556324130076383
2.25525e-06;-0.006514206336624721
2.25550e-06;-0.0064713747186916455
2.25575e-06;-0.0064274654204356805
2.25600e-06;-0.0063837814636453815
2.25625e-06;-0.006340437711022777
2.25650e-06;-0.006297692240455572
2.25675e-06;-0.006255850012653962
2.25700e-06;-0.006214678428514626
2.25725e-06;-0.006175106946792855
2.25750e-06;-0.006137121725459783
2.25775e-06;-0.006101002070321208
2.25800e-06;-0.006067026632369588
2.25825e-06;-0.006036047205437738
2.25850e-06;-0.006007491225485522
2.25875e-06;-0.0059813760581984236
2.25900e-06;-0.005958945852480741
2.25925e-06;-0.005939104244094698
2.25950e-06;-0.005923170711826889
2.25975e-06;-0.005910573420724513
2.26000e-06;-0.005903012944063793
2.26025e-06;-0.0058954524674030605
2.26050e-06;-0.005892002130016937
2.26075e-06;-0.005894756982192653
2.26100e-06;-0.005897511834368364
2.26125e-06;-0.005905711281802864
2.26150e-06;-0.005922130583459026
2.26175e-06;-0.00593854988511516
2.26200e-06;-0.005954969186771322
2.26225e-06;-0.0059713884884274844
2.26250e-06;-0.005987807790083619
2.26275e-06;-0.0060173241514644505
2.26300e-06;-0.006048320852721251
2.26325e-06;-0.006079317553978051
2.26350e-06;-0.006110314255234798
2.26375e-06;-0.006141310956491598
2.26400e-06;-0.006176152730630959
2.26425e-06;-0.006216799516357799
2.26450e-06;-0.006257446302084708
2.26475e-06;-0.006298093087811616
2.26500e-06;-0.006338739873538525
2.26525e-06;-0.006379386659265365
2.26550e-06;-0.006420033444992273
2.26575e-06;-0.006461737942598538
2.26600e-06;-0.006503561991699898
2.26625e-06;-0.00654538604080133
2.26650e-06;-0.006587210089902761
2.26675e-06;-0.006629034139004122
2.26700e-06;-0.006670858188105554
2.26725e-06;-0.006710367198624954
2.26750e-06;-0.006746381132144476
2.26775e-06;-0.006782395065663938
2.26800e-06;-0.00681554830365555
2.26825e-06;-0.006844382671447362
2.26850e-06;-0.006873217039239124
2.26875e-06;-0.00689653534976579
2.26900e-06;-0.006911525917926806
2.26925e-06;-0.006926516486087822
2.26950e-06;-0.0069415070542488124
2.26975e-06;-0.006956497622409828
2.27000e-06;-0.0069714881905708435
2.27025e-06;-0.006986478758731834
2.27050e-06;-0.00700146932689285
2.27075e-06;-0.006998928941240789
2.27100e-06;-0.006994407059700177
2.27125e-06;-0.006989885178159559
2.27150e-06;-0.00698536329661894
2.27175e-06;-0.006980841415078321
2.27200e-06;-0.00697631953353771
2.27225e-06;-0.006971797651997091
2.27250e-06;-0.006961405184134814
2.27275e-06;-0.006942149731703684
2.27300e-06;-0.006922894279272521
2.27325e-06;-0.0069036388268413585
2.27350e-06;-0.0068843833744101956
2.27375e-06;-0.0068651279219790655
2.27400e-06;-0.0068458724695479025
2.27425e-06;-0.006819547539446514
2.27450e-06;-0.006792423557503059
2.27475e-06;-0.006765299575559558
2.27500e-06;-0.006738175593616057
2.27525e-06;-0.006711051611672602
2.27550e-06;-0.006683927629729101
2.27575e-06;-0.0066561191764434435
2.27600e-06;-0.006627277358071035
2.27625e-06;-0.006598435539698675
2.27650e-06;-0.0065700230668607985
2.27675e-06;-0.006542258788707221
2.27700e-06;-0.006514494510553689
2.27725e-06;-0.006489556508151426
2.27750e-06;-0.006468885411472017
2.27775e-06;-0.006448214314792607
2.27800e-06;-0.006427543218113232
2.27825e-06;-0.006406872121433822
2.27850e-06;-0.006386201024754413
2.27875e-06;-0.006365529928075039
2.27900e-06;-0.006344858831395629
2.27925e-06;-0.0063241877347162195
2.27950e-06;-0.006303516638036845
2.27975e-06;-0.006290568006472624
2.28000e-06;-0.006278492232885271
2.28025e-06;-0.006266416459297917
2.28050e-06;-0.006254340685710584
2.28075e-06;-0.006242264912123231
2.28100e-06;-0.006230189138535878
2.28125e-06;-0.006218113364948544
2.28150e-06;-0.006206037591361191
2.28175e-06;-0.006193961817773838
2.28200e-06;-0.006184021656287478
2.28225e-06;-0.0061773056867405075
2.28250e-06;-0.006170589717193526
2.28275e-06;-0.006163873747646544
2.28300e-06;-0.006157157778099573
2.28325e-06;-0.006150441808552592
2.28350e-06;-0.006143725839005609
2.28375e-06;-0.0061370098694586385
2.28400e-06;-0.006130293899911657
2.28425e-06;-0.006123577930364675
2.28450e-06;-0.006116861960817693
2.28475e-06;-0.006110145991270723
2.28500e-06;-0.006106150466337689
2.28525e-06;-0.006102462428942212
2.28550e-06;-0.006098774391546742
2.28575e-06;-0.006095086354151264
2.28600e-06;-0.006091398316755787
2.28625e-06;-0.006087710279360311
2.28650e-06;-0.006084022241964839
2.28675e-06;-0.006080334204569363
2.28700e-06;-0.006076646167173886
2.28725e-06;-0.006072958129778414
2.28750e-06;-0.006069270092382938
2.28775e-06;-0.00606593124612659
2.28800e-06;-0.00606311958327383
2.28825e-06;-0.006060760953558527
2.28850e-06;-0.006059086280348938
2.28875e-06;-0.006057411607139348
2.28900e-06;-0.006057735536774423
2.28925e-06;-0.0060610768117312875
2.28950e-06;-0.006064418086688152
2.28975e-06;-0.006069828161433156
2.29000e-06;-0.006078361559743504
2.29025e-06;-0.006086894958053852
2.29050e-06;-0.006099112870470517
2.29075e-06;-0.006116893394504251
2.29100e-06;-0.006134673918538015
2.29125e-06;-0.0061524544425717795
2.29150e-06;-0.006170234966605514
2.29175e-06;-0.006188015490639277
2.29200e-06;-0.006205796014673042
2.29225e-06;-0.006234160930757372
2.29250e-06;-0.0062637221838786426
2.29275e-06;-0.006293283436999912
2.29300e-06;-0.006322844690121182
2.29325e-06;-0.006352405943242402
2.29350e-06;-0.0063819671963636715
2.29375e-06;-0.006414523288221433
2.29400e-06;-0.006451600769946756
2.29425e-06;-0.006488678251672143
2.29450e-06;-0.006525755733397529
2.29475e-06;-0.006562833215122915
2.29500e-06;-0.0065999106968482385
2.29525e-06;-0.0066369881785736246
2.29550e-06;-0.00667403904819155
2.29575e-06;-0.0067110497407836655
2.29600e-06;-0.006748060433375844
2.29625e-06;-0.006785071125968022
2.29650e-06;-0.006822081818560137
2.29675e-06;-0.006859092511152316
2.29700e-06;-0.006896103203744493
2.29725e-06;-0.006931249498208624
2.29750e-06;-0.006963581059878277
2.29775e-06;-0.006992397446391325
2.29800e-06;-0.007015906876926027
2.29825e-06;-0.007039416307460689
2.29850e-06;-0.007062925737995391
2.29875e-06;-0.007086435168530092
2.29900e-06;-0.007109944599064793
2.29925e-06;-0.007133454029599456
2.29950e-06;-0.007156963460134157
2.29975e-06;-0.007180472890668859
2.30000e-06;-0.007196852355473451
2.30025e-06;-0.007212425931566169
2.30050e-06;-0.007227999507658889
2.30075e-06;-0.00724357308375158
2.30100e-06;-0.007259146659844299
2.30125e-06;-0.0072747202359370175
2.30150e-06;-0.007290293812029736
2.30175e-06;-0.007305867388122428
2.30200e-06;-0.007319612450137728
2.30225e-06;-0.007330596954490174
2.30250e-06;-0.007341581458842602
2.30275e-06;-0.007352565963195047
2.30300e-06;-0.007363550467547494
2.30325e-06;-0.007374534971899939
2.30350e-06;-0.007385519476252367
2.30375e-06;-0.007396503980604813
2.30400e-06;-0.007407488484957259
2.30425e-06;-0.007418472989309686
2.30450e-06;-0.007429457493662132
2.30475e-06;-0.007440441998014578
2.30500e-06;-0.007448184291770493
2.30525e-06;-0.007455560123607732
2.30550e-06;-0.007462935955444971
2.30575e-06;-0.007470311787282209
2.30600e-06;-0.0074776876191194365
2.30625e-06;-0.007485063450956675
2.30650e-06;-0.007492439282793914
2.30675e-06;-0.0074998151146311405
2.30700e-06;-0.00750719094646838
2.30725e-06;-0.007514566778305618
2.30750e-06;-0.0075219426101428575
2.30775e-06;-0.007528275727627214
2.30800e-06;-0.007533034630763073
2.30825e-06;-0.007537793533898931
2.30850e-06;-0.007540757992877886
2.30875e-06;-0.00754101333048376
2.30900e-06;-0.007541268668089633
2.30925e-06;-0.007537929056324039
2.30950e-06;-0.007529162051267886
2.30975e-06;-0.007520395046211733
2.31000e-06;-0.007508286604798468
2.31025e-06;-0.007491133505619228
2.31050e-06;-0.0074739804064399605
2.31075e-06;-0.007451197844121368
2.31100e-06;-0.007419916327488175
2.31125e-06;-0.00738863481085493
2.31150e-06;-0.007357353294221684
2.31175e-06;-0.007326071777588438
2.31200e-06;-0.007294790260955245
2.31225e-06;-0.007249069543290946
2.31250e-06;-0.00720171678564737
2.31275e-06;-0.0071543640280038725
2.31300e-06;-0.007107011270360296
2.31325e-06;-0.007059658512716719
2.31350e-06;-0.007008395124677499
2.31375e-06;-0.006951227751079877
2.31400e-06;-0.006894060377482255
2.31425e-06;-0.006835347805262751
2.31450e-06;-0.006774302404464533
2.31475e-06;-0.006713257003666213
2.31500e-06;-0.00665138027932979
2.31525e-06;-0.006588248483133794
2.31550e-06;-0.006525025492758699
2.31575e-06;-0.006461664824039884
2.31600e-06;-0.00639860621864447
2.31625e-06;-0.006336398852200788
2.31650e-06;-0.006275293185507542
2.31675e-06;-0.006215532049009826
2.31700e-06;-0.006157341904264126
2.31725e-06;-0.00610104147224099
2.31750e-06;-0.006047020482560673
2.31775e-06;-0.005996341421667305
2.31800e-06;-0.00594841858877596
2.31825e-06;-0.0059033488441660965
2.31850e-06;-0.005862586484889683
2.31875e-06;-0.005824353442089438
2.31900e-06;-0.005789938977481603
2.31925e-06;-0.005758485123081433
2.31950e-06;-0.00573150098280457
2.31975e-06;-0.005704516842527661
2.32000e-06;-0.00568153411357142
2.32025e-06;-0.005664592424616618
2.32050e-06;-0.005647650735661788
2.32075e-06;-0.0056359879187037965
2.32100e-06;-0.005632294759034157
2.32125e-06;-0.005628601599364523
2.32150e-06;-0.0056249084396948834
2.32175e-06;-0.005621215280025244
2.32200e-06;-0.00561752212035561
2.32225e-06;-0.005619707877392586
2.32250e-06;-0.005630769195611301
2.32275e-06;-0.0056418305138300155
2.32300e-06;-0.0056528918320487105
2.32325e-06;-0.0056639531502674255
2.32350e-06;-0.0056750144684861396
2.32375e-06;-0.005690193877803397
2.32400e-06;-0.00571159048177086
2.32425e-06;-0.005732987085738322
2.32450e-06;-0.005754383689705748
2.32475e-06;-0.00577578029367321
2.32500e-06;-0.005797176897640672
2.32525e-06;-0.005818573501608135
2.32550e-06;-0.005841247804806486
2.32575e-06;-0.005865851085444432
2.32600e-06;-0.005890454366082378
2.32625e-06;-0.005915057646720281
2.32650e-06;-0.005939660927358227
2.32675e-06;-0.005964264207996172
2.32700e-06;-0.005988867488634118
2.32725e-06;-0.006010448986512224
2.32750e-06;-0.0060274684163935475
2.32775e-06;-0.006044487846274871
2.32800e-06;-0.0060615072761561655
2.32825e-06;-0.006078526706037489
2.32850e-06;-0.006095546135918812
2.32875e-06;-0.006112565565800106
2.32900e-06;-0.006129584995681429
2.32925e-06;-0.0061466044255627525
2.32950e-06;-0.006163623855444076
2.32975e-06;-0.006170427888297474
2.33000e-06;-0.006176077291035092
2.33025e-06;-0.0061817266937727105
2.33050e-06;-0.0061873760965103185
2.33075e-06;-0.006193025499247937
2.33100e-06;-0.006198674901985554
2.33125e-06;-0.006204324304723173
2.33150e-06;-0.006209973707460781
2.33175e-06;-0.006215623110198399
2.33200e-06;-0.006217754360523012
2.33225e-06;-0.00621457416002287
2.33250e-06;-0.006211393959522721
2.33275e-06;-0.006208213759022573
2.33300e-06;-0.006205033558522429
2.33325e-06;-0.006201853358022281
2.33350e-06;-0.0061986731575221325
2.33375e-06;-0.006195492957021985
2.33400e-06;-0.006192312756521841
2.33425e-06;-0.006189132556021693
2.33450e-06;-0.006185952355521544
2.33475e-06;-0.006179093777777581
2.33500e-06;-0.006171819438890728
2.33525e-06;-0.0061645451000038745
2.33550e-06;-0.006157270761117021
2.33575e-06;-0.006149996422230181
2.33600e-06;-0.006142722083343328
2.33625e-06;-0.006135447744456474
2.33650e-06;-0.006128173405569634
2.33675e-06;-0.006120899066682781
2.33700e-06;-0.0061136247277959275
2.33725e-06;-0.006106587992972349
2.33750e-06;-0.006099909975495155
2.33775e-06;-0.006093231958017961
2.33800e-06;-0.006086553940540767
2.33825e-06;-0.006079875923063585
2.33850e-06;-0.006073197905586391
2.33875e-06;-0.0060665198881091975
2.33900e-06;-0.006059841870632015
2.33925e-06;-0.00604901833232094
2.33950e-06;-0.00603772623236824
2.33975e-06;-0.006026434132415542
2.34000e-06;-0.006015142032462862
2.34025e-06;-0.006003849932510162
2.34050e-06;-0.005992557832557464
2.34075e-06;-0.005981265732604784
2.34100e-06;-0.005966668017431685
2.34125e-06;-0.005947079724640395
2.34150e-06;-0.005927491431849137
2.34175e-06;-0.005907903139057847
2.34200e-06;-0.0058883148462665555
2.34225e-06;-0.005868726553475265
2.34250e-06;-0.005849138260684008
2.34275e-06;-0.005823705873218324
2.34300e-06;-0.005797612937005121
2.34325e-06;-0.005771520000791962
2.34350e-06;-0.005745427064578758
2.34375e-06;-0.0057193341283655556
2.34400e-06;-0.005693241192152352
2.34425e-06;-0.0056660319984642325
2.34450e-06;-0.005637137560366358
2.34475e-06;-0.005608243122268484
2.34500e-06;-0.00557904884735838
2.34525e-06;-0.005549401900620216
2.34550e-06;-0.005519754953882053
2.34575e-06;-0.005490240268081039
2.34600e-06;-0.005460925260230511
2.34625e-06;-0.005432021785826536
2.34650e-06;-0.005403739614711257
2.34675e-06;-0.005376018617134843
2.34700e-06;-0.005349144838583026
2.34725e-06;-0.005323041340059775
2.34750e-06;-0.005298100754342258
2.34775e-06;-0.005274217946883843
2.34800e-06;-0.005251932096165226
2.34825e-06;-0.005231007942454828
2.34850e-06;-0.005212139579923794
2.34875e-06;-0.005194976075406078
2.34900e-06;-0.005180386441613439
2.34925e-06;-0.005167645183021229
2.34950e-06;-0.0051576944669727495
2.34975e-06;-0.005150096059776981
2.35000e-06;-0.005146048997528992
2.35025e-06;-0.005142001935280996
2.35050e-06;-0.005142059395426214
2.35075e-06;-0.005148313565177513
2.35100e-06;-0.005154567734928801
2.35125e-06;-0.005160821904680099
2.35150e-06;-0.005167076074431397
2.35175e-06;-0.005173330244182685
2.35200e-06;-0.005190336073354452
2.35225e-06;-0.005208557145529747
2.35250e-06;-0.005226778217705041
2.35275e-06;-0.005244999289880305
2.35300e-06;-0.005263220362055599
2.35325e-06;-0.0052848593877017295
2.35350e-06;-0.005311658591092495
2.35375e-06;-0.005338457794483305
2.35400e-06;-0.0053652569978741155
2.35425e-06;-0.005392048984222759
2.35450e-06;-0.0054188050459883525
2.35475e-06;-0.005445561107753945
2.35500e-06;-0.005472317169519538
2.35525e-06;-0.005499073231285087
2.35550e-06;-0.005537446536986563
2.35575e-06;-0.010931674910076496
2.35600e-06;-0.027330762712644275
2.35625e-06;-0.022905756912778047
2.35650e-06;-0.019327111495675016
2.35675e-06;-0.013078268847064714
2.35700e-06;-0.00034563350840806405
2.35725e-06;-0.0014799975982623104
2.35750e-06;-0.002400197482794178
2.35775e-06;-0.007437471288264117
2.35800e-06;-0.014156742702352695
2.35825e-06;-0.014014937793117174
2.35850e-06;-0.010811951847423621
2.35875e-06;-0.006519103067582759
2.35900e-06;-0.0018582202599928513
2.35925e-06;-0.001332545076247662
2.35950e-06;-0.003029634269842344
2.35975e-06;-0.006355969513747465
2.36000e-06;-0.010227830346386106
2.36025e-06;-0.010210218453768294
2.36050e-06;-0.008257943646333683
2.36075e-06;-0.00560929485719873
2.36100e-06;-0.002719135609943613
2.36125e-06;-0.0024103216222765753
2.36150e-06;-0.003486438462795015
2.36175e-06;-0.005576983741277897
2.36200e-06;-0.008004178315561638
2.36225e-06;-0.007990956934643183
2.36250e-06;-0.006762727697937186
2.36275e-06;-0.00509584885882315
2.36300e-06;-0.00327579123786217
2.36325e-06;-0.003071156373619178
2.36350e-06;-0.0037327697168828655
2.36375e-06;-0.005028800035380473
2.36400e-06;-0.006534928950197912
2.36425e-06;-0.006511912698621643
2.36450e-06;-0.005727672646939554
2.36475e-06;-0.004668767240218994
2.36500e-06;-0.003514218312198924
2.36525e-06;-0.0033720062903126705
2.36550e-06;-0.003772941424160072
2.36575e-06;-0.0045719174191659944
2.36600e-06;-0.005503265864100593
2.36625e-06;-0.005477709524198289
2.36650e-06;-0.0049764782311524005
2.36675e-06;-0.004304517559643966
2.36700e-06;-0.0035741118073712233
2.36725e-06;-0.0034794046700001896
2.36750e-06;-0.003726582127348702
2.36775e-06;-0.004224852703378356
2.36800e-06;-0.004807914987917281
2.36825e-06;-0.004793591334236901
2.36850e-06;-0.004483349494667811
2.36875e-06;-0.0040677977267389535
2.36900e-06;-0.003616639990876292
2.36925e-06;-0.0035643592007899173
2.36950e-06;-0.003726832810482631
2.36975e-06;-0.004047133191108153
2.37000e-06;-0.004421041314378255
2.37025e-06;-0.004421217132817068
2.37050e-06;-0.00423648619161768
2.37075e-06;-0.003986217116975535
2.37100e-06;-0.0037140371957595716
2.37125e-06;-0.0036920559665661085
2.37150e-06;-0.0038048822795499647
2.37175e-06;-0.004016806458475752
2.37200e-06;-0.004262499988646824
2.37225e-06;-0.004274247247870291
2.37250e-06;-0.0041703041659402525
2.37275e-06;-0.00402541059268861
2.37300e-06;-0.0038668573901884636
2.37325e-06;-0.0038650471230999954
2.37350e-06;-0.003947647682526831
2.37375e-06;-0.004092243876850548
2.37400e-06;-0.0042578705343248
2.37425e-06;-0.0042767964636709855
2.37450e-06;-0.0042230669216447875
2.37475e-06;-0.004143463384484593
2.37500e-06;-0.004055042007233822
2.37525e-06;-0.004064498214885809
2.37550e-06;-0.004126476810969372
2.37575e-06;-0.004226892693808304
2.37600e-06;-0.004340041677602663
2.37625e-06;-0.00436082149330215
2.37650e-06;-0.004335580017892832
2.37675e-06;-0.004293582657300611
2.37700e-06;-0.004245475103300468
2.37725e-06;-0.004258047686529809
2.37750e-06;-0.004302845684937247
2.37775e-06;-0.004371002740816606
2.37800e-06;-0.0044463762575203325
2.37825e-06;-0.004463104771290424
2.37850e-06;-0.0044504413861077615
2.37875e-06;-0.004427641189337592
2.37900e-06;-0.004402535156147926
2.37925e-06;-0.004417393617503556
2.37950e-06;-0.004454301107183591
2.37975e-06;-0.0045075927204081675
2.38000e-06;-0.004567044249755873
2.38025e-06;-0.004591291408752307
2.38050e-06;-0.004598550629716522
2.38075e-06;-0.004600773573946872
2.38100e-06;-0.004602755580579982
2.38125e-06;-0.004630863156009068
2.38150e-06;-0.0046737611821051515
2.38175e-06;-0.004727789582715205
2.38200e-06;-0.004786432830734319
2.38225e-06;-0.004823671213529377
2.38250e-06;-0.004850805675338183
2.38275e-06;-0.00487521280003621
2.38300e-06;-0.004899786103310199
2.38325e-06;-0.004940929230510687
2.38350e-06;-0.004991431853779291
2.38375e-06;-0.005048888428336871
2.38400e-06;-0.005109107505494659
2.38425e-06;-0.005155678802229726
2.38450e-06;-0.005195572834367087
2.38475e-06;-0.00523359281756214
2.38500e-06;-0.005275256929921355
2.38525e-06;-0.005317518561926178
2.38550e-06;-0.005369547684950868
2.38575e-06;-0.005424737443084328
2.38600e-06;-0.00547655413566014
2.38625e-06;-0.005527750030917366
2.38650e-06;-0.005568855785292987
2.38675e-06;-0.005607395629521524
2.38700e-06;-0.005646119323682104
2.38725e-06;-0.005685072985907662
2.38750e-06;-0.005727701563834407
2.38775e-06;-0.00577027930363939
2.38800e-06;-0.005812342824712502
2.38825e-06;-0.005845849994218097
2.38850e-06;-0.0058736960576707305
2.38875e-06;-0.005895918811284918
2.38900e-06;-0.005918056893904677
2.38925e-06;-0.0059387612620521064
2.38950e-06;-0.005957837141030165
2.38975e-06;-0.005971201619975905
2.39000e-06;-0.005984566098921621
2.39025e-06;-0.005997286475474167
2.39050e-06;-0.0059992826877493894
2.39075e-06;-0.0059945225428501055
2.39100e-06;-0.005989762397950815
2.39125e-06;-0.0059847589358324755
2.39150e-06;-0.005975518796234136
2.39175e-06;-0.005960759506512513
2.39200e-06;-0.0059460002167908655
2.39225e-06;-0.0059307424734006305
2.39250e-06;-0.005907189703381808
2.39275e-06;-0.005878474234438689
2.39300e-06;-0.00584975876549557
2.39325e-06;-0.005820859048084328
2.39350e-06;-0.005788801279254575
2.39375e-06;-0.0057533656970538884
2.39400e-06;-0.005717930114853202
2.39425e-06;-0.005682168750269252
2.39450e-06;-0.005641196843413549
2.39475e-06;-0.005600113466782671
2.39500e-06;-0.0055572472498102736
2.39525e-06;-0.00551438477315843
2.39550e-06;-0.0054715821189516775
2.39575e-06;-0.00542877265544327
2.39600e-06;-0.005385854284406694
2.39625e-06;-0.005342920472559252
