Time(s);Current(A)
7.50000e-07;-0.00045341155196627805
7.50250e-07;-0.0005084633042022964
7.50500e-07;-0.0005626752711285284
7.50750e-07;-0.0006142965405052013
7.51000e-07;-0.0006647499514547593
7.51250e-07;-0.0007115702512762429
7.51500e-07;-0.0007567527839071037
7.51750e-07;-0.0007972991107817045
7.52000e-07;-0.00083575548625954
7.52250e-07;-0.000869232778686047
7.52500e-07;-0.0009004655543406776
7.52750e-07;-0.0009267650856181845
7.53000e-07;-0.0009508407637022301
7.53250e-07;-0.0009697203823235615
7.53500e-07;-0.0009862576735541952
7.53750e-07;-0.000997337474424073
7.54000e-07;-0.0010059570976827792
7.54250e-07;-0.0010092713909062156
7.54500e-07;-0.0010101940987470158
7.54750e-07;-0.0010062071134594776
7.55000e-07;-0.001000006891626636
7.55250e-07;-0.0009890992686525531
7.55500e-07;-0.0009760696001724008
7.55750e-07;-0.0009585356650870366
7.56000e-07;-0.0009389712553467674
7.56250e-07;-0.0009153648173954502
7.56500e-07;-0.0008899362768564537
7.56750e-07;-0.0008610803074329489
7.57000e-07;-0.0008306792901489281
7.57250e-07;-0.000796711529182716
7.57500e-07;-0.0007611359187524256
7.57750e-07;-0.0007255603083221353
7.58000e-07;-0.0006868076999609412
7.58250e-07;-0.0006466229353037886
7.58500e-07;-0.0006064381706466191
7.58750e-07;-0.0005646899293899815
7.59000e-07;-0.0005222368897972287
7.59250e-07;-0.0004797838502044758
7.59500e-07;-0.00043730186972450375
7.59750e-07;-0.00039480684300569665
7.60000e-07;-0.00035231181628687155
7.60250e-07;-0.0003110211731489003
7.60500e-07;-0.0002702734530992061
7.60750e-07;-0.0002308763791133014
7.61000e-07;-0.00019325302578429
7.61250e-07;-0.0001575159283891576
7.61500e-07;-0.00012394979819013008
7.61750e-07;-9.28377267560082e-05
7.62000e-07;-6.405994012535158e-05
7.62250e-07;-3.660351867698415e-05
7.62500e-07;-9.218699750204777e-06
7.62750e-07;1.8603030660901167e-05
7.63000e-07;4.6740366785779784e-05
7.63250e-07;7.495044407503885e-05
7.63500e-07;0.00010297008455575797
7.63750e-07;0.00013040172640974379
7.64000e-07;0.00015760700486640902
7.64250e-07;0.00018491009422710059
7.64500e-07;0.0002133366912043345
7.64750e-07;0.00024224987701966137
7.65000e-07;0.0002724673185556415
7.65250e-07;0.00030327270446001505
7.65500e-07;0.0003340780903644017
7.65750e-07;0.0003659471541775356
7.66000e-07;0.0003982957124842296
7.66250e-07;0.00043064427079092364
7.66500e-07;0.00046299282909761767
7.66750e-07;0.000495341387404298
7.67000e-07;0.000529204070340946
7.67250e-07;0.000563749304279789
7.67500e-07;0.000598294538218632
7.67750e-07;0.000632839772157475
7.68000e-07;0.000667385006096318
7.68250e-07;0.0007018645044402041
7.68500e-07;0.0007363143698890841
7.68750e-07;0.000770764235337964
7.69000e-07;0.000805214100786844
7.69250e-07;0.000839663966235724
7.69500e-07;0.0008734847737988938
7.69750e-07;0.0009046112146402609
7.70000e-07;0.000935737655481628
7.70250e-07;0.0009668640963229952
7.70500e-07;0.0009979905371643623
7.70750e-07;0.0010291169780057294
7.71000e-07;0.0010567627750338695
7.71250e-07;0.0010828395354873519
7.71500e-07;0.0011089162959408343
7.71750e-07;0.0011292254037887034
7.72000e-07;0.0011469345162409374
7.72250e-07;0.0011646436286931639
7.72500e-07;0.0011823527411453979
7.72750e-07;0.0012000618535976317
7.73000e-07;0.0012177709660498657
7.73250e-07;0.0012354800785020997
7.73500e-07;0.0012531891909543338
7.73750e-07;0.0012692722845080492
7.74000e-07;0.0012783908501401888
7.74250e-07;0.0012875094157723285
7.74500e-07;0.0012966279814044682
7.74750e-07;0.0013057465470366078
7.75000e-07;0.0013148651126687477
7.75250e-07;0.0013239836783008835
7.75500e-07;0.0013331022439330232
7.75750e-07;0.0013422208095651628
7.76000e-07;0.0013469642515528666
7.76250e-07;0.0013497354351351555
7.76500e-07;0.0013525066187174432
7.76750e-07;0.001355277802299732
7.77000e-07;0.0013580489858820207
7.77250e-07;0.0013608201694643096
7.77500e-07;0.0013635913530465984
7.77750e-07;0.0013663625366288872
7.78000e-07;0.001369133720211175
7.78250e-07;0.0013719049037934636
7.78500e-07;0.0013740599945201155
7.78750e-07;0.0013735762500528175
7.79000e-07;0.0013730925055855192
7.79250e-07;0.001372608761118221
7.79500e-07;0.001372125016650923
7.79750e-07;0.0013716412721836249
7.80000e-07;0.0013711575277163266
7.80250e-07;0.0013706737832490283
7.80500e-07;0.0013701900387817303
7.80750e-07;0.0013697062943144322
7.81000e-07;0.001369222549847134
7.81250e-07;0.0013685025974546692
7.81500e-07;0.0013676761650850198
7.81750e-07;0.001367028272846781
7.82000e-07;0.0013664608645681964
7.82250e-07;0.0013676796199098965
7.82500e-07;0.0013697035584875187
7.82750e-07;0.0013754925005359142
7.83000e-07;0.00138297866541621
7.83250e-07;0.0013904648302965055
7.83500e-07;0.001401952166451363
7.83750e-07;0.0014152431873290167
7.84000e-07;0.001428534208206676
7.84250e-07;0.0014465780342514437
7.84500e-07;0.0014667643734460197
7.84750e-07;0.0014869507126405957
7.85000e-07;0.0015122246565265926
7.85250e-07;0.0015397920375658544
7.85500e-07;0.0015673594186051162
7.85750e-07;0.0015996798187921655
7.86000e-07;0.0016341428285892021
7.86250e-07;0.0016686058383862388
7.86500e-07;0.001703068848183261
7.86750e-07;0.001742408270425644
7.87000e-07;0.001783945926641595
7.87250e-07;0.0018254835828575458
7.87500e-07;0.0018670212390734966
7.87750e-07;0.0019108392138599375
7.88000e-07;0.0019556851315877355
7.88250e-07;0.00200127526075318
7.88500e-07;0.00204765071327166
7.88750e-07;0.0020945282546746273
7.89000e-07;0.0021416427885345233
7.89250e-07;0.0021887088079323228
7.89500e-07;0.002235440613873056
7.89750e-07;0.0022815522903262956
7.90000e-07;0.0023267953143857865
7.90250e-07;0.0023709993250264397
7.90500e-07;0.0024140074743386948
7.90750e-07;0.0024555875392714387
7.91000e-07;0.0024954474614601978
7.91250e-07;0.002533281751305234
7.91500e-07;0.0025687853441134743
7.91750e-07;0.002601652822630331
7.92000e-07;0.002631603355474938
7.92250e-07;0.0026584397037276017
7.92500e-07;0.002682063376153934
7.92750e-07;0.0027024178846129223
7.93000e-07;0.0027194451778311053
7.93250e-07;0.0027330845028057365
7.93500e-07;0.0027432753235694615
7.93750e-07;0.002749956943669428
7.94000e-07;0.002751864391273002
7.94250e-07;0.002752113869307677
7.94500e-07;0.0027476092850387585
7.94750e-07;0.002740961620916475
7.95000e-07;0.0027271737691598303
7.95250e-07;0.002710167198065636
7.95500e-07;0.0026931606269714418
7.95750e-07;0.0026761540558772473
7.96000e-07;0.0026568025295837217
7.96250e-07;0.002627407143421001
7.96500e-07;0.0025980117572582686
7.96750e-07;0.002568616371095536
7.97000e-07;0.002539220984932803
7.97250e-07;0.002504469751462258
7.97500e-07;0.002467304159969009
7.97750e-07;0.0024301385684757757
7.98000e-07;0.002390110664391909
7.98250e-07;0.0023487924607588787
7.98500e-07;0.0023074742571258487
7.98750e-07;0.0022647513238117163
7.99000e-07;0.0022213951535547836
7.99250e-07;0.0021780389832978695
7.99500e-07;0.0021346551827853945
7.99750e-07;0.002091258926852646
8.00000e-07;0.0020486529015779284
8.00250e-07;0.0020064031037345317
8.00500e-07;0.0019657037564165853
8.00750e-07;0.0019257033354215286
8.01000e-07;0.0018931098022331456
8.01250e-07;0.001863855213934646
8.01500e-07;0.0018346006256361464
8.01750e-07;0.0018053460373376469
8.02000e-07;0.0017760914490391596
8.02250e-07;0.00174683686074066
8.02500e-07;0.0017175822724421605
8.02750e-07;0.0016883276841436609
8.03000e-07;0.0016590730958451613
8.03250e-07;0.0016400483265826234
8.03500e-07;0.0016256350490675227
8.03750e-07;0.001611221771552416
8.04000e-07;0.0015968084940373092
8.04250e-07;0.0015823952165222024
8.04500e-07;0.0015679819390070958
8.04750e-07;0.0015535686614919953
8.05000e-07;0.0015391553839768884
8.05250e-07;0.0015247421064617816
8.05500e-07;0.0015175551161193516
8.05750e-07;0.001513625657854894
8.06000e-07;0.0015096961995904362
8.06250e-07;0.0015057667413259804
8.06500e-07;0.0015018372830615228
8.06750e-07;0.001497907824797065
8.07000e-07;0.0014939783665326074
8.07250e-07;0.0014900489082681498
8.07500e-07;0.0014861194500036938
8.07750e-07;0.0014832750809879245
8.08000e-07;0.0014850783420687793
8.08250e-07;0.001486881603149634
8.08500e-07;0.0014886848642304887
8.08750e-07;0.0014904881253113436
8.09000e-07;0.0014922913863921975
8.09250e-07;0.0014940946474730525
8.09500e-07;0.0014958979085539072
8.09750e-07;0.001497701169634762
8.10000e-07;0.0014995044307156166
8.10250e-07;0.0015021512579438852
8.10500e-07;0.0015051783556650688
8.10750e-07;0.0015082054533862535
8.11000e-07;0.001511133028027949
8.11250e-07;0.0015136343276327226
8.11500e-07;0.0015161356272374964
8.11750e-07;0.0015186369268422688
8.12000e-07;0.0015217426951256484
8.12250e-07;0.0015251209513497442
8.12500e-07;0.00152849920757384
8.12750e-07;0.0015349343650710823
8.13000e-07;0.0015427475405903896
8.13250e-07;0.0015505607161096938
8.13500e-07;0.0015611285451890503
8.13750e-07;0.0015729381422913546
8.14000e-07;0.001584747739393659
8.14250e-07;0.0016011999202137958
8.14500e-07;0.0016197449275469553
8.14750e-07;0.001638289934880107
8.15000e-07;0.0016568349422132664
8.15250e-07;0.0016753799495464257
8.15500e-07;0.0016993281991252104
8.15750e-07;0.0017257121718519727
8.16000e-07;0.0017520961445787239
8.16250e-07;0.001778480117305486
8.16500e-07;0.0018048640900322484
8.16750e-07;0.0018354316400825744
8.17000e-07;0.0018678851015292719
8.17250e-07;0.0019003385629759691
8.17500e-07;0.0019327920244226527
8.17750e-07;0.001965807679484075
8.18000e-07;0.0020012313097117185
8.18250e-07;0.002036654939939362
8.18500e-07;0.002072078570167006
8.18750e-07;0.0021075022003946495
8.19000e-07;0.0021434563422277233
8.19250e-07;0.0021795576747550543
8.19500e-07;0.002215373294573274
8.19750e-07;0.0022506824058870665
8.20000e-07;0.002285295740406478
8.20250e-07;0.0023190927745613352
8.20500e-07;0.0023519653852276164
8.20750e-07;0.002383742176267108
8.21000e-07;0.002414200350583194
8.21250e-07;0.0024431056805483587
8.21500e-07;0.0024695028771324666
8.21750e-07;0.0024949971341206236
8.22000e-07;0.002517736095606707
8.22250e-07;0.0025392329996893033
8.22500e-07;0.002558823014925712
8.22750e-07;0.002577553425300413
8.23000e-07;0.002593863633920786
8.23250e-07;0.0026090828417738585
8.23500e-07;0.0026243020496269373
8.23750e-07;0.0026361589790263188
8.24000e-07;0.00264650022967442
8.24250e-07;0.0026568414803225214
8.24500e-07;0.002663388773238903
8.24750e-07;0.002668225791055705
8.25000e-07;0.002673062808872507
8.25250e-07;0.0026778998266893087
8.25500e-07;0.0026827368445061107
8.25750e-07;0.0026875738623229127
8.26000e-07;0.002688152316852563
8.26250e-07;0.0026868110571246872
8.26500e-07;0.002685469797396812
8.26750e-07;0.0026841285376689368
8.27000e-07;0.002682787277941061
8.27250e-07;0.0026814460182131863
8.27500e-07;0.002677145145821832
8.27750e-07;0.0026715101120610802
8.28000e-07;0.0026658750783003283
8.28250e-07;0.0026602400445395764
8.28500e-07;0.0026546050107788244
8.28750e-07;0.0026489699770180747
8.29000e-07;0.0026433349432573227
8.29250e-07;0.00263660695731109
8.29500e-07;0.002629386280344014
8.29750e-07;0.0026221656033769383
8.30000e-07;0.0026149449264098626
8.30250e-07;0.0026077242494427894
8.30500e-07;0.0026005035724757136
8.30750e-07;0.002593282895508638
8.31000e-07;0.002586651773530856
8.31250e-07;0.0025802864165640027
8.31500e-07;0.002573921059597152
8.31750e-07;0.002568212890799387
8.32000e-07;0.0025628009753182962
8.32250e-07;0.0025573890598372057
8.32500e-07;0.002551313536766572
8.32750e-07;0.002544938866573973
8.33000e-07;0.0025385641963813765
8.33250e-07;0.0025308171405107587
8.33500e-07;0.002522451428023978
8.33750e-07;0.002514085715537197
8.34000e-07;0.002505720003050416
8.34250e-07;0.002497354290563635
8.34500e-07;0.002488988578076858
8.34750e-07;0.002479980478167113
8.35000e-07;0.002468220918758137
8.35250e-07;0.0024564613593491607
8.35500e-07;0.0024447017999401845
8.35750e-07;0.0024329422405312134
8.36000e-07;0.0024211826811222376
8.36250e-07;0.0024094231217132614
8.36500e-07;0.002395572113474021
8.36750e-07;0.00238077830272894
8.37000e-07;0.0023659844919838593
8.37250e-07;0.002351190681238785
8.37500e-07;0.002336396870493704
8.37750e-07;0.0023216030597486234
8.38000e-07;0.0023068092490035426
8.38250e-07;0.0022918739553219325
8.38500e-07;0.002276332665078466
8.38750e-07;0.0022607913748350066
8.39000e-07;0.0022452500845915402
8.39250e-07;0.002229708794348074
8.39500e-07;0.002214167504104608
8.39750e-07;0.0021986262138611414
8.40000e-07;0.0021830849236176815
8.40250e-07;0.0021689066261232994
8.40500e-07;0.002155342751014342
8.40750e-07;0.0021417788759053847
8.41000e-07;0.0021282150007964273
8.41250e-07;0.00211465112568747
8.41500e-07;0.0021024180606330537
8.41750e-07;0.0020913814349993167
8.42000e-07;0.0020807721154219847
8.42250e-07;0.002069090420250633
8.42500e-07;0.0020546163133716446
8.42750e-07;0.0020354903179135345
8.43000e-07;0.002014729973572146
8.43250e-07;0.001989775661361959
8.43500e-07;0.0019629307538099553
8.43750e-07;0.0019324993561710983
8.44000e-07;0.0019004512076023787
8.44250e-07;0.0018619222662443274
8.44500e-07;0.0018204718536108091
8.44750e-07;0.0017790214409772907
8.45000e-07;0.0017293393252515233
8.45250e-07;0.0016759464468283887
8.45500e-07;0.0016225535684052544
8.45750e-07;0.0015629006583874913
8.46000e-07;0.0015004257938524576
8.46250e-07;0.001437950929317424
8.46500e-07;0.001368967200402351
8.46750e-07;0.0012970493458424326
8.47000e-07;0.0012251314912825448
8.47250e-07;0.0011485539131522475
8.47500e-07;0.0010698757820487318
8.47750e-07;0.0009911976509452162
8.48000e-07;0.0009100503165112591
8.48250e-07;0.0008277898919295922
8.48500e-07;0.0007455294673479603
8.48750e-07;0.0006620970638849915
8.49000e-07;0.0005781363450216583
8.49250e-07;0.0004941756261583251
8.49500e-07;0.00041140076148613145
8.49750e-07;0.0003291604670538639
8.50000e-07;0.00024860364557527143
8.50250e-07;0.00017015798647064157
8.50500e-07;9.383949256515866e-05
8.50750e-07;2.0030954212518275e-05
8.51000e-07;-5.075942604576455e-05
8.51250e-07;-0.0001179960219240999
8.51500e-07;-0.00018114330219213133
8.51750e-07;-0.00023966747336436625
8.52000e-07;-0.0002934577808093669
8.52250e-07;-0.0003433656083579813
8.52500e-07;-0.000390560652557251
8.52750e-07;-0.00043550512684078764
8.53000e-07;-0.00047803506614066806
8.53250e-07;-0.0005178452876907033
8.53500e-07;-0.0005546307090281685
8.53750e-07;-0.0005880874363653154
8.54000e-07;-0.0006172938811229562
8.54250e-07;-0.0006450637957183546
8.54500e-07;-0.0006701260790085978
8.54750e-07;-0.0006939677913996018
8.55000e-07;-0.0007152681956572901
8.55250e-07;-0.0007354230057022046
8.55500e-07;-0.0007525935876630901
8.55750e-07;-0.0007684189118892609
8.56000e-07;-0.00078082338045013
8.56250e-07;-0.0007916857642863895
8.56500e-07;-0.0008025481481226488
8.56750e-07;-0.0008108536767916798
8.57000e-07;-0.0008180066028132428
8.57250e-07;-0.0008251595288348088
8.57500e-07;-0.0008296083007372909
8.57750e-07;-0.0008328380692183964
8.58000e-07;-0.000836067837699502
8.58250e-07;-0.0008366199825798112
8.58500e-07;-0.0008359650837093616
8.58750e-07;-0.0008353101848389118
8.59000e-07;-0.0008346552859684619
8.59250e-07;-0.0008340003870980122
8.59500e-07;-0.0008333454882275623
8.59750e-07;-0.0008322719157763782
8.60000e-07;-0.0008294050899711177
8.60250e-07;-0.0008265382641658572
8.60500e-07;-0.0008236714383605967
8.60750e-07;-0.0008208046125553362
8.61000e-07;-0.0008179377867500757
8.61250e-07;-0.0008150709609448164
8.61500e-07;-0.0008124508023992921
8.61750e-07;-0.0008099418387858317
8.62000e-07;-0.0008074328751723712
8.62250e-07;-0.0008033200862271947
8.62500e-07;-0.0007984843101738257
8.62750e-07;-0.0007906266120019633
8.63000e-07;-0.0007814066640324224
8.63250e-07;-0.0007694546307779286
8.63500e-07;-0.0007562710030346547
8.63750e-07;-0.0007406660701992049
8.64000e-07;-0.0007239696392236407
8.64250e-07;-0.0007041158564186647
8.64500e-07;-0.0006828387735675081
8.64750e-07;-0.0006578888995457897
8.65000e-07;-0.0006312833709992924
8.65250e-07;-0.0006015458673948766
8.65500e-07;-0.0005703965033183351
8.65750e-07;-0.0005366688993801721
8.66000e-07;-0.000501779052805657
8.66250e-07;-0.00046420913831256674
8.66500e-07;-0.0004254310781966929
8.66750e-07;-0.00038400920985748815
8.67000e-07;-0.00034139554137380617
8.67250e-07;-0.0002972300482075456
8.67500e-07;-0.0002515769050381558
8.67750e-07;-0.00020472260898617573
8.68000e-07;-0.00015748699756744795
8.68250e-07;-0.00010953059055026395
8.68500e-07;-6.080129898414342e-05
8.68750e-07;-1.1575509303785625e-05
8.69000e-07;3.781382612507411e-05
8.69250e-07;8.72170289905797e-05
8.69500e-07;0.00013623996623115828
8.69750e-07;0.00018456417253144417
8.70000e-07;0.00023156680683643626
8.70250e-07;0.00027808084698665024
8.70500e-07;0.00032330863086940616
8.70750e-07;0.00036687709861086843
8.71000e-07;0.0004086610393506258
8.71250e-07;0.0004483436708861457
8.71500e-07;0.0004856082361698604
8.71750e-07;0.000519277505981158
8.72000e-07;0.0005516785384941655
8.72250e-07;0.0005826072368044498
8.72500e-07;0.0006128722227849029
8.72750e-07;0.0006436838157302123
8.73000e-07;0.0006747418131816866
8.73250e-07;0.0007057998106331609
8.73500e-07;0.0007361738706070058
8.73750e-07;0.000766239618965262
8.74000e-07;0.0007963053673235055
8.74250e-07;0.0008263711156817617
8.74500e-07;0.0008390124411369292
8.74750e-07;0.0008711705759648478
8.75000e-07;-0.050738859853624876
8.75250e-07;-0.02724664277585648
8.75500e-07;-0.010870057938105037
8.75750e-07;0.00781033358836394
8.76000e-07;0.020653504698928116
8.76250e-07;0.020217652195334224
8.76500e-07;0.010298488838171395
8.76750e-07;-0.004710036283606061
8.77000e-07;-0.015116712861869719
8.77250e-07;-0.013694709265215085
8.77500e-07;-0.0047183059115317805
8.77750e-07;0.006877742552027706
8.78000e-07;0.014657565296926486
8.78250e-07;0.014245502228112916
8.78500e-07;0.007952496975635211
8.78750e-07;-0.0014965382099972639
8.79000e-07;-0.008045677814109052
8.79250e-07;-0.007176246899478982
8.79500e-07;-0.0015703113532125512
8.79750e-07;0.0056785027556645815
8.80000e-07;0.010537593281560191
8.80250e-07;0.010265700054385922
8.80500e-07;0.006310376650703317
8.80750e-07;0.0003784857490293585
8.81000e-07;-0.0037367436648008067
8.81250e-07;-0.003205275777279516
8.81500e-07;0.0002923596904528215
8.81750e-07;0.0048180035983074005
8.82000e-07;0.007845360189457052
8.82250e-07;0.007656881238439262
8.82500e-07;0.005158906277423165
8.82750e-07;0.001420532293857545
8.83000e-07;-0.0011820787275697601
8.83250e-07;-0.0008762273877675377
8.83500e-07;0.0012853422693935481
8.83750e-07;0.004088611527473849
8.84000e-07;0.005951283091149521
8.84250e-07;0.005797779786310819
8.84500e-07;0.0041961487132608204
8.84750e-07;0.0018163325026819175
8.85000e-07;0.00014691904038718364
8.85250e-07;0.00029837070625751206
8.85500e-07;0.001611275741986746
8.85750e-07;0.003325265723205651
8.86000e-07;0.004449363730579815
8.86250e-07;0.004310078527952138
8.86500e-07;0.003263497777230449
8.86750e-07;0.001729501602969651
8.87000e-07;0.0006407072709667222
8.87250e-07;0.0006928010298188243
8.87500e-07;0.0014728097461966707
8.87750e-07;0.002504562318490829
8.88000e-07;0.0031674853274806353
8.88250e-07;0.0030399262067588137
8.88500e-07;0.002345168638582474
8.88750e-07;0.0013464341457776004
8.89000e-07;0.0006280838976931656
8.89250e-07;0.0006260191745559221
8.89500e-07;0.0010816709860854866
8.89750e-07;0.0016969090984921558
8.90000e-07;0.002083181621443273
8.90250e-07;0.001976570443986948
8.90500e-07;0.001517150718292032
8.90750e-07;0.0008700009203886346
8.91000e-07;0.0004013369287162449
8.91250e-07;0.00038435077121865056
8.91500e-07;0.0006572143942128706
8.91750e-07;0.0010333384860749246
8.92000e-07;0.0012696028779776484
8.92250e-07;0.0012011250552726252
8.92500e-07;0.0009160038006032484
8.92750e-07;0.0005176749067987826
8.93000e-07;0.00023533869357372067
8.93250e-07;0.00023986491368150869
8.93500e-07;0.00042962425595429626
8.93750e-07;0.0006874872056786774
8.94000e-07;0.0008609258390367147
8.94250e-07;0.0008464321244528289
8.94500e-07;0.0006989674944849603
8.94750e-07;0.0004830951076781853
8.95000e-07;0.0003421475779989988
8.95250e-07;0.0003829079991621465
8.95500e-07;0.0005414645747672067
8.95750e-07;0.0007442025948996625
8.96000e-07;0.0008953417004906253
8.96250e-07;0.0009298150058048421
8.96500e-07;0.0008818221784196042
