Time(s);Current(A)
7.50000e-07;0.012111814026803442
7.50250e-07;0.012111373511225649
7.50500e-07;0.012110932995647855
7.50750e-07;0.012110614837936837
7.51000e-07;0.012110534433754561
7.51250e-07;0.012110454029572287
7.51500e-07;0.012110568659610412
7.51750e-07;0.012111062260574958
7.52000e-07;0.012111555861539504
7.52250e-07;0.012112158002370354
7.52500e-07;0.012113035284858048
7.52750e-07;0.012114113017767712
7.53000e-07;0.01211542377938375
7.53250e-07;0.012116999885564925
7.53500e-07;0.012118925458753937
7.53750e-07;0.012121499561133496
7.54000e-07;0.012125265668270081
7.54250e-07;0.012130652724143107
7.54500e-07;0.012137747077038368
7.54750e-07;0.01214673911592056
7.55000e-07;0.012157285878416793
7.55250e-07;0.012168585300015062
7.55500e-07;0.012181848142142349
7.55750e-07;0.01219700550388907
7.56000e-07;0.012213952780779348
7.56250e-07;0.012232231174134927
7.56500e-07;0.012253096059435324
7.56750e-07;0.01227513558025674
7.57000e-07;0.01229945753495411
7.57250e-07;0.012325023584358084
7.57500e-07;0.012353007033757555
7.57750e-07;0.012380990483157026
7.58000e-07;0.012410219134812757
7.58250e-07;0.012441867338543326
7.58500e-07;0.012474374684364313
7.58750e-07;0.012508551428884978
7.59000e-07;0.012543350458091011
7.59250e-07;0.012579358648454657
7.59500e-07;0.012615791346779362
7.59750e-07;0.012653048906376838
7.60000e-07;0.012690635250000824
7.60250e-07;0.012728860453753342
7.60500e-07;0.012767198785792164
7.60750e-07;0.012805756937365107
7.61000e-07;0.012844157500444103
7.61250e-07;0.012882251853374887
7.61500e-07;0.012919941792459803
7.61750e-07;0.012956845915140229
7.62000e-07;0.012993163036502903
7.62250e-07;0.013028339555807417
7.62500e-07;0.01306291910584726
7.62750e-07;0.013095843135754332
7.63000e-07;0.01312723561623225
7.63250e-07;0.0131568820446518
7.63500e-07;0.013184512504889547
7.63750e-07;0.01320962392110184
7.64000e-07;0.01323148130738016
7.64250e-07;0.013249532800485018
7.64500e-07;0.013263645702070302
7.64750e-07;0.013273217924626114
7.65000e-07;0.013278982811362984
7.65250e-07;0.013282820878140943
7.65500e-07;0.013281618159295029
7.65750e-07;0.013276502365496878
7.66000e-07;0.013266460517466121
7.66250e-07;0.013252107439607435
7.66500e-07;0.013235621695775178
7.66750e-07;0.013213666390707871
7.67000e-07;0.013187882873652797
7.67250e-07;0.013158485647239182
7.67500e-07;0.013125666149786247
7.67750e-07;0.013089524660721065
7.68000e-07;0.013050070565292187
7.68250e-07;0.013007386130957067
7.68500e-07;0.012961716663326713
7.68750e-07;0.012913377582316877
7.69000e-07;0.012862686170488451
7.69250e-07;0.012809959674390916
7.69500e-07;0.012755500539786916
7.69750e-07;0.012699556220735845
7.70000e-07;0.012642315178846262
7.70250e-07;0.01258401073857565
7.70500e-07;0.012524980769269929
7.70750e-07;0.012465606181862116
7.71000e-07;0.012406267887285254
7.71250e-07;0.012347347112915068
7.71500e-07;0.012289217473495448
7.71750e-07;0.012232216344558473
7.72000e-07;0.012176644280870091
7.72250e-07;0.012122831122327237
7.72500e-07;0.012071170193153284
7.72750e-07;0.01202208427778573
7.73000e-07;0.011975993737154186
7.73250e-07;0.011933989718814307
7.73500e-07;0.011895725399513656
7.73750e-07;0.011859383469973289
7.74000e-07;0.01182841531769759
7.74250e-07;0.0118006307056678
7.74500e-07;0.01177450820922909
7.74750e-07;0.011752795067627617
7.75000e-07;0.011735252602195944
7.75250e-07;0.01172136006335041
7.75500e-07;0.01170941522968585
7.75750e-07;0.011702470437923973
7.76000e-07;0.011698973114640047
7.76250e-07;0.01169861609806958
7.76500e-07;0.011701803928844382
7.76750e-07;0.011707988376401116
7.77000e-07;0.011716223689478226
7.77250e-07;0.011728444038641043
7.77500e-07;0.0117426277569014
7.77750e-07;0.011760626496978418
7.78000e-07;0.011780228494293351
7.78250e-07;0.01180294578019466
7.78500e-07;0.011827029940592997
7.78750e-07;0.011853770074355357
7.79000e-07;0.011881730411395999
7.79250e-07;0.011912061725006076
7.79500e-07;0.011943415939834254
7.79750e-07;0.011976757753666776
7.80000e-07;0.01201075507867434
7.80250e-07;0.012046026127220177
7.80500e-07;0.012081662034267015
7.80750e-07;0.012118006897741368
7.81000e-07;0.012154482926739298
7.81250e-07;0.012191213823420845
7.81500e-07;0.012227810073708482
7.81750e-07;0.01226414469263453
7.82000e-07;0.012299972370260839
7.82250e-07;0.012334815010422337
7.82500e-07;0.012368826830120387
7.82750e-07;0.012401224282862248
7.83000e-07;0.012432818445660668
7.83250e-07;0.012462219483414605
7.83500e-07;0.0124898287231859
7.83750e-07;0.012516196331002307
7.84000e-07;0.012542613449028838
7.84250e-07;0.012570149409172157
7.84500e-07;0.012599130568170842
7.84750e-07;0.012629156407976445
7.85000e-07;0.012659622577881028
7.85250e-07;0.012690944353049209
7.85500e-07;0.01272247672087343
7.85750e-07;0.01275509816848249
7.86000e-07;0.012789040685375638
7.86250e-07;0.012824264637220908
7.86500e-07;0.012861978544879946
7.86750e-07;0.012900842194562962
7.87000e-07;0.012941939907576451
7.87250e-07;0.012983037620589942
7.87500e-07;0.013025217356876992
7.87750e-07;0.01306949957221393
7.88000e-07;0.013113781787550889
7.88250e-07;0.013159222288866299
7.88500e-07;0.013206913455267208
7.88750e-07;0.013255309550654
7.89000e-07;0.013305075393310295
7.89250e-07;0.013354841235966568
7.89500e-07;0.013404934491397392
7.89750e-07;0.013455663942477556
7.90000e-07;0.01350639339355772
7.90250e-07;0.013557328743392999
7.90500e-07;0.013608664175028378
7.90750e-07;0.013659792494878045
7.91000e-07;0.01371051837588834
7.91250e-07;0.013760660736451245
7.91500e-07;0.013809669258633948
7.91750e-07;0.013857895217873922
7.92000e-07;0.01390460057932958
7.92250e-07;0.013950348226775489
7.92500e-07;0.013994234940459094
7.92750e-07;0.014037169794323966
7.93000e-07;0.01407748961466938
7.93250e-07;0.014115457835566027
7.93500e-07;0.014150703507909855
7.93750e-07;0.014182516599209025
7.94000e-07;0.01420983990394989
7.94250e-07;0.014231876180861138
7.94500e-07;0.014247526026921822
7.94750e-07;0.014257822729306771
7.95000e-07;0.014264531445470083
7.95250e-07;0.014264268346842754
7.95500e-07;0.014260360144075815
7.95750e-07;0.01424936914071149
7.96000e-07;0.014234318651414795
7.96250e-07;0.014211380176402026
7.96500e-07;0.014185469670997791
7.96750e-07;0.014151939353079918
7.97000e-07;0.014113082901334194
7.97250e-07;0.014069204541799758
7.97500e-07;0.014020575924917286
7.97750e-07;0.013967335082202582
7.98000e-07;0.013909483930317858
7.98250e-07;0.013847126434885192
7.98500e-07;0.013780605996482896
7.98750e-07;0.013710367488864577
7.99000e-07;0.013636857015543478
7.99250e-07;0.013560520680032873
7.99500e-07;0.013481785282837645
7.99750e-07;0.013400993916151219
8.00000e-07;0.013318403064141476
8.00250e-07;0.013234334851013132
8.00500e-07;0.013149259908423215
8.00750e-07;0.013063713448414999
8.01000e-07;0.012978231279905982
8.01250e-07;0.01289334861493951
8.01500e-07;0.012809588921165446
8.01750e-07;0.012727422609198432
8.02000e-07;0.012647267246000383
8.02250e-07;0.01256957988185518
8.02500e-07;0.012494911026092837
8.02750e-07;0.012423852366985294
8.03000e-07;0.012356994995930376
8.03250e-07;0.012294930601200018
8.03500e-07;0.01223811958333265
8.03750e-07;0.012186429451296563
8.04000e-07;0.012138960077048464
8.04250e-07;0.012094891131629443
8.04500e-07;0.012054146366858445
8.04750e-07;0.012017012331651403
8.05000e-07;0.011983778070454884
8.05250e-07;0.011954734454349235
8.05500e-07;0.011930089165980616
8.05750e-07;0.011909678301031694
8.06000e-07;0.01189285796852114
8.06250e-07;0.011879033363996682
8.06500e-07;0.011868591644032056
8.06750e-07;0.011861087512387092
8.07000e-07;0.011855713198730789
8.07250e-07;0.011854477333674274
8.07500e-07;0.011855339800551912
8.07750e-07;0.011860279535487673
8.08000e-07;0.011866755916460567
8.08250e-07;0.01187621815381866
8.08500e-07;0.011886989040206113
8.08750e-07;0.011900302762071529
8.09000e-07;0.011914901557980759
8.09250e-07;0.011931997380821688
8.09500e-07;0.011950249169060814
8.09750e-07;0.011970747113266813
8.10000e-07;0.011991940123992698
8.10250e-07;0.01201448371823384
8.10500e-07;0.012037470015894648
8.10750e-07;0.012061316530417678
8.11000e-07;0.01208548233568442
8.11250e-07;0.012110268554685236
8.11500e-07;0.012135183724110295
8.11750e-07;0.012160349457060257
8.12000e-07;0.01218524621366518
8.12250e-07;0.012209620322426729
8.12500e-07;0.012233458693597491
8.12750e-07;0.012256256073240216
8.13000e-07;0.012278535277865274
8.13250e-07;0.0122993994056331
8.13500e-07;0.01231918427418461
8.13750e-07;0.012338660433177382
8.14000e-07;0.012359464563457285
8.14250e-07;0.012382930155805754
8.14500e-07;0.012409706256604754
8.14750e-07;0.012439085758543562
8.15000e-07;0.012469940833067041
8.15250e-07;0.012503663092171293
8.15500e-07;0.012538828330256041
8.15750e-07;0.01257679742030054
8.16000e-07;0.01261770953348353
8.16250e-07;0.012664340233912809
8.16500e-07;0.01271097093434209
8.16750e-07;0.012761103126638841
8.17000e-07;0.012818039066576671
8.17250e-07;0.012874975006514501
8.17500e-07;0.012931910946452307
8.17750e-07;0.012992266208621213
8.18000e-07;0.01305926555463905
8.18250e-07;0.013126264900656888
8.18500e-07;0.013193264246674725
8.18750e-07;0.01326269155250053
8.19000e-07;0.013336836626192502
8.19250e-07;0.013410981699884505
8.19500e-07;0.013486105214586964
8.19750e-07;0.013563129937679679
8.20000e-07;0.013640154660772395
8.20250e-07;0.013717704151440219
8.20500e-07;0.013796273317802504
8.20750e-07;0.013874650719852909
8.21000e-07;0.013952655504734977
8.21250e-07;0.01402987424580399
8.21500e-07;0.014105565625410713
8.21750e-07;0.014180086166809554
8.22000e-07;0.0142523316528902
8.22250e-07;0.014323038752498558
8.22500e-07;0.014390756613882711
8.22750e-07;0.01445496259352883
8.23000e-07;0.014512344636979901
8.23250e-07;0.014569726680430946
8.23500e-07;0.014627108723882017
8.23750e-07;0.014681077615735828
8.24000e-07;0.014728414413897096
8.24250e-07;0.014774357018003205
8.24500e-07;0.014817590564121129
8.24750e-07;0.01486082411023907
8.25000e-07;0.014901753109225023
8.25250e-07;0.014938204143472899
8.25500e-07;0.014974655177720774
8.25750e-07;0.015009372105649997
8.26000e-07;0.015040719492188968
8.26250e-07;0.015071186429491833
8.26500e-07;0.015099942566187376
8.26750e-07;0.01512869870288292
8.27000e-07;0.01515600447693361
8.27250e-07;0.015180492051828821
8.27500e-07;0.015204979626724045
8.27750e-07;0.015228033040843669
8.28000e-07;0.01524829973765439
8.28250e-07;0.015268566434465114
8.28500e-07;0.015288833131275836
8.28750e-07;0.015309099828086549
8.29000e-07;0.015327985758563189
8.29250e-07;0.015344188722451834
8.29500e-07;0.015360391686340479
8.29750e-07;0.015376594650229124
8.30000e-07;0.01539279761411777
8.30250e-07;0.015407991821779661
8.30500e-07;0.015421225915564947
8.30750e-07;0.015434460009350233
8.31000e-07;0.015447694103135519
8.31250e-07;0.015460928196920803
8.31500e-07;0.015474162290706084
8.31750e-07;0.015485331914210917
8.32000e-07;0.015496107655061972
8.32250e-07;0.015506883395913029
8.32500e-07;0.015517659136764084
8.32750e-07;0.015528434877615141
8.33000e-07;0.01553887760561376
8.33250e-07;0.01554854224915139
8.33500e-07;0.015557711203063042
8.33750e-07;0.01556536482590874
8.34000e-07;0.01557098442632397
8.34250e-07;0.015574593191227925
8.34500e-07;0.015574294702342761
8.34750e-07;0.015571653745935023
8.35000e-07;0.015564461141691268
8.35250e-07;0.015557268537447513
8.35500e-07;0.015547239973198719
8.35750e-07;0.015531700856041266
8.36000e-07;0.015516161738883807
8.36250e-07;0.015497169809303345
8.36500e-07;0.015471468721093399
8.36750e-07;0.015445767632883451
8.37000e-07;0.015417598396635201
8.37250e-07;0.015384633302784126
8.37500e-07;0.015350402437897539
8.37750e-07;0.015312841203275564
8.38000e-07;0.015272665388758553
8.38250e-07;0.015229823817564162
8.38500e-07;0.015184518753716332
8.38750e-07;0.01513706625001634
8.39000e-07;0.015087784185899143
8.39250e-07;0.015036989527482893
8.39500e-07;0.014984976755444133
8.39750e-07;0.014931938820979025
8.40000e-07;0.014877953548712587
8.40250e-07;0.014823151897301736
8.40500e-07;0.014767823260961306
8.40750e-07;0.014712327446647853
8.41000e-07;0.014657025509083273
8.41250e-07;0.01460227941630633
8.41500e-07;0.014548435648666336
8.41750e-07;0.014495776978457707
8.42000e-07;0.01444451506032486
8.42250e-07;0.014394893707693547
8.42500e-07;0.014347702756367927
8.42750e-07;0.014302859108738904
8.43000e-07;0.014259487078160039
8.43250e-07;0.014220131460890705
8.43500e-07;0.014184133292540334
8.43750e-07;0.01415089941224927
8.44000e-07;0.01411885807201216
8.44250e-07;0.014086687996275259
8.44500e-07;0.01405419061944542
8.44750e-07;0.014021785485281825
8.45000e-07;0.013989706544860482
8.45250e-07;0.013958020784567038
8.45500e-07;0.013927399000180066
8.45750e-07;0.013897376893324652
8.46000e-07;0.013866860656127316
8.46250e-07;0.013835320951476675
8.46500e-07;0.01380318538511108
8.46750e-07;0.013769892000052438
8.47000e-07;0.013736417662476194
8.47250e-07;0.013702591716125303
8.47500e-07;0.01366876576977441
8.47750e-07;0.013634619435678251
8.48000e-07;0.013599850556264644
8.48250e-07;0.013565081676851037
8.48500e-07;0.013528798331162427
8.48750e-07;0.01349222603871534
8.49000e-07;0.013455541155934645
8.49250e-07;0.013418637498915507
8.49500e-07;0.013381897917466844
8.49750e-07;0.013345477151202644
8.50000e-07;0.013309033759281198
8.50250e-07;0.013272546403452913
8.50500e-07;0.013236202396194397
8.50750e-07;0.013200136929492413
8.51000e-07;0.01316456954369289
8.51250e-07;0.013129969978723366
8.51500e-07;0.013096132407917186
8.51750e-07;0.01306377546770732
8.52000e-07;0.01303218463541668
8.52250e-07;0.013002082427159958
8.52500e-07;0.012972970684738502
8.52750e-07;0.012945783516140338
8.53000e-07;0.012921031944168633
8.53250e-07;0.01290101297916276
8.53500e-07;0.012880994014156886
8.53750e-07;0.01286097504915101
8.54000e-07;0.012840956084145136
8.54250e-07;0.012824333435981666
8.54500e-07;0.012814310169904624
8.54750e-07;0.012804286903827582
8.55000e-07;0.01279426363775054
8.55250e-07;0.0127842403716735
8.55500e-07;0.012778656030595064
8.55750e-07;0.012781696963152225
8.56000e-07;0.012784737895709388
8.56250e-07;0.01278777882826655
8.56500e-07;0.012790819760823711
8.56750e-07;0.012793860693380874
8.57000e-07;0.012796901625938035
8.57250e-07;0.012799942558495196
8.57500e-07;0.012802983491052359
8.57750e-07;0.012816382701609322
8.58000e-07;0.012831758179912054
8.58250e-07;0.012847133658214785
8.58500e-07;0.01286250913651751
8.58750e-07;0.012877884614820242
8.59000e-07;0.012893260093122973
8.59250e-07;0.012908635571425705
8.59500e-07;0.012924011049728438
8.59750e-07;0.012941163436959863
8.60000e-07;0.012961768535318536
8.60250e-07;0.012982373633677212
8.60500e-07;0.013002978732035887
8.60750e-07;0.013024142269646929
8.61000e-07;0.013045686167671332
8.61250e-07;0.013067230065695727
8.61500e-07;0.013088773963720131
8.61750e-07;0.013105818539836368
8.62000e-07;0.0020288545870875844
8.62250e-07;-0.00740499035248397
8.62500e-07;-0.0035613550718658683
8.62750e-07;-0.0003076403178567111
8.63000e-07;0.00890950982843547
8.63250e-07;0.018136102713716233
8.63500e-07;0.01683206488019136
8.63750e-07;0.01609931268063894
8.64000e-07;0.011393152998920018
8.64250e-07;0.003394654573316539
8.64500e-07;0.0051161781729182065
8.64750e-07;0.008115474042675288
8.65000e-07;0.012225942672054247
8.65250e-07;0.01672152166068686
8.65500e-07;0.017392768336394547
8.65750e-07;0.015913883763833462
8.66000e-07;0.012836118815573299
8.66250e-07;0.009232989317364606
8.66500e-07;0.009229597822608604
8.66750e-07;0.011069853789579904
8.67000e-07;0.013618200637086627
8.67250e-07;0.016417527141501468
8.67500e-07;0.016829283863383036
8.67750e-07;0.015900831615396446
8.68000e-07;0.013976317043420818
8.68250e-07;0.011727201390860066
8.68500e-07;0.011736481307576607
8.68750e-07;0.01290325228955344
8.69000e-07;0.01451550755295373
8.69250e-07;0.016286354692669355
8.69500e-07;0.01656261345813675
8.69750e-07;0.01600005884938848
8.70000e-07;0.014813978153465862
8.70250e-07;0.013424701921955072
8.70500e-07;0.013449879752713485
8.70750e-07;0.014199552935066988
8.71000e-07;0.015227442097537828
8.71250e-07;0.016353602393087092
8.71500e-07;0.016542317883616525
8.71750e-07;0.016204235710035975
8.72000e-07;0.015474071860418093
8.72250e-07;0.014614962473852817
8.72500e-07;0.01463999517619221
8.72750e-07;0.015116752355951037
8.73000e-07;0.01576549207041214
8.73250e-07;0.016473322224452608
8.73500e-07;0.0165913849990337
8.73750e-07;0.016377416653236526
8.74000e-07;0.015917083407028503
8.74250e-07;0.01537623590451977
8.74500e-07;0.015389686228523776
8.74750e-07;0.01568650725550895
8.75000e-07;0.016091426576534566
8.75250e-07;0.016533701916672902
8.75500e-07;0.016606877729229932
8.75750e-07;0.0164724055406349
8.76000e-07;0.016183941399901754
8.76250e-07;0.015845359590056778
8.76500e-07;0.015854272724623548
8.76750e-07;0.016040925735148374
8.77000e-07;0.016295495178010197
8.77250e-07;0.016573642966644195
8.77500e-07;0.016620756205576973
8.77750e-07;0.016537960659546252
8.78000e-07;0.01635885542414729
8.78250e-07;0.01614849569377735
8.78500e-07;0.016155913799277537
8.78750e-07;0.016274737460603365
8.79000e-07;0.016436149104681223
8.79250e-07;0.016612349361632056
8.79500e-07;0.016643834687900465
8.79750e-07;0.016593942038291114
8.80000e-07;0.016483703112862413
8.80250e-07;0.016353848349046036
8.80500e-07;0.016360347238721103
8.80750e-07;0.016436540349539744
8.81000e-07;0.016539290960813743
8.81250e-07;0.01665116812899682
8.81500e-07;0.016672238454357377
8.81750e-07;0.016642161615810086
8.82000e-07;0.01657409917010134
8.82250e-07;0.016493542744242345
8.82500e-07;0.0164981712650612
8.82750e-07;0.01654619735119053
8.83000e-07;0.016610584311954772
8.83250e-07;0.016680384540738162
8.83500e-07;0.01669299090916517
8.83750e-07;0.01667325735212289
8.84000e-07;0.01662948591276622
8.84250e-07;0.016577703745430643
8.84500e-07;0.016579115176840204
8.84750e-07;0.016607555012617424
8.85000e-07;0.016646093171196245
8.85250e-07;0.01668788840748733
8.85500e-07;0.01669372830132109
8.85750e-07;0.01667920074561268
8.86000e-07;0.016649517006913892
8.86250e-07;0.016614730536362372
8.86500e-07;0.016613188152893053
8.86750e-07;0.016628507712946838
8.87000e-07;0.016650095123144814
8.87250e-07;0.0166736749557156
8.87500e-07;0.016674699490526673
8.87750e-07;0.016662945681695983
8.88000e-07;0.016641687029719437
8.88250e-07;0.01661723268130024
8.88500e-07;0.016613615534466455
8.88750e-07;0.016620585357232976
8.89000e-07;0.016631514331943924
8.89250e-07;0.016643734057641895
8.89500e-07;0.016641881694405503
8.89750e-07;0.01663209324981465
8.90000e-07;0.016616432783110806
8.90250e-07;0.01659886261322596
8.90500e-07;0.016594446955015482
8.90750e-07;0.01659677478975756
8.91000e-07;0.01660170777157685
8.91250e-07;0.0166075860593085
8.91500e-07;0.016604794534911718
8.91750e-07;0.016597191968124744
8.92000e-07;0.016586325087683672
8.92250e-07;0.016578043767350194
8.92500e-07;0.016570264663529035
8.92750e-07;0.01657100231614068
8.93000e-07;0.016573585606982508
8.93250e-07;0.016576987740413926
8.93500e-07;0.016575179999516635
8.93750e-07;0.016570326495012208
8.94000e-07;0.01656281030399813
8.94250e-07;0.016555474276077883
8.94500e-07;0.016548366685825152
8.94750e-07;0.016545098349407966
8.95000e-07;0.016541933614374022
8.95250e-07;0.016536677229762892
8.95500e-07;0.016531152996345194
8.95750e-07;0.01652100375917564
8.96000e-07;0.016508475075164637
8.96250e-07;0.016495188827315172
8.96500e-07;0.01648200029390102
8.96750e-07;0.01647043116574401
8.97000e-07;0.016458467350155024
8.97250e-07;0.0164446623556315
8.97500e-07;0.01643066471358272
8.97750e-07;0.016413315061100477
8.98000e-07;0.01639385911163505
8.98250e-07;0.016374403162169617
8.98500e-07;0.016354990909564084
8.98750e-07;0.016336261531666577
8.99000e-07;0.016316713070825398
8.99250e-07;0.016297164609984226
8.99500e-07;0.01627749146090551
8.99750e-07;0.016255686585723572
9.00000e-07;0.016233151683826462
9.00250e-07;0.01621061678192935
9.00500e-07;0.016188155489474373
9.00750e-07;0.016166957438790302
9.01000e-07;0.016146270436101656
9.01250e-07;0.01612558343341301
9.01500e-07;0.016104896430724363
9.01750e-07;0.01608426819488953
9.02000e-07;0.016064624118264034
