Time(s);Current(A)
1.80000e-06;0.01134964018717062
1.80025e-06;0.011405611687798753
1.80050e-06;0.011461583188426933
1.80075e-06;0.011517554689055064
1.80100e-06;0.011573526189683244
1.80125e-06;0.011629497690311377
1.80150e-06;0.011685469190939508
1.80175e-06;0.011741440691567687
1.80200e-06;0.011767025630427645
1.80225e-06;0.011792151179547728
1.80250e-06;0.01181727672866779
1.80275e-06;0.011842402277787854
1.80300e-06;0.011867527826907939
1.80325e-06;0.011892653376028002
1.80350e-06;0.011917778925148085
1.80375e-06;0.011942904474268148
1.80400e-06;0.011945230058138377
1.80425e-06;0.0119233557355824
1.80450e-06;0.011901481413026441
1.80475e-06;0.011879607090470463
1.80500e-06;0.011857732767914504
1.80525e-06;0.011835858445358526
1.80550e-06;0.011813984122802566
1.80575e-06;0.011792109800246607
1.80600e-06;0.011750761080070709
1.80625e-06;0.011688742214351271
1.80650e-06;0.011626723348631782
1.80675e-06;0.011564704482912344
1.80700e-06;0.011502685617192906
1.80725e-06;0.011440666751473417
1.80750e-06;0.01137864788575398
1.80775e-06;0.011316629020034488
1.80800e-06;0.011244274350607587
1.80825e-06;0.011160949248558821
1.80850e-06;0.011077624146509984
1.80875e-06;0.010994299044461218
1.80900e-06;0.010910973942412383
1.80925e-06;0.010827648840363618
1.80950e-06;0.010744323738314781
1.80975e-06;0.010660998636266015
1.81000e-06;0.01057767353421725
1.81025e-06;0.010503147771699974
1.81050e-06;0.010428755039248035
1.81075e-06;0.010354362306796032
1.81100e-06;0.010279969574344091
1.81125e-06;0.01020557684189215
1.81150e-06;0.010131184109440148
1.81175e-06;0.010056791376988209
1.81200e-06;0.009982398644536206
1.81225e-06;0.009926795675603058
1.81250e-06;0.009891136180877919
1.81275e-06;0.009855476686152748
1.81300e-06;0.009819817191427606
1.81325e-06;0.009784157696702435
1.81350e-06;0.009748498201977296
1.81375e-06;0.009712838707252125
1.81400e-06;0.009677179212526983
1.81425e-06;0.009641519717801843
1.81450e-06;0.009605860223076673
1.81475e-06;0.009570200728351531
1.81500e-06;0.009553137652311097
1.81525e-06;0.009555812834073836
1.81550e-06;0.009558488015836576
1.81575e-06;0.009561163197599316
1.81600e-06;0.009563838379362056
1.81625e-06;0.009566513561124796
1.81650e-06;0.009569188742887534
1.81675e-06;0.009571863924650273
1.81700e-06;0.009574539106413014
1.81725e-06;0.009577214288175753
1.81750e-06;0.009579889469938494
1.81775e-06;0.009592618369107764
1.81800e-06;0.009616018294210145
1.81825e-06;0.009639418219312502
1.81850e-06;0.009662818144414862
1.81875e-06;0.00968621806951724
1.81900e-06;0.0097096179946196
1.81925e-06;0.00973301791972198
1.81950e-06;0.009756417844824339
1.81975e-06;0.009779817769926697
1.82000e-06;0.009803217695029077
1.82025e-06;0.009826617620131435
1.82050e-06;0.009850017545233814
1.82075e-06;0.009868175706012823
1.82100e-06;0.00988625462081583
1.82125e-06;0.009904333535618851
1.82150e-06;0.009922412450421858
1.82175e-06;0.00994049136522488
1.82200e-06;0.009958570280027886
1.82225e-06;0.009976649194830909
1.82250e-06;0.009994728109633916
1.82275e-06;0.010012807024436922
1.82300e-06;0.010030885939239944
1.82325e-06;0.010048964854042951
1.82350e-06;0.010055806573534849
1.82375e-06;0.010050721122436261
1.82400e-06;0.010045635671337672
1.82425e-06;0.01004055022023908
1.82450e-06;0.01003546476914049
1.82475e-06;0.010030379318041896
1.82500e-06;0.010025293866943308
1.82525e-06;0.010020208415844719
1.82550e-06;0.010015122964746126
1.82575e-06;0.010010037513647537
1.82600e-06;0.010004952062548944
1.82625e-06;0.009999866611450355
1.82650e-06;0.009994781160351763
1.82675e-06;0.009981080783354615
1.82700e-06;0.009958236515202269
1.82725e-06;0.0099353922470499
1.82750e-06;0.009912547978897554
1.82775e-06;0.009889703710745188
1.82800e-06;0.009866859442592841
1.82825e-06;0.009844015174440494
1.82850e-06;0.009821170906288128
1.82875e-06;0.009798326638135782
1.82900e-06;0.009775482369983414
1.82925e-06;0.009752638101831067
1.82950e-06;0.00972979383367872
1.82975e-06;0.009706949565526354
1.83000e-06;0.009684218342084662
1.83025e-06;0.0096616071044144
1.83050e-06;0.009638995866744155
1.83075e-06;0.00961638462907389
1.83100e-06;0.009593773391403645
1.83125e-06;0.0095711621537334
1.83150e-06;0.009548550916063136
1.83175e-06;0.009525939678392891
1.83200e-06;0.009503328440722627
1.83225e-06;0.009480717203052382
1.83250e-06;0.009476366550816833
1.83275e-06;0.00947229196553591
1.83300e-06;0.00946821738025499
1.83325e-06;0.009464142794974066
1.83350e-06;0.009460068209693145
1.83375e-06;0.009455993624412224
1.83400e-06;0.0094519190391313
1.83425e-06;0.00944784445385038
1.83450e-06;0.009443769868569455
1.83475e-06;0.009453978558546225
1.83500e-06;0.009479347531481705
1.83525e-06;0.009504716504417166
1.83550e-06;0.009530085477352625
1.83575e-06;0.009555454450288107
1.83600e-06;0.009580823423223566
1.83625e-06;0.009606192396159048
1.83650e-06;0.009631561369094507
1.83675e-06;0.009656930342029968
1.83700e-06;0.009682299314965448
1.83725e-06;0.009707668287900909
1.83750e-06;0.009741939228874539
1.83775e-06;0.009785658727823157
1.83800e-06;0.009829378226771773
1.83825e-06;0.009873097725720429
1.83850e-06;0.009916817224669045
1.83875e-06;0.0099605367236177
1.83900e-06;0.010004256222566317
1.83925e-06;0.010047975721514972
1.83950e-06;0.01009169522046359
1.83975e-06;0.010135414719412207
1.84000e-06;0.010179134218360862
1.84025e-06;0.010221582377236976
1.84050e-06;0.010262681134460662
1.84075e-06;0.010303779891684316
1.84100e-06;0.010344878648907967
1.84125e-06;0.010385977406131655
1.84150e-06;0.010427076163355307
1.84175e-06;0.010457762503555443
1.84200e-06;0.010488291426882713
1.84225e-06;0.010518820350209984
1.84250e-06;0.010549349273537281
1.84275e-06;0.01057987819686455
1.84300e-06;0.010609036303939981
1.84325e-06;0.010636739425244493
1.84350e-06;0.010664442546549005
1.84375e-06;0.01069214566785354
1.84400e-06;0.010719848789158052
1.84425e-06;0.010747551910462588
1.84450e-06;0.0107752550317671
1.84475e-06;0.010802958153071635
1.84500e-06;0.010830661274376147
1.84525e-06;0.010858364395680659
1.84550e-06;0.010886067516985195
1.84575e-06;0.010915267873897506
1.84600e-06;0.01094605739821432
1.84625e-06;0.010976846922531107
1.84650e-06;0.011007636446847895
1.84675e-06;0.011038425971164709
1.84700e-06;0.011069215495481496
1.84725e-06;0.01110000501979831
1.84750e-06;0.011130794544115098
1.84775e-06;0.011161584068431886
1.84800e-06;0.0111923735927487
1.84825e-06;0.011223163117065487
1.84850e-06;0.011253197246712338
1.84875e-06;0.011282429599684368
1.84900e-06;0.011311661952656423
1.84925e-06;0.011340894305628454
1.84950e-06;0.011370126658600484
1.84975e-06;0.01139935901157254
1.85000e-06;0.01142859136454457
1.85025e-06;0.011457823717516625
1.85050e-06;0.011487056070488656
1.85075e-06;0.011516288423460686
1.85100e-06;0.011545520776432743
1.85125e-06;0.011574753129404773
1.85150e-06;0.011596456948924836
1.85175e-06;0.011610169975344118
1.85200e-06;0.0116238830017634
1.85225e-06;0.011637596028182694
1.85250e-06;0.011651309054601976
1.85275e-06;0.011665022081021268
1.85300e-06;0.01167873510744055
1.85325e-06;0.011692448133859844
1.85350e-06;0.011706161160279126
1.85375e-06;0.011719874186698408
1.85400e-06;0.011733587213117702
1.85425e-06;0.011747300239536984
1.85450e-06;0.01175024852482885
1.85475e-06;0.011741771102885752
1.85500e-06;0.011733293680942654
1.85525e-06;0.011724816258999548
1.85550e-06;0.01171633883705645
1.85575e-06;0.011707861415113345
1.85600e-06;0.011699383993170246
1.85625e-06;0.011690906571227148
1.85650e-06;0.011682429149284043
1.85675e-06;0.011673951727340945
1.85700e-06;0.011665474305397838
1.85725e-06;0.01165699688345474
1.85750e-06;0.011648519461511634
1.85775e-06;0.011640042039568536
1.85800e-06;0.011631564617625437
1.85825e-06;0.011623087195682332
1.85850e-06;0.011610532274616555
1.85875e-06;0.011593649491814554
1.85900e-06;0.011576766709012568
1.85925e-06;0.011559883926210582
1.85950e-06;0.011543001143408583
1.85975e-06;0.011526118360606597
1.86000e-06;0.011509235577804597
1.86025e-06;0.011492352795002611
1.86050e-06;0.011475470012200626
1.86075e-06;0.011458587229398626
1.86100e-06;0.01144170444659664
1.86125e-06;0.011424821663794639
1.86150e-06;0.011407938880992653
1.86175e-06;0.011391056098190654
1.86200e-06;0.011374173315388668
1.86225e-06;0.011357290532586682
1.86250e-06;0.011340603673089627
1.86275e-06;0.011324124766788691
1.86300e-06;0.011307645860487743
1.86325e-06;0.011291166954186808
1.86350e-06;0.011274688047885874
1.86375e-06;0.011258209141584924
1.86400e-06;0.01124173023528399
1.86425e-06;0.01122525132898304
1.86450e-06;0.011208772422682105
1.86475e-06;0.011192293516381171
1.86500e-06;0.011175814610080222
1.86525e-06;0.011155341336780509
1.86550e-06;0.011130628438266002
1.86575e-06;0.011105915539751514
1.86600e-06;0.011081202641237005
1.86625e-06;0.011056489742722518
1.86650e-06;0.01103177684420803
1.86675e-06;0.011007063945693521
1.86700e-06;0.010982351047179035
1.86725e-06;0.010957638148664526
1.86750e-06;0.010932925250150037
1.86775e-06;0.010908212351635551
1.86800e-06;0.010882049076005193
1.86825e-06;0.010854346368621827
1.86850e-06;0.010826643661238436
1.86875e-06;0.01079894095385507
1.86900e-06;0.010771238246471703
1.86925e-06;0.010743535539088312
1.86950e-06;0.010715832831704946
1.86975e-06;0.010688130124321555
1.87000e-06;0.010660427416938189
1.87025e-06;0.010632724709554798
1.87050e-06;0.010605022002171432
1.87075e-06;0.010577319294788064
1.87100e-06;0.010549616587404673
1.87125e-06;0.010521913880021307
1.87150e-06;0.010508053489935462
1.87175e-06;0.01049440237059732
1.87200e-06;0.010480751251259178
1.87225e-06;0.010467100131921024
1.87250e-06;0.010453449012582883
1.87275e-06;0.010439797893244729
1.87300e-06;0.010426146773906587
1.87325e-06;0.010412495654568445
1.87350e-06;0.010398844535230291
1.87375e-06;0.01038519341589215
1.87400e-06;0.010371542296553996
1.87425e-06;0.010357891177215854
1.87450e-06;0.0103442400578777
1.87475e-06;0.010341789672482938
1.87500e-06;0.010351227757542263
1.87525e-06;0.010360665842601596
1.87550e-06;0.01037010392766092
1.87575e-06;0.010379542012720252
1.87600e-06;0.010388980097779579
1.87625e-06;0.010398418182838903
1.87650e-06;0.010407856267898235
1.87675e-06;0.010417294352957561
1.87700e-06;0.010426732438016893
1.87725e-06;0.010436170523076218
1.87750e-06;0.010445608608135544
1.87775e-06;0.010455046693194876
1.87800e-06;0.0104644847782542
1.87825e-06;0.010473922863313534
1.87850e-06;0.01048715984864963
1.87875e-06;0.010504428990621695
1.87900e-06;0.010521698132593776
1.87925e-06;0.01053896727456584
1.87950e-06;0.01055623641653792
1.87975e-06;0.010573505558509985
1.88000e-06;0.010590774700482064
1.88025e-06;0.01060804384245413
1.88050e-06;0.010625312984426195
1.88075e-06;0.010642582126398273
1.88100e-06;0.01065985126837034
1.88125e-06;0.010677120410342418
1.88150e-06;0.010694389552314483
1.88175e-06;0.010711658694286549
1.88200e-06;0.010728927836258628
1.88225e-06;0.010738014168479457
1.88250e-06;0.010738415258068259
1.88275e-06;0.01073881634765706
1.88300e-06;0.01073921743724586
1.88325e-06;0.010739618526834662
1.88350e-06;0.010740019616423463
1.88375e-06;0.010740420706012265
1.88400e-06;0.010740821795601065
1.88425e-06;0.010741222885189868
1.88450e-06;0.010729172863867984
1.88475e-06;0.010703907220701813
1.88500e-06;0.010678641577535621
1.88525e-06;0.01065337593436945
1.88550e-06;0.010628110291203257
1.88575e-06;0.010602844648037086
1.88600e-06;0.010577579004870915
1.88625e-06;0.010552313361704722
1.88650e-06;0.010527047718538551
1.88675e-06;0.010491618318762405
1.88700e-06;0.010445401097334356
1.88725e-06;0.010399183875906309
1.88750e-06;0.010352966654478222
1.88775e-06;0.010306749433050174
1.88800e-06;0.010260532211622087
1.88825e-06;0.01021431499019404
1.88850e-06;0.010168097768765955
1.88875e-06;0.010121880547337906
1.88900e-06;0.010075663325909858
1.88925e-06;0.010029446104481771
1.88950e-06;0.009983624200240505
1.88975e-06;0.009938221886065208
1.89000e-06;0.009892819571889947
1.89025e-06;0.009847417257714689
1.89050e-06;0.009802014943539392
1.89075e-06;0.009756612629364133
1.89100e-06;0.009711210315188835
1.89125e-06;0.009665808001013576
1.89150e-06;0.009620405686838317
1.89175e-06;0.00957500337266302
1.89200e-06;0.009529601058487762
1.89225e-06;0.009495102640831282
1.89250e-06;0.00947217763008201
1.89275e-06;0.009449252619332717
1.89300e-06;0.009426327608583446
1.89325e-06;0.009403402597834173
1.89350e-06;0.00938047758708488
1.89375e-06;0.009357552576335608
1.89400e-06;0.009334627565586315
1.89425e-06;0.009311702554837044
1.89450e-06;0.009288777544087771
1.89475e-06;0.009265852533338479
1.89500e-06;0.009242927522589206
1.89525e-06;0.009220002511839916
1.89550e-06;0.009197077501090643
1.89575e-06;0.00917415249034137
1.89600e-06;0.009151227479592077
1.89625e-06;0.009128302468842806
1.89650e-06;0.009105377458093514
1.89675e-06;0.009095103643527364
1.89700e-06;0.009085021092116136
1.89725e-06;0.009074938540704916
1.89750e-06;0.009064855989293696
1.89775e-06;0.009054773437882468
1.89800e-06;0.009044690886471248
1.89825e-06;0.009034608335060021
1.89850e-06;0.0090245257836488
1.89875e-06;0.00901444323223758
1.89900e-06;0.009004360680826353
1.89925e-06;0.008994278129415133
1.89950e-06;0.008984195578003904
1.89975e-06;0.008974113026592685
1.90000e-06;0.008964030475181465
1.90025e-06;0.008953947923770236
1.90050e-06;0.008943865372359017
1.90075e-06;0.008933782820947788
1.90100e-06;0.008925298280369988
1.90125e-06;0.00891850987012361
1.90150e-06;0.008911721459877238
1.90175e-06;0.008904933049630866
1.90200e-06;0.008898144639384488
1.90225e-06;0.008891356229138116
1.90250e-06;0.008884567818891739
1.90275e-06;0.008877779408645366
1.90300e-06;0.008870990998398996
1.90325e-06;0.008864202588152618
1.90350e-06;0.008857414177906246
1.90375e-06;0.008850625767659869
1.90400e-06;0.008843837357413497
1.90425e-06;0.008837048947167124
1.90450e-06;0.008827799114626403
1.90475e-06;0.008815936725947443
1.90500e-06;0.008804074337268476
1.90525e-06;0.008792211948589515
1.90550e-06;0.008780349559910547
1.90575e-06;0.008768487171231588
1.90600e-06;0.00875662478255263
1.90625e-06;0.00874476239387366
1.90650e-06;0.008732900005194702
1.90675e-06;0.008721037616515733
1.90700e-06;0.008709175227836775
1.90725e-06;0.008697312839157817
1.90750e-06;0.008685450450478858
1.90775e-06;0.00867358806179989
1.90800e-06;0.008660585897939119
1.90825e-06;0.00864637397553581
1.90850e-06;0.008632162053132527
1.90875e-06;0.008617950130729218
1.90900e-06;0.00860373820832591
1.90925e-06;0.008589526285922624
1.90950e-06;0.008575314363519316
1.90975e-06;0.008561102441116008
1.91000e-06;0.008546890518712722
1.91025e-06;0.008532678596309413
1.91050e-06;0.008518466673906105
1.91075e-06;0.008504254751502797
1.91100e-06;0.008490042829099511
1.91125e-06;0.008475830906696203
1.91150e-06;0.008461618984292894
1.91175e-06;0.00844740706188961
1.91200e-06;0.008443843505885788
1.91225e-06;0.008440440933880761
1.91250e-06;0.008437038361875735
1.91275e-06;0.008433635789870714
1.91300e-06;0.008430233217865688
1.91325e-06;0.008426830645860662
1.91350e-06;0.00842342807385564
1.91375e-06;0.008420025501850614
1.91400e-06;0.008416622929845588
1.91425e-06;0.008413220357840567
1.91450e-06;0.00840981778583554
1.91475e-06;0.008406415213830514
1.91500e-06;0.008403012641825488
1.91525e-06;0.008399610069820467
1.91550e-06;0.008396207497815441
1.91575e-06;0.008399764479855906
1.91600e-06;0.008410708339671486
1.91625e-06;0.008421652199487085
1.91650e-06;0.008432596059302683
1.91675e-06;0.008443539919118281
1.91700e-06;0.00845448377893386
1.91725e-06;0.008465427638749459
1.91750e-06;0.008476371498565057
1.91775e-06;0.008487315358380636
1.91800e-06;0.008498259218196235
1.91825e-06;0.008509203078011833
1.91850e-06;0.008520146937827414
1.91875e-06;0.008531090797643012
1.91900e-06;0.008544822318099108
1.91925e-06;0.008558595982931223
1.91950e-06;0.008572369647763313
1.91975e-06;0.008586143312595428
1.92000e-06;0.008599916977427543
1.92025e-06;0.008613690642259633
1.92050e-06;0.008627464307091747
1.92075e-06;0.008641237971923862
1.92100e-06;0.008655011636755977
1.92125e-06;0.008668785301588067
1.92150e-06;0.008682558966420182
1.92175e-06;0.008696332631252296
1.92200e-06;0.008710197847026934
1.92225e-06;0.00872416023506557
1.92250e-06;0.008738122623104205
1.92275e-06;0.008752085011142817
1.92300e-06;0.008766047399181453
1.92325e-06;0.008780009787220088
1.92350e-06;0.008793972175258723
1.92375e-06;0.008807934563297334
1.92400e-06;0.008829793186246345
1.92425e-06;0.008860032880998145
1.92450e-06;0.008890272575749893
1.92475e-06;0.008920512270501692
1.92500e-06;0.008950751965253492
1.92525e-06;0.00898099166000529
1.92550e-06;0.009011231354757038
1.92575e-06;0.009041471049508837
1.92600e-06;0.009081110525121604
1.92625e-06;0.009130726937745592
1.92650e-06;0.009180343350369664
1.92675e-06;0.009229959762993737
1.92700e-06;0.009279576175617725
1.92725e-06;0.009329192588241797
1.92750e-06;0.00937880900086587
1.92775e-06;0.009428425413489943
1.92800e-06;0.009478041826113932
1.92825e-06;0.009527658238738005
1.92850e-06;0.009577274651362076
1.92875e-06;0.009626891063986065
1.92900e-06;0.009678958031747323
1.92925e-06;0.009731062047460473
1.92950e-06;0.009783166063173622
1.92975e-06;0.009835270078886682
1.93000e-06;0.00988737409459983
1.93025e-06;0.009939478110312979
1.93050e-06;0.009991582126026041
1.93075e-06;0.01004368614173919
1.93100e-06;0.010095790157452338
1.93125e-06;0.010147894173165398
1.93150e-06;0.010199998188878548
1.93175e-06;0.010239357279682018
1.93200e-06;0.010265188894161894
1.93225e-06;0.010291020508641726
1.93250e-06;0.010316852123121601
1.93275e-06;0.010342683737601477
1.93300e-06;0.010368515352081309
1.93325e-06;0.010394346966561184
1.93350e-06;0.01042017858104106
1.93375e-06;0.010446010195520935
1.93400e-06;0.010471841810000767
1.93425e-06;0.010497673424480642
1.93450e-06;0.010523505038960518
1.93475e-06;0.010549336653440348
1.93500e-06;0.010575168267920224
1.93525e-06;0.010600999882400099
1.93550e-06;0.010626831496879931
1.93575e-06;0.010652663111359807
1.93600e-06;0.010661677824119538
1.93625e-06;0.01067043829580671
1.93650e-06;0.010679198767493866
1.93675e-06;0.010687959239181038
1.93700e-06;0.01069671971086821
1.93725e-06;0.010705480182555367
1.93750e-06;0.010714240654242538
1.93775e-06;0.01072300112592971
1.93800e-06;0.010731761597616869
1.93825e-06;0.01074052206930404
1.93850e-06;0.010749282540991213
1.93875e-06;0.010758043012678385
1.93900e-06;0.010766803484365541
1.93925e-06;0.010775563956052713
1.93950e-06;0.010784324427739885
1.93975e-06;0.010793084899427043
1.94000e-06;0.010799369090565756
1.94025e-06;0.010803024954999565
1.94050e-06;0.010806680819433374
1.94075e-06;0.010810336683867178
1.94100e-06;0.010813992548300988
1.94125e-06;0.010817648412734797
1.94150e-06;0.010818866522848953
1.94175e-06;0.01082004777853632
1.94200e-06;0.010821229034223688
1.94225e-06;0.010822410289911053
1.94250e-06;0.010823591545598421
1.94275e-06;0.010814248809424939
1.94300e-06;0.0107937358975347
1.94325e-06;0.010773222985644496
1.94350e-06;0.010752710073754255
1.94375e-06;0.010732197161864016
1.94400e-06;0.010711684249973812
1.94425e-06;0.010691171338083573
1.94450e-06;0.01065421632922044
1.94475e-06;0.010599809661826129
1.94500e-06;0.01054540299443191
1.94525e-06;0.010490996327037599
1.94550e-06;0.01043658965964329
1.94575e-06;0.010382182992249071
1.94600e-06;0.01032777632485476
1.94625e-06;0.010257596678249388
1.94650e-06;0.010170675575389131
1.94675e-06;0.010083754472528728
1.94700e-06;0.009996833369668326
1.94725e-06;0.009909912266807921
1.94750e-06;0.009822991163947666
1.94775e-06;0.009736070061087261
1.94800e-06;0.009649148958226859
1.94825e-06;0.009562227855366603
1.94850e-06;0.009461513234080086
1.94875e-06;0.009360590079796125
1.94900e-06;0.009259666925512161
1.94925e-06;0.009158743771228372
1.94950e-06;0.009057820616944408
1.94975e-06;0.008956897462660447
1.95000e-06;0.008855974308376655
1.95025e-06;0.008755051154092693
1.95050e-06;0.008657960880088944
1.95075e-06;0.008564938829132217
1.95100e-06;0.008471916778175331
1.95125e-06;0.008389866322769984
1.95150e-06;0.008319461130096777
1.95175e-06;0.00824905593742369
