Time(s);Current(A)
9.50000e-06;0.004285258565941599
9.50025e-06;0.004259708476165083
9.50050e-06;0.0042341583863887405
9.50075e-06;0.004208608296612224
9.50100e-06;0.004183058206835708
9.50125e-06;0.0041575081170593655
9.50150e-06;0.004131958027282849
9.50175e-06;0.004106407937506333
9.50200e-06;0.004080857847729991
9.50225e-06;0.0040553077579534745
9.50250e-06;0.004047683833631969
9.50275e-06;0.004042728266212468
9.50300e-06;0.0040377726987929335
9.50325e-06;0.004032817131373399
9.50350e-06;0.004027861563953865
9.50375e-06;0.004022905996534364
9.50400e-06;0.00401795042911483
9.50425e-06;0.004012994861695296
9.50450e-06;0.004008039294275794
9.50475e-06;0.00400308372685626
9.50500e-06;0.003998128159436726
9.50525e-06;0.003993172592017225
9.50550e-06;0.003993758761236385
9.50575e-06;0.00400376332635614
9.50600e-06;0.004013767891475826
9.50625e-06;0.00402377245659558
9.50650e-06;0.004033777021715334
9.50675e-06;0.0040437815868350204
9.50700e-06;0.0040537861519547745
9.50725e-06;0.0040637907170745285
9.50750e-06;0.004073795282194215
9.50775e-06;0.00408379984731397
9.50800e-06;0.004093804412433724
9.50825e-06;0.00410380897755341
9.50850e-06;0.004113813542673164
9.50875e-06;0.004123434273688073
9.50900e-06;0.00413299786998631
9.50925e-06;0.004142561466284611
9.50950e-06;0.004152125062582912
9.50975e-06;0.0041616886588811495
9.51000e-06;0.004171252255179451
9.51025e-06;0.004180815851477753
9.51050e-06;0.004190379447775989
9.51075e-06;0.0041999430440742905
9.51100e-06;0.004209506640372593
9.51125e-06;0.004219070236670829
9.51150e-06;0.004228633832969131
9.51175e-06;0.004238197429267432
9.51200e-06;0.004247761025565734
9.51225e-06;0.004257324621863971
9.51250e-06;0.0042541529978392155
9.51275e-06;0.004249085702754814
9.51300e-06;0.0042440184076704465
9.51325e-06;0.004238951112586045
9.51350e-06;0.0042338838175016436
9.51375e-06;0.004228816522417276
9.51400e-06;0.0042237492273328745
9.51425e-06;0.004218681932248473
9.51450e-06;0.004213614637164106
9.51475e-06;0.004208547342079705
9.51500e-06;0.0042034800469953025
9.51525e-06;0.004198412751910936
9.51550e-06;0.004193345456826534
9.51575e-06;0.004188278161742133
9.51600e-06;0.004183210866657765
9.51625e-06;0.004169675926495687
9.51650e-06;0.0041548805550797475
9.51675e-06;0.004140085183663907
9.51700e-06;0.004125289812247967
9.51725e-06;0.004110494440832026
9.51750e-06;0.004095699069416187
9.51775e-06;0.0040809036980002465
9.51800e-06;0.004066108326584306
9.51825e-06;0.0040513129551684665
9.51850e-06;0.004036517583752526
9.51875e-06;0.004021722212336586
9.51900e-06;0.004008663520830486
9.51925e-06;0.003995863338699283
9.51950e-06;0.003983063156568079
9.51975e-06;0.003970262974436962
9.52000e-06;0.0039574627923057585
9.52025e-06;0.003944662610174555
9.52050e-06;0.003931862428043351
9.52075e-06;0.003919062245912234
9.52100e-06;0.0039062620637810306
9.52125e-06;0.0038934618816498265
9.52150e-06;0.0038806616995187095
9.52175e-06;0.0038821969249405695
9.52200e-06;0.0038858660135036673
9.52225e-06;0.00388953510206674
9.52250e-06;0.0038932041906298374
9.52275e-06;0.003896873279192935
9.52300e-06;0.003900542367756008
9.52325e-06;0.0039042114563191056
9.52350e-06;0.0039078805448822035
9.52375e-06;0.003911549633445276
9.52400e-06;0.003915218722008373
9.52425e-06;0.003918887810571471
9.52450e-06;0.0039225568991345435
9.52475e-06;0.003926225987697641
9.52500e-06;0.0039455627208154435
9.52525e-06;0.003967231624058402
9.52550e-06;0.003988900527301508
9.52575e-06;0.004010569430544614
9.52600e-06;0.004032238333787573
9.52625e-06;0.004053907237030679
9.52650e-06;0.004075576140273785
9.52675e-06;0.004097245043516743
9.52700e-06;0.004118913946759849
9.52725e-06;0.0041405828500029555
9.52750e-06;0.004162251753245914
9.52775e-06;0.00418392065648902
9.52800e-06;0.004205589559732125
9.52825e-06;0.004229629356670345
9.52850e-06;0.004254022067374914
9.52875e-06;0.004278414778079484
9.52900e-06;0.004302807488784054
9.52925e-06;0.0043272001994884585
9.52950e-06;0.004351592910193028
9.52975e-06;0.004375985620897599
9.53000e-06;0.004400378331602003
9.53025e-06;0.004424771042306573
9.53050e-06;0.004443921907731042
9.53075e-06;0.004454164054219847
9.53100e-06;0.004464406200708722
9.53125e-06;0.0044746483471975965
9.53150e-06;0.004484890493686402
9.53175e-06;0.004495132640175276
9.53200e-06;0.004505374786664151
9.53225e-06;0.004515616933152956
9.53250e-06;0.004525859079641831
9.53275e-06;0.004536101226130705
9.53300e-06;0.0045238752549775565
9.53325e-06;0.00450830484538158
9.53350e-06;0.004492734435785603
9.53375e-06;0.004477164026189731
9.53400e-06;0.004461593616593755
9.53425e-06;0.004446023206997778
9.53450e-06;0.004430452797401906
9.53475e-06;0.00441488238780593
9.53500e-06;0.004399311978209953
9.53525e-06;0.004383741568614081
9.53550e-06;0.004350153186943148
9.53575e-06;0.004313882782708595
9.53600e-06;0.004277612378474288
9.53625e-06;0.004241341974239735
9.53650e-06;0.004205071570005181
9.53675e-06;0.004168801165770874
9.53700e-06;0.004132530761536321
9.53725e-06;0.004096260357301768
9.53750e-06;0.0040599899530672145
9.53775e-06;0.004023719548832907
9.53800e-06;0.003983364221024413
9.53825e-06;0.003942400841591034
9.53850e-06;0.0039014374621579332
9.53875e-06;0.0038604740827245547
9.53900e-06;0.003819510703291176
9.53925e-06;0.003778547323858075
9.53950e-06;0.0037375839444246965
9.53975e-06;0.003696620564991318
9.54000e-06;0.0036659514085984643
9.54025e-06;0.0036368145743979926
9.54050e-06;0.003607677740197521
9.54075e-06;0.003578540905997247
9.54100e-06;0.0035494040717967755
9.54125e-06;0.003520267237596304
9.54150e-06;0.0034911304033960295
9.54175e-06;0.003461993569195558
9.54200e-06;0.003456975200293138
9.54225e-06;0.003455546928427585
9.54250e-06;0.0034541186565620226
9.54275e-06;0.0034526903846964596
9.54300e-06;0.0034512621128309066
9.54325e-06;0.003449833840965344
9.54350e-06;0.003448405569099781
9.54375e-06;0.003446977297234228
9.54400e-06;0.0034455490253686655
9.54425e-06;0.0034441207535031025
9.54450e-06;0.0034534087516717026
9.54475e-06;0.0034809094655367002
9.54500e-06;0.003508410179401698
9.54525e-06;0.0035359108932665096
9.54550e-06;0.0035634116071315072
9.54575e-06;0.003590912320996505
9.54600e-06;0.0036184130348615026
9.54625e-06;0.003645913748726314
9.54650e-06;0.003673414462591312
9.54675e-06;0.0037009151764563096
9.54700e-06;0.003728415890321121
9.54725e-06;0.0037665751066548736
9.54750e-06;0.003806320869133434
9.54775e-06;0.0038460666316117247
9.54800e-06;0.003885812394090285
9.54825e-06;0.003925558156568845
9.54850e-06;0.003965303919047136
9.54875e-06;0.004005049681525696
9.54900e-06;0.0040447954440042564
9.54925e-06;0.004079694759122942
9.54950e-06;0.004113872667796824
9.54975e-06;0.004148050576470707
9.55000e-06;0.0041822284851443575
9.55025e-06;0.00421640639381824
9.55050e-06;0.0042505843024921225
9.55075e-06;0.004284762211165773
9.55100e-06;0.004318940119839656
9.55125e-06;0.0043503630511395625
9.55150e-06;0.004381375896806138
9.55175e-06;0.004412388742472922
9.55200e-06;0.0044434015881397075
9.55225e-06;0.004474414433806282
9.55250e-06;0.004505427279473067
9.55275e-06;0.0045364401251398526
9.55300e-06;0.004567452970806427
9.55325e-06;0.004598465816473212
9.55350e-06;0.004634823460660417
9.55375e-06;0.004680264796805635
9.55400e-06;0.004725706132951162
9.55425e-06;0.0047711474690966885
9.55450e-06;0.004816588805242215
9.55475e-06;0.004862030141387434
9.55500e-06;0.00490747147753296
9.55525e-06;0.004952912813678487
9.55550e-06;0.0049983541498237055
9.55575e-06;0.005043795485969231
9.55600e-06;0.005099666039426666
9.55625e-06;0.005157089009330487
9.55650e-06;0.005214511979234698
9.55675e-06;0.005271934949138909
9.55700e-06;0.005329357919042731
9.55725e-06;0.005386780888946942
9.55750e-06;0.005444203858851152
9.55775e-06;0.005501626828754974
9.55800e-06;0.005559049798659185
9.55825e-06;0.005613300812550594
9.55850e-06;0.0056670796724404
9.55875e-06;0.005720858532330569
9.55900e-06;0.0057746373922207385
9.55925e-06;0.005828416252110544
9.55950e-06;0.005882195112000713
9.55975e-06;0.005935973971890883
9.56000e-06;0.005989752831780688
9.56025e-06;0.006043531691670857
9.56050e-06;0.006074863122680772
9.56075e-06;0.006102853194818404
9.56100e-06;0.006130843266956226
9.56125e-06;0.006158833339094047
9.56150e-06;0.006186823411231679
9.56175e-06;0.006214813483369501
9.56200e-06;0.006242803555507323
9.56225e-06;0.006270793627644955
9.56250e-06;0.006298783699782777
9.56275e-06;0.006289597155808811
9.56300e-06;0.006274876774674813
9.56325e-06;0.006260156393540716
9.56350e-06;0.006245436012406619
9.56375e-06;0.006230715631272522
9.56400e-06;0.006215995250138524
9.56425e-06;0.006201274869004427
9.56450e-06;0.0061865544878703296
9.56475e-06;0.006171834106736332
9.56500e-06;0.006131685709341312
9.56525e-06;0.006087752284796782
9.56550e-06;0.00604381886025255
9.56575e-06;0.00599988543570802
9.56600e-06;0.00595595201116349
9.56625e-06;0.005936335512905631
9.56650e-06;0.005865879815883926
9.56675e-06;-0.042238884080328734
9.56700e-06;-0.025771014150328807
9.56725e-06;-0.012764845142619805
9.56750e-06;-0.0010976282937923947
9.56775e-06;0.013142526636977696
9.56800e-06;0.02116883192140247
9.56825e-06;0.01867023090481157
9.56850e-06;0.010032590289217828
9.56875e-06;-0.0016267800150201956
9.56900e-06;-0.008305824934334485
9.56925e-06;-0.005335035197236753
9.56950e-06;0.00231239677458817
9.56975e-06;0.010985211358124794
9.57000e-06;0.015758694920724414
9.57025e-06;0.01403313168151827
9.57050e-06;0.008518416417554278
9.57075e-06;0.0011456739334595348
9.57100e-06;-0.0030854485444690165
9.57125e-06;-0.001258733393428313
9.57150e-06;0.003504038004719063
9.57175e-06;0.008911590246255567
9.57200e-06;0.0118773446901351
9.57225e-06;0.010772372372338255
9.57250e-06;0.007294030390252042
9.57275e-06;0.0026519224667647823
9.57300e-06;-2.231266967554299e-05
9.57325e-06;0.0010977478095696074
9.57350e-06;0.004056377240215388
9.57375e-06;0.007418253810967328
9.57400e-06;0.009250046570217697
9.57425e-06;0.008531636898806795
9.57450e-06;0.0063264896833533655
9.57475e-06;0.0033924619418687924
9.57500e-06;0.0016912483219835954
9.57525e-06;0.0023668169486749093
9.57550e-06;0.0041940071780862806
9.57575e-06;0.006273737034172672
9.57600e-06;0.007395068787516644
9.57625e-06;0.006919184826146384
9.57650e-06;0.005512420902633682
9.57675e-06;0.003649627900261084
9.57700e-06;0.0025596619223416037
9.57725e-06;0.002959067555029896
9.57750e-06;0.004080372675720525
9.57775e-06;0.005360421421251329
9.57800e-06;0.0060407728885543185
9.57825e-06;0.005721414953140089
9.57850e-06;0.00481988024388335
9.57875e-06;0.0036337233431855973
9.57900e-06;0.0029327584638861254
9.57925e-06;0.0031658329375523343
9.57950e-06;0.0038522098911076205
9.57975e-06;0.004639174028744773
9.58000e-06;0.0050517211990743285
9.58025e-06;0.00483940066136788
9.58050e-06;0.004263870119472749
9.58075e-06;0.003511612636985401
9.58100e-06;0.00306502356203671
9.58125e-06;0.003205847529812786
9.58150e-06;0.0036339085434843677
9.58175e-06;0.004128911010185227
9.58200e-06;0.004393351005015591
9.58225e-06;0.004270156200417878
9.58250e-06;0.003923033840680492
9.58275e-06;0.0034685896909656304
9.58300e-06;0.0032087694038268307
9.58325e-06;0.0033198092420173137
9.58350e-06;0.0036134320087858455
9.58375e-06;0.003951412606591947
9.58400e-06;0.004147177381980306
9.58425e-06;0.004102132303387152
9.58450e-06;0.003918619408133642
9.58475e-06;0.0036694679706668234
9.58500e-06;0.003543592052754872
9.58525e-06;0.00365114806469293
9.58550e-06;0.0038739622412776223
9.58575e-06;0.004125223047688271
9.58600e-06;0.004287842596883204
9.58625e-06;0.004299851558361294
9.58650e-06;0.004225146458546299
9.58675e-06;0.004109132451059084
9.58700e-06;0.004069922766452714
9.58725e-06;0.0041762881819237645
9.58750e-06;0.004353974469519133
9.58775e-06;0.004548378103951638
9.58800e-06;0.004685936344972021
9.58825e-06;0.004727618292254946
9.58850e-06;0.004713235482842246
9.58875e-06;0.004671012905492162
9.58900e-06;0.004674715085366231
9.58925e-06;0.004767193875165484
9.58950e-06;0.004901710183853095
9.58975e-06;0.005043837644395411
9.59000e-06;0.0051472780055216265
9.59025e-06;0.00518736704813272
9.59050e-06;0.005188827101876612
9.59075e-06;0.0051691210968242704
9.59100e-06;0.005174273388636148
9.59125e-06;0.005231115945909158
9.59150e-06;0.005309602844429222
9.59175e-06;0.00539044094541364
9.59200e-06;0.005445039556209456
9.59225e-06;0.005455939467635948
9.59250e-06;0.005437305588911397
9.59275e-06;0.005405242015312427
9.59300e-06;0.005389210299445679
9.59325e-06;0.00540060372982166
9.59350e-06;0.005423062999408038
9.59375e-06;0.005445523705940116
9.59400e-06;0.005450332496659936
9.59425e-06;0.00542578784113458
9.59450e-06;0.005381143668788551
9.59475e-06;0.005327170964452686
9.59500e-06;0.005282548480849627
9.59525e-06;0.005254025562880581
9.59550e-06;0.005231720219863789
9.59575e-06;0.0052090483359379935
9.59600e-06;0.005175146077318868
9.59625e-06;0.005122675014495417
9.59650e-06;0.0050598602610666035
9.59675e-06;0.004993579275194652
9.59700e-06;0.004927298289323151
9.59725e-06;0.004869386359593623
9.59750e-06;0.004818760589471231
9.59775e-06;0.0047664662060248565
9.59800e-06;0.004714171822578835
9.59825e-06;0.004654280905450204
9.59850e-06;0.004585978217558104
9.59875e-06;0.004517286037540939
9.59900e-06;0.004448593857523308
9.59925e-06;0.004387115681768267
9.59950e-06;0.0043346649998326275
9.59975e-06;0.004283684712539034
9.60000e-06;0.004232704425245441
9.60025e-06;0.00417963191161176
9.60050e-06;0.004127185701786529
9.60075e-06;0.004077748615999074
9.60100e-06;0.004028311530211954
9.60125e-06;0.003986738236047262
9.60150e-06;0.003957705285261794
9.60175e-06;0.003933133891335022
9.60200e-06;0.0039085624974080834
9.60225e-06;0.003886527415266069
9.60250e-06;0.0038671780246252794
9.60275e-06;0.0038548370494158493
9.60300e-06;0.0038499172603052175
9.60325e-06;0.003844997471194619
9.60350e-06;0.003848519075036538
9.60375e-06;0.0038609792397623468
9.60400e-06;0.003873439404488071
9.60425e-06;0.0038949370286882863
9.60450e-06;0.003926004386485994
9.60475e-06;0.003957071744283491
9.60500e-06;0.003988139102081199
9.60525e-06;0.004019206459878907
9.60550e-06;0.004050273817676404
9.60575e-06;0.004081341175474112
9.60600e-06;0.004123186114961279
9.60625e-06;0.0041764433972524195
9.60650e-06;0.004229700679543198
9.60675e-06;0.004282957961834338
9.60700e-06;0.004336215244125478
9.60725e-06;0.004389472526416257
9.60750e-06;0.004442729808707397
9.60775e-06;0.004499063031730155
9.60800e-06;0.004558653357420558
9.60825e-06;0.004618243683111364
9.60850e-06;0.00467783400880217
9.60875e-06;0.004737424334492571
9.60900e-06;0.004797014660183377
9.60925e-06;0.004856604985874183
9.60950e-06;0.004916195311564586
9.60975e-06;0.004968617140349221
9.61000e-06;0.005013448273331147
9.61025e-06;0.005058279406312769
9.61050e-06;0.005103110539294695
9.61075e-06;0.005147941672276621
9.61100e-06;0.005192772805258244
9.61125e-06;0.00523760393824017
9.61150e-06;0.005282435071222096
9.61175e-06;0.00531650555163398
9.61200e-06;0.005339181615424202
9.61225e-06;0.0053618576792144245
9.61250e-06;0.005384533743004493
9.61275e-06;0.005407209806794716
9.61300e-06;0.005429885870584938
9.61325e-06;0.005452561934375007
9.61350e-06;0.005475237998165229
9.61375e-06;0.0054979140619554525
9.61400e-06;0.005520590125745521
9.61425e-06;0.005543266189535744
9.61450e-06;0.005549222159258328
9.61475e-06;0.005554935512812735
9.61500e-06;0.005560648866367104
9.61525e-06;0.0055663622199215125
9.61550e-06;0.0055720755734759205
9.61575e-06;0.0055777889270302895
9.61600e-06;0.005583502280584697
9.61625e-06;0.005589215634139105
9.61650e-06;0.005594928987693474
9.61675e-06;0.005600642341247882
9.61700e-06;0.005602275991295612
9.61725e-06;0.0055995896578521906
9.61750e-06;0.005596903324408752
9.61775e-06;0.005594216990965313
9.61800e-06;0.005591530657521892
9.61825e-06;0.005588844324078453
9.61850e-06;0.005586157990635014
9.61875e-06;0.005583471657191593
9.61900e-06;0.005580785323748154
9.61925e-06;0.005578098990304715
9.61950e-06;0.005575412656861295
9.61975e-06;0.005570929531317685
9.62000e-06;0.005566420333503558
9.62025e-06;0.0055619111356894615
9.62050e-06;0.005557401937875335
9.62075e-06;0.005552892740061208
9.62100e-06;0.005548383542247111
9.62125e-06;0.005543874344432985
9.62150e-06;0.005539365146618858
9.62175e-06;0.005534855948804761
9.62200e-06;0.0055303467509906345
9.62225e-06;0.005522780118025141
9.62250e-06;0.005511975977883182
9.62275e-06;0.00550117183774115
9.62300e-06;0.005490367697599118
9.62325e-06;0.0054795635574570855
9.62350e-06;0.005468759417315127
9.62375e-06;0.005457955277173095
9.62400e-06;0.005447151137031063
9.62425e-06;0.005436346996889104
9.62450e-06;0.005425542856747072
9.62475e-06;0.00541473871660504
9.62500e-06;0.005396215622648068
9.62525e-06;0.005377580523160423
9.62550e-06;0.005358945423672778
9.62575e-06;0.0053403103241852585
9.62600e-06;0.0053216752246976135
9.62625e-06;0.005303040125209968
9.62650e-06;0.005284405025722449
9.62675e-06;0.005265769926234803
9.62700e-06;0.005247134826747158
9.62725e-06;0.005228499727259639
9.62750e-06;0.005208897358656492
9.62775e-06;0.0051882707522367955
9.62800e-06;0.005167644145817238
9.62825e-06;0.0051470175393975425
9.62850e-06;0.005126390932977846
9.62875e-06;0.005105764326558289
9.62900e-06;0.005085137720138593
9.62925e-06;0.005064511113718896
9.62950e-06;0.005043884507299339
9.62975e-06;0.005023257900879643
9.63000e-06;0.0050071686557840766
9.63025e-06;0.004995884006412045
9.63050e-06;0.004984599357039937
9.63075e-06;0.004973314707667828
9.63100e-06;0.004962030058295796
9.63125e-06;0.004950745408923688
9.63150e-06;0.004939460759551579
9.63175e-06;0.004928176110179471
9.63200e-06;0.004916891460807439
9.63225e-06;0.00490560681143533
9.63250e-06;0.004906131113843504
9.63275e-06;0.004919159873175355
9.63300e-06;0.004932188632507294
9.63325e-06;0.004945217391839232
9.63350e-06;0.004958246151171083
9.63375e-06;0.004971274910503021
9.63400e-06;0.00498430366983496
9.63425e-06;0.004997332429166811
9.63450e-06;0.005010361188498749
9.63475e-06;0.005023389947830688
9.63500e-06;0.005036418707162538
9.63525e-06;0.005071244767051841
9.63550e-06;0.005106387115687628
9.63575e-06;0.005141529464323177
9.63600e-06;0.005176671812958964
9.63625e-06;0.005211814161594751
9.63650e-06;0.0052469565102303
9.63675e-06;0.0052820988588660875
9.63700e-06;0.0053172412075018745
9.63725e-06;0.005352383556137423
9.63750e-06;0.00538752590477321
9.63775e-06;0.005425145023727446
9.63800e-06;0.0054653867859386215
9.63825e-06;0.00550562854815007
9.63850e-06;0.005545870310361518
9.63875e-06;0.005586112072572694
9.63900e-06;0.005626353834784142
9.63925e-06;0.00566659559699559
9.63950e-06;0.005706837359206766
9.63975e-06;0.0057470791214182144
9.64000e-06;0.005787320883629663
9.64025e-06;0.005811668166837461
9.64050e-06;0.005835784813923943
9.64075e-06;0.005859901461010589
9.64100e-06;0.005884018108097234
9.64125e-06;0.005908134755183716
9.64150e-06;0.0059322514022703615
9.64175e-06;0.005956368049357006
9.64200e-06;0.005980484696443489
9.64225e-06;0.006004601343530134
9.64250e-06;0.006014405843662897
9.64275e-06;0.0060090552624256785
9.64300e-06;0.006003704681188424
9.64325e-06;0.005998354099951169
9.64350e-06;0.00599300351871395
9.64375e-06;0.005987652937476695
9.64400e-06;0.00598230235623944
9.64425e-06;0.0059769517750022216
9.64450e-06;0.005971601193764967
9.64475e-06;0.005966250612527712
9.64500e-06;0.005960900031290493
9.64525e-06;0.005931296494284622
9.64550e-06;0.005901341035856405
9.64575e-06;0.0058713855774283905
9.64600e-06;0.005841430119000173
9.64625e-06;0.005811474660571956
9.64650e-06;0.005781519202143942
9.64675e-06;0.005751563743715725
9.64700e-06;0.005721608285287508
9.64725e-06;0.005691652826859493
9.64750e-06;0.005661697368431276
9.64775e-06;0.005628563641738105
9.64800e-06;0.005592064458113369
9.64825e-06;0.005555565274488387
9.64850e-06;0.005519066090863404
9.64875e-06;0.005482566907238421
9.64900e-06;0.005446067723613685
9.64925e-06;0.005409568539988703
9.64950e-06;0.00537306935636372
9.64975e-06;0.005336570172738984
9.65000e-06;0.005300070989114001
9.65025e-06;0.005270616219693422
