Time(s);Current(A)
1.42500e-05;-0.008464121460587847
1.42503e-05;-0.008478437130323119
1.42505e-05;-0.008486415581830605
1.42508e-05;-0.00849372770580477
1.42510e-05;-0.008501039829778935
1.42513e-05;-0.00850835195375305
1.42515e-05;-0.008515664077727214
1.42518e-05;-0.008522976201701378
1.42520e-05;-0.008530288325675492
1.42523e-05;-0.008537600449649657
1.42525e-05;-0.008544912573623822
1.42528e-05;-0.008552224697597985
1.42530e-05;-0.0085595368215721
1.42533e-05;-0.008566848945546265
1.42535e-05;-0.00857416106952043
1.42538e-05;-0.008581473193494544
1.42540e-05;-0.008588785317468709
1.42543e-05;-0.008596097441442872
1.42545e-05;-0.008601799202476982
1.42548e-05;-0.008605133732400653
1.42550e-05;-0.008608468262324323
1.42553e-05;-0.00861180279224797
1.42555e-05;-0.00861513732217164
1.42558e-05;-0.00861847185209531
1.42560e-05;-0.008621806382018959
1.42563e-05;-0.008625140911942629
1.42565e-05;-0.008628475441866299
1.42568e-05;-0.008631809971789946
1.42570e-05;-0.008635144501713616
1.42573e-05;-0.008638479031637288
1.42575e-05;-0.008641813561560935
1.42578e-05;-0.008645148091484605
1.42580e-05;-0.008648482621408275
1.42583e-05;-0.008651817151331922
1.42585e-05;-0.008655151681255593
1.42588e-05;-0.008656836254285552
1.42590e-05;-0.00865834734240957
1.42593e-05;-0.008659858430533598
1.42595e-05;-0.008661369518657626
1.42598e-05;-0.008662880606781644
1.42600e-05;-0.008664391694905672
1.42603e-05;-0.0086659027830297
1.42605e-05;-0.008667413871153717
1.42608e-05;-0.008668924959277746
1.42610e-05;-0.008670436047401774
1.42613e-05;-0.008671947135525791
1.42615e-05;-0.00867345822364982
1.42618e-05;-0.008674969311773847
1.42620e-05;-0.008677295450785391
1.42623e-05;-0.008680819713381428
1.42625e-05;-0.008684343975977487
1.42628e-05;-0.008687868238573548
1.42630e-05;-0.008691392501169582
1.42633e-05;-0.008694916763765643
1.42635e-05;-0.008698441026361702
1.42638e-05;-0.008701965288957739
1.42640e-05;-0.008705489551553798
1.42643e-05;-0.008709013814149857
1.42645e-05;-0.008712538076745893
1.42648e-05;-0.008716062339341954
1.42650e-05;-0.008719586601938013
1.42653e-05;-0.00872311086453405
1.42655e-05;-0.00872834541668968
1.42658e-05;-0.00873375979743641
1.42660e-05;-0.0087391741781831
1.42663e-05;-0.00874458855892983
1.42665e-05;-0.00875000293967656
1.42668e-05;-0.008755417320423252
1.42670e-05;-0.008760831701169982
1.42673e-05;-0.008766246081916711
1.42675e-05;-0.008771422918704887
1.42678e-05;-0.00877625056622961
1.42680e-05;-0.008781078213754331
1.42683e-05;-0.00878590586127902
1.42685e-05;-0.00879073350880374
1.42688e-05;-0.008795561156328463
1.42690e-05;-0.008800388803853152
1.42693e-05;-0.008805216451377874
1.42695e-05;-0.008810044098902594
1.42698e-05;-0.008813566678027348
1.42700e-05;-0.008816952035586086
1.42703e-05;-0.008817486066300463
1.42705e-05;-0.008817720293927979
1.42708e-05;-0.008808488301829552
1.42710e-05;-0.008798260982976378
1.42713e-05;-0.008775034080059295
1.42715e-05;-0.008750440334390677
1.42718e-05;-0.008725846588721891
1.42720e-05;-0.008687016855353436
1.42723e-05;-0.008646690277432001
1.42725e-05;-0.008606363699510292
1.42728e-05;-0.008543628856519334
1.42730e-05;-0.008478537893937611
1.42733e-05;-0.008413446931355446
1.42735e-05;-0.008348355968773282
1.42738e-05;-0.008272962971891208
1.42740e-05;-0.008182426000004257
1.42743e-05;-0.008091889028117303
1.42745e-05;-0.008001352056230964
1.42748e-05;-0.00791081508434401
1.42750e-05;-0.007803460185869109
1.42753e-05;-0.007694336964581724
1.42755e-05;-0.007585213743293599
1.42758e-05;-0.0074683947766670915
1.42760e-05;-0.007350766640018161
1.42763e-05;-0.007229283924090886
1.42765e-05;-0.007107395917984867
1.42768e-05;-0.006983026747682509
1.42770e-05;-0.006857282204247849
1.42773e-05;-0.006730985636508723
1.42775e-05;-0.006604886470692034
1.42778e-05;-0.006479733955807344
1.42780e-05;-0.006356277762224382
1.42783e-05;-0.006235162686575421
1.42785e-05;-0.006116816028649364
1.42788e-05;-0.006001659812374488
1.42790e-05;-0.005890347850769018
1.42793e-05;-0.005783671913218599
1.42795e-05;-0.005682434888388454
1.42798e-05;-0.005587439997696251
1.42800e-05;-0.00549949092822078
1.42803e-05;-0.00541870249167517
1.42805e-05;-0.0053436625368198905
1.42808e-05;-0.005274238802569949
1.42810e-05;-0.005205349570217573
1.42813e-05;-0.005143656072190662
1.42815e-05;-0.005082719170472697
1.42818e-05;-0.005030581058049194
1.42820e-05;-0.004979368095332377
1.42823e-05;-0.004938805226729776
1.42825e-05;-0.00489936216349052
1.42828e-05;-0.004859919100251263
1.42830e-05;-0.004833958701651627
1.42833e-05;-0.004807737015469762
1.42835e-05;-0.009121705607894253
1.42838e-05;-0.01664580333676643
1.42840e-05;-0.017073186302034117
1.42843e-05;-0.01521253005961141
1.42845e-05;-0.011473338779055467
1.42848e-05;-0.00583482392048817
1.42850e-05;-0.003831501016420487
1.42853e-05;-0.0046679073647833465
1.42855e-05;-0.00692553275436851
1.42858e-05;-0.01101183254927456
1.42860e-05;-0.012645005798756005
1.42863e-05;-0.010859095667154404
1.42865e-05;-0.00859159260952492
1.42868e-05;-0.005589168941146571
1.42870e-05;-0.003161512336312373
1.42873e-05;-0.004181754396147534
1.42875e-05;-0.005243316823925651
1.42878e-05;-0.006992064108494898
1.42880e-05;-0.008299678925309483
1.42883e-05;-0.007944191039840533
1.42885e-05;-0.006775340926667495
1.42888e-05;-0.005214956269719735
1.42890e-05;-0.004067493383820592
1.42893e-05;-0.004027519369117482
1.42895e-05;-0.004672589422422154
1.42898e-05;-0.005840111864929911
1.42900e-05;-0.00666840611266125
1.42903e-05;-0.006453105664773687
1.42905e-05;-0.005726528848202895
1.42908e-05;-0.004752950600491038
1.42910e-05;-0.004036361951624032
1.42913e-05;-0.0040119112476639865
1.42915e-05;-0.004415045351465646
1.42918e-05;-0.005143994333819402
1.42920e-05;-0.005659103527304233
1.42923e-05;-0.005519301068421002
1.42925e-05;-0.0050581741615440675
1.42928e-05;-0.004441381714602872
1.42930e-05;-0.003984715290490329
1.42933e-05;-0.003960814653969375
1.42935e-05;-0.004204020208343033
1.42938e-05;-0.004650647755063324
1.42940e-05;-0.004962740061395557
1.42943e-05;-0.004864118453223188
1.42945e-05;-0.004563850441885355
1.42948e-05;-0.004165798881041043
1.42950e-05;-0.003867855071905143
1.42953e-05;-0.0038408615996634405
1.42955e-05;-0.0039811073137621805
1.42958e-05;-0.004248763916353181
1.42960e-05;-0.004432210073933692
1.42963e-05;-0.00435853965200555
1.42965e-05;-0.0041588048759114895
1.42968e-05;-0.003898149235748963
1.42970e-05;-0.0037006059457922644
1.42973e-05;-0.003673254392399291
1.42975e-05;-0.0037511915534999695
1.42978e-05;-0.003909534304342512
1.42980e-05;-0.004015795840932231
1.42983e-05;-0.0039617506832937514
1.42985e-05;-0.003829574548506635
1.42988e-05;-0.003660151349344321
1.42990e-05;-0.0035312480479763736
1.42993e-05;-0.003510005193211055
1.42995e-05;-0.0035558323606418194
1.42998e-05;-0.003653210140145422
1.43000e-05;-0.00371922143469329
1.43003e-05;-0.0036861665058553813
1.43005e-05;-0.0036056163762069006
1.43008e-05;-0.0035032195105809093
1.43010e-05;-0.00342764958428381
1.43013e-05;-0.0034208839816463636
1.43015e-05;-0.003457411625439763
1.43018e-05;-0.0035274274660030153
1.43020e-05;-0.0035789112736008986
1.43023e-05;-0.003569379485616168
1.43025e-05;-0.003531059862607943
1.43028e-05;-0.003479940189343124
1.43030e-05;-0.003446428625849207
1.43033e-05;-0.0034567368014653014
1.43035e-05;-0.0034948009378179047
1.43038e-05;-0.0035543962034143683
1.43040e-05;-0.0036028566175895856
1.43043e-05;-0.0036134921210908247
1.43045e-05;-0.0036064121278208904
1.43048e-05;-0.0035915520549035986
1.43050e-05;-0.0035878788986546777
1.43053e-05;-0.003611729225379563
1.43055e-05;-0.0036529581897923828
1.43058e-05;-0.0037075847193336568
1.43060e-05;-0.003755065968134041
1.43063e-05;-0.003778603957938984
1.43065e-05;-0.003790716472661184
1.43068e-05;-0.003797547188834451
1.43070e-05;-0.003810896429904899
1.43073e-05;-0.0038409157179509984
1.43075e-05;-0.003881168598095527
1.43078e-05;-0.003929079727157849
1.43080e-05;-0.003971700537042337
1.43083e-05;-0.003998428893450862
1.43085e-05;-0.004017026863040378
1.43088e-05;-0.004031262295645158
1.43090e-05;-0.004048446414074102
1.43093e-05;-0.004074857260046917
1.43095e-05;-0.004106381628598708
1.43098e-05;-0.004141325169392923
1.43100e-05;-0.004171523119259879
1.43103e-05;-0.004190905982529135
1.43105e-05;-0.004206023242320127
1.43108e-05;-0.004220953430535922
1.43110e-05;-0.004240931200204835
1.43113e-05;-0.004269837537806268
1.43115e-05;-0.004304910563298195
1.43118e-05;-0.0043449039440341545
1.43120e-05;-0.004384518289819166
1.43123e-05;-0.004419767034457973
1.43125e-05;-0.004454568800154342
1.43128e-05;-0.004491293757879846
1.43130e-05;-0.004533035521092676
1.43133e-05;-0.004582039806463819
1.43135e-05;-0.004636391616730952
1.43138e-05;-0.004695125015515722
1.43140e-05;-0.004754735487559289
1.43143e-05;-0.004812541410114465
1.43145e-05;-0.004870812729806694
1.43148e-05;-0.00493084893753725
1.43150e-05;-0.00499440311989966
1.43153e-05;-0.0050626969201836725
1.43155e-05;-0.00513434553132202
1.43158e-05;-0.005208558714611961
1.43160e-05;-0.005282956726495698
1.43163e-05;-0.005355674945398404
1.43165e-05;-0.005427950576784429
1.43168e-05;-0.005500412638114319
1.43170e-05;-0.005573974940567233
1.43173e-05;-0.005649217414049038
1.43175e-05;-0.005725087392409242
1.43178e-05;-0.005800060281740175
1.43180e-05;-0.005874525808008061
1.43183e-05;-0.005945356940841619
1.43185e-05;-0.006014165613790824
1.43188e-05;-0.006079702245642488
1.43190e-05;-0.0061434180587030904
1.43193e-05;-0.00620713387176326
1.43195e-05;-0.006265347035254243
1.43198e-05;-0.006320498095477823
1.43200e-05;-0.006375649155701028
1.43203e-05;-0.006421492143814818
1.43205e-05;-0.006462155394847249
1.43208e-05;-0.006502818645879406
1.43210e-05;-0.006535579654135961
1.43213e-05;-0.006563943238366305
1.43215e-05;-0.006592306822596648
1.43218e-05;-0.006606448111189746
1.43220e-05;-0.006612675005563836
1.43223e-05;-0.006618901899937926
1.43225e-05;-0.006625128794311974
1.43228e-05;-0.006631355688686064
1.43230e-05;-0.006637582583060154
1.43233e-05;-0.006639953959059969
1.43235e-05;-0.006619120058145183
1.43238e-05;-0.006598286157230398
1.43240e-05;-0.006577452256315753
1.43243e-05;-0.0065566183554009675
1.43245e-05;-0.0065357844544861815
1.43248e-05;-0.006514950553571537
1.43250e-05;-0.006482367757502198
1.43253e-05;-0.006443246960095655
1.43255e-05;-0.006404126162689376
1.43258e-05;-0.006365005365282833
1.43260e-05;-0.00632588456787629
1.43263e-05;-0.006285483130833167
1.43265e-05;-0.006237373885261944
1.43268e-05;-0.00618926463969072
1.43270e-05;-0.006141155394119823
1.43273e-05;-0.0060930461485486
1.43275e-05;-0.006044936902977377
1.43278e-05;-0.005996104942709526
1.43280e-05;-0.005946870807633123
1.43283e-05;-0.005898285585905279
1.43285e-05;-0.005850061470161373
1.43288e-05;-0.005803564947838635
1.43290e-05;-0.00575802979319796
1.43293e-05;-0.005714448259657644
1.43295e-05;-0.005673504204699423
1.43298e-05;-0.005635201178856416
1.43300e-05;-0.005600910317848369
1.43303e-05;-0.005568301454882291
1.43305e-05;-0.005540861610071546
1.43308e-05;-0.005516298209996706
1.43310e-05;-0.005497607939449488
1.43313e-05;-0.005482185936105786
1.43315e-05;-0.005472696149604573
1.43318e-05;-0.005466507511096274
1.43320e-05;-0.005467777736118025
1.43323e-05;-0.005473198654384016
1.43325e-05;-0.00547861957264997
1.43328e-05;-0.005496869151615358
1.43330e-05;-0.0055222575976591965
1.43333e-05;-0.005547646043702862
1.43335e-05;-0.005573034489746701
1.43338e-05;-0.005598422935790538
1.43340e-05;-0.005626917937787179
1.43343e-05;-0.005674110423282285
1.43345e-05;-0.0057213029087773894
1.43348e-05;-0.005768495394272175
1.43350e-05;-0.005815687879767281
1.43353e-05;-0.0058628803652623854
1.43355e-05;-0.005918100820096649
1.43358e-05;-0.005977788663022039
1.43360e-05;-0.006037476505947429
1.43363e-05;-0.006100171618963217
1.43365e-05;-0.00616454021153841
1.43368e-05;-0.006230451656182871
1.43370e-05;-0.0062972216640162565
1.43373e-05;-0.006364583143353084
1.43375e-05;-0.00643227376355193
1.43378e-05;-0.00649953222361574
1.43380e-05;-0.00656655019608507
1.43383e-05;-0.006632141247293158
1.43385e-05;-0.006696938248252674
1.43388e-05;-0.006759343933216158
1.43390e-05;-0.006820418903506223
1.43393e-05;-0.006876890597984179
1.43395e-05;-0.006930800670876718
1.43398e-05;-0.006984710743769622
1.43400e-05;-0.007031127847037314
1.43403e-05;-0.007073375277768881
1.43405e-05;-0.007115622708500733
1.43408e-05;-0.007145584403978842
1.43410e-05;-0.007168709358427006
1.43413e-05;-0.007191834312875326
1.43415e-05;-0.007214959267323647
1.43418e-05;-0.007238084221771811
1.43420e-05;-0.007261209176220132
1.43423e-05;-0.007280589338058877
1.43425e-05;-0.007277430650086787
1.43428e-05;-0.007274271962114675
1.43430e-05;-0.007271113274142563
1.43433e-05;-0.007267954586170472
1.43435e-05;-0.0072647958981983595
1.43438e-05;-0.0072616372102262475
1.43440e-05;-0.007244356665466533
1.43443e-05;-0.007219217618490334
1.43445e-05;-0.007194078571514134
1.43448e-05;-0.007168939524538105
1.43450e-05;-0.0071438004775619054
1.43453e-05;-0.007118661430585706
1.43455e-05;-0.007091548968420575
1.43458e-05;-0.0070525590771941
1.43460e-05;-0.007013569185967625
1.43463e-05;-0.006974579294741414
1.43465e-05;-0.006935589403514939
1.43468e-05;-0.006896599512288464
1.43470e-05;-0.006857609621061989
1.43473e-05;-0.00681601215541803
1.43475e-05;-0.0067729636320515785
1.43478e-05;-0.006729915108685127
1.43480e-05;-0.006687290218929557
1.43483e-05;-0.0066449010719459335
1.43485e-05;-0.00660251192496231
1.43488e-05;-0.006561791134496929
1.43490e-05;-0.006521998747681977
1.43493e-05;-0.006484453922660469
1.43495e-05;-0.006448159816266662
1.43498e-05;-0.006415756397651134
1.43500e-05;-0.006385518061078089
1.43503e-05;-0.00635527972450525
1.43505e-05;-0.006331095918008775
1.43508e-05;-0.006310281324127406
1.43510e-05;-0.006289466730246178
1.43513e-05;-0.006275338127840108
1.43515e-05;-0.00626493013240747
1.43518e-05;-0.006254522136974901
1.43520e-05;-0.006255067606469846
1.43523e-05;-0.006261708437908248
1.43525e-05;-0.006268349269346604
1.43528e-05;-0.0062749901007850065
1.43530e-05;-0.006281630932223408
1.43533e-05;-0.006288271763661765
1.43535e-05;-0.00629789244295033
1.43538e-05;-0.006325447985446894
1.43540e-05;-0.00635300352794327
1.43543e-05;-0.006380559070439833
1.43545e-05;-0.006408114612936396
1.43548e-05;-0.006435670155432773
1.43550e-05;-0.006463225697929336
1.43553e-05;-0.006498279572209442
1.43555e-05;-0.006537506102950101
1.43558e-05;-0.006576732633690493
1.43560e-05;-0.006619029710304286
1.43563e-05;-0.006663035478057013
1.43565e-05;-0.006707041245809442
1.43568e-05;-0.006752787321975013
1.43570e-05;-0.006799501841436009
1.43573e-05;-0.006846216360896689
1.43575e-05;-0.0068931063971078175
1.43578e-05;-0.006940094104524034
1.43580e-05;-0.006987081811939932
1.43583e-05;-0.007032642249056217
1.43585e-05;-0.007077408441691117
1.43588e-05;-0.0071221746343257146
1.43590e-05;-0.0071644966564896355
1.43593e-05;-0.007205458551627661
1.43595e-05;-0.007243523822035745
1.43598e-05;-0.007279977184590057
1.43600e-05;-0.007312616797532575
1.43603e-05;-0.007343134142826724
1.43605e-05;-0.0073664838727005594
1.43608e-05;-0.007385844982483855
1.43610e-05;-0.00740520609226702
1.43613e-05;-0.00741488994641651
1.43615e-05;-0.007419188620980087
1.43618e-05;-0.007423487295543634
1.43620e-05;-0.007413681857474303
1.43623e-05;-0.007396027791415558
1.43625e-05;-0.007378373725356934
1.43628e-05;-0.00736071965929819
1.43630e-05;-0.007343065593239446
1.43633e-05;-0.007321523118081014
1.43635e-05;-0.007276577405964327
1.43638e-05;-0.00723163169384764
1.43640e-05;-0.0071866859817309526
1.43643e-05;-0.00714174026961457
1.43645e-05;-0.007096794557497883
1.43648e-05;-0.0070385369315891936
1.43650e-05;-0.0069728715188954234
1.43653e-05;-0.0069072061062012075
1.43655e-05;-0.0068415406935069915
1.43658e-05;-0.0067758752808132205
1.43660e-05;-0.006702754754267477
1.43663e-05;-0.006625485621087097
1.43665e-05;-0.006548216487907241
1.43668e-05;-0.006470947354726861
1.43670e-05;-0.006393678221546481
1.43673e-05;-0.0063144229168882035
1.43675e-05;-0.006234062351553645
1.43678e-05;-0.0061540012616739725
1.43680e-05;-0.006074706671727153
1.43683e-05;-0.005996617085545539
1.43685e-05;-0.005920126436170791
1.43688e-05;-0.00584564574995935
1.43690e-05;-0.0057736507389402805
1.43693e-05;-0.005707233487716936
1.43695e-05;-0.005643389928243616
1.43698e-05;-0.005579546368769863
1.43700e-05;-0.005523485979909271
1.43703e-05;-0.0054717567540456084
1.43705e-05;-0.005420027528181596
1.43708e-05;-0.0053724488994873155
1.43710e-05;-0.005327179986687966
1.43713e-05;-0.005281911073888309
1.43715e-05;-0.0052366421610886525
1.43718e-05;-0.0051963849745141535
1.43720e-05;-0.0051589167031841545
1.43723e-05;-0.0051214484318541555
1.43725e-05;-0.0050839801605241566
1.43728e-05;-0.005050362400090914
1.43730e-05;-0.005018887364151548
1.43733e-05;-0.004987412328212182
1.43735e-05;-0.00495593729227303
1.43738e-05;-0.0049244622563336645
1.43740e-05;-0.004892987220394299
1.43743e-05;-0.004861512184455147
1.43745e-05;-0.004830037148515781
1.43748e-05;-0.004802335136816684
1.43750e-05;-0.004776732729994713
1.43753e-05;-0.004751130323172568
1.43755e-05;-0.004725527916350423
1.43758e-05;-0.004699925509528451
1.43760e-05;-0.004674323102706306
1.43763e-05;-0.004648720695884161
1.43765e-05;-0.00462311828906219
1.43768e-05;-0.004599942208658708
1.43770e-05;-0.004578116325459839
1.43773e-05;-0.0045562904422611185
1.43775e-05;-0.004534464559062251
1.43778e-05;-0.004512638675863383
1.43780e-05;-0.0044913642334563466
1.43783e-05;-0.004473408757546203
1.43785e-05;-0.00445545328163606
1.43788e-05;-0.004437497805726037
1.43790e-05;-0.0044195423298158945
1.43793e-05;-0.004401586853905751
1.43795e-05;-0.0043852026790085555
1.43798e-05;-0.004370331939043195
1.43800e-05;-0.004356550690467826
1.43803e-05;-0.004344364961092316
1.43805e-05;-0.004334911041607843
1.43808e-05;-0.004329270272484198
1.43810e-05;-0.004327828071034084
1.43813e-05;-0.0043305266494955644
1.43815e-05;-0.004338450688402482
1.43818e-05;-0.004348468692507011
1.43820e-05;-0.004363336792851269
1.43823e-05;-0.004380903864915013
1.43825e-05;-0.00440578041181643
1.43828e-05;-0.004434724520451421
1.43830e-05;-0.004463668629086608
1.43833e-05;-0.00450355834121372
1.43835e-05;-0.00454953904057378
1.43838e-05;-0.00459551973993415
1.43840e-05;-0.004641500439294521
1.43843e-05;-0.004687481138654579
1.43845e-05;-0.004744701950635247
1.43848e-05;-0.004808177637692027
1.43850e-05;-0.004871653324748377
1.43853e-05;-0.004935129011805157
1.43855e-05;-0.0049986046988619364
1.43858e-05;-0.005067803029774227
1.43860e-05;-0.00514018588593463
1.43863e-05;-0.005214506955615563
1.43865e-05;-0.005289906598425278
1.43868e-05;-0.005366727627734839
1.43870e-05;-0.0054443396273210634
1.43873e-05;-0.005522299568918698
1.43875e-05;-0.005600453132582062
1.43878e-05;-0.005677744769386966
1.43880e-05;-0.005754556762881075
1.43883e-05;-0.005829448643020086
1.43885e-05;-0.005903272022372775
1.43888e-05;-0.005974295560522351
1.43890e-05;-0.00604376104871777
1.43893e-05;-0.006109199325027913
1.43895e-05;-0.0061723965466348825
1.43898e-05;-0.006228713411913316
1.43900e-05;-0.006281201510455211
1.43903e-05;-0.006333689608997107
1.43905e-05;-0.006377228447519202
1.43908e-05;-0.00641578721997386
1.43910e-05;-0.00645434599242852
1.43913e-05;-0.006479034852885345
1.43915e-05;-0.006496005412840007
1.43918e-05;-0.006512975972794669
1.43920e-05;-0.006529946532749216
1.43923e-05;-0.0065469170927038795
1.43925e-05;-0.006563887652658542
1.43928e-05;-0.006562986319263336
1.43930e-05;-0.006552139670898052
1.43933e-05;-0.006541293022532768
1.43935e-05;-0.0065304463741675586
1.43938e-05;-0.006519599725802274
1.43940e-05;-0.006508753077436991
1.43943e-05;-0.006483800566716034
1.43945e-05;-0.006450998454315502
1.43948e-05;-0.0064181963419149704
1.43950e-05;-0.006385394229514661
1.43953e-05;-0.006352592117114129
1.43955e-05;-0.006317829274072339
1.43958e-05;-0.006271265346649784
1.43960e-05;-0.006224701419226914
1.43963e-05;-0.006178137491804044
1.43965e-05;-0.006131573564381489
