Time(s);Current(A)
3.80000e-06;-0.008525251054453897
3.80025e-06;-0.008480505661356497
3.80050e-06;-0.008435760268259096
3.80075e-06;-0.008391014875161695
3.80100e-06;-0.008346269482064371
3.80125e-06;-0.00830152408896697
3.80150e-06;-0.00825677869586957
3.80175e-06;-0.00821465659065783
3.80200e-06;-0.008175801719712614
3.80225e-06;-0.0081369468487674
3.80250e-06;-0.008098091977822184
3.80275e-06;-0.008059237106877035
3.80300e-06;-0.008020382235931819
3.80325e-06;-0.007981527364986604
3.80350e-06;-0.007942672494041455
3.80375e-06;-0.00790381762309624
3.80400e-06;-0.007864962752151025
3.80425e-06;-0.00783655167151072
3.80450e-06;-0.00782114804984783
3.80475e-06;-0.007805744428184944
3.80500e-06;-0.0077903408065220555
3.80525e-06;-0.007774937184859194
3.80550e-06;-0.007759533563196306
3.80575e-06;-0.007744129941533419
3.80600e-06;-0.007728726319870557
3.80625e-06;-0.0077133226982076695
3.80650e-06;-0.007697919076544782
3.80675e-06;-0.007682515454881894
3.80700e-06;-0.007667111833219033
3.80725e-06;-0.007651708211556144
3.80750e-06;-0.007636304589893257
3.80775e-06;-0.007620900968230395
3.80800e-06;-0.0076054973465675075
3.80825e-06;-0.00759009372490462
3.80850e-06;-0.007574690103241758
3.80875e-06;-0.007559286481578871
3.80900e-06;-0.007543882859915983
3.80925e-06;-0.0075405138828465845
3.80950e-06;-0.007537840748256783
3.80975e-06;-0.0075351676136669755
3.81000e-06;-0.007532494479077168
3.81025e-06;-0.0075298213444873665
3.81050e-06;-0.007527148209897559
3.81075e-06;-0.007524475075307752
3.81100e-06;-0.007521801940717945
3.81125e-06;-0.007519128806128143
3.81150e-06;-0.007516455671538336
3.81175e-06;-0.007513782536948529
3.81200e-06;-0.007511109402358726
3.81225e-06;-0.00750843626776892
3.81250e-06;-0.007505763133179113
3.81275e-06;-0.00750308999858931
3.81300e-06;-0.007500416863999503
3.81325e-06;-0.007497743729409697
3.81350e-06;-0.00749507059481989
3.81375e-06;-0.007492397460230087
3.81400e-06;-0.007493989762936758
3.81425e-06;-0.00750089455268487
3.81450e-06;-0.00750779934243297
3.81475e-06;-0.007514704132181082
3.81500e-06;-0.007521608921929182
3.81525e-06;-0.007528513711677305
3.81550e-06;-0.007535418501425406
3.81575e-06;-0.007542323291173506
3.81600e-06;-0.0075492280809216295
3.81625e-06;-0.00755613287066973
3.81650e-06;-0.007563037660417853
3.81675e-06;-0.007569942450165954
3.81700e-06;-0.007576847239914053
3.81725e-06;-0.007588540096274554
3.81750e-06;-0.007606196360384803
3.81775e-06;-0.007623852624495051
3.81800e-06;-0.007641508888605359
3.81825e-06;-0.007659165152715608
3.81850e-06;-0.007676821416825857
3.81875e-06;-0.007694477680936166
3.81900e-06;-0.007712133945046415
3.81925e-06;-0.007729790209156664
3.81950e-06;-0.007747446473266972
3.81975e-06;-0.007765102737377221
3.82000e-06;-0.00778275900148747
3.82025e-06;-0.007800415265597779
3.82050e-06;-0.007819598709567414
3.82075e-06;-0.00784068421483778
3.82100e-06;-0.007861769720108077
3.82125e-06;-0.007882855225378372
3.82150e-06;-0.00790394073064874
3.82175e-06;-0.007925026235919034
3.82200e-06;-0.007946111741189331
3.82225e-06;-0.007967197246459697
3.82250e-06;-0.007988282751729994
3.82275e-06;-0.008007814513283475
3.82300e-06;-0.00802541112896889
3.82325e-06;-0.00804300774465425
3.82350e-06;-0.008060604360339606
3.82375e-06;-0.008078200976025022
3.82400e-06;-0.008095797591710379
3.82425e-06;-0.008113394207395735
3.82450e-06;-0.008130990823081153
3.82475e-06;-0.00814858743876651
3.82500e-06;-0.008165736855714598
3.82525e-06;-0.008182876302129443
3.82550e-06;-0.00820069702654863
3.82575e-06;-0.008218517750967875
3.82600e-06;-0.00823633847538706
3.82625e-06;-0.008254159199806245
3.82650e-06;-0.00827197992422549
3.82675e-06;-0.008289800648644676
3.82700e-06;-0.00830762137306386
3.82725e-06;-0.008325442097483106
3.82750e-06;-0.008343262821902292
3.82775e-06;-0.008361083546321476
3.82800e-06;-0.008378904270740721
3.82825e-06;-0.008396724995159907
3.82850e-06;-0.008414545719579091
3.82875e-06;-0.008433353621649178
3.82900e-06;-0.00845339102684203
3.82925e-06;-0.008473428432034951
3.82950e-06;-0.008493465837227803
3.82975e-06;-0.008513503242420655
3.83000e-06;-0.008533540647613575
3.83025e-06;-0.008553578052806427
3.83050e-06;-0.008573615457999279
3.83075e-06;-0.008593652863192199
3.83100e-06;-0.00861369026838505
3.83125e-06;-0.008633727673577903
3.83150e-06;-0.008653765078770822
3.83175e-06;-0.008673802483963674
3.83200e-06;-0.008693839889156526
3.83225e-06;-0.008711572096858251
3.83250e-06;-0.008726433243295964
3.83275e-06;-0.008741294389733676
3.83300e-06;-0.008756155536171439
3.83325e-06;-0.008771016682609151
3.83350e-06;-0.008785877829046914
3.83375e-06;-0.008800738975484626
3.83400e-06;-0.008815600121922338
3.83425e-06;-0.008830461268360101
3.83450e-06;-0.008845322414797813
3.83475e-06;-0.008860183561235526
3.83500e-06;-0.00887504470767329
3.83525e-06;-0.008889905854111002
3.83550e-06;-0.008904767000548715
3.83575e-06;-0.008919628146986477
3.83600e-06;-0.008924737431334309
3.83625e-06;-0.00892928286356072
3.83650e-06;-0.008933828295787146
3.83675e-06;-0.008938373728013555
3.83700e-06;-0.008942919160239966
3.83725e-06;-0.008947464592466392
3.83750e-06;-0.008952010024692803
3.83775e-06;-0.00895655545691923
3.83800e-06;-0.00896110088914564
3.83825e-06;-0.008965646321372051
3.83850e-06;-0.008970191753598478
3.83875e-06;-0.008974737185824888
3.83900e-06;-0.008979282618051298
3.83925e-06;-0.008983828050277724
3.83950e-06;-0.008985938649020194
3.83975e-06;-0.008985016728368713
3.84000e-06;-0.00898409480771723
3.84025e-06;-0.008983172887065748
3.84050e-06;-0.008982250966414267
3.84075e-06;-0.008981329045762782
3.84100e-06;-0.0089804071251113
3.84125e-06;-0.008979485204459821
3.84150e-06;-0.008978563283808336
3.84175e-06;-0.008977641363156855
3.84200e-06;-0.00897671944250537
3.84225e-06;-0.008977153615454736
3.84250e-06;-0.008977666197660328
3.84275e-06;-0.00897817877986592
3.84300e-06;-0.00897869136207151
3.84325e-06;-0.0089792039442771
3.84350e-06;-0.008979716526482693
3.84375e-06;-0.008980229108688285
3.84400e-06;-0.008980741690893876
3.84425e-06;-0.008981254273099468
3.84450e-06;-0.008981766855305058
3.84475e-06;-0.008986961248441562
3.84500e-06;-0.008997986710741186
3.84525e-06;-0.009009012173040771
3.84550e-06;-0.009020037635340357
3.84575e-06;-0.009031063097639978
3.84600e-06;-0.009042088559939564
3.84625e-06;-0.009053114022239187
3.84650e-06;-0.009064139484538773
3.84675e-06;-0.009075164946838358
3.84700e-06;-0.009086190409137981
3.84725e-06;-0.009102798689599886
3.84750e-06;-0.009126360219415083
3.84775e-06;-0.00914992174923036
3.84800e-06;-0.009173483279045557
3.84825e-06;-0.009197044808860754
3.84850e-06;-0.009220606338676031
3.84875e-06;-0.009244167868491228
3.84900e-06;-0.009267729398306425
3.84925e-06;-0.009291290928121702
3.84950e-06;-0.009314852457936899
3.84975e-06;-0.009341173356960874
3.85000e-06;-0.009370930975865088
3.85025e-06;-0.009400688594769202
3.85050e-06;-0.009430446213673416
3.85075e-06;-0.00946020383257753
3.85100e-06;-0.009489961451481644
3.85125e-06;-0.009519719070385858
3.85150e-06;-0.009549476689289972
3.85175e-06;-0.009579234308194086
3.85200e-06;-0.009608991927098302
3.85225e-06;-0.00963633633184266
3.85250e-06;-0.009660675143478632
3.85275e-06;-0.009685013955114685
3.85300e-06;-0.009709352766750655
3.85325e-06;-0.009733691578386628
3.85350e-06;-0.00975803039002268
3.85375e-06;-0.009782369201658652
3.85400e-06;-0.009806708013294623
3.85425e-06;-0.009831046824930677
3.85450e-06;-0.009855385636566648
3.85475e-06;-0.009872268459969618
3.85500e-06;-0.009879865051250184
3.85525e-06;-0.009887461642530751
3.85550e-06;-0.009895058233811342
3.85575e-06;-0.009902654825091908
3.85600e-06;-0.009910251416372475
3.85625e-06;-0.009917848007653067
3.85650e-06;-0.009925444598933634
3.85675e-06;-0.0099330411902142
3.85700e-06;-0.009932942728116179
3.85725e-06;-0.009923260284709332
3.85750e-06;-0.009913577841302486
3.85775e-06;-0.009903895397895606
3.85800e-06;-0.00989421295448876
3.85825e-06;-0.009884530511081912
3.85850e-06;-0.009874848067675033
3.85875e-06;-0.009865165624268186
3.85900e-06;-0.009855483180861307
3.85925e-06;-0.009840960225876733
3.85950e-06;-0.00982040854435818
3.85975e-06;-0.009799856862839554
3.86000e-06;-0.009779305181321
3.86025e-06;-0.009758753499802446
3.86050e-06;-0.009738201818283821
3.86075e-06;-0.009717650136765267
3.86100e-06;-0.009697098455246711
3.86125e-06;-0.009676546773728088
3.86150e-06;-0.009655995092209532
3.86175e-06;-0.009636596182490147
3.86200e-06;-0.009618633018935417
3.86225e-06;-0.00960066985538075
3.86250e-06;-0.00958270669182608
3.86275e-06;-0.00956474352827135
3.86300e-06;-0.009546780364716683
3.86325e-06;-0.009528817201161954
3.86350e-06;-0.009510854037607286
3.86375e-06;-0.009492890874052617
3.86400e-06;-0.009474927710497887
3.86425e-06;-0.009461170059326177
3.86450e-06;-0.00945265026032827
3.86475e-06;-0.009444130461330332
3.86500e-06;-0.009435610662332422
3.86525e-06;-0.009427090863334514
3.86550e-06;-0.009418571064336577
3.86575e-06;-0.009410051265338667
3.86600e-06;-0.009401531466340759
3.86625e-06;-0.009393011667342821
3.86650e-06;-0.009384491868344912
3.86675e-06;-0.009375972069347004
3.86700e-06;-0.009367452270349064
3.86725e-06;-0.009358932471351156
3.86750e-06;-0.009350412672353219
3.86775e-06;-0.00934189287335531
3.86800e-06;-0.009333373074357401
3.86825e-06;-0.009327749392610128
3.86850e-06;-0.009322293164200085
3.86875e-06;-0.00931683693579004
3.86900e-06;-0.009311380707379977
3.86925e-06;-0.009305924478969932
3.86950e-06;-0.009300468250559886
3.86975e-06;-0.009295012022149824
3.87000e-06;-0.00928955579373978
3.87025e-06;-0.009284099565329735
3.87050e-06;-0.009278643336919672
3.87075e-06;-0.009273187108509627
3.87100e-06;-0.009267730880099582
3.87125e-06;-0.00926227465168952
3.87150e-06;-0.009256818423279474
3.87175e-06;-0.00925136219486943
3.87200e-06;-0.0092483253228256
3.87225e-06;-0.00924830169384142
3.87250e-06;-0.009248278064857242
3.87275e-06;-0.009248254435873062
3.87300e-06;-0.009248230806888883
3.87325e-06;-0.009248207177904704
3.87350e-06;-0.009248183548920525
3.87375e-06;-0.009248159919936346
3.87400e-06;-0.009248136290952167
3.87425e-06;-0.009248112661967988
3.87450e-06;-0.009248089032983811
3.87475e-06;-0.009248065403999632
3.87500e-06;-0.009248041775015453
3.87525e-06;-0.009248018146031274
3.87550e-06;-0.009247994517047095
3.87575e-06;-0.009247970888062916
3.87600e-06;-0.009247947259078737
3.87625e-06;-0.009247923630094558
3.87650e-06;-0.009254911339586416
3.87675e-06;-0.009262304444275902
3.87700e-06;-0.009269697548965363
3.87725e-06;-0.009277090653654825
3.87750e-06;-0.00928448375834431
3.87775e-06;-0.00929187686303377
3.87800e-06;-0.009299269967723232
3.87825e-06;-0.009306663072412718
3.87850e-06;-0.00931405617710218
3.87875e-06;-0.009321449281791641
3.87900e-06;-0.009328842386481127
3.87925e-06;-0.009336235491170589
3.87950e-06;-0.009343628595860048
3.87975e-06;-0.009351021700549536
3.88000e-06;-0.009358414805238996
3.88025e-06;-0.009365807909928458
3.88050e-06;-0.009373201014617943
3.88075e-06;-0.009381668026463112
3.88100e-06;-0.00939147256068751
3.88125e-06;-0.009401277094911877
3.88150e-06;-0.009411081629136243
3.88175e-06;-0.009420886163360643
3.88200e-06;-0.009430690697585007
3.88225e-06;-0.009440495231809374
3.88250e-06;-0.009449937440609898
3.88275e-06;-0.009459358699774706
3.88300e-06;-0.009468779958939513
3.88325e-06;-0.009478201218104353
3.88350e-06;-0.009487622477269161
3.88375e-06;-0.009497043736433968
3.88400e-06;-0.009508629092889269
3.88425e-06;-0.009522909774113695
3.88450e-06;-0.009537190455338122
3.88475e-06;-0.009551471136562599
3.88500e-06;-0.009565751817787026
3.88525e-06;-0.009580032499011503
3.88550e-06;-0.009594313180235929
3.88575e-06;-0.009608593861460357
3.88600e-06;-0.009622874542684833
3.88625e-06;-0.009650517777574237
3.88650e-06;-0.00967893363456674
3.88675e-06;-0.009707349491559339
3.88700e-06;-0.009735765348551842
3.88725e-06;-0.009764181205544344
3.88750e-06;-0.009792597062536944
3.88775e-06;-0.009821012919529446
3.88800e-06;-0.00984942877652195
3.88825e-06;-0.009883189577939766
3.88850e-06;-0.009923607363385606
3.88875e-06;-0.009964025148831447
3.88900e-06;-0.010004442934277423
3.88925e-06;-0.010044860719723263
3.88950e-06;-0.01008527850516924
3.88975e-06;-0.01012569629061508
3.89000e-06;-0.01016611407606092
3.89025e-06;-0.010210733563205654
3.89050e-06;-0.010255595992506607
3.89075e-06;-0.010300458421807561
3.89100e-06;-0.010345320851108668
3.89125e-06;-0.010390183280409622
3.89150e-06;-0.010435045709710575
3.89175e-06;-0.010479908139011682
3.89200e-06;-0.010523759532337232
3.89225e-06;-0.010566351707642122
3.89250e-06;-0.010608943882947156
3.89275e-06;-0.010647533056482476
3.89300e-06;-0.010681136599350311
3.89325e-06;-0.01071474014221826
3.89350e-06;-0.010748343685086096
3.89375e-06;-0.010781947227954046
3.89400e-06;-0.01081555077082188
3.89425e-06;-0.010849154313689716
3.89450e-06;-0.010882757856557667
3.89475e-06;-0.0109163613994255
3.89500e-06;-0.010935826896690783
3.89525e-06;-0.010954474932953411
3.89550e-06;-0.010973122969215977
3.89575e-06;-0.01099177100547854
3.89600e-06;-0.011010419041741168
3.89625e-06;-0.011029067078003734
3.89650e-06;-0.011047715114266297
3.89675e-06;-0.011066363150528925
3.89700e-06;-0.011079197167921325
3.89725e-06;-0.01108478998172536
3.89750e-06;-0.011090382795529414
3.89775e-06;-0.01109597560933345
3.89800e-06;-0.011101568423137503
3.89825e-06;-0.01110716123694154
3.89850e-06;-0.011112754050745575
3.89875e-06;-0.01111834686454963
3.89900e-06;-0.011123939678353664
3.89925e-06;-0.0111295324921577
3.89950e-06;-0.011135125305961753
3.89975e-06;-0.011133322114560138
3.90000e-06;-0.011131091286553076
3.90025e-06;-0.011128860458546006
3.90050e-06;-0.011126629630538943
3.90075e-06;-0.01112439880253188
3.90100e-06;-0.01112216797452481
3.90125e-06;-0.011119937146517747
3.90150e-06;-0.011117706318510685
3.90175e-06;-0.011115475490503615
3.90200e-06;-0.011113244662496552
3.90225e-06;-0.011110986056496991
3.90250e-06;-0.011108692853757495
3.90275e-06;-0.011106399651018
3.90300e-06;-0.011104106448278495
3.90325e-06;-0.011101813245539
3.90350e-06;-0.011099520042799503
3.90375e-06;-0.011097226840059999
3.90400e-06;-0.0110958999287501
3.90425e-06;-0.011094628888356346
3.90450e-06;-0.011093357847962585
3.90475e-06;-0.011092086807568829
3.90500e-06;-0.011090815767175074
3.90525e-06;-0.011089544726781314
3.90550e-06;-0.011086662423051952
3.90575e-06;-0.011081773334324774
3.90600e-06;-0.011076884245597579
3.90625e-06;-0.011071995156870401
3.90650e-06;-0.011067106068143207
3.90675e-06;-0.011062216979416027
3.90700e-06;-0.01105732789068885
3.90725e-06;-0.011052438801961655
3.90750e-06;-0.011047549713234477
3.90775e-06;-0.011042660624507298
3.90800e-06;-0.011037771535780104
3.90825e-06;-0.011028306291461228
3.90850e-06;-0.011018576454083362
3.90875e-06;-0.01100884661670546
3.90900e-06;-0.010999116779327594
3.90925e-06;-0.010989386941949725
3.90950e-06;-0.010979657104571825
3.90975e-06;-0.010969927267193957
3.91000e-06;-0.010960197429816089
3.91025e-06;-0.010950467592438189
3.91050e-06;-0.01094073775506032
3.91075e-06;-0.010930924515418591
3.91100e-06;-0.010921007400508267
3.91125e-06;-0.010911090285597943
3.91150e-06;-0.010901173170687584
3.91175e-06;-0.01089125605577726
3.91200e-06;-0.010881338940866934
3.91225e-06;-0.010871421825956577
3.91250e-06;-0.01086150471104625
3.91275e-06;-0.010851587596135926
3.91300e-06;-0.010841670481225568
3.91325e-06;-0.010836999261014243
3.91350e-06;-0.010832631358139295
3.91375e-06;-0.010828263455264333
3.91400e-06;-0.010823895552389386
3.91425e-06;-0.010819527649514438
3.91450e-06;-0.010815159746639475
3.91475e-06;-0.010810791843764529
3.91500e-06;-0.010806423940889567
3.91525e-06;-0.010802056038014618
3.91550e-06;-0.010800775048183445
3.91575e-06;-0.010803338725234306
3.91600e-06;-0.010805902402285156
3.91625e-06;-0.010808466079336006
3.91650e-06;-0.010811029756386864
3.91675e-06;-0.010813593433437714
3.91700e-06;-0.010816157110488566
3.91725e-06;-0.010818720787539425
3.91750e-06;-0.010821284464590275
3.91775e-06;-0.010823848141641125
3.91800e-06;-0.010826411818691985
3.91825e-06;-0.010828975495742835
3.91850e-06;-0.010831539172793685
3.91875e-06;-0.010834102849844544
3.91900e-06;-0.010836666526895394
3.91925e-06;-0.010839230203946254
3.91950e-06;-0.010841793880997104
3.91975e-06;-0.01084807633239229
3.92000e-06;-0.010854573803110754
3.92025e-06;-0.010861071273829197
3.92050e-06;-0.010867568744547638
3.92075e-06;-0.010874066215266103
3.92100e-06;-0.010880563685984545
3.92125e-06;-0.010887061156702987
3.92150e-06;-0.010893558627421451
3.92175e-06;-0.010900056098139894
3.92200e-06;-0.010906553568858337
3.92225e-06;-0.0109130510395768
3.92250e-06;-0.010919548510295243
3.92275e-06;-0.010926045981013686
3.92300e-06;-0.01093254345173215
3.92325e-06;-0.010939040922450592
3.92350e-06;-0.010945538393169056
3.92375e-06;-0.010952321793905625
3.92400e-06;-0.010959461312762627
3.92425e-06;-0.010966600831619653
3.92450e-06;-0.010976852558227772
3.92475e-06;-0.010990980455592525
3.92500e-06;-0.011005108352957324
3.92525e-06;-0.011019236250322077
3.92550e-06;-0.01103336414768683
3.92575e-06;-0.01104749204505163
3.92600e-06;-0.011061619942416383
3.92625e-06;-0.0110809919507249
3.92650e-06;-0.011106895357677095
3.92675e-06;-0.011132798764629205
3.92700e-06;-0.011158702171581313
3.92725e-06;-0.01118460557853351
3.92750e-06;-0.011210508985485618
3.92775e-06;-0.011236412392437814
3.92800e-06;-0.011266795337953996
3.92825e-06;-0.011302757427850198
3.92850e-06;-0.011338719517746522
3.92875e-06;-0.011374681607642724
3.92900e-06;-0.011410643697538926
3.92925e-06;-0.011446605787435251
3.92950e-06;-0.011485093462618756
3.92975e-06;-0.01152672668611265
3.93000e-06;-0.011568359909606685
3.93025e-06;-0.01160999313310058
3.93050e-06;-0.011651626356594473
3.93075e-06;-0.011693259580088508
3.93100e-06;-0.011735398252444375
3.93125e-06;-0.011778166447715867
3.93150e-06;-0.011820934642987503
3.93175e-06;-0.01186319248145539
3.93200e-06;-0.011904814684298957
3.93225e-06;-0.01194569011962926
3.93250e-06;-0.011985635476177092
3.93275e-06;-0.012024548505960169
3.93300e-06;-0.012062175800619784
3.93325e-06;-0.01209835850141756
3.93350e-06;-0.012132741999549907
3.93375e-06;-0.012165252253875923
3.93400e-06;-0.012195429433599901
3.93425e-06;-0.012223244994762562
3.93450e-06;-0.01224811922374668
3.93475e-06;-0.012270356021674936
3.93500e-06;-0.012289307970407138
3.93525e-06;-0.012304887333727905
3.93550e-06;-0.012316266232944557
3.93575e-06;-0.012327645132161249
3.93600e-06;-0.0123348576728152
3.93625e-06;-0.012336881126328988
3.93650e-06;-0.012338904579842769
3.93675e-06;-0.01233492520598681
3.93700e-06;-0.012323469472657713
3.93725e-06;-0.012312013739328656
3.93750e-06;-0.012300558005999598
3.93775e-06;-0.0122891022726705
3.93800e-06;-0.012277646539341443
3.93825e-06;-0.012259699949517033
3.93850e-06;-0.012233669173115583
3.93875e-06;-0.012207638396714222
3.93900e-06;-0.012181607620312862
3.93925e-06;-0.012155576843911413
3.93950e-06;-0.012129546067510053
3.93975e-06;-0.01209961947019944
3.94000e-06;-0.012064840733094459
3.94025e-06;-0.012030061995989593
3.94050e-06;-0.01199528325888461
3.94075e-06;-0.011960504521779745
3.94100e-06;-0.01192572578467488
3.94125e-06;-0.011890947047569897
3.94150e-06;-0.011856112776474833
3.94175e-06;-0.011821275294407586
3.94200e-06;-0.011786437812340223
3.94225e-06;-0.011751600330272977
3.94250e-06;-0.01171676284820573
3.94275e-06;-0.011681925366138367
3.94300e-06;-0.011649891823560835
3.94325e-06;-0.011621350511939169
3.94350e-06;-0.011592809200317408
3.94375e-06;-0.01156752745319803
3.94400e-06;-0.011546305405690268
3.94425e-06;-0.011525083358182434
3.94450e-06;-0.011507664205053308
3.94475e-06;-0.011494981454232151
3.94500e-06;-0.011482298703411038
3.94525e-06;-0.011475725372157327
3.94550e-06;-0.011476761158080731
3.94575e-06;-0.011477796944004132
3.94600e-06;-0.011478832729927535
3.94625e-06;-0.011479868515850939
3.94650e-06;-0.01148090430177434
3.94675e-06;-0.011489768531102989
3.94700e-06;-0.011508382875401893
3.94725e-06;-0.011526997219700732
3.94750e-06;-0.011545611563999572
