Time(s);Current(A)
8.50000e-06;-0.000919226557372188
8.50025e-06;-0.0008935182148598114
8.50050e-06;-0.0008632859219366722
8.50075e-06;-0.0008286873195864071
8.50100e-06;-0.0007898914846646636
8.50125e-06;-0.0007471077643311715
8.50150e-06;-0.0007005989859060574
8.50175e-06;-0.0006506578684215134
8.50200e-06;-0.0005975828538639805
8.50225e-06;-0.0005416723147036909
8.50250e-06;-0.000483224646859238
8.50275e-06;-0.00042253851550363986
8.50300e-06;-0.0003599196985763201
8.50325e-06;-0.0002956991853012302
8.50350e-06;-0.0002302414393138376
8.50375e-06;-0.00016392961525982399
8.50400e-06;-9.715042704219821e-05
8.50425e-06;-3.0290533704972015e-05
8.50450e-06;3.6263407433963116e-05
8.50475e-06;0.00010212462139257672
8.50500e-06;0.0001669018863496456
8.50525e-06;0.0002301882357564866
8.50550e-06;0.0002915557390298037
8.50575e-06;0.0003505647958577723
8.50600e-06;0.000406773644851784
8.50625e-06;0.0004597405133146751
8.50650e-06;0.0005090234405381037
8.50675e-06;0.0005541143714473604
8.50700e-06;0.000594322650008757
8.50725e-06;0.0006289204155745388
8.50750e-06;0.0006574840103850061
8.50775e-06;0.0006799086921352349
8.50800e-06;0.0006961837853740943
8.50825e-06;0.0007062986971393191
8.50850e-06;0.0007102427503149218
8.50875e-06;0.000707963754997279
8.50900e-06;0.0006992952781970205
8.50925e-06;0.0006840476090123304
8.50950e-06;0.0006622215487031873
8.50975e-06;0.0006340176954129971
8.51000e-06;0.0005996955736526972
8.51025e-06;0.0005595147200730896
8.51050e-06;0.0005137346235944932
8.51075e-06;0.0004625888048809017
8.51100e-06;0.0004062391468008415
8.51125e-06;0.0003448329355708483
8.51150e-06;0.0002786368524119154
8.51175e-06;0.00020804270076508422
8.51200e-06;0.00013347915105361936
8.51225e-06;5.537487783759771e-05
8.51250e-06;-2.584154594659107e-05
8.51275e-06;-0.00010975780360059269
8.51300e-06;-0.0001960064837794718
8.51325e-06;-0.00028448013529588267
8.51350e-06;-0.00037436508921847477
8.51375e-06;-0.0004648226451062611
8.51400e-06;-0.00055612894279625
8.51425e-06;-0.0006471467704241916
8.51450e-06;-0.000737737012022157
8.51475e-06;-0.0008272047722685248
8.51500e-06;-0.0009150087295538844
8.51525e-06;-0.0010008752410679358
8.51550e-06;-0.0010838699649927406
8.51575e-06;-0.001163992510332186
8.51600e-06;-0.0012398577562220583
8.51625e-06;-0.0013118836834821377
8.51650e-06;-0.0013782187636736307
8.51675e-06;-0.0014400795827368988
8.51700e-06;-0.0014953084083950843
8.51725e-06;-0.001546335761125447
8.51750e-06;-0.00159113546197048
8.51775e-06;-0.0016316389772987917
8.51800e-06;-0.0016657744525878683
8.51825e-06;-0.0016953030128464283
8.51850e-06;-0.0017180029528646305
8.51875e-06;-0.001735993503475037
8.51900e-06;-0.0017470035407445175
8.51925e-06;-0.0017537702008037853
8.51950e-06;-0.0017542470961696508
8.51975e-06;-0.00175071646954022
8.52000e-06;-0.0017412456756560047
8.52025e-06;-0.0017278678878442685
8.52050e-06;-0.0017086989409521806
8.52075e-06;-0.0016858538840506846
8.52100e-06;-0.00165755989678024
8.52125e-06;-0.0016268832278104465
8.52150e-06;-0.0015912621726812868
8.52175e-06;-0.0015522240080912276
8.52200e-06;-0.0015099908787555437
8.52225e-06;-0.0014647849972420942
8.52250e-06;-0.0014168285082670248
8.52275e-06;-0.0013663707320358232
8.52300e-06;-0.0013137556917899413
8.52325e-06;-0.0012594196982538752
8.52350e-06;-0.00120378076105053
8.52375e-06;-0.001147187417567186
8.52400e-06;-0.001089961648302642
8.52425e-06;-0.0010324254128017637
8.52450e-06;-0.0009749009017767262
8.52475e-06;-0.0009177271200737105
8.52500e-06;-0.00086130233469418
8.52525e-06;-0.0008060826178386164
8.52550e-06;-0.0007525126020632343
8.52575e-06;-0.0007009932938454262
8.52600e-06;-0.000652523285840808
8.52625e-06;-0.0006065548042687746
8.52650e-06;-0.000562583318508958
8.52675e-06;-0.0005230166835764005
8.52700e-06;-0.00048691790686015
8.52725e-06;-0.00045397242879741096
8.52750e-06;-0.00042396772371057896
8.52775e-06;-0.0003969518336838307
8.52800e-06;-0.0003730682988086158
8.52825e-06;-0.000352460635727424
8.52850e-06;-0.00033527208010460905
8.52875e-06;-0.00032158759406807926
8.52900e-06;-0.00031129320749553435
8.52925e-06;-0.00030409454346300483
8.52950e-06;-0.0002997612049933711
8.52975e-06;-0.00029822603915108923
8.53000e-06;-0.0002994816883213731
8.53025e-06;-0.00030352077185600917
8.53050e-06;-0.00031033573888982445
8.53075e-06;-0.0003198825192680664
8.53100e-06;-0.00033199245968801425
8.53125e-06;-0.00034638390661814993
8.53150e-06;-0.00036281531163581617
8.53175e-06;-0.00038149746088793774
8.53200e-06;-0.00040179719345661153
8.53225e-06;-0.00042341518150855283
8.53250e-06;-0.00044698715959872403
8.53275e-06;-0.0004718305664463616
8.53300e-06;-0.000498558554210144
8.53325e-06;-0.0005252865419737452
8.53350e-06;-0.0005528028007938503
8.53375e-06;-0.0005814874778843461
8.53400e-06;-0.0006101721549746476
8.53425e-06;-0.0006390249025506587
8.53450e-06;-0.0006681267733494751
8.53475e-06;-0.0006972286441480942
8.53500e-06;-0.0007257441442087608
8.53525e-06;-0.0007533904936413285
8.53550e-06;-0.000781036843073709
8.53575e-06;-0.0008075714940239785
8.53600e-06;-0.0008324583249666838
8.53625e-06;-0.0008560811215655306
8.53650e-06;-0.0008778302976505259
8.53675e-06;-0.0008977814587769044
8.53700e-06;-0.0009150675042535815
8.53725e-06;-0.0009297083389943599
8.53750e-06;-0.0009404282983856773
8.53775e-06;-0.0009483474712382482
8.53800e-06;-0.0009521151658176983
8.53825e-06;-0.0009531434295125989
8.53850e-06;-0.0009501111596249626
8.53875e-06;-0.0009442660501482746
8.53900e-06;-0.0009342515967110613
8.53925e-06;-0.0009211547749673607
8.53950e-06;-0.0009034890991262085
8.53975e-06;-0.0008829048146616152
8.54000e-06;-0.00085799440961624
8.54025e-06;-0.000830464998667235
8.54050e-06;-0.0007990535545974173
8.54075e-06;-0.0007652382773670323
8.54100e-06;-0.0007278599077695675
8.54125e-06;-0.000688170014024369
8.54150e-06;-0.0006450538533559363
8.54175e-06;-0.0006004207436076787
8.54200e-06;-0.0005526774066032291
8.54225e-06;-0.0005029072838509748
8.54250e-06;-0.0004513888165193174
8.54275e-06;-0.00039838125484489503
8.54300e-06;-0.0003440863770033196
8.54325e-06;-0.00028867673603351937
8.54350e-06;-0.00023238713664975547
8.54375e-06;-0.00017552969973848325
8.54400e-06;-0.0001184408044413194
8.54425e-06;-6.145679477646165e-05
8.54450e-06;-4.913913450606677e-06
8.54475e-06;5.086358000866672e-05
8.54500e-06;0.00010558747077185279
8.54525e-06;0.0001589878861469004
8.54550e-06;0.00021075595357289328
8.54575e-06;0.0002605343989184071
8.54600e-06;0.0003079507863271098
8.54625e-06;0.00035263271794416383
8.54650e-06;0.0003942084373259246
8.54675e-06;0.00043246084455058286
8.54700e-06;0.00046768471641170785
8.54725e-06;0.0005005910613714272
8.54750e-06;0.000531634837311003
8.54775e-06;0.0005603439383809058
8.54800e-06;0.0005871957726443764
8.54825e-06;0.0006121132799231328
8.54850e-06;0.0006341636224456944
8.54875e-06;0.000654245952755955
8.54900e-06;0.0006714111882325233
8.54925e-06;0.000687217242961396
8.54950e-06;0.0007010086459960046
8.54975e-06;0.0007131736102603403
8.55000e-06;0.0007229277784404683
8.55025e-06;0.0007326819466205301
8.55050e-06;0.0007403245173042874
8.55075e-06;0.0007448371632293823
8.55100e-06;0.0007493498091544466
8.55125e-06;0.0007523824311682141
8.55150e-06;0.0007532212811721936
8.55175e-06;0.0007540601311761674
8.55200e-06;0.000753635490083831
8.55225e-06;0.0007513380337075661
8.55250e-06;0.0007490405773313167
8.55275e-06;0.0007453504230349483
8.55300e-06;0.0007395959360668283
8.55325e-06;0.0007338414490987474
8.55350e-06;0.0007280869621306275
8.55375e-06;0.0007223324751625075
8.55400e-06;0.0007165779881944266
8.55425e-06;0.0007101506330465914
8.55450e-06;0.0007027259160536667
8.55475e-06;0.0006953011990607924
8.55500e-06;0.0006878764820678679
8.55525e-06;0.0006804517650749432
8.55550e-06;0.0006730270480820186
8.55575e-06;0.0006659457414094935
8.55600e-06;0.000659373456208093
8.55625e-06;0.0006528011710066925
8.55650e-06;0.000646642160045269
8.55675e-06;0.0006410957266598075
8.55700e-06;0.0006355492932743459
8.55725e-06;0.0006294993597344959
8.55750e-06;0.0006227031108564541
8.55775e-06;0.0006159068619784122
8.55800e-06;0.0006084885443852233
8.55825e-06;0.0006001481626784689
8.55850e-06;0.0005918077809717146
8.55875e-06;0.0005828561642254378
8.55900e-06;0.000572998541629313
8.55925e-06;0.0005631409190331883
8.55950e-06;0.0005522963845455737
8.55975e-06;0.0005399889955271375
8.56000e-06;0.0005276816065087012
8.56025e-06;0.0005146447070089491
8.56050e-06;0.0005005264873607717
8.56075e-06;0.00048640826771259425
8.56100e-06;0.00047158261139257953
8.56125e-06;0.00045570835392613415
8.56150e-06;0.0004398340964596888
8.56175e-06;0.00042324087949065697
8.56200e-06;0.00040558198160812255
8.56225e-06;0.0003879230837255882
8.56250e-06;0.00037026418584317346
8.56275e-06;0.00035260528796063903
8.56300e-06;0.00033414380123636704
8.56325e-06;0.00031559596242400573
8.56350e-06;0.00029704812361151876
8.56375e-06;0.0002785002847990318
8.56400e-06;0.00026004319039584894
8.56425e-06;0.00024172060229618548
8.56450e-06;0.00022339801419639786
8.56475e-06;0.00020545494866890386
8.56500e-06;0.00018807443215856484
8.56525e-06;0.00017109859270978735
8.56550e-06;0.0001547225876315871
8.56575e-06;0.0001387460772725122
8.56600e-06;0.00012369134076231503
8.56625e-06;0.00010950226639943955
8.56650e-06;9.629610228773784e-05
8.56675e-06;8.404088836076924e-05
8.56700e-06;7.226370322431692e-05
8.56725e-06;6.016042914223693e-05
8.56750e-06;4.7202814973145026e-05
8.56775e-06;3.3382953403538836e-05
8.56800e-06;1.8846425732821957e-05
8.56825e-06;3.738792897819919e-06
8.56850e-06;-1.1794752075259927e-05
8.56875e-06;-2.7698253208709735e-05
8.56900e-06;-4.420260199676499e-05
8.56925e-06;-6.174582672567857e-05
8.56950e-06;-8.057242364963431e-05
8.56975e-06;-0.0001006217752656595
8.57000e-06;-0.00012173085798493694
8.57025e-06;-0.00014373667297768323
8.57050e-06;-0.0001664764674264054
8.57075e-06;-0.00019001049226801206
8.57100e-06;-0.0002141579549497156
8.57125e-06;-0.00023906983662307936
8.57150e-06;-0.0002651147817392342
8.57175e-06;-0.00029187701427710566
8.57200e-06;-0.0003197024492797505
8.57225e-06;-0.0003475278842823954
8.57250e-06;-0.000375818380995486
8.57275e-06;-0.0004047982174927455
8.57300e-06;-0.0004337780539902013
8.57325e-06;-0.0004627578904876572
8.57350e-06;-0.0004917377269849166
8.57375e-06;-0.000520544027696849
8.57400e-06;-0.0005490931042204808
8.57425e-06;-0.0005776421807439192
8.57450e-06;-0.000606191257267551
8.57475e-06;-0.0006347403337911828
8.57500e-06;-0.0006622350482405063
8.57525e-06;-0.000688166929825975
8.57550e-06;-0.0007140988114114439
8.57575e-06;-0.0007386958606620828
8.57600e-06;-0.000761314348760267
8.57625e-06;-0.0007839328368584512
8.57650e-06;-0.0008047413507469111
8.57675e-06;-0.0008228670223298284
8.57700e-06;-0.0008409926939127458
8.57725e-06;-0.0008581093407123957
8.57750e-06;-0.0008737303560487602
8.57775e-06;-0.0008893513713851247
8.57800e-06;-0.0009031367691652529
8.57825e-06;-0.0009142013146753828
8.57850e-06;-0.0009252658601855125
8.57875e-06;-0.0009363304056955674
8.57900e-06;-0.0009473949512056972
8.57925e-06;-0.0009584594967158269
8.57950e-06;-0.0009695240422258818
8.57975e-06;-0.0009805885877360115
8.58000e-06;-0.0009916531332461414
8.58025e-06;-0.001000896211679277
8.58050e-06;-0.0010074394124527746
8.58075e-06;-0.001013982613226272
8.58100e-06;-0.0010205258139997693
8.58125e-06;-0.0010270690147732224
8.58150e-06;-0.00103361221554672
8.58175e-06;-0.0010401554163202173
8.58200e-06;-0.0010466986170936704
8.58225e-06;-0.0010532418178671678
8.58250e-06;-0.0010587535307862413
8.58275e-06;-0.0010627363162545147
8.58300e-06;-0.0010667191017228147
8.58325e-06;-0.001070701887191115
8.58350e-06;-0.001074684672659388
8.58375e-06;-0.0010786674581276883
8.58400e-06;-0.0010826502435959885
8.58425e-06;-0.0010866330290642617
8.58450e-06;-0.001089332531925201
8.58475e-06;-0.001091893963924209
8.58500e-06;-0.0010944553959231994
8.58525e-06;-0.0010970168279222073
8.58550e-06;-0.0010995782599212151
8.58575e-06;-0.0011021396919202056
8.58600e-06;-0.0011047011239192135
8.58625e-06;-0.0011069901882465624
8.58650e-06;-0.0011088755343835431
8.58675e-06;-0.0011100913968878443
8.58700e-06;-0.0011103149143057527
8.58725e-06;-0.0011083540860189684
8.58750e-06;-0.0011031555016151082
8.58775e-06;-0.001095567505504138
8.58800e-06;-0.0010844377932838945
8.58825e-06;-0.001071175207042715
8.58850e-06;-0.0010547511588163882
8.58875e-06;-0.0010361267957662644
8.58900e-06;-0.0010142410063011052
8.58925e-06;-0.000989481783704634
8.58950e-06;-0.0009604634020941211
8.58975e-06;-0.0009287190378983305
8.59000e-06;-0.0008929340739142881
8.59025e-06;-0.0008548596986768693
8.59050e-06;-0.0008133918334466347
8.59075e-06;-0.0007698681024002437
8.59100e-06;-0.0007232970551221226
8.59125e-06;-0.0006745243563982057
8.59150e-06;-0.00062248825004458
8.59175e-06;-0.0005690083922710871
8.59200e-06;-0.0005126091243160629
8.59225e-06;-0.00045441253476093547
8.59250e-06;-0.00039475935220949676
8.59275e-06;-0.00033394550305935615
8.59300e-06;-0.0002721256398676541
8.59325e-06;-0.0002093603656480482
8.59350e-06;-0.00014582077509766336
8.59375e-06;-8.183864316029717e-05
8.59400e-06;-1.7798575936981152e-05
8.59425e-06;4.59148857468087e-05
8.59450e-06;0.00010891734448710381
8.59475e-06;0.00017085246379616183
8.59500e-06;0.00023145242192660676
8.59525e-06;0.000290508336525737
8.59550e-06;0.0003477421032921383
8.59575e-06;0.0004027750136105017
8.59600e-06;0.00045519531779690303
8.59625e-06;0.0005045912904480571
8.59650e-06;0.0005505516969360623
8.59675e-06;0.000592773762120346
8.59700e-06;0.0006313230749922221
8.59725e-06;0.0006665925871008837
8.59750e-06;0.0006988442492554736
8.59775e-06;0.0007280291160014204
8.59800e-06;0.0007539855802547636
8.59825e-06;0.0007765521505144761
8.59850e-06;0.0007955675819159968
8.59875e-06;0.0008102720522994151
8.59900e-06;0.0008218147478737993
8.59925e-06;0.0008309312394538333
8.59950e-06;0.0008364514793919025
8.59975e-06;0.0008396825191226407
8.60000e-06;0.0008395203816831657
8.60025e-06;0.0008370613408709192
8.60050e-06;0.0008311977048373296
8.60075e-06;0.0008231555620285043
8.60100e-06;0.0008118843178806736
8.60125e-06;0.0007988663780383657
8.60150e-06;0.0007832593907482813
8.60175e-06;0.0007658015880119938
8.60200e-06;0.0007456004058640219
8.60225e-06;0.0007253992237159129
8.60250e-06;0.0007033303971868876
8.60275e-06;0.0006784932464829404
8.60300e-06;0.0006536560957788247
8.60325e-06;0.0006277407833074032
8.60350e-06;0.0006002273607699946
8.60375e-06;0.0005727139382323995
8.60400e-06;0.0005447956637391171
8.60425e-06;0.0005162772956373211
8.60450e-06;0.00048775892753533193
8.60475e-06;0.0004593679156994886
8.60500e-06;0.0004311656782547499
8.60525e-06;0.0004035382294413053
8.60550e-06;0.0003767627636287712
8.60575e-06;0.0003509086350945742
8.60600e-06;0.00032642016283124546
8.60625e-06;0.00030281699766739224
8.60650e-06;0.0002812197546887352
8.60675e-06;0.00026138297953201
8.60700e-06;0.00024332448892234304
8.60725e-06;0.00022693345605960378
8.60750e-06;0.0002121321206913466
8.60775e-06;0.00019894674993276517
8.60800e-06;0.00018744271988476905
8.60825e-06;0.00017768541795685436
8.60850e-06;0.00016974010300212428
8.60875e-06;0.0001636474721721829
8.60900e-06;0.00015936320598251402
8.60925e-06;0.0001567624139844036
8.60950e-06;0.00015574087859547068
8.60975e-06;0.00015625959575237442
8.61000e-06;0.00015830405133326076
8.61025e-06;0.00016185972252673813
8.61050e-06;0.00016691201031043706
8.61075e-06;0.00017343093120197612
8.61100e-06;0.00018133325213493535
8.61125e-06;0.00019048526887550815
8.61150e-06;0.0002009698154034571
8.61175e-06;0.0002123980456127332
8.61200e-06;0.00022458848469618115
8.61225e-06;0.0002379087112677038
8.61250e-06;0.00025188228234347183
8.61275e-06;0.000266824276211349
8.61300e-06;0.00028231732193993405
8.61325e-06;0.00029862716673554853
8.61350e-06;0.0003149370115310525
8.61375e-06;0.00033153999479630886
8.61400e-06;0.00034857748385972576
8.61425e-06;0.00036561497292302724
8.61450e-06;0.0003826345621905514
8.61475e-06;0.0003996276194061377
8.61500e-06;0.0004163795335417284
8.61525e-06;0.00043277401227619994
8.61550e-06;0.0004488499176346728
8.61575e-06;0.0004641779202526477
8.61600e-06;0.00047877509846388496
8.61625e-06;0.0004925260729598944
8.61650e-06;0.0005053148842644716
8.61675e-06;0.0005168652468346196
8.61700e-06;0.0005264002853654395
8.61725e-06;0.0005328289226687228
8.61750e-06;0.0005354881158499471
8.61775e-06;0.0005343095693209055
8.61800e-06;0.0005294181385142342
8.61825e-06;0.0005209386085141089
8.61850e-06;0.0005089954021854534
8.61875e-06;0.0004936125596000883
8.61900e-06;0.000474500505289555
8.61925e-06;0.0004511729847225491
8.61950e-06;0.0004234118608917491
8.61975e-06;0.0003913715267870179
8.62000e-06;0.00035532735719737927
8.62025e-06;0.00031555473822113706
8.62050e-06;0.0002723287515291345
8.62075e-06;0.00022586156852996914
8.62100e-06;0.00017616899862684342
8.62125e-06;0.00012314356199546355
8.62150e-06;6.684579980748966e-05
8.62175e-06;7.569582054673524e-06
8.62200e-06;-5.431545387511856e-05
8.62225e-06;-0.00011843970535344028
8.62250e-06;-0.00018443376163945502
8.62275e-06;-0.00025222282199942645
8.62300e-06;-0.00032121265901773375
8.62325e-06;-0.00039115289605572465
8.62350e-06;-0.000462501867742982
8.62375e-06;-0.0005338508394297557
8.62400e-06;-0.0006050822899680123
8.62425e-06;-0.000676139544261325
8.62450e-06;-0.0007471967985541561
8.62475e-06;-0.0008170753200220891
8.62500e-06;-0.0008852066595255413
8.62525e-06;-0.0009517966741805807
8.62550e-06;-0.0010161020532360211
8.62575e-06;-0.0010786889005327178
8.62600e-06;-0.001115680533874963
8.62625e-06;-0.001181430009668492
8.62650e-06;-0.05483026457143577
8.62675e-06;-0.031872677343387924
8.62700e-06;-0.018428014596782734
8.62725e-06;-0.0028953319866896355
8.62750e-06;0.013734118204747346
8.62775e-06;0.017196420122405062
8.62800e-06;0.010925645518448674
8.62825e-06;-0.0008889289227535166
8.62850e-06;-0.015029223685968396
8.62875e-06;-0.017444406470151993
8.62900e-06;-0.01078911566125319
8.62925e-06;-0.0011441322285715393
8.62950e-06;0.008964301556262823
8.62975e-06;0.010930004736009373
8.63000e-06;0.006878222930675119
8.63025e-06;-0.0006009698932709561
8.63050e-06;-0.009510907426613709
8.63075e-06;-0.011061295413367174
8.63100e-06;-0.006921688696186396
8.63125e-06;-0.0009048477387069171
8.63150e-06;0.005404765464917557
8.63175e-06;0.0066153841747821985
8.63200e-06;0.004058047389783234
8.63225e-06;-0.0006449066754173
8.63250e-06;-0.006242833657176457
8.63275e-06;-0.0072297939766006805
8.63300e-06;-0.004652041435284096
8.63325e-06;-0.0008981477180733523
8.63350e-06;0.0030392894040556853
8.63375e-06;0.0037829892767563523
8.63400e-06;0.0021669493128804902
8.63425e-06;-0.0007924456253516729
8.63450e-06;-0.004311718936910451
8.63475e-06;-0.004942075685713331
8.63500e-06;-0.003339132726826716
8.63525e-06;-0.0009992330809915958
8.63550e-06;0.0014558124976713363
8.63575e-06;0.0019105571756636397
8.63600e-06;0.0008875660736244204
8.63625e-06;-0.0009764009843427803
8.63650e-06;-0.003190528524849826
8.63675e-06;-0.003594523158247533
8.63700e-06;-0.0025989444918580896
8.63725e-06;-0.0011407548734605742
8.63750e-06;0.0003907501252183509
8.63775e-06;0.0006705003618839518
8.63800e-06;2.5864272079792515e-05
8.63825e-06;-0.001144294126890343
8.63850e-06;-0.0025325626361929845
8.63875e-06;-0.002785845496759665
8.63900e-06;-0.002161476023234125
8.63925e-06;-0.0012464860851161203
8.63950e-06;-0.00028481246898802947
8.63975e-06;-0.00010651007122724162
8.64000e-06;-0.0005065196715597616
8.64025e-06;-0.0012350181946039654
8.64050e-06;-0.0020994875757119964
8.64075e-06;-0.002252442606871963
8.64100e-06;-0.0018551996101410942
8.64125e-06;-0.001275573405055581
8.64150e-06;-0.0006664403320263937
8.64175e-06;-0.0005477896666974182
8.64200e-06;-0.0007911985651027412
8.64225e-06;-0.0012402168824668773
8.64250e-06;-0.00177430264950105
8.64275e-06;-0.0018626732577262507
8.64300e-06;-0.0016064771927344554
8.64325e-06;-0.0012361983579465522
8.64350e-06;-0.0008476683340030821
8.64375e-06;-0.0007666582183884556
8.64400e-06;-0.0009127633580897936
8.64425e-06;-0.0011880308035143695
