Time(s);Current(A)
3.00000e-06;-0.005435783478723527
3.00025e-06;-0.005452547018974446
3.00050e-06;-0.005468782612911116
3.00075e-06;-0.0054838029833944885
3.00100e-06;-0.005498823353877887
3.00125e-06;-0.005514621543907873
3.00150e-06;-0.005532210114000958
3.00175e-06;-0.005549798684094073
3.00200e-06;-0.005567387254187189
3.00225e-06;-0.005584975824280304
3.00250e-06;-0.005602564394373389
3.00275e-06;-0.0056215467918961076
3.00300e-06;-0.005643737492491685
3.00325e-06;-0.005665928193087225
3.00350e-06;-0.005688118893682803
3.00375e-06;-0.00571030959427838
3.00400e-06;-0.0057325002948739575
3.00425e-06;-0.005756327587405355
3.00450e-06;-0.00578392197679928
3.00475e-06;-0.005811516366193206
3.00500e-06;-0.005839110755587086
3.00525e-06;-0.005866705144981011
3.00550e-06;-0.005894299534374937
3.00575e-06;-0.005921893923768816
3.00600e-06;-0.005949488313162742
3.00625e-06;-0.005977830106023531
3.00650e-06;-0.006007892267409544
3.00675e-06;-0.006037954428795506
3.00700e-06;-0.006068016590181519
3.00725e-06;-0.006098078751567532
3.00750e-06;-0.006128140912953495
3.00775e-06;-0.006158203074339508
3.00800e-06;-0.006188265235725521
3.00825e-06;-0.006217629425650553
3.00850e-06;-0.006245387029325632
3.00875e-06;-0.006273144633000759
3.00900e-06;-0.006299224933264004
3.00925e-06;-0.0063214444272491396
3.00950e-06;-0.006343663921234313
3.00975e-06;-0.0063658834152194865
3.01000e-06;-0.006388102909204622
3.01025e-06;-0.0064103224031897945
3.01050e-06;-0.006432541897174968
3.01075e-06;-0.006446262726744578
3.01100e-06;-0.006457896808346656
3.01125e-06;-0.006469530889948755
3.01150e-06;-0.006481164971550852
3.01175e-06;-0.0064927990531529305
3.01200e-06;-0.006504433134755029
3.01225e-06;-0.006511955517111387
3.01250e-06;-0.006510013616411056
3.01275e-06;-0.006508071715710728
3.01300e-06;-0.006506129815010397
3.01325e-06;-0.006504187914310066
3.01350e-06;-0.006502246013609738
3.01375e-06;-0.006500304112909408
3.01400e-06;-0.006498362212209076
3.01425e-06;-0.006496420311508749
3.01450e-06;-0.006494478410808417
3.01475e-06;-0.006489010618916011
3.01500e-06;-0.0064754269532023385
3.01525e-06;-0.006461843287488689
3.01550e-06;-0.006448259621775017
3.01575e-06;-0.006434675956061345
3.01600e-06;-0.006421092290347695
3.01625e-06;-0.006407508624634023
3.01650e-06;-0.00639392495892035
3.01675e-06;-0.006380341293206678
3.01700e-06;-0.006366757627493028
3.01725e-06;-0.006352116991257213
3.01750e-06;-0.006335043427025818
3.01775e-06;-0.006317969862794451
3.01800e-06;-0.006300896298563056
3.01825e-06;-0.006283822734331659
3.01850e-06;-0.006267097803248696
3.01875e-06;-0.006251175353719525
3.01900e-06;-0.006235252904190354
3.01925e-06;-0.006219330454661183
3.01950e-06;-0.006203408005132039
3.01975e-06;-0.006188225018921517
3.02000e-06;-0.0061747441246539575
3.02025e-06;-0.006161501364314849
3.02050e-06;-0.006148806739130909
3.02075e-06;-0.0061345268344548225
3.02100e-06;-0.0061165979435709
3.02125e-06;-0.006096032820073377
3.02150e-06;-0.0060693996331866685
3.02175e-06;-0.00604276644629996
3.02200e-06;-0.0060135147969358855
3.02225e-06;-0.005978235987368593
3.02250e-06;-0.005942957177801301
3.02275e-06;-0.005904002535641558
3.02300e-06;-0.0058565868855023065
3.02325e-06;-0.005809171235363054
3.02350e-06;-0.0057574497119820475
3.02375e-06;-0.005695816957080095
3.02400e-06;-0.005634184202178039
3.02425e-06;-0.005572551447275982
3.02450e-06;-0.00551091869237403
3.02475e-06;-0.005437778835248542
3.02500e-06;-0.00536181354332461
3.02525e-06;-0.005285848251400677
3.02550e-06;-0.005209882959476874
3.02575e-06;-0.0051314826261022765
3.02600e-06;-0.00504747732987196
3.02625e-06;-0.0049627175785336595
3.02650e-06;-0.004876221227246891
3.02675e-06;-0.004789217792430582
3.02700e-06;-0.004700777078121712
3.02725e-06;-0.0046116010278526584
3.02750e-06;-0.004522212124402758
3.02775e-06;-0.004433146104410853
3.02800e-06;-0.00434493778653777
3.02825e-06;-0.00425810880413935
3.02850e-06;-0.0041730869066649015
3.02875e-06;-0.004090130186644821
3.02900e-06;-0.0040094836900642205
3.02925e-06;-0.003931582754447868
3.02950e-06;-0.0038569832291381976
3.02975e-06;-0.0037862496579297703
3.03000e-06;-0.0037199463517861523
3.03025e-06;-0.0036586287858381772
3.03050e-06;-0.0036027807820352364
3.03075e-06;-0.0035526971631971373
3.03100e-06;-0.0035084944386249532
3.03125e-06;-0.003470260393756644
3.03150e-06;-0.0034381091781868923
3.03175e-06;-0.0034121584844700316
3.03200e-06;-0.003392525546171236
3.03225e-06;-0.00337932255556454
3.03250e-06;-0.0033735762993609836
3.03275e-06;-0.0033745655967658697
3.03300e-06;-0.003380174659474256
3.03325e-06;-0.0033964174684470703
3.03350e-06;-0.0034126602774198845
3.03375e-06;-0.0034340459424516355
3.03400e-06;-0.00346726940070691
3.03425e-06;-0.0035004928589622408
3.03450e-06;-0.0035376065197069554
3.03475e-06;-0.003583674623690876
3.03500e-06;-0.003632409940499329
3.03525e-06;-0.0036872846307488914
3.03550e-06;-0.0037444142596112394
3.03575e-06;-0.0038067342917682432
3.03600e-06;-0.0038704898618131898
3.03625e-06;-0.003938368298326352
3.03650e-06;-0.004008832375704506
3.03675e-06;-0.004081478389074533
3.03700e-06;-0.004155858797905987
3.03725e-06;-0.0042315190024383165
3.03750e-06;-0.004308010993950583
3.03775e-06;-0.004384887596574015
3.03800e-06;-0.004461701591877164
3.03825e-06;-0.004538004718291451
3.03850e-06;-0.004613337061901672
3.03875e-06;-0.004687210417797722
3.03900e-06;-0.004759109314808421
3.03925e-06;-0.004828002532999828
3.03950e-06;-0.004893730623703315
3.03975e-06;-0.004956411371102598
3.04000e-06;-0.005012077763150799
3.04025e-06;-0.0050677441551989985
3.04050e-06;-0.005120500452389255
3.04075e-06;-0.005166558311824854
3.04100e-06;-0.005211083167936441
3.04125e-06;-0.0052520793667892975
3.04150e-06;-0.005293075565642085
3.04175e-06;-0.0053312886344395434
3.04200e-06;-0.005363095512253777
3.04225e-06;-0.00539490239006801
3.04250e-06;-0.005426709267882189
3.04275e-06;-0.005456093554310542
3.04300e-06;-0.005479901535362047
3.04325e-06;-0.005503709516413511
3.04350e-06;-0.005527517497465015
3.04375e-06;-0.005548513848077362
3.04400e-06;-0.005563038405705075
3.04425e-06;-0.005577562963332812
3.04450e-06;-0.00559208752096055
3.04475e-06;-0.005606612078588287
3.04500e-06;-0.0056211366362160006
3.04525e-06;-0.005635661193843738
3.04550e-06;-0.005650185751471476
3.04575e-06;-0.005662216125924556
3.04600e-06;-0.005668505405478595
3.04625e-06;-0.005674794685032634
3.04650e-06;-0.0056810839645866735
3.04675e-06;-0.0056873732441407015
3.04700e-06;-0.005693662523694741
3.04725e-06;-0.00569995180324878
3.04750e-06;-0.005706241082802809
3.04775e-06;-0.00571114973592074
3.04800e-06;-0.005712880471927129
3.04825e-06;-0.005714611207933516
3.04850e-06;-0.005716341943939907
3.04875e-06;-0.005718072679946297
3.04900e-06;-0.005719803415952687
3.04925e-06;-0.005721534151959074
3.04950e-06;-0.005723264887965464
3.04975e-06;-0.0057249956239718534
3.05000e-06;-0.0057267263599782405
3.05025e-06;-0.005728457095984631
3.05050e-06;-0.005730262784527987
3.05075e-06;-0.0057322409983421585
3.05100e-06;-0.005734219212156328
3.05125e-06;-0.0057361974259704995
3.05150e-06;-0.005738175639784671
3.05175e-06;-0.00574015385359884
3.05200e-06;-0.005742132067413011
3.05225e-06;-0.005744110281227183
3.05250e-06;-0.005746088495041352
3.05275e-06;-0.005748066708855524
3.05300e-06;-0.005750044922669696
3.05325e-06;-0.005753009234065247
3.05350e-06;-0.0057582433385747755
3.05375e-06;-0.005763477443084312
3.05400e-06;-0.005768711547593849
3.05425e-06;-0.005773945652103377
3.05450e-06;-0.005779179756612914
3.05475e-06;-0.0057844138611224515
3.05500e-06;-0.005789647965631989
3.05525e-06;-0.005794882070141517
3.05550e-06;-0.005800116174651053
3.05575e-06;-0.00580535027916059
3.05600e-06;-0.005810584383670119
3.05625e-06;-0.005815818488179656
3.05650e-06;-0.005821326196373559
3.05675e-06;-0.005827463683780462
3.05700e-06;-0.005833601171187376
3.05725e-06;-0.00583973865859429
3.05750e-06;-0.005845876146001204
3.05775e-06;-0.005852013633408108
3.05800e-06;-0.005858151120815022
3.05825e-06;-0.005864288608221936
3.05850e-06;-0.00587042609562884
3.05875e-06;-0.005876563583035754
3.05900e-06;-0.005882701070442668
3.05925e-06;-0.005888838557849582
3.05950e-06;-0.005894976045256486
3.05975e-06;-0.005900608824994661
3.06000e-06;-0.005905079871844751
3.06025e-06;-0.0059090580794809175
3.06050e-06;-0.005911901872962508
3.06075e-06;-0.005912662564578511
3.06100e-06;-0.0059086283856261395
3.06125e-06;-0.005904594206673761
3.06150e-06;-0.00589777025737069
3.06175e-06;-0.005884524832494071
3.06200e-06;-0.005871279407617476
3.06225e-06;-0.005853929897559392
3.06250e-06;-0.005827133630445486
3.06275e-06;-0.005800337363331625
3.06300e-06;-0.005773541096217719
3.06325e-06;-0.005746744829103812
3.06350e-06;-0.005719948561989906
3.06375e-06;-0.005678843112375847
3.06400e-06;-0.005634224209817224
3.06425e-06;-0.005589605307258601
3.06450e-06;-0.005544986404700053
3.06475e-06;-0.005500367502141429
3.06500e-06;-0.005452236275322281
3.06525e-06;-0.005396020402955153
3.06550e-06;-0.00533980453058793
3.06575e-06;-0.00528191760726468
3.06600e-06;-0.005220184269524577
3.06625e-06;-0.0051584509317845785
3.06650e-06;-0.005095853039309578
3.06675e-06;-0.005031265120268064
3.06700e-06;-0.004966226319278786
3.06725e-06;-0.004900149681101749
3.06750e-06;-0.004834066837480325
3.06775e-06;-0.0047679697102066465
3.06800e-06;-0.004702164027270043
3.06825e-06;-0.004637373591210082
3.06850e-06;-0.004573798573232703
3.06875e-06;-0.004511680914511708
3.06900e-06;-0.004451259691864647
3.06925e-06;-0.0043933008309113425
3.06950e-06;-0.004337929745729604
3.06975e-06;-0.0042850420840926445
3.07000e-06;-0.004237870750908799
3.07025e-06;-0.0041906994177249544
3.07050e-06;-0.004145631612661101
3.07075e-06;-0.004105405695187666
3.07100e-06;-0.004065651932113495
3.07125e-06;-0.0040269849710198174
3.07150e-06;-0.003988318009926073
3.07175e-06;-0.003950926061981023
3.07200e-06;-0.003916468931157739
3.07225e-06;-0.003882011800334513
3.07250e-06;-0.0038475546695112286
3.07275e-06;-0.0038137216970928504
3.07300e-06;-0.003781325408504262
3.07325e-06;-0.003748929119915619
3.07350e-06;-0.003716532831326976
3.07375e-06;-0.003684553775535838
3.07400e-06;-0.0036535351035328458
3.07425e-06;-0.0036225164315298536
3.07450e-06;-0.0035914977595268615
3.07475e-06;-0.0035604790875239218
3.07500e-06;-0.0035294604155209296
3.07525e-06;-0.0034991938208705047
3.07550e-06;-0.0034691118900462585
3.07575e-06;-0.003439029959221962
3.07600e-06;-0.003408948028397665
3.07625e-06;-0.0033788660975734193
3.07650e-06;-0.003349230834807044
3.07675e-06;-0.003320623709723439
3.07700e-06;-0.0032920165846398335
3.07725e-06;-0.0032635908747827096
3.07750e-06;-0.003235582745335011
3.07775e-06;-0.0032079483881370056
3.07800e-06;-0.0031811743775160394
3.07825e-06;-0.0031549378782568375
3.07850e-06;-0.003129938619217078
3.07875e-06;-0.003105411784889478
3.07900e-06;-0.003081972374746917
3.07925e-06;-0.003058919429808433
3.07950e-06;-0.00303707802595236
3.07975e-06;-0.003016348806239031
3.08000e-06;-0.00299689382079636
3.08025e-06;-0.00297892596208649
3.08050e-06;-0.0029629804949275742
3.08075e-06;-0.002950159412071524
3.08100e-06;-0.002941545003468205
3.08125e-06;-0.002937487457055978
3.08150e-06;-0.0029378907265099757
3.08175e-06;-0.0029426291963618478
3.08200e-06;-0.00295157686267058
3.08225e-06;-0.002965322427259593
3.08250e-06;-0.002983497303718551
3.08275e-06;-0.0030046897538016544
3.08300e-06;-0.0030328280355791555
3.08325e-06;-0.0030646212300785712
3.08350e-06;-0.0031048272793370814
3.08375e-06;-0.0031450333285955915
3.08400e-06;-0.0031883675447199676
3.08425e-06;-0.0032389021553565
3.08450e-06;-0.003291758166325004
3.08475e-06;-0.003349957561750523
3.08500e-06;-0.0034104165146134724
3.08525e-06;-0.003476076502353691
3.08550e-06;-0.003543149110147068
3.08575e-06;-0.003614245926098725
3.08600e-06;-0.0036877669378687426
3.08625e-06;-0.003763305672736439
3.08650e-06;-0.0038405350609475464
3.08675e-06;-0.003919267125008571
3.08700e-06;-0.0039993091127662255
3.08725e-06;-0.004080288315609458
3.08750e-06;-0.00416172264894693
3.08775e-06;-0.004243122519170325
3.08800e-06;-0.004323998699862178
3.08825e-06;-0.004403869213186418
3.08850e-06;-0.004482302133920051
3.08875e-06;-0.004558953288220066
3.08900e-06;-0.004633474945811405
3.08925e-06;-0.004705406343355825
3.08950e-06;-0.004773609370115933
3.08975e-06;-0.004837976100045977
3.09000e-06;-0.00489962124899751
3.09025e-06;-0.004955001880235732
3.09050e-06;-0.005008068656398316
3.09075e-06;-0.005055809415726243
3.09100e-06;-0.005101949522984595
3.09125e-06;-0.005144405259532303
3.09150e-06;-0.005186860996080012
3.09175e-06;-0.005226418296484263
3.09200e-06;-0.005259303995085867
3.09225e-06;-0.00529218969368747
3.09250e-06;-0.005325075392289018
3.09275e-06;-0.005355430080519703
3.09300e-06;-0.00537995890524396
3.09325e-06;-0.005404487729968176
3.09350e-06;-0.005429016554692433
3.09375e-06;-0.005451205524939453
3.09400e-06;-0.00546800863309518
3.09425e-06;-0.005484811741250879
3.09450e-06;-0.005501614849406607
3.09475e-06;-0.0055184179575623335
3.09500e-06;-0.0055333113966212644
3.09525e-06;-0.005543809171550072
3.09550e-06;-0.005554306946478881
3.09575e-06;-0.005564804721407689
3.09600e-06;-0.00557530249633648
3.09625e-06;-0.005584074414953003
3.09650e-06;-0.005588873768532684
3.09675e-06;-0.005593673122112356
3.09700e-06;-0.005598472475692037
3.09725e-06;-0.005603271829271718
3.09750e-06;-0.00560807118285139
3.09775e-06;-0.005612870536431071
3.09800e-06;-0.005617669890010751
3.09825e-06;-0.005619785651598362
3.09850e-06;-0.005621242488457744
3.09875e-06;-0.005622699325317129
3.09900e-06;-0.005624156162176514
3.09925e-06;-0.005625612999035897
3.09950e-06;-0.005627069835895282
3.09975e-06;-0.005628526672754666
3.10000e-06;-0.005629175468179577
3.10025e-06;-0.005627964318991391
3.10050e-06;-0.005626753169803202
3.10075e-06;-0.005625542020615013
3.10100e-06;-0.005624330871426826
3.10125e-06;-0.005623119722238637
3.10150e-06;-0.005621908573050448
3.10175e-06;-0.005615077450654574
3.10200e-06;-0.005606866409355374
3.10225e-06;-0.005598655368056174
3.10250e-06;-0.005590444326756975
3.10275e-06;-0.005582233285457789
3.10300e-06;-0.00557402224415859
3.10325e-06;-0.005563070240716145
3.10350e-06;-0.005545809108118249
3.10375e-06;-0.005528547975520324
3.10400e-06;-0.005511286842922399
3.10425e-06;-0.005494025710324474
3.10450e-06;-0.005476764577726579
3.10475e-06;-0.005459503445128654
3.10500e-06;-0.005442242312530729
3.10525e-06;-0.005424981179932833
3.10550e-06;-0.005402370852781366
3.10575e-06;-0.005378447093268326
3.10600e-06;-0.005354523333755328
3.10625e-06;-0.005330599574242288
3.10650e-06;-0.00530667581472925
3.10675e-06;-0.00528275205521621
3.10700e-06;-0.005258828295703211
3.10725e-06;-0.005234904536190172
3.10750e-06;-0.0052107428377059645
3.10775e-06;-0.0051860334528175955
3.10800e-06;-0.005161324067929185
3.10825e-06;-0.005136614683040774
3.10850e-06;-0.005111905298152364
3.10875e-06;-0.005088151495286293
3.10900e-06;-0.005066597245016164
3.10925e-06;-0.005045042994746036
3.10950e-06;-0.005023488744475944
3.10975e-06;-0.0050019344942058164
3.11000e-06;-0.004981644800675265
3.11025e-06;-0.0049642658557716825
3.11050e-06;-0.004948364088697549
3.11075e-06;-0.004935862480117187
3.11100e-06;-0.004926134423111656
3.11125e-06;-0.004922790509407503
3.11150e-06;-0.004919446595703344
3.11175e-06;-0.004919336846786839
3.11200e-06;-0.00492667147772322
3.11225e-06;-0.004934006108659612
3.11250e-06;-0.004945735369494776
3.11275e-06;-0.004967580161364094
3.11300e-06;-0.004989424953233375
3.11325e-06;-0.005011269745102694
3.11350e-06;-0.005033114536972012
3.11375e-06;-0.005068281995156667
3.11400e-06;-0.005106720678739351
3.11425e-06;-0.005145159362322035
3.11450e-06;-0.0051835980459046535
3.11475e-06;-0.005225179160256177
3.11500e-06;-0.005273993501682073
3.11525e-06;-0.005324485992715845
3.11550e-06;-0.005378841237799323
3.11575e-06;-0.005434473605647331
3.11600e-06;-0.005493045646518117
3.11625e-06;-0.0055523330764034986
3.11650e-06;-0.005613658550248935
3.11675e-06;-0.005676237591172066
3.11700e-06;-0.005739899028836642
3.11725e-06;-0.00580433739380076
3.11750e-06;-0.0058691664425730115
3.11775e-06;-0.0059339939473165475
3.11800e-06;-0.005998427919697368
3.11825e-06;-0.006062082888110236
3.11850e-06;-0.006124608662619068
3.11875e-06;-0.006185718489281635
3.11900e-06;-0.006245121400878291
3.11925e-06;-0.006302442707097803
3.11950e-06;-0.006356766860091962
3.11975e-06;-0.006408007529655288
3.12000e-06;-0.0064559916454699166
3.12025e-06;-0.006496479846663428
3.12050e-06;-0.006536968047856871
3.12075e-06;-0.0065774562490503825
3.12100e-06;-0.00661415704893451
3.12125e-06;-0.006642140032672694
3.12150e-06;-0.00667012301641083
3.12175e-06;-0.006698106000149014
3.12200e-06;-0.00672042743259879
3.12225e-06;-0.006729717142449924
3.12250e-06;-0.006739006852301074
3.12275e-06;-0.006748296562152223
3.12300e-06;-0.006757586272003358
3.12325e-06;-0.006766875981854507
3.12350e-06;-0.006776165691705657
3.12375e-06;-0.006785455401556806
3.12400e-06;-0.006788835201311315
3.12425e-06;-0.006778611607748471
3.12450e-06;-0.006768388014185628
3.12475e-06;-0.006758164420622801
3.12500e-06;-0.006747940827059958
3.12525e-06;-0.006737717233497114
3.12550e-06;-0.00672749363993427
3.12575e-06;-0.006717270046371444
3.12600e-06;-0.006703611933261393
3.12625e-06;-0.0066820482649917285
3.12650e-06;-0.006660484596722101
3.12675e-06;-0.006638920928452437
3.12700e-06;-0.006617357260182773
3.12725e-06;-0.006595793591913145
3.12750e-06;-0.006574229923643481
3.12775e-06;-0.006552666255373817
3.12800e-06;-0.00653088091875841
3.12825e-06;-0.006508585347360457
3.12850e-06;-0.006486289775962467
3.12875e-06;-0.006463994204564477
3.12900e-06;-0.006441698633166525
3.12925e-06;-0.006419403061768535
3.12950e-06;-0.006397107490370545
3.12975e-06;-0.006374811918972555
3.13000e-06;-0.0063545871854598455
3.13025e-06;-0.0063391290933663795
3.13050e-06;-0.0063236710012729135
3.13075e-06;-0.006308212909179474
3.13100e-06;-0.006292754817086008
3.13125e-06;-0.006277296724992542
3.13150e-06;-0.006261838632899102
3.13175e-06;-0.006246380540805636
3.13200e-06;-0.006233950244339319
3.13225e-06;-0.0062222633877913255
3.13250e-06;-0.006210576531243353
3.13275e-06;-0.00619888967469536
3.13300e-06;-0.006187202818147368
3.13325e-06;-0.006175515961599394
3.13350e-06;-0.006163829105051402
3.13375e-06;-0.006152915458538096
3.13400e-06;-0.006143781581944746
3.13425e-06;-0.006134647705351411
3.13450e-06;-0.006125513828758061
3.13475e-06;-0.006116379952164712
3.13500e-06;-0.0061072460755713775
3.13525e-06;-0.006098112198978028
3.13550e-06;-0.006088978322384678
3.13575e-06;-0.006079844445791343
3.13600e-06;-0.006070158136209876
3.13625e-06;-0.015346670383429968
3.13650e-06;-0.03201078267002222
3.13675e-06;-0.025497316371549422
3.13700e-06;-0.020590283526710936
3.13725e-06;-0.010822379956584109
3.13750e-06;0.002764771057155109
3.13775e-06;0.0010744288008139424
3.13800e-06;0.0004950912476494062
3.13825e-06;-0.005297734141175956
3.13850e-06;-0.012721066714999424
3.13875e-06;-0.014647577069040817
3.13900e-06;-0.012673982456518271
3.13925e-06;-0.007757343324674788
3.13950e-06;-0.0021201754077418726
3.13975e-06;-4.0070916696350895e-05
3.14000e-06;-0.0006914830293858743
3.14025e-06;-0.004484559947316127
3.14050e-06;-0.009247756212087458
3.14075e-06;-0.01054314498066661
3.14100e-06;-0.00937803019082701
3.14125e-06;-0.0063569553080669375
3.14150e-06;-0.0028756560235500645
3.14175e-06;-0.0016160774655725383
3.14200e-06;-0.0020628020472663027
3.14225e-06;-0.00447396617593036
3.14250e-06;-0.00749021505675286
3.14275e-06;-0.008332446902506226
3.14300e-06;-0.007632335755301178
3.14325e-06;-0.00576906583431497
3.14350e-06;-0.0036172483974986273
3.14375e-06;-0.002856971246232491
3.14400e-06;-0.0031653712452270337
3.14425e-06;-0.004704096847058042
3.14450e-06;-0.006621597916718287
3.14475e-06;-0.007177086782182429
3.14500e-06;-0.006766322720638972
3.14525e-06;-0.005626861662954787
3.14550e-06;-0.004306545712831427
3.14575e-06;-0.0038576865555343355
3.14600e-06;-0.004077903888237545
