Time(s);Current(A)
1.50000e-06;-0.009433881785456457
1.50025e-06;-0.009411480683569211
1.50050e-06;-0.009389339961931326
1.50075e-06;-0.009367766731724314
1.50100e-06;-0.009346707017075002
1.50125e-06;-0.009326198170523279
1.50150e-06;-0.009306333285274804
1.50175e-06;-0.009287240467779009
1.50200e-06;-0.009269050638201909
1.50225e-06;-0.009251895766971862
1.50250e-06;-0.009235915512977179
1.50275e-06;-0.009221289523176184
1.50300e-06;-0.00920825478976379
1.50325e-06;-0.009197009425481732
1.50350e-06;-0.009187628133179228
1.50375e-06;-0.009180118264246095
1.50400e-06;-0.009174879246718323
1.50425e-06;-0.009171254073596632
1.50450e-06;-0.009169243297652572
1.50475e-06;-0.009169411867038577
1.50500e-06;-0.00917170178905978
1.50525e-06;-0.009176855417746847
1.50550e-06;-0.009182009046433912
1.50575e-06;-0.009190247976311955
1.50600e-06;-0.00920265188915423
1.50625e-06;-0.009215055801996514
1.50650e-06;-0.009227459714838787
1.50675e-06;-0.00923986362768106
1.50700e-06;-0.009255440612712641
1.50725e-06;-0.009275301066616316
1.50750e-06;-0.009295161520520009
1.50775e-06;-0.009315021974423684
1.50800e-06;-0.009334882428327359
1.50825e-06;-0.009356498037985913
1.50850e-06;-0.0093804830091317
1.50875e-06;-0.00940446798027751
1.50900e-06;-0.009429193535734738
1.50925e-06;-0.009454918838331624
1.50950e-06;-0.009480644140928533
1.50975e-06;-0.009506542501935692
1.51000e-06;-0.00953267448205685
1.51025e-06;-0.009558806462177986
1.51050e-06;-0.009584493246236076
1.51075e-06;-0.00960957904066506
1.51100e-06;-0.009634664835094044
1.51125e-06;-0.009658934943145773
1.51150e-06;-0.009682103920495769
1.51175e-06;-0.009703948868901536
1.51200e-06;-0.009724006452750171
1.51225e-06;-0.009744064036598806
1.51250e-06;-0.00976069559234666
1.51275e-06;-0.009772702202978602
1.51300e-06;-0.009784708813610554
1.51325e-06;-0.009796715424242496
1.51350e-06;-0.009808722034874439
1.51375e-06;-0.00982072864550639
1.51400e-06;-0.009832735256138333
1.51425e-06;-0.009844741866770285
1.51450e-06;-0.009846640920355922
1.51475e-06;-0.009847726842477925
1.51500e-06;-0.009848812764599927
1.51525e-06;-0.009849898686721929
1.51550e-06;-0.00985098460884393
1.51575e-06;-0.009852070530965932
1.51600e-06;-0.009853156453087935
1.51625e-06;-0.009850468078853565
1.51650e-06;-0.009842684616959257
1.51675e-06;-0.009834901155064944
1.51700e-06;-0.009827117693170635
1.51725e-06;-0.00981933423127632
1.51750e-06;-0.009811550769382013
1.51775e-06;-0.009803767307487705
1.51800e-06;-0.009793718384558878
1.51825e-06;-0.009780611216735903
1.51850e-06;-0.009767504048912919
1.51875e-06;-0.009754396881089944
1.51900e-06;-0.00974128971326696
1.51925e-06;-0.009728182545443985
1.51950e-06;-0.009715075377621011
1.51975e-06;-0.009701312191979086
1.52000e-06;-0.009686663419202959
1.52025e-06;-0.00967201464642682
1.52050e-06;-0.009657423207505702
1.52075e-06;-0.009642909166062036
1.52100e-06;-0.009628395124618357
1.52125e-06;-0.009614347812459817
1.52150e-06;-0.009600930558568178
1.52175e-06;-0.009587513304676552
1.52200e-06;-0.009575465590127952
1.52225e-06;-0.009565266676613329
1.52250e-06;-0.009555067763098715
1.52275e-06;-0.009544868849584092
1.52300e-06;-0.009534669936069478
1.52325e-06;-0.009524471022554855
1.52350e-06;-0.009514272109040241
1.52375e-06;-0.009504073195525627
1.52400e-06;-0.009493874282011004
1.52425e-06;-0.00948367536849639
1.52450e-06;-0.009474224423999453
1.52475e-06;-0.009465783195579912
1.52500e-06;-0.009457341967160368
1.52525e-06;-0.00944890073874082
1.52550e-06;-0.009440459510321277
1.52575e-06;-0.009432018281901728
1.52600e-06;-0.009423577053482185
1.52625e-06;-0.009415135825062643
1.52650e-06;-0.009406694596643093
1.52675e-06;-0.009398253368223551
1.52700e-06;-0.009389926318723091
1.52725e-06;-0.009381753404337296
1.52750e-06;-0.009373580489951494
1.52775e-06;-0.009365407575565697
1.52800e-06;-0.009357234661179901
1.52825e-06;-0.00934917033764391
1.52850e-06;-0.00934125260564356
1.52875e-06;-0.009333334873643202
1.52900e-06;-0.009325417141642851
1.52925e-06;-0.0093174994096425
1.52950e-06;-0.009309650874585124
1.52975e-06;-0.009302045867567537
1.53000e-06;-0.009294643508783916
1.53025e-06;-0.0092872411500003
1.53050e-06;-0.009279838791216685
1.53075e-06;-0.009272436432433064
1.53100e-06;-0.009265765797414638
1.53125e-06;-0.009259154028016579
1.53150e-06;-0.009252542258618525
1.53175e-06;-0.009245930489220466
1.53200e-06;-0.009239576061641674
1.53225e-06;-0.009233693870880992
1.53250e-06;-0.009228145867379231
1.53275e-06;-0.009223176596225381
1.53300e-06;-0.009219731777943363
1.53325e-06;-0.009217697769440402
1.53350e-06;-0.009217204443158784
1.53375e-06;-0.009218790951164643
1.53400e-06;-0.009221798453666868
1.53425e-06;-0.009226724218764012
1.53450e-06;-0.00923343790181903
1.53475e-06;-0.009242565173491119
1.53500e-06;-0.009251692445163216
1.53525e-06;-0.009264383843386037
1.53550e-06;-0.009281886611859245
1.53575e-06;-0.009299389380332439
1.53600e-06;-0.009316892148805647
1.53625e-06;-0.009334394917278839
1.53650e-06;-0.009351897685752033
1.53675e-06;-0.009377638458793183
1.53700e-06;-0.009404041961777661
1.53725e-06;-0.009430445464762162
1.53750e-06;-0.00945684896774664
1.53775e-06;-0.009483252470731118
1.53800e-06;-0.009512218541230048
1.53825e-06;-0.009544643933649148
1.53850e-06;-0.009577069326068275
1.53875e-06;-0.009609494718487375
1.53900e-06;-0.009641920110906475
1.53925e-06;-0.009674345503325603
1.53950e-06;-0.009707212326796597
1.53975e-06;-0.009740675057343417
1.54000e-06;-0.009774137787890208
1.54025e-06;-0.009807600518437001
1.54050e-06;-0.009841063248983822
1.54075e-06;-0.009874525979530615
1.54100e-06;-0.009906620756002203
1.54125e-06;-0.00993686887146228
1.54150e-06;-0.009967116986922384
1.54175e-06;-0.009995457496699564
1.54200e-06;-0.01002122284616716
1.54225e-06;-0.010046988195634777
1.54250e-06;-0.010070765222863222
1.54275e-06;-0.010091858126973989
1.54300e-06;-0.01011295103108474
1.54325e-06;-0.010134650035948477
1.54350e-06;-0.010157167242716692
1.54375e-06;-0.010179684449484886
1.54400e-06;-0.010203267201607897
1.54425e-06;-0.01022828837998968
1.54450e-06;-0.010253309558371464
1.54475e-06;-0.01027833073675327
1.54500e-06;-0.010303351915135053
1.54525e-06;-0.010328373093516858
1.54550e-06;-0.010353394271898641
1.54575e-06;-0.010381088721477437
1.54600e-06;-0.010412391936717167
1.54625e-06;-0.010443695151956896
1.54650e-06;-0.01047499836719665
1.54675e-06;-0.010506301582436381
1.54700e-06;-0.010537604797676136
1.54725e-06;-0.010568908012915866
1.54750e-06;-0.010602395368722498
1.54775e-06;-0.01063883119136835
1.54800e-06;-0.01067526701401417
1.54825e-06;-0.010711702836660023
1.54850e-06;-0.010748138659305845
1.54875e-06;-0.010784574481951666
1.54900e-06;-0.010821010304597518
1.54925e-06;-0.010857446127243339
1.54950e-06;-0.010892988020971004
1.54975e-06;-0.01092845800001878
1.55000e-06;-0.010963927979066588
1.55025e-06;-0.010999397958114365
1.55050e-06;-0.011034867937162142
1.55075e-06;-0.01107033791620995
1.55100e-06;-0.011105807895257726
1.55125e-06;-0.011136918965790474
1.55150e-06;-0.011162145755152763
1.55175e-06;-0.011187372544515052
1.55200e-06;-0.011212599333877363
1.55225e-06;-0.011237826123239652
1.55250e-06;-0.011263052912601962
1.55275e-06;-0.01128827970196425
1.55300e-06;-0.01131350649132654
1.55325e-06;-0.01133873328068885
1.55350e-06;-0.011349507027085405
1.55375e-06;-0.011359118056920721
1.55400e-06;-0.01136872908675603
1.55425e-06;-0.011378340116591347
1.55450e-06;-0.011387951146426656
1.55475e-06;-0.011397562176261965
1.55500e-06;-0.011407173206097281
1.55525e-06;-0.01141678423593259
1.55550e-06;-0.011420459722393377
1.55575e-06;-0.011416122559358649
1.55600e-06;-0.01141178539632392
1.55625e-06;-0.011407448233289187
1.55650e-06;-0.011403111070254459
1.55675e-06;-0.011398773907219726
1.55700e-06;-0.011394436744184997
1.55725e-06;-0.011390099581150268
1.55750e-06;-0.011385762418115536
1.55775e-06;-0.011381422216157455
1.55800e-06;-0.011368695503757199
1.55825e-06;-0.011355968791356953
1.55850e-06;-0.011343242078956697
1.55875e-06;-0.011330515366556451
1.55900e-06;-0.011317788654156205
1.55925e-06;-0.01130506194175595
1.55950e-06;-0.011292335229355703
1.55975e-06;-0.011279608516955447
1.56000e-06;-0.011266881804555201
1.56025e-06;-0.01125234631792769
1.56050e-06;-0.01292685906000711
1.56075e-06;-0.023401720962508296
1.56100e-06;-0.025661605635735173
1.56125e-06;-0.02353630674166489
1.56150e-06;-0.0205911773602315
1.56175e-06;-0.013169069709725461
1.56200e-06;-0.009117574133193083
1.56225e-06;-0.009684752495276925
1.56250e-06;-0.011238735550835747
1.56275e-06;-0.016741831947606388
1.56300e-06;-0.01954871671793184
1.56325e-06;-0.018096434279500438
1.56350e-06;-0.0157912387302065
1.56375e-06;-0.011921423834527399
1.56400e-06;-0.00893667422718812
1.56425e-06;-0.008551259913414159
1.56450e-06;-0.010088630311761942
1.56475e-06;-0.012825938957217767
1.56500e-06;-0.014913239309952791
1.56525e-06;-0.014720284883498443
1.56550e-06;-0.013117133813769319
1.56575e-06;-0.01080091491589628
1.56600e-06;-0.008930302527477374
1.56625e-06;-0.00868050856371479
1.56650e-06;-0.009631097712189484
1.56675e-06;-0.011329799308970805
1.56700e-06;-0.012618338372327162
1.56725e-06;-0.01247610348011727
1.56750e-06;-0.011448646841448825
1.56775e-06;-0.0099731131515863
1.56800e-06;-0.008775673847436695
1.56825e-06;-0.008592760927834184
1.56850e-06;-0.009161250216775647
1.56875e-06;-0.010198081316096928
1.56900e-06;-0.010977979368871632
1.56925e-06;-0.01086195199457041
1.56950e-06;-0.010192048679546997
1.56975e-06;-0.009242375194968039
1.57000e-06;-0.008468037435147945
1.57025e-06;-0.008330521047812775
1.57050e-06;-0.008665170932609722
1.57075e-06;-0.009294852413357884
1.57100e-06;-0.009765455301419135
1.57125e-06;-0.009676946878261965
1.57150e-06;-0.00924382591385601
1.57175e-06;-0.008638009935838412
1.57200e-06;-0.00814477118932818
1.57225e-06;-0.008053349729486002
1.57250e-06;-0.008260749139314327
1.57275e-06;-0.008656068072590258
1.57300e-06;-0.008954695774016216
1.57325e-06;-0.008905774328543874
1.57350e-06;-0.008643470491688404
1.57375e-06;-0.008275348984752165
1.57400e-06;-0.00797996826749689
1.57425e-06;-0.007938357780286396
1.57450e-06;-0.008085844186249446
1.57475e-06;-0.008352807080970984
1.57500e-06;-0.008560825454152259
1.57525e-06;-0.00855263679046158
1.57550e-06;-0.00841216012231335
1.57575e-06;-0.008206644780802129
1.57600e-06;-0.008047802453874441
1.57625e-06;-0.008048880192231324
1.57650e-06;-0.008169214037446595
1.57675e-06;-0.008365046446873371
1.57700e-06;-0.008524474448646461
1.57725e-06;-0.00854885625252656
1.57750e-06;-0.008490629383939274
1.57775e-06;-0.00839178447648603
1.57800e-06;-0.008322158389118131
1.57825e-06;-0.008352543110822239
1.57850e-06;-0.008457319316586257
1.57875e-06;-0.008608931613756863
1.57900e-06;-0.008737142571405341
1.57925e-06;-0.00878002932924999
1.57950e-06;-0.008770304436118325
1.57975e-06;-0.008734134016287271
1.58000e-06;-0.008715124014754749
1.58025e-06;-0.008757476143034217
1.58050e-06;-0.008844996133576644
1.58075e-06;-0.008960280188642906
1.58100e-06;-0.009059191604680095
1.58125e-06;-0.009102804138600977
1.58150e-06;-0.009111473505283938
1.58175e-06;-0.009101453029808209
1.58200e-06;-0.009099916586166696
1.58225e-06;-0.009134409914040556
1.58250e-06;-0.009194650802912725
1.58275e-06;-0.009269632090160138
1.58300e-06;-0.009331706651745651
1.58325e-06;-0.009356603798178235
1.58350e-06;-0.009357217875596542
1.58375e-06;-0.009343863828007939
1.58400e-06;-0.009333696543430404
1.58425e-06;-0.009344100241298873
1.58450e-06;-0.009368218965335786
1.58475e-06;-0.00939888229544374
1.58500e-06;-0.009423394537464675
1.58525e-06;-0.009421105223634329
1.58550e-06;-0.009402029947579986
1.58575e-06;-0.009372584321738368
1.58600e-06;-0.009346512553250278
1.58625e-06;-0.00933309033230492
1.58650e-06;-0.00932146318780329
1.58675e-06;-0.009316566293705962
1.58700e-06;-0.009306458304850503
1.58725e-06;-0.009276812444655317
1.58750e-06;-0.0092441876674559
1.58775e-06;-0.00920039408602972
1.58800e-06;-0.009158749635069529
1.58825e-06;-0.009125162883399884
1.58850e-06;-0.009092847039577273
1.58875e-06;-0.00906529618951371
1.58900e-06;-0.009034738576601937
1.58925e-06;-0.008992907757501795
1.58950e-06;-0.008949569635027676
1.58975e-06;-0.00890060040299945
1.59000e-06;-0.008853017222597723
1.59025e-06;-0.008811358287061399
1.59050e-06;-0.00877433701878907
1.59075e-06;-0.008740555900944117
1.59100e-06;-0.00870605623130286
1.59125e-06;-0.008667402058384545
1.59150e-06;-0.008626878382259062
1.59175e-06;-0.008586371848675285
1.59200e-06;-0.008549383327323452
1.59225e-06;-0.008519308127421394
1.59250e-06;-0.008491023493720821
1.59275e-06;-0.008469452200247559
1.59300e-06;-0.008447617940037244
1.59325e-06;-0.008424797742991421
1.59350e-06;-0.008402157759540972
1.59375e-06;-0.008380193447941222
1.59400e-06;-0.008360130759089425
1.59425e-06;-0.008347197792936599
1.59450e-06;-0.00833426482678376
1.59475e-06;-0.008322479828423589
1.59500e-06;-0.008314998886710726
1.59525e-06;-0.00830751794499787
1.59550e-06;-0.008300037003285014
1.59575e-06;-0.008292556061572151
1.59600e-06;-0.008286648370819936
1.59625e-06;-0.008286639243858704
1.59650e-06;-0.008286630116897472
1.59675e-06;-0.008286620989936242
1.59700e-06;-0.00828661186297501
1.59725e-06;-0.008287651335676187
1.59750e-06;-0.008292622305738299
1.59775e-06;-0.00829759327580041
1.59800e-06;-0.008302564245862523
1.59825e-06;-0.008307535215924632
1.59850e-06;-0.00831250618598674
1.59875e-06;-0.008317477156048855
1.59900e-06;-0.008325229345547804
1.59925e-06;-0.008334114449470433
1.59950e-06;-0.008342999553393057
1.59975e-06;-0.00835188465731568
1.60000e-06;-0.00836076976123831
1.60025e-06;-0.008369654865160935
1.60050e-06;-0.008378789867682642
1.60075e-06;-0.008388861810886251
1.60100e-06;-0.008398933754089859
1.60125e-06;-0.008408654617416545
1.60150e-06;-0.008417059182770734
1.60175e-06;-0.00842546374812493
1.60200e-06;-0.008433750393520453
1.60225e-06;-0.008441539427976144
1.60250e-06;-0.008449096273741968
1.60275e-06;-0.008456721133596388
1.60300e-06;-0.008465335583959217
1.60325e-06;-0.008475962838737222
1.60350e-06;-0.008489338020201437
1.60375e-06;-0.008505567713047973
1.60400e-06;-0.00852277632457576
1.60425e-06;-0.008543655179714794
1.60450e-06;-0.008565746669062898
1.60475e-06;-0.00859238466778293
1.60500e-06;-0.00861902266650294
1.60525e-06;-0.008648103739293428
1.60550e-06;-0.00868634458926523
1.60575e-06;-0.008724585439237003
1.60600e-06;-0.008762826289208806
1.60625e-06;-0.008801067139180578
1.60650e-06;-0.008841836901631825
1.60675e-06;-0.008892088273790353
1.60700e-06;-0.00894233964594888
1.60725e-06;-0.008992591018107449
1.60750e-06;-0.009042842390265976
1.60775e-06;-0.009095017348091788
1.60800e-06;-0.009154404373825578
1.60825e-06;-0.009213791399559367
1.60850e-06;-0.009273178425293205
1.60875e-06;-0.009332565451026995
1.60900e-06;-0.009391952476760834
1.60925e-06;-0.00945174944430216
1.60950e-06;-0.009513083399878181
1.60975e-06;-0.009574417355454256
1.61000e-06;-0.00963575131103028
1.61025e-06;-0.009697085266606353
1.61050e-06;-0.009758419222182376
1.61075e-06;-0.009818712847879165
1.61100e-06;-0.009875105981976422
1.61125e-06;-0.009931499116073682
1.61150e-06;-0.009986443939459076
1.61175e-06;-0.010035958635461082
1.61200e-06;-0.01008547333146313
1.61225e-06;-0.010132868475037254
1.61250e-06;-0.0101723168157711
1.61275e-06;-0.01021176515650498
1.61300e-06;-0.010248974586803985
1.61325e-06;-0.010277789707262612
1.61350e-06;-0.010306604827721215
1.61375e-06;-0.010331740465341773
1.61400e-06;-0.010343080678851488
1.61425e-06;-0.010354420892361197
1.61450e-06;-0.010365761105870912
1.61475e-06;-0.010377101319380619
1.61500e-06;-0.010388441532890327
1.61525e-06;-0.010399781746400043
1.61550e-06;-0.010395273040757361
1.61575e-06;-0.010384308365165809
1.61600e-06;-0.010373343689574268
1.61625e-06;-0.010362379013982717
1.61650e-06;-0.010351414338391176
1.61675e-06;-0.010340449662799634
1.61700e-06;-0.010326007145387466
1.61725e-06;-0.010298525213194425
1.61750e-06;-0.01027104328100136
1.61775e-06;-0.010243561348808319
1.61800e-06;-0.010216079416615278
1.61825e-06;-0.010188597484422215
1.61850e-06;-0.010159224453379684
1.61875e-06;-0.01012276115671788
1.61900e-06;-0.010086297860056104
1.61925e-06;-0.01004983456339433
1.61950e-06;-0.010013371266732525
1.61975e-06;-0.00997690797007075
1.62000e-06;-0.00994005741354465
1.62025e-06;-0.00990175491001844
1.62050e-06;-0.009863574869376111
1.62075e-06;-0.009825853976797748
1.62100e-06;-0.009788493315312665
1.62125e-06;-0.00975248326230384
1.62150e-06;-0.00971706316860051
1.62175e-06;-0.009683854999557418
1.62200e-06;-0.009651688369661585
1.62225e-06;-0.00962342676525316
1.62250e-06;-0.009595165160844714
1.62275e-06;-0.009569034286421379
1.62300e-06;-0.009550892122667855
1.62325e-06;-0.009532749958914346
1.62350e-06;-0.009514607795160838
1.62375e-06;-0.009496465631407314
1.62400e-06;-0.009478323467653805
1.62425e-06;-0.009460181303900281
1.62450e-06;-0.009442039140146772
1.62475e-06;-0.009433235980994086
1.62500e-06;-0.00942823701394258
1.62525e-06;-0.009423238046891073
1.62550e-06;-0.009418239079839562
1.62575e-06;-0.009413240112788056
1.62600e-06;-0.009408241145736546
1.62625e-06;-0.00940324217868504
1.62650e-06;-0.009400476168875536
1.62675e-06;-0.009406082148698118
1.62700e-06;-0.009411688128520694
1.62725e-06;-0.009417294108343273
1.62750e-06;-0.00942290008816585
1.62775e-06;-0.009428506067988425
1.62800e-06;-0.009434112047811007
1.62825e-06;-0.009439718027633583
1.62850e-06;-0.009446521525817082
1.62875e-06;-0.009457814859772191
1.62900e-06;-0.00946910819372731
1.62925e-06;-0.00948040152768242
1.62950e-06;-0.009491694861637529
1.62975e-06;-0.009502988195592647
1.63000e-06;-0.009514281529547756
1.63025e-06;-0.009525574863502875
1.63050e-06;-0.009536682555775057
1.63075e-06;-0.009547094224757828
1.63100e-06;-0.009557505893740607
1.63125e-06;-0.009567917562723377
1.63150e-06;-0.009578329231706158
1.63175e-06;-0.009588740900688928
1.63200e-06;-0.009599152569671698
1.63225e-06;-0.009609564238654479
1.63250e-06;-0.00961997590763725
1.63275e-06;-0.00962820629705901
1.63300e-06;-0.009628258451123188
1.63325e-06;-0.009628310605187367
1.63350e-06;-0.009628362759251545
1.63375e-06;-0.009628414913315723
1.63400e-06;-0.009628467067379902
1.63425e-06;-0.00962851922144408
1.63450e-06;-0.009628571375508259
1.63475e-06;-0.009628623529572437
1.63500e-06;-0.009625892818870435
1.63525e-06;-0.00961272835935764
1.63550e-06;-0.009599563899844859
1.63575e-06;-0.009586399440332063
1.63600e-06;-0.00957323498081928
1.63625e-06;-0.009560070521306497
1.63650e-06;-0.009546906061793703
1.63675e-06;-0.009527122792776527
1.63700e-06;-0.009504643388152816
1.63725e-06;-0.009482163983529123
1.63750e-06;-0.009459684578905411
1.63775e-06;-0.009437205174281716
1.63800e-06;-0.009414725769658024
1.63825e-06;-0.009391135880019939
1.63850e-06;-0.009363382467296398
1.63875e-06;-0.009335629054572832
1.63900e-06;-0.009307875641849291
1.63925e-06;-0.00928012222912575
1.63950e-06;-0.009252368816402186
1.63975e-06;-0.009224549384189575
1.64000e-06;-0.009196482426199222
1.64025e-06;-0.009168415468208894
1.64050e-06;-0.009140348510218565
1.64075e-06;-0.009112281552228213
1.64100e-06;-0.009084214594237885
1.64125e-06;-0.009056684681913075
1.64150e-06;-0.00903116830601376
1.64175e-06;-0.009006006866575463
1.64200e-06;-0.008982462879069926
1.64225e-06;-0.008960318528081981
1.64250e-06;-0.008939770570185452
1.64275e-06;-0.00892142294687483
1.64300e-06;-0.00890599931371661
1.64325e-06;-0.008891825802071743
1.64350e-06;-0.00888233935032671
1.64375e-06;-0.008874107138142353
1.64400e-06;-0.00887057742558456
1.64425e-06;-0.008868608387602072
1.64450e-06;-0.008872490760974787
1.64475e-06;-0.0088763731343475
1.64500e-06;-0.008883075865047224
1.64525e-06;-0.008900352914794605
1.64550e-06;-0.008917629964542002
1.64575e-06;-0.008934907014289383
1.64600e-06;-0.00895218406403678
1.64625e-06;-0.00896946111378416
1.64650e-06;-0.008997299833653969
1.64675e-06;-0.009029440791692237
1.64700e-06;-0.009061581749730478
1.64725e-06;-0.009093722707768747
1.64750e-06;-0.009125863665806987
