Time(s);Current(A)
6.75000e-06;0.0009737316200488086
6.75025e-06;0.0009833476346916663
6.75050e-06;0.000995685524524463
6.75075e-06;0.0010080234143572178
6.75100e-06;0.0010227483731032505
6.75125e-06;0.0010406566853403494
6.75150e-06;0.0010585649975773876
6.75175e-06;0.0010764733098144257
6.75200e-06;0.0010943816220515246
6.75225e-06;0.0011122899342885626
6.75250e-06;0.0011301982465256007
6.75275e-06;0.001150536276214573
6.75300e-06;0.0011710613362355279
6.75325e-06;0.0011915863962564828
6.75350e-06;0.0012121114562775074
6.75375e-06;0.0012326365162984624
6.75400e-06;0.0012531615763194174
6.75425e-06;0.0012725094827121912
6.75450e-06;0.001290287557546687
6.75475e-06;0.0013080656323811828
6.75500e-06;0.0013258437072157388
6.75525e-06;0.00134292648265505
6.75550e-06;0.0013590820189416375
6.75575e-06;0.0013752375552281704
6.75600e-06;0.0013913930915147033
6.75625e-06;0.0014112763305246774
6.75650e-06;0.0014361307689040844
6.75675e-06;0.0014640158895118341
6.75700e-06;0.0014959426751076574
6.75725e-06;0.001530375232421511
6.75750e-06;0.001568149443217271
6.75775e-06;0.001609183342295268
6.75800e-06;0.0016545643048421828
6.75825e-06;0.001704270915120683
6.75850e-06;0.0017597461338080772
6.75875e-06;0.0018196651907309742
6.75900e-06;0.001885510472858434
6.75925e-06;0.001951355754986117
6.75950e-06;0.002021563085691296
6.75975e-06;0.002097587568339132
6.76000e-06;0.0021736120509867098
6.76025e-06;0.0022556351735634095
6.76050e-06;0.002345657977779265
6.76075e-06;0.0024356807819948152
6.76100e-06;0.0025257035862103656
6.76125e-06;0.002615726390426221
6.76150e-06;0.002705749194641772
6.76175e-06;0.0027989543706782587
6.76200e-06;0.002896403502299016
6.76225e-06;0.002993852633919443
6.76250e-06;0.00309130176553987
6.76275e-06;0.0031887508971606272
6.76300e-06;0.003286200028781054
6.76325e-06;0.003378651265203539
6.76350e-06;0.003464437395715963
6.76375e-06;0.003550223526228096
6.76400e-06;0.0036360096567405204
6.76425e-06;0.0037217957872526537
6.76450e-06;0.003807581917764787
6.76475e-06;0.0038933680482772107
6.76500e-06;0.003979154178789344
6.76525e-06;0.004050600691536625
6.76550e-06;0.004102924140008527
6.76575e-06;0.004155247588480252
6.76600e-06;0.004207571036951977
6.76625e-06;0.00425989448542388
6.76650e-06;0.004312217933895605
6.76675e-06;0.00436454138236733
6.76700e-06;0.004416864830839232
6.76725e-06;0.004453241226623439
6.76750e-06;0.0044683509109417425
6.76775e-06;0.004483460595260098
6.76800e-06;0.0044985702795784024
6.76825e-06;0.004513679963896757
6.76850e-06;0.004528789648215062
6.76875e-06;0.004543899332533365
6.76900e-06;0.004559009016851721
6.76925e-06;0.004574118701170025
6.76950e-06;0.004589228385488329
6.76975e-06;0.00459217874382341
6.77000e-06;0.004578913636996389
6.77025e-06;0.004565648530169369
6.77050e-06;0.004552383423342303
6.77075e-06;0.004539118316515283
6.77100e-06;0.004525853209688261
6.77125e-06;0.004512588102861196
6.77150e-06;0.004499322996034175
6.77175e-06;0.004486057889207155
6.77200e-06;0.004472792782380089
6.77225e-06;0.00445529897812357
6.77250e-06;0.004432165856692617
6.77275e-06;0.004409032735261743
6.77300e-06;0.004385899613830869
6.77325e-06;0.004362766492399917
6.77350e-06;0.0043396333709690435
6.77375e-06;0.00431650024953817
6.77400e-06;0.004293367128107217
6.77425e-06;0.004270234006676343
6.77450e-06;0.004247100885245469
6.77475e-06;0.004223967763814517
6.77500e-06;0.00420413262343731
6.77525e-06;0.004188695613100303
6.77550e-06;0.004173258602763246
6.77575e-06;0.004157821592426239
6.77600e-06;0.004142384582089233
6.77625e-06;0.004126947571752175
6.77650e-06;0.004111510561415169
6.77675e-06;0.004096073551078111
6.77700e-06;0.004080636540741105
6.77725e-06;0.0040651995304040985
6.77750e-06;0.004049762520067041
6.77775e-06;0.004037776364301404
6.77800e-06;0.004030392208033914
6.77825e-06;0.004023008051766399
6.77850e-06;0.004015623895498909
6.77875e-06;0.004008239739231419
6.77900e-06;0.004000855582963904
6.77925e-06;0.0039934714266964145
6.77950e-06;0.003986087270428924
6.77975e-06;0.00397870311416141
6.78000e-06;0.003971318957893919
6.78025e-06;0.003963934801626429
6.78050e-06;0.003956550645358914
6.78075e-06;0.003949166489091424
6.78100e-06;0.0039417823328239095
6.78125e-06;0.003934398176556419
6.78150e-06;0.00392701402028893
6.78175e-06;0.003923409423548999
6.78200e-06;0.003920095762807186
6.78225e-06;0.003916782102065372
6.78250e-06;0.003913468441323548
6.78275e-06;0.0039101547805817346
6.78300e-06;0.003906841119839921
6.78325e-06;0.0039035274590980967
6.78350e-06;0.003900213798356283
6.78375e-06;0.0038969001376144697
6.78400e-06;0.003893586476872645
6.78425e-06;0.003890272816130832
6.78450e-06;0.0038869591553890187
6.78475e-06;0.003883645494647194
6.78500e-06;0.0038803318339053804
6.78525e-06;0.003877018173163556
6.78550e-06;0.0038687726008655703
6.78575e-06;0.0038539499172945513
6.78600e-06;0.0038391272337234823
6.78625e-06;0.0038243045501524632
6.78650e-06;0.003809481866581444
6.78675e-06;0.003794659183010375
6.78700e-06;0.0037798364994393557
6.78725e-06;0.0037650138158683366
6.78750e-06;0.0037501911322972677
6.78775e-06;0.0037044847241139663
6.78800e-06;0.0036564010052478665
6.78825e-06;0.003608317286381603
6.78850e-06;0.003560233567515503
6.78875e-06;0.0035121498486494025
6.78900e-06;0.0034640661297831396
6.78925e-06;0.0034159824109170392
6.78950e-06;0.003367898692050776
6.78975e-06;0.0033082320057391296
6.79000e-06;0.003233118475969875
6.79025e-06;0.003158004946200366
6.79050e-06;0.0030828914164311117
6.79075e-06;0.0030077778866618578
6.79100e-06;0.0029326643568923488
6.79125e-06;0.0028575508271230943
6.79150e-06;0.0027713966466159632
6.79175e-06;0.002684392599155365
6.79200e-06;0.002597388551695061
6.79225e-06;0.0025103845042347573
6.79250e-06;0.002423380456774159
6.79275e-06;0.0023363764093138556
6.79300e-06;0.0022503776975279707
6.79325e-06;0.0021657196838709486
6.79350e-06;0.002081061670214213
6.79375e-06;0.001996403656557191
6.79400e-06;0.0019117456429004556
6.79425e-06;0.0018331293681759727
6.79450e-06;0.0017625702511640078
6.79475e-06;0.001692011134152282
6.79500e-06;0.0016214520171405561
6.79525e-06;0.0015508929001285911
6.79550e-06;0.001487120688442074
6.79575e-06;0.0014323993753790187
6.79600e-06;0.001380318104766701
6.79625e-06;0.001331757548742388
6.79650e-06;0.0012855056860328594
6.79675e-06;0.0012423326564795678
6.79700e-06;0.0012018782413269937
6.79725e-06;0.0011650493229444683
6.79750e-06;0.001133932940332149
6.79775e-06;0.0011066995841962275
6.79800e-06;-0.005112007009780798
6.79825e-06;-0.02144481812948691
6.79850e-06;-0.01682768093784467
6.79875e-06;-0.013040105561316547
6.79900e-06;-0.005820299962243167
6.79925e-06;0.00706466277898918
6.79950e-06;0.005538512761057511
6.79975e-06;0.004530964185159453
6.80000e-06;-0.0009500160903617024
6.80025e-06;-0.0075976061394555285
6.80050e-06;-0.007693900266564666
6.80075e-06;-0.004541402298480943
6.80100e-06;-3.510293673474399e-06
6.80125e-06;0.004723497275670068
6.80150e-06;0.005459551119812636
6.80175e-06;0.0037962338712445227
6.80200e-06;0.0003125291858476893
6.80225e-06;-0.0035561970239605715
6.80250e-06;-0.003693774232089412
6.80275e-06;-0.0017803446251416699
6.80300e-06;0.001013249406124809
6.80325e-06;0.003934866056662847
6.80350e-06;0.0043640488431611274
6.80375e-06;0.0032962237838091856
6.80400e-06;0.0010928195383547638
6.80425e-06;-0.0013480747208715121
6.80450e-06;-0.001449054641273811
6.80475e-06;-0.0002634140235974764
6.80500e-06;0.0014747974848373323
6.80525e-06;0.0032939666833884905
6.80550e-06;0.0035523784882024413
6.80575e-06;0.0028736034806803295
6.80600e-06;0.0014843456165365408
6.80625e-06;-5.258982680153359e-05
6.80650e-06;-0.00012281330744076134
6.80675e-06;0.0006136712677792815
6.80700e-06;0.0016969057157376808
6.80725e-06;0.002831372468760994
6.80750e-06;0.002988676631174942
6.80775e-06;0.002559434641194517
6.80800e-06;0.0016856496810871554
6.80825e-06;0.0007198417910565966
6.80850e-06;0.0006731846942236998
6.80875e-06;0.00113215178496853
6.80900e-06;0.001808559835225095
6.80925e-06;0.0025172550560642187
6.80950e-06;0.002614049892635783
6.80975e-06;0.002343643535199551
6.81000e-06;0.0017949903844336962
6.81025e-06;0.0011888987041295815
6.81050e-06;0.0011587182555826653
6.81075e-06;0.001445352061356312
6.81100e-06;0.0018682387169106898
6.81125e-06;0.0023113679419262865
6.81150e-06;0.0023712156420906214
6.81175e-06;0.002201067131194884
6.81200e-06;0.001856639014582578
6.81225e-06;0.0014762331824644769
6.81250e-06;0.0014565425245419601
6.81275e-06;0.0016352216975333963
6.81300e-06;0.001899132649756062
6.81325e-06;0.002175580604916049
6.81350e-06;0.002211787616220795
6.81375e-06;0.0021037672157767475
6.81400e-06;0.0018864107686809494
6.81425e-06;0.001646334780331679
6.81450e-06;0.0016319965850259276
6.81475e-06;0.0017416658501614763
6.81500e-06;0.0019044436468590733
6.81525e-06;0.002074770273894055
6.81550e-06;0.0020943267887202823
6.81575e-06;0.0020235405817163868
6.81600e-06;0.0018848841363520116
6.81625e-06;0.0017331046184889585
6.81650e-06;0.0017239230732282113
6.81675e-06;0.0017935411659630069
6.81700e-06;0.001897478135731392
6.81725e-06;0.002007128941576513
6.81750e-06;0.0020232624461742513
6.81775e-06;0.0019836721446128535
6.81800e-06;0.0019023750519064429
6.81825e-06;0.0018136022473330435
6.81850e-06;0.0018148288900301682
6.81875e-06;0.001866021053172109
6.81900e-06;0.001939248076442947
6.81925e-06;0.002016526089531415
6.81950e-06;0.0020356348122183873
6.81975e-06;0.0020201877680398905
6.82000e-06;0.0019789038752250796
6.82025e-06;0.0019331618167379378
6.82050e-06;0.0019439533017914401
6.82075e-06;0.001986132760926617
6.82100e-06;0.002042137738337317
6.82125e-06;0.0021006381180169766
6.82150e-06;0.002122596434142352
6.82175e-06;0.002122742552281173
6.82200e-06;0.002106474809941857
6.82225e-06;0.0020871216860987004
6.82250e-06;0.0021028221483263584
6.82275e-06;0.0021377584739014875
6.82300e-06;0.0021808639513686656
6.82325e-06;0.002224976535093866
6.82350e-06;0.0022455795159214867
6.82375e-06;0.0022513002434942798
6.82400e-06;0.002244008336981006
6.82425e-06;0.0022395584002800773
6.82450e-06;0.0022531315729119876
6.82475e-06;0.002277995874882581
6.82500e-06;0.002307644412630243
6.82525e-06;0.0023349650313237045
6.82550e-06;0.002347506759044126
6.82575e-06;0.0023499875927088685
6.82600e-06;0.0023444355131802984
6.82625e-06;0.002340816722086168
6.82650e-06;0.0023494646487288912
6.82675e-06;0.002365929398527603
6.82700e-06;0.002386219774214785
6.82725e-06;0.002405185366966482
6.82750e-06;0.0024157344668589357
6.82775e-06;0.0024209885847525127
6.82800e-06;0.002424320003212127
6.82825e-06;0.002427651421671741
6.82850e-06;0.002432697826211312
6.82875e-06;0.002447750661427961
6.82900e-06;0.002464156839902387
6.82925e-06;0.002480563018376869
6.82950e-06;0.0024959443637849266
6.82975e-06;0.002505322154262147
6.83000e-06;0.0025137547369038166
6.83025e-06;0.0025221873195454578
6.83050e-06;0.0025318370638584046
6.83075e-06;0.0025484199607914205
6.83100e-06;0.002564617789060676
6.83125e-06;0.002578622203030491
6.83150e-06;0.002592626617000353
6.83175e-06;0.0026066310309701677
6.83200e-06;0.0026205837147576785
6.83225e-06;0.0026342417349373972
6.83250e-06;0.002647899755117116
6.83275e-06;0.002661557775296881
6.83300e-06;0.0026744896313863785
6.83325e-06;0.0026832851376524885
6.83350e-06;0.0026920806439186284
6.83375e-06;0.0027008761501847384
6.83400e-06;0.002709671656450849
6.83425e-06;0.0027184671627169888
6.83450e-06;0.0027272626689830988
6.83475e-06;0.002736058175249209
6.83500e-06;0.0027448536815153487
6.83525e-06;0.0027536491877814587
6.83550e-06;0.0027624446940475687
6.83575e-06;0.0027712402003137087
6.83600e-06;0.0027800357065798187
6.83625e-06;0.0027888312128459586
6.83650e-06;0.0027976267191120686
6.83675e-06;0.0028064222253781786
6.83700e-06;0.0028152177316443185
6.83725e-06;0.0028225710290405216
6.83750e-06;0.0028217092680446775
6.83775e-06;0.002820847507048831
6.83800e-06;0.002819985746052987
6.83825e-06;0.0028191239850571433
6.83850e-06;0.0028182622240612966
6.83875e-06;0.0028174004630654526
6.83900e-06;0.002816538702069609
6.83925e-06;0.002815676941073762
6.83950e-06;0.0028148151800779183
6.83975e-06;0.0028139534190820743
6.84000e-06;0.0028130916580862276
6.84025e-06;0.0028122298970903836
6.84050e-06;0.002811368136094537
6.84075e-06;0.0028105063750986934
6.84100e-06;0.0028096446141028493
6.84125e-06;0.0028087828531070027
6.84150e-06;0.002807345391060787
6.84175e-06;0.0028026286413586066
6.84200e-06;0.0027979118916564103
6.84225e-06;0.00279319514195423
6.84250e-06;0.0027884783922520495
6.84275e-06;0.002783761642549853
6.84300e-06;0.0027790448928476726
6.84325e-06;0.0027743281431454924
6.84350e-06;0.002769611393443296
6.84375e-06;0.0027648946437411155
6.84400e-06;0.0027601778940389353
6.84425e-06;0.002756716391890505
6.84450e-06;0.002753932757412367
6.84475e-06;0.0027511491229342193
6.84500e-06;0.002748365488456081
6.84525e-06;0.0027455818539779435
6.84550e-06;0.002742798219499796
6.84575e-06;0.0027400145850216577
6.84600e-06;0.0027372309505435195
6.84625e-06;0.0027344473160653723
6.84650e-06;0.002731663681587234
6.84675e-06;0.002730783420966122
6.84700e-06;0.0027407450901779564
6.84725e-06;0.002750706759389757
6.84750e-06;0.002760668428601558
6.84775e-06;0.0027706300978133924
6.84800e-06;0.0027805917670251936
6.84825e-06;0.0027905534362369943
6.84850e-06;0.002800515105448829
6.84875e-06;0.0028104767746606296
6.84900e-06;0.002820438443872464
6.84925e-06;0.002830400113084265
6.84950e-06;0.0028403617822960656
6.84975e-06;0.0028588531067127274
6.85000e-06;0.002881950675916626
6.85025e-06;0.0029050482451205245
6.85050e-06;0.002928145814324501
6.85075e-06;0.0029512433835283997
6.85100e-06;0.0029743409527322982
6.85125e-06;0.002997438521936275
6.85150e-06;0.0030205360911401734
6.85175e-06;0.003043633660344072
6.85200e-06;0.0030667312295480486
6.85225e-06;0.003089828798751947
6.85250e-06;0.0031130308202948183
6.85275e-06;0.003136827819501041
6.85300e-06;0.0031606248187071822
6.85325e-06;0.0031844218179134048
6.85350e-06;0.0032082188171195466
6.85375e-06;0.0032320158163256884
6.85400e-06;0.0032558128155319105
6.85425e-06;0.0032796098147380524
6.85450e-06;0.003303406813944194
6.85475e-06;0.0033272038131504167
6.85500e-06;0.0033510008123565586
6.85525e-06;0.0033702562251797016
6.85550e-06;0.0033870590583735855
6.85575e-06;0.0034038618915674126
6.85600e-06;0.0034206647247612396
6.85625e-06;0.0034374675579551235
6.85650e-06;0.0034542703911489506
6.85675e-06;0.0034710732243427777
6.85700e-06;0.003487876057536662
6.85725e-06;0.003504678890730489
6.85750e-06;0.003521481723924373
6.85775e-06;0.003538616319371863
6.85800e-06;0.0035576406870575315
6.85825e-06;0.0035766650547432647
6.85850e-06;0.003595689422428934
6.85875e-06;0.0036147137901146025
6.85900e-06;0.003633738157800336
6.85925e-06;0.0036527625254860045
6.85950e-06;0.0036717868931716736
6.85975e-06;0.003690811260857407
6.86000e-06;0.0037098356285430755
6.86025e-06;0.003728859996228744
6.86050e-06;0.0037478843639144775
6.86075e-06;0.0037669087316001466
6.86100e-06;0.0037859330992858153
6.86125e-06;0.0038057435561490815
6.86150e-06;0.0038259785224547547
6.86175e-06;0.0038462134887604967
6.86200e-06;0.0038664484550661703
6.86225e-06;0.003886683421371844
6.86250e-06;0.003906918387677586
6.86275e-06;0.0039271533539832594
6.86300e-06;0.003947388320288933
6.86325e-06;0.003967623286594675
6.86350e-06;0.003987858252900348
6.86375e-06;0.004008093219206021
6.86400e-06;0.004028328185511763
6.86425e-06;0.004048563151817437
6.86450e-06;0.004067063047880647
6.86475e-06;0.0040756796991246996
6.86500e-06;0.004084296350368722
6.86525e-06;0.004092913001612746
6.86550e-06;0.004101529652856798
6.86575e-06;0.004110146304100821
6.86600e-06;0.004118762955344874
6.86625e-06;0.004127379606588897
6.86650e-06;0.00413599625783292
6.86675e-06;0.004144612909076973
6.86700e-06;0.004153229560320996
6.86725e-06;0.004161846211565019
6.86750e-06;0.004170462862809072
6.86775e-06;0.004179079514053095
6.86800e-06;0.004187696165297118
6.86825e-06;0.004196312816541171
6.86850e-06;0.004204929467785194
6.86875e-06;0.004211654897062898
6.86900e-06;0.0042076076156801695
6.86925e-06;0.004203560334297455
6.86950e-06;0.00419951305291474
6.86975e-06;0.004195465771532011
6.87000e-06;0.004191418490149296
6.87025e-06;0.004187371208766567
6.87050e-06;0.004183323927383852
6.87075e-06;0.004179276646001137
6.87100e-06;0.004175229364618408
6.87125e-06;0.004171182083235693
6.87150e-06;0.004167134801852978
6.87175e-06;0.00416308752047025
6.87200e-06;0.004159040239087535
6.87225e-06;0.00415499295770482
6.87250e-06;0.004150945676322091
6.87275e-06;0.004146898394939376
6.87300e-06;0.004142508789509689
6.87325e-06;0.004136169250135043
6.87350e-06;0.004129829710760419
6.87375e-06;0.004123490171385794
6.87400e-06;0.004117150632011148
6.87425e-06;0.004110811092636523
6.87450e-06;0.0041044715532618774
6.87475e-06;0.0040981320138872524
6.87500e-06;0.004091792474512628
6.87525e-06;0.004085452935137982
6.87550e-06;0.0040791133957633575
6.87575e-06;0.0040727738563887325
6.87600e-06;0.004066434317014087
6.87625e-06;0.004060094777639463
6.87650e-06;0.004053755238264838
6.87675e-06;0.004047415698890192
6.87700e-06;0.004041076159515567
6.87725e-06;0.004034736620140943
6.87750e-06;0.004026366548159205
6.87775e-06;0.004016899933585011
6.87800e-06;0.004007433319010818
6.87825e-06;0.003997966704436594
6.87850e-06;0.0039885000898624
6.87875e-06;0.003979033475288175
6.87900e-06;0.003969566860713982
6.87925e-06;0.003960100246139789
6.87950e-06;0.003950633631565564
6.87975e-06;0.003941167016991371
6.88000e-06;0.0039317004024171775
6.88025e-06;0.003922233787842953
6.88050e-06;0.00391276717326876
6.88075e-06;0.0039033005586945665
6.88100e-06;0.0038938339441203416
6.88125e-06;0.0038843673295461483
6.88150e-06;0.0038749007149719555
6.88175e-06;0.003865115243626159
6.88200e-06;0.0038535135117876073
6.88225e-06;0.0038419117799490562
6.88250e-06;0.0038303100481104657
6.88275e-06;0.0038187083162719146
6.88300e-06;0.003807106584433324
6.88325e-06;0.003795504852594773
6.88350e-06;0.0037839031207562218
6.88375e-06;0.003772301388917631
6.88400e-06;0.003762090657867464
6.88425e-06;0.003752631104909735
6.88450e-06;0.0037431715519519737
6.88475e-06;0.0037337119989942443
6.88500e-06;0.0037242524460365154
6.88525e-06;0.003714792893078754
6.88550e-06;0.0037053333401210246
6.88575e-06;0.0036958737871632956
6.88600e-06;0.003684281469094684
6.88625e-06;0.0036605405709864893
6.88650e-06;0.0036367996728782943
6.88675e-06;0.0036130587747700196
6.88700e-06;0.0035893178766618246
6.88725e-06;0.0035655769785535494
6.88750e-06;0.003541836080445355
6.88775e-06;0.0035180951823371603
6.88800e-06;0.003494354284228885
6.88825e-06;0.00347061338612069
6.88850e-06;0.0034468724880124956
6.88875e-06;0.003405959213593374
6.88900e-06;0.003355772390958998
6.88925e-06;0.0033055855683246224
6.88950e-06;0.0032553987456900766
6.88975e-06;0.003205211923055701
6.89000e-06;0.003155025100421325
6.89025e-06;0.003104838277786779
6.89050e-06;0.0030546514551524034
6.89075e-06;0.0030044646325180276
6.89100e-06;0.0029542778098834814
6.89125e-06;0.0029021920012375375
6.89150e-06;0.0028392892566644116
6.89175e-06;0.002776386512091499
6.89200e-06;0.0027134837675185865
6.89225e-06;0.0026505810229454606
6.89250e-06;0.002587678278372548
6.89275e-06;0.0025247755337996355
6.89300e-06;0.0024636951628699733
6.89325e-06;0.002403598923055597
6.89350e-06;0.0023435026832412213
6.89375e-06;0.0022834064434266417
6.89400e-06;0.002223310203612266
6.89425e-06;0.0021632139637978902
6.89450e-06;0.0021045790940036934
6.89475e-06;0.0020542684276412485
6.89500e-06;0.002003957761278804
6.89525e-06;0.00195524865881517
6.89550e-06;0.001915662327119852
6.89575e-06;0.0018760759954243996
6.89600e-06;0.0018383671625004114
6.89625e-06;0.0018113528706551493
6.89650e-06;0.0017843385788097956
6.89675e-06;0.001758968508778008
6.89700e-06;0.0017429641959945284
6.89725e-06;0.0017283321456078658
6.89750e-06;0.0017215167270068297
6.89775e-06;0.0017157349558593739
6.89800e-06;0.0017171491611476417
6.89825e-06;0.0017260148087864793
6.89850e-06;0.0017348804564253169
6.89875e-06;0.001745585691128558
