Time(s);Current(A)
2.25000e-06;0.00690068643747375
2.25025e-06;0.006922089798781708
2.25050e-06;0.006943493160089664
2.25075e-06;0.006964896521397585
2.25100e-06;0.006986299882705542
2.25125e-06;0.007007703244013498
2.25150e-06;0.007045810961361628
2.25175e-06;0.007084530062408602
2.25200e-06;0.007123249163455576
2.25225e-06;0.00716196826450255
2.25250e-06;0.007200687365549459
2.25275e-06;0.007239406466596433
2.25300e-06;0.007278125567643407
2.25325e-06;0.007316844668690315
2.25350e-06;0.007355563769737289
2.25375e-06;0.0073942828707842636
2.25400e-06;0.007433001971831172
2.25425e-06;0.007471109113090865
2.25450e-06;0.007509193856465993
2.25475e-06;0.0075472785998411205
2.25500e-06;0.007585363343216184
2.25525e-06;0.007623448086591312
2.25550e-06;0.00766153282996644
2.25575e-06;0.007699617573341503
2.25600e-06;0.007737702316716631
2.25625e-06;0.00777578706009176
2.25650e-06;0.007813871803466887
2.25675e-06;0.00785195654684195
2.25700e-06;0.007865691649579735
2.25725e-06;0.007878535549248925
2.25750e-06;0.007891379448918092
2.25775e-06;0.007904223348587282
2.25800e-06;0.00791706724825647
2.25825e-06;0.007929911147925638
2.25850e-06;0.007942755047594828
2.25875e-06;0.007955598947264017
2.25900e-06;0.007968442846933207
2.25925e-06;0.007981286746602374
2.25950e-06;0.007994130646271563
2.25975e-06;0.008006974545940753
2.26000e-06;0.00801981844560992
2.26025e-06;0.008032662345279109
2.26050e-06;0.008045506244948299
2.26075e-06;0.008047726696911039
2.26100e-06;0.008037709331213163
2.26125e-06;0.00802769196551527
2.26150e-06;0.008017674599817377
2.26175e-06;0.008007657234119501
2.26200e-06;0.007997639868421608
2.26225e-06;0.007987622502723715
2.26250e-06;0.007977605137025839
2.26275e-06;0.007967587771327946
2.26300e-06;0.007957570405630053
2.26325e-06;0.00794755303993216
2.26350e-06;0.007937535674234284
2.26375e-06;0.00792751830853639
2.26400e-06;0.007917500942838497
2.26425e-06;0.00790748357714062
2.26450e-06;0.007897466211442727
2.26475e-06;0.00788348139504981
2.26500e-06;0.007869351368947746
2.26525e-06;0.007855221342845706
2.26550e-06;0.007841091316743641
2.26575e-06;0.007826961290641577
2.26600e-06;0.007812831264539535
2.26625e-06;0.007798701238437471
2.26650e-06;0.007784999114541466
2.26675e-06;0.007771789918113029
2.26700e-06;0.00775858072168457
2.26725e-06;0.00774537152525611
2.26750e-06;0.007732162328827651
2.26775e-06;0.007718953132399214
2.26800e-06;0.007705743935970754
2.26825e-06;0.007692534739542295
2.26850e-06;0.007668240469087128
2.26875e-06;0.007643540482090152
2.26900e-06;0.007618840495093177
2.26925e-06;0.0075941405080962015
2.26950e-06;0.007569440521099267
2.26975e-06;0.007544740534102291
2.27000e-06;0.0075200405471053154
2.27025e-06;0.007495340560108381
2.27050e-06;0.007470640573111406
2.27075e-06;0.00744594058611443
2.27100e-06;0.007421240599117496
2.27125e-06;0.007382892540786272
2.27150e-06;0.0073440449595568455
2.27175e-06;0.007305197378327418
2.27200e-06;0.007266349797098058
2.27225e-06;0.007227502215868631
2.27250e-06;0.007188654634639204
2.27275e-06;0.007149807053409844
2.27300e-06;0.007110959472180417
2.27325e-06;0.007072111890950991
2.27350e-06;0.0070332643097215635
2.27375e-06;0.006994416728492203
2.27400e-06;0.006954885320486279
2.27425e-06;0.006915328884245599
2.27450e-06;0.006875772448004986
2.27475e-06;0.0068362160117643065
2.27500e-06;0.006796659575523627
2.27525e-06;0.006757103139283014
2.27550e-06;0.006717546703042334
2.27575e-06;0.0066779902668016545
2.27600e-06;0.006638433830560975
2.27625e-06;0.006598877394320362
2.27650e-06;0.00657897355761055
2.27675e-06;0.0065597890110653985
2.27700e-06;0.00654060446452028
2.27725e-06;0.006521419917975129
2.27750e-06;0.006502235371429978
2.27775e-06;0.006483050824884827
2.27800e-06;0.0064638662783397085
2.27825e-06;0.006444681731794557
2.27850e-06;0.006425497185249406
2.27875e-06;0.006406312638704287
2.27900e-06;0.006422966250095964
2.27925e-06;0.006440931547225988
2.27950e-06;0.006458896844355981
2.27975e-06;0.006476862141486005
2.28000e-06;0.00649482743861603
2.28025e-06;0.006512792735746053
2.28050e-06;0.006530758032876047
2.28075e-06;0.00654872333000607
2.28100e-06;0.006566688627136095
2.28125e-06;0.006584653924266088
2.28150e-06;0.006602619221396112
2.28175e-06;0.006647663606388116
2.28200e-06;0.0066936990929155876
2.28225e-06;0.006739734579442981
2.28250e-06;0.006785770065970453
2.28275e-06;0.006831805552497925
2.28300e-06;0.0068778410390253186
2.28325e-06;0.00692387652555279
2.28350e-06;0.006969912012080262
2.28375e-06;0.007015947498607655
2.28400e-06;0.007061982985135127
2.28425e-06;0.0071080184716625985
2.28450e-06;0.007155388934864587
2.28475e-06;0.007202808258553923
2.28500e-06;0.00725022758224334
2.28525e-06;0.007297646905932756
2.28550e-06;0.007345066229622093
2.28575e-06;0.007392485553311509
2.28600e-06;0.0074399048770009265
2.28625e-06;0.007487324200690343
2.28650e-06;0.007534743524379679
2.28675e-06;0.0075554231434448215
2.28700e-06;0.007575124082487526
2.28725e-06;0.007594825021530197
2.28750e-06;0.007614525960572901
2.28775e-06;0.007634226899615606
2.28800e-06;0.007653927838658277
2.28825e-06;0.007673628777700981
2.28850e-06;0.007693329716743686
2.28875e-06;0.00771303065578639
2.28900e-06;0.007688329868152281
2.28925e-06;0.007662003965975048
2.28950e-06;0.007635678063797815
2.28975e-06;0.007609352161620626
2.29000e-06;0.0075830262594433935
2.29025e-06;0.007556700357266161
2.29050e-06;0.007530374455088928
2.29075e-06;0.00750404855291174
2.29100e-06;0.007477722650734507
2.29125e-06;0.007414825371000799
2.29150e-06;0.007350589569502813
2.29175e-06;0.007286353768004718
2.29200e-06;0.007222117966506623
2.29225e-06;0.007157882165008636
2.29250e-06;0.0070936463635105414
2.29275e-06;0.007029410562012446
2.29300e-06;0.0069651747605143505
2.29325e-06;0.006900938959016364
2.29350e-06;0.006823975789247319
2.29375e-06;0.006746546794547006
2.29400e-06;0.006669476108734264
2.29425e-06;0.0065924185371182414
2.29450e-06;0.006515360965502218
2.29475e-06;0.006438303393886194
2.29500e-06;0.0063612458222703
2.29525e-06;0.006284188250654276
2.29550e-06;0.006207130679038253
2.29575e-06;0.006130073107422359
2.29600e-06;0.006073935530192408
2.29625e-06;0.006018563630103323
2.29650e-06;0.005963191730014332
2.29675e-06;0.0059078198299252465
2.29700e-06;0.005852447929836161
2.29725e-06;0.005797076029747076
2.29750e-06;0.005741704129658085
2.29775e-06;0.005686332229569
2.29800e-06;0.005672034056348973
2.29825e-06;0.00565923919202937
2.29850e-06;0.005646444327709744
2.29875e-06;0.00563364946339012
2.29900e-06;0.005620854599070495
2.29925e-06;0.0056080597347508915
2.29950e-06;0.005595264870431267
2.29975e-06;0.005582470006111642
2.30000e-06;0.005569675141792039
2.30025e-06;0.005556880277472414
2.30050e-06;0.005563323701296472
2.30075e-06;0.0055919289193861925
2.30100e-06;0.005620534137475962
2.30125e-06;0.005649139355565731
2.30150e-06;0.0056777445736555
2.30175e-06;0.005706349791745221
2.30200e-06;0.0057349550098349895
2.30225e-06;0.005763560227924759
2.30250e-06;0.00579216544601448
2.30275e-06;0.0058207706641042484
2.30300e-06;0.005849375882194018
2.30325e-06;0.005889924847517775
2.30350e-06;0.005930910957042671
2.30375e-06;0.005971897066567636
2.30400e-06;0.005991072305514962
2.30425e-06;0.005013018712872073
2.30450e-06;0.00034719104064094303
2.30475e-06;-0.003502718280940709
2.30500e-06;-0.003691999645855019
2.30525e-06;-0.0018036712765247666
2.30550e-06;0.0019037106146178886
2.30575e-06;0.005309943425594938
2.30600e-06;0.006386356291124183
2.30625e-06;0.005560708270164238
2.30650e-06;0.002971429705965067
2.30675e-06;0.0005087396802746783
2.30700e-06;9.116884815286332e-05
2.30725e-06;0.0014049536265301182
2.30750e-06;0.003601938937348793
2.30775e-06;0.0056583597872172185
2.30800e-06;0.006529042462580476
2.30825e-06;0.006023798325190583
2.30850e-06;0.004529587802643551
2.30875e-06;0.0030699447502940446
2.30900e-06;0.0029770633811705208
2.30925e-06;0.003932623183975572
2.30950e-06;0.005518267916375014
2.30975e-06;0.006851480846906765
2.31000e-06;0.0074845730315332435
2.31025e-06;0.007152872540348838
2.31050e-06;0.00618735210799545
2.31075e-06;0.005341830397217997
2.31100e-06;0.00511339171066471
2.31125e-06;0.005702757993991685
2.31150e-06;0.006726092487855683
2.31175e-06;0.007595341290062015
2.31200e-06;0.00802613467253043
2.31225e-06;0.007852566249731322
2.31250e-06;0.007281835329950266
2.31275e-06;0.006785980267702893
2.31300e-06;0.006676184813790356
2.31325e-06;0.007077970194510286
2.31350e-06;0.007750695451508042
2.31375e-06;0.008325825729359798
2.31400e-06;0.00862507711321338
2.31425e-06;0.008544383518299828
2.31450e-06;0.008213390684726513
2.31475e-06;0.007927617595565836
2.31500e-06;0.007881802661707368
2.31525e-06;0.008154372841448545
2.31550e-06;0.008594394374735031
2.31575e-06;0.008970836386512986
2.31600e-06;0.009171858177884865
2.31625e-06;0.009132117176237381
2.31650e-06;0.008932664793920577
2.31675e-06;0.008758442971140182
2.31700e-06;0.00873131928904025
2.31725e-06;0.008900635798086653
2.31750e-06;0.009172403200455119
2.31775e-06;0.009402340045662289
2.31800e-06;0.009520571188635989
2.31825e-06;0.00948628537712491
2.31850e-06;0.009350369760207313
2.31875e-06;0.009228778790348821
2.31900e-06;0.009197948861881564
2.31925e-06;0.009288880886501314
2.31950e-06;0.009442794310950254
2.31975e-06;0.009569414263843695
2.32000e-06;0.009625078691900404
2.32025e-06;0.009584334199235161
2.32050e-06;0.009479165683626323
2.32075e-06;0.009382313516092611
2.32100e-06;0.009341757234707516
2.32125e-06;0.009377011723770833
2.32150e-06;0.009451356223030971
2.32175e-06;0.009508344320347351
2.32200e-06;0.009520731696659766
2.32225e-06;0.009472681300410117
2.32250e-06;0.009384337016246445
2.32275e-06;0.009301367262747329
2.32300e-06;0.009253927489930936
2.32325e-06;0.009254342132259999
2.32350e-06;0.009279706683761
2.32375e-06;0.009294766139263468
2.32400e-06;0.009282559433759672
2.32425e-06;0.00923327211306191
2.32450e-06;0.00915962839824301
2.32475e-06;0.009090338129321552
2.32500e-06;0.009044392307955531
2.32525e-06;0.009035139962996147
2.32550e-06;0.009032976966316605
2.32575e-06;0.009028822391655955
2.32600e-06;0.009010312151830516
2.32625e-06;0.008965457944764759
2.32650e-06;0.00891543800626598
2.32675e-06;0.008874781951536823
2.32700e-06;0.00883620610483493
2.32725e-06;0.008825380136828792
2.32750e-06;0.008820718867342836
2.32775e-06;0.008808348091664057
2.32800e-06;0.008794264631690732
2.32825e-06;0.008759033562632655
2.32850e-06;0.008719104504229845
2.32875e-06;0.00868779825074211
2.32900e-06;0.008658407572932394
2.32925e-06;0.008629016895122679
2.32950e-06;0.008612215032406903
2.32975e-06;0.008586404106211058
2.33000e-06;0.008557970517567189
2.33025e-06;0.00852953692892332
2.33050e-06;0.008488286930788435
2.33075e-06;0.008451005377561303
2.33100e-06;0.008415237934083195
2.33125e-06;0.008379470490605088
2.33150e-06;0.008349597005380278
2.33175e-06;0.008321032876355534
2.33200e-06;0.008282076497582454
2.33225e-06;0.00824081145694646
2.33250e-06;0.008199546416310398
2.33275e-06;0.008160147598928863
2.33300e-06;0.0081211633672781
2.33325e-06;0.00808217913562727
2.33350e-06;0.00804319490397644
2.33375e-06;0.008003720112415404
2.33400e-06;0.007964136341857232
2.33425e-06;0.007924552571298994
2.33450e-06;0.007884968800740756
2.33475e-06;0.007847867379750208
2.33500e-06;0.007811317418348845
2.33525e-06;0.007774767456947482
2.33550e-06;0.0077382174955461175
2.33575e-06;0.007703087459701477
2.33600e-06;0.007670999464755109
2.33625e-06;0.007638911469808741
2.33650e-06;0.007606823474862428
2.33675e-06;0.00757473547991606
2.33700e-06;0.00755607387638692
2.33725e-06;0.007540394976177604
2.33750e-06;0.007524716075968261
2.33775e-06;0.007509037175758918
2.33800e-06;0.007493358275549576
2.33825e-06;0.00747767937534026
2.33850e-06;0.007462000475130917
2.33875e-06;0.007446321574921574
2.33900e-06;0.007430642674712259
2.33925e-06;0.007414963774502916
2.33950e-06;0.007399284874293573
2.33975e-06;0.007383605974084231
2.34000e-06;0.007367927073874915
2.34025e-06;0.007352248173665572
2.34050e-06;0.007336569273456229
2.34075e-06;0.0073208903732469134
2.34100e-06;0.007309912756449004
2.34125e-06;0.007309007144021828
2.34150e-06;0.007308101531594652
2.34175e-06;0.007307195919167475
2.34200e-06;0.007306290306740298
2.34225e-06;0.007305384694313121
2.34250e-06;0.007304479081885946
2.34275e-06;0.007303573469458769
2.34300e-06;0.007302667857031591
2.34325e-06;0.007301762244604416
2.34350e-06;0.007300856632177239
2.34375e-06;0.007299951019750062
2.34400e-06;0.007299045407322885
2.34425e-06;0.0072981397948957095
2.34450e-06;0.007297234182468533
2.34475e-06;0.007296328570041356
2.34500e-06;0.00729542295761418
2.34525e-06;0.007295218229707256
2.34550e-06;0.0072951692048869275
2.34575e-06;0.0072951201800666
2.34600e-06;0.007295071155246273
2.34625e-06;0.007295022130425944
2.34650e-06;0.007294973105605617
2.34675e-06;0.007294924080785289
2.34700e-06;0.007294875055964961
2.34725e-06;0.007294826031144634
2.34750e-06;0.007294777006324306
2.34775e-06;0.007294727981503978
2.34800e-06;0.0072946789566836505
2.34825e-06;0.007290515911693
2.34850e-06;0.007277539011949939
2.34875e-06;0.007264562112206856
2.34900e-06;0.007251585212463774
2.34925e-06;0.007238608312720713
2.34950e-06;0.00722563141297763
2.34975e-06;0.007212654513234547
2.35000e-06;0.007199677613491487
2.35025e-06;0.007186700713748403
2.35050e-06;0.0071737238140053205
2.35075e-06;0.007160746914262238
2.35100e-06;0.007147770014519177
2.35125e-06;0.007134793114776094
2.35150e-06;0.007111746628605234
2.35175e-06;0.007086463160959831
2.35200e-06;0.007061179693314384
2.35225e-06;0.007035896225668938
2.35250e-06;0.0070106127580234915
2.35275e-06;0.006985329290378088
2.35300e-06;0.006960045822732641
2.35325e-06;0.006934762355087195
2.35350e-06;0.006909478887441791
2.35375e-06;0.0068841954197963445
2.35400e-06;0.006858911952150899
2.35425e-06;0.006833628484505494
2.35450e-06;0.006809834731414497
2.35475e-06;0.00678637192179221
2.35500e-06;0.006762909112169922
2.35525e-06;0.006739446302547674
2.35550e-06;0.006715983492925386
2.35575e-06;0.0066925206833030985
2.35600e-06;0.006669057873680851
2.35625e-06;0.006645595064058563
2.35650e-06;0.006622132254436275
2.35675e-06;0.0065986694448139874
2.35700e-06;0.00657520663519174
2.35725e-06;0.006551743825569452
2.35750e-06;0.006533152537804776
2.35775e-06;0.006515643469675221
2.35800e-06;0.006498134401545637
2.35825e-06;0.006480625333416053
2.35850e-06;0.006463116265286498
2.35875e-06;0.006445607197156914
2.35900e-06;0.00642809812902733
2.35925e-06;0.006410589060897746
2.35950e-06;0.006393079992768192
2.35975e-06;0.0063755709246386075
2.36000e-06;0.006358061856509023
2.36025e-06;0.006340552788379469
2.36050e-06;0.0063230437202498845
2.36075e-06;0.0063055346521203
2.36100e-06;0.006288025583990716
2.36125e-06;0.006270516515861161
2.36150e-06;0.00625266272223353
2.36175e-06;0.006234732347054254
2.36200e-06;0.0062168019718750085
2.36225e-06;0.006198871596695733
2.36250e-06;0.006180941221516457
2.36275e-06;0.006163010846337211
2.36300e-06;0.006145080471157935
2.36325e-06;0.0061271500959786595
2.36350e-06;0.006109219720799384
2.36375e-06;0.006091289345620138
2.36400e-06;0.006073358970440862
2.36425e-06;0.006055428595261586
2.36450e-06;0.006037498220082341
2.36475e-06;0.006019567844903065
2.36500e-06;0.006001637469723789
2.36525e-06;0.005983707094544513
2.36550e-06;0.00597251225084888
2.36575e-06;0.005962813720756692
2.36600e-06;0.005953115190664503
2.36625e-06;0.005943416660572332
2.36650e-06;0.005933718130480143
2.36675e-06;0.0059240196003879555
2.36700e-06;0.005914321070295783
2.36725e-06;0.005904622540203595
2.36750e-06;0.005894924010111407
2.36775e-06;0.005885225480019219
2.36800e-06;0.005875526949927047
2.36825e-06;0.005865828419834859
2.36850e-06;0.00585612988974267
2.36875e-06;0.005846431359650499
2.36900e-06;0.00583673282955831
2.36925e-06;0.005827034299466122
2.36950e-06;0.005817335769373933
2.36975e-06;0.005807637239281762
2.37000e-06;0.005797938709189573
2.37025e-06;0.005788240179097385
2.37050e-06;0.005778541649005213
2.37075e-06;0.005768843118913025
2.37100e-06;0.005759144588820837
2.37125e-06;0.0057556171160313896
2.37150e-06;0.005753460557625296
2.37175e-06;0.005751303999219202
2.37200e-06;0.005749147440813108
2.37225e-06;0.005746990882407018
2.37250e-06;0.005744834324000924
2.37275e-06;0.0057426777655948304
2.37300e-06;0.00574052120718874
2.37325e-06;0.005738364648782647
2.37350e-06;0.005736208090376552
2.37375e-06;0.0057340515319704586
2.37400e-06;0.005731894973564368
2.37425e-06;0.005729738415158275
2.37450e-06;0.00572758185675218
2.37475e-06;0.00572542529834609
2.37500e-06;0.0057232687399399965
2.37525e-06;0.005721112181533903
2.37550e-06;0.005718955623127813
2.37575e-06;0.005716799064721719
2.37600e-06;0.005714642506315625
2.37625e-06;0.005712485947909531
2.37650e-06;0.005710329389503441
2.37675e-06;0.005708172831097347
2.37700e-06;0.005712745808218437
2.37725e-06;0.005718813766927869
2.37750e-06;0.005724881725637311
2.37775e-06;0.005730949684346754
2.37800e-06;0.005737017643056196
2.37825e-06;0.005743085601765628
2.37850e-06;0.00574915356047507
2.37875e-06;0.005755221519184513
2.37900e-06;0.005761289477893945
2.37925e-06;0.005773658790095855
2.37950e-06;0.005799528088233978
2.37975e-06;0.005825397386372058
2.38000e-06;0.005851266684510182
2.38025e-06;0.005877135982648305
2.38050e-06;0.005903005280786429
2.38075e-06;0.005928874578924508
2.38100e-06;0.005954743877062632
2.38125e-06;0.005980613175200755
2.38150e-06;0.006006482473338835
2.38175e-06;0.006045263577029915
2.38200e-06;0.006086913067624778
2.38225e-06;0.006128562558219643
2.38250e-06;0.0061702120488144364
2.38275e-06;0.0062118615394093
2.38300e-06;0.006253511030004164
2.38325e-06;0.006295160520598957
2.38350e-06;0.006336810011193821
2.38375e-06;0.006378459501788685
2.38400e-06;0.006420108992383478
2.38425e-06;0.006460822285110189
2.38450e-06;0.006501327599356009
2.38475e-06;0.006541832913601829
2.38500e-06;0.00658233822784758
2.38525e-06;0.0066228435420934
2.38550e-06;0.00666334885633922
2.38575e-06;0.006703854170584972
2.38600e-06;0.006744359484830792
2.38625e-06;0.006784864799076612
2.38650e-06;0.006825370113322432
2.38675e-06;0.006846804029958187
2.38700e-06;0.006864001192336774
2.38725e-06;0.00688119835471536
2.38750e-06;0.006898395517093918
2.38775e-06;0.006915592679472504
2.38800e-06;0.006932789841851091
2.38825e-06;0.006949987004229648
2.38850e-06;0.006967184166608235
2.38875e-06;0.006953786488578578
2.38900e-06;0.0069335920973242334
2.38925e-06;0.006913397706069923
2.38950e-06;0.0068932033148155795
2.38975e-06;0.006873008923561235
2.39000e-06;0.006852814532306925
2.39025e-06;0.00683262014105258
2.39050e-06;0.006812425749798237
2.39075e-06;0.006763581519540354
2.39100e-06;0.006708372662533462
2.39125e-06;0.00665316380552657
2.39150e-06;0.006597954948519678
2.39175e-06;0.00654274609151288
2.39200e-06;0.006487537234505988
2.39225e-06;0.006432328377499096
2.39250e-06;0.006377119520492297
2.39275e-06;0.006316098046451481
2.39300e-06;0.0062426236528417955
2.39325e-06;0.006169149259232111
2.39350e-06;0.006095674865622551
2.39375e-06;0.006022200472012866
2.39400e-06;0.005948726078403181
2.39425e-06;0.005875251684793621
2.39450e-06;0.0058017772911839365
2.39475e-06;0.005728302897574251
2.39500e-06;0.005659437811173267
2.39525e-06;0.005591596692828382
2.39550e-06;0.005523755574483497
2.39575e-06;0.005455914456138612
2.39600e-06;0.005388073337793842
2.39625e-06;0.005320232219448957
2.39650e-06;0.005259188017526755
2.39675e-06;0.005212705492907175
2.39700e-06;0.005166222968287516
2.39725e-06;0.005119740443667857
2.39750e-06;0.005073257919048199
2.39775e-06;0.005026775394428619
2.39800e-06;0.00498029286980896
2.39825e-06;0.00495755438272933
2.39850e-06;0.004940090687471452
2.39875e-06;0.004922626992213544
2.39900e-06;0.004905163296955637
2.39925e-06;0.004887699601697759
2.39950e-06;0.004870235906439852
2.39975e-06;0.004852772211181944
2.40000e-06;0.004835308515924036
2.40025e-06;0.004817844820666158
2.40050e-06;0.004800381125408251
2.40075e-06;0.0047829174301503435
2.40100e-06;0.00478717848143032
2.40125e-06;0.0047962657344536
