Time(s);Current(A)
0.00000e+00;-2.490707669314831e-21
2.50000e-10;-4.02793606381621e-15
5.00000e-10;-1.831016665601118e-15
7.50000e-10;-2.2163509592100533e-07
1.00000e-09;-1.686974552365272e-06
1.25000e-09;-5.595274637319276e-06
1.50000e-09;-1.1968756260342301e-05
1.75000e-09;-2.0207818793413687e-05
2.00000e-09;-3.0036720054055428e-05
2.25000e-09;-4.1349967001512e-05
2.50000e-09;-5.404207652787467e-05
2.75000e-09;-6.814638960817932e-05
3.00000e-09;-8.419761264054595e-05
3.25000e-09;-0.00010284137984438565
3.50000e-09;-0.0001239860070035166
3.75000e-09;-0.00014715032204181146
4.00000e-09;-0.0001720560247991718
4.25000e-09;-0.0001985315110352862
4.50000e-09;-0.00022640516902666368
4.75000e-09;-0.00025559235663228654
5.00000e-09;-0.0002863225043021403
5.25000e-09;-0.00031943445588328723
5.50000e-09;-0.0003533885997567031
5.75000e-09;-0.0003889867973304123
6.00000e-09;-0.0004253261165250795
6.25000e-09;-0.0004630668542729894
6.50000e-09;-0.0005014393363426539
6.75000e-09;-0.0005398118184123185
7.00000e-09;-0.0005781843004819831
7.25000e-09;-0.0006167016926800383
7.50000e-09;-0.0006558397607111441
7.75000e-09;-0.0006949778287422497
8.00000e-09;-0.0007341158967733555
8.25000e-09;-0.0007732539648044614
8.50000e-09;-0.0008105696574424393
8.75000e-09;-0.000847063842969605
9.00000e-09;-0.0008835580284967707
9.25000e-09;-0.0009174132705170155
9.50000e-09;-0.0009500789053552588
9.75000e-09;-0.0009827445401935021
1.00000e-08;-0.0010112098144891165
1.02500e-08;-0.0010377816116961143
1.05000e-08;-0.0010643534089031122
1.07500e-08;-0.001086713584834097
1.10000e-08;-0.0011071752074596863
1.12500e-08;-0.0011276368300852757
1.15000e-08;-0.0011443582308770426
1.17500e-08;-0.0011593935801318493
1.20000e-08;-0.0011744289293866563
1.22500e-08;-0.0011851738857269316
1.25000e-08;-0.0011939847793594031
1.27500e-08;-0.0012027956729918747
1.30000e-08;-0.0012080579644911512
1.32500e-08;-0.001211720584541363
1.35000e-08;-0.0012153832045915746
1.37500e-08;-0.001215735570240625
1.40000e-08;-0.0012145957090195102
1.42500e-08;-0.0012134558477983955
1.45000e-08;-0.0012075016031184685
1.47500e-08;-0.001199377086462467
1.50000e-08;-0.0011912525698064655
1.52500e-08;-0.0011831280531504642
1.55000e-08;-0.0011750035364944628
1.57500e-08;-0.0011668790198384612
1.60000e-08;-0.0011587545031824598
1.62500e-08;-0.001149559662646018
1.65000e-08;-0.0011357804347137236
1.67500e-08;-0.0011220012067814295
1.70000e-08;-0.0011082219788491352
1.72500e-08;-0.0010944427509168408
1.75000e-08;-0.0010806635229845467
1.77500e-08;-0.0010668842950522523
1.80000e-08;-0.001053105067119958
1.82500e-08;-0.001039292901446988
1.85000e-08;-0.0010254658877968774
1.87500e-08;-0.0010116388741467663
1.90000e-08;-0.0009978118604966556
1.92500e-08;-0.0009839848468465447
1.95000e-08;-0.0009701578331964338
1.97500e-08;-0.000956330819546323
2.00000e-08;-0.0009462305087362401
2.02500e-08;-0.0009378101552469774
2.05000e-08;-0.0009293898017577147
2.07500e-08;-0.0009209694482684519
2.10000e-08;-0.0009125490947791891
2.12500e-08;-0.0009041287412899264
2.15000e-08;-0.0008957083878006636
2.17500e-08;-0.0008912230549874105
2.20000e-08;-0.000888511586921632
2.22500e-08;-0.0008858001188558536
2.25000e-08;-0.000885587303212436
2.27500e-08;-0.0008865008530479192
2.30000e-08;-0.0008874144028834025
2.32500e-08;-0.0008925253141885209
2.35000e-08;-0.0008995283506325963
2.37500e-08;-0.0009065313870766717
2.40000e-08;-0.0009135344235207471
2.42500e-08;-0.0009205374599648227
2.45000e-08;-0.0009275404964088981
2.47500e-08;-0.0009345435328529735
2.50000e-08;-0.0009415465692970489
2.52500e-08;-0.0009529022536602926
2.55000e-08;-0.0009662200646138873
2.57500e-08;-0.0009795378755674822
2.60000e-08;-0.000992855686521077
2.62500e-08;-0.0010061734974746717
2.65000e-08;-0.0010194913084282666
2.67500e-08;-0.0010328091193818614
2.70000e-08;-0.0010461269303354561
2.72500e-08;-0.0010606789106944767
2.75000e-08;-0.0010757872412688954
2.77500e-08;-0.0010908955718433142
2.80000e-08;-0.0011060039024177331
2.82500e-08;-0.001121112232992152
2.85000e-08;-0.0011362205635665709
2.87500e-08;-0.0011513288941409898
2.90000e-08;-0.0011643378564243595
2.92500e-08;-0.0011764004461953408
2.95000e-08;-0.0011884630359663222
2.97500e-08;-0.0012005256257373036
3.00000e-08;-0.001212588215508285
3.02500e-08;-0.001224650805279266
3.05000e-08;-0.0012367133950502473
3.07500e-08;-0.0012447079827935944
3.10000e-08;-0.0012508687592348905
3.12500e-08;-0.0012570295356761866
3.15000e-08;-0.0012596244845393943
3.17500e-08;-0.0012606119969093448
3.20000e-08;-0.0012615995092792954
3.22500e-08;-0.0012590195892160437
3.25000e-08;-0.0012548315092082124
3.27500e-08;-0.0012506434292003812
3.30000e-08;-0.001242594415506558
3.32500e-08;-0.0012328049346788093
3.35000e-08;-0.0012230154538510605
3.37500e-08;-0.0012097232429987938
3.40000e-08;-0.001194852039347763
3.42500e-08;-0.001179980835696732
3.45000e-08;-0.0011604918754354698
3.47500e-08;-0.001138921280454157
3.50000e-08;-0.0011173506854728443
3.52500e-08;-0.0010957800904915316
3.55000e-08;-0.001074209495510219
3.57500e-08;-0.0010526389005289063
3.60000e-08;-0.0010300078479655948
3.62500e-08;-0.0010028346671160883
3.65000e-08;-0.000975661486266582
3.67500e-08;-0.0009484883054170756
3.70000e-08;-0.0009213151245675692
3.72500e-08;-0.0008941419437180629
3.75000e-08;-0.0008669687628685557
3.77500e-08;-0.0008392450107533147
3.80000e-08;-0.0008112730670681507
3.82500e-08;-0.0007833011233829866
3.85000e-08;-0.0007563105084787361
3.87500e-08;-0.0007297622659718546
3.90000e-08;-0.0007032140234649723
3.92500e-08;-0.000678610276909543
3.95000e-08;-0.0006548830880913863
3.97500e-08;-0.0006311558992732296
4.00000e-08;-0.0006098805679770652
4.02500e-08;-0.0005897105075249913
4.05000e-08;-0.0005723252719097139
4.07500e-08;-0.0005561954052016438
4.10000e-08;-0.0005427845642706913
4.12500e-08;-0.0005325171924827364
4.15000e-08;-0.0005250257896224613
4.17500e-08;-0.0005203012973298585
4.20000e-08;-0.000518334693417486
4.22500e-08;-0.000519119082130929
4.25000e-08;-0.0005227036129405666
4.27500e-08;-0.0005292200826889062
4.30000e-08;-0.0005387576627534607
4.32500e-08;-0.0005512730938305524
4.35000e-08;-0.0005675770581836272
4.37500e-08;-0.0005851756205918658
4.40000e-08;-0.000606306589470442
4.42500e-08;-0.0006290299289684851
4.45000e-08;-0.0006550207334182114
4.47500e-08;-0.0006824844757172168
4.50000e-08;-0.0007130111241229213
4.52500e-08;-0.0007449184974637217
4.55000e-08;-0.0007799144345323577
4.57500e-08;-0.0008163026627141073
4.60000e-08;-0.0008526908908958569
4.62500e-08;-0.000892252366997677
4.65000e-08;-0.000933244308930267
4.67500e-08;-0.0009742362508628557
4.70000e-08;-0.0010152281927954445
4.72500e-08;-0.0010562201347280333
4.75000e-08;-0.0010980753202022382
4.77500e-08;-0.001140319646525509
4.80000e-08;-0.0011825639728487809
4.82500e-08;-0.0012248082991720517
4.85000e-08;-0.0012670526254953225
4.87500e-08;-0.0013071415511575583
4.90000e-08;-0.0013462588455212358
4.92500e-08;-0.0013853761398849133
4.95000e-08;-0.0014209442971636881
4.97500e-08;-0.0014549125418429612
5.00000e-08;-0.0014888807865222333
5.02500e-08;-0.001517585614631272
5.05000e-08;-0.0015439177514957356
5.07500e-08;-0.0015702498883601991
5.10000e-08;-0.0015901772089496732
5.12500e-08;-0.001607217307656555
5.15000e-08;-0.001624257406363436
5.17500e-08;-0.001634515601338677
5.20000e-08;-0.0016417165874856039
5.22500e-08;-0.0016489175736325308
5.25000e-08;-0.0016491148115758741
5.27500e-08;-0.0016461548356031023
5.30000e-08;-0.0016431948596303306
5.32500e-08;-0.0016335221491813377
5.35000e-08;-0.0016208234106560265
5.37500e-08;-0.0016081246721307155
5.40000e-08;-0.0015893181492644551
5.42500e-08;-0.0015677583032978571
5.45000e-08;-0.0015461984573312596
5.47500e-08;-0.0015192661983845935
5.50000e-08;-0.001489912113791039
5.52500e-08;-0.0014605580291974847
5.55000e-08;-0.001426919168682294
5.57500e-08;-0.0013913487775389314
5.60000e-08;-0.0013557783863955698
5.62500e-08;-0.0013175146337831229
5.65000e-08;-0.0012780367429600864
5.67500e-08;-0.0012370569885998674
5.70000e-08;-0.0011954002104058571
5.72500e-08;-0.001152896790896385
5.75000e-08;-0.001110011714641779
5.77500e-08;-0.0010669635048648212
5.80000e-08;-0.0010238417562609408
5.82500e-08;-0.0009812416256905312
5.85000e-08;-0.0009388766348861868
5.87500e-08;-0.0008977414846771787
5.90000e-08;-0.0008571607333028148
5.92500e-08;-0.0008192362444968147
5.95000e-08;-0.0007825091701183345
5.97500e-08;-0.0007457820957398544
6.00000e-08;-0.0007128400454004695
6.02500e-08;-0.0006816042429474598
6.05000e-08;-0.0006525011324556188
6.07500e-08;-0.0006236345836138276
6.10000e-08;-0.0005944412879822699
6.12500e-08;-0.0005629610336916961
6.15000e-08;-0.0005304498431804116
6.17500e-08;-0.00049641226493973
6.20000e-08;-0.00046168660762473834
6.22500e-08;-0.000426098210291421
6.25000e-08;-0.00039012089909189006
6.27500e-08;-0.00035256437033867757
6.30000e-08;-0.0003124588095667183
6.32500e-08;-0.0002697526247664636
6.35000e-08;-0.00022472043361590846
6.37500e-08;-0.00017771833052383722
6.40000e-08;-0.00012910231058278288
6.42500e-08;-7.921869404529195e-05
6.45000e-08;-2.8146068872342906e-05
6.47500e-08;2.450997176830594e-05
6.50000e-08;7.914729942137525e-05
6.52500e-08;0.0001357233733443144
6.55000e-08;0.00019391564785382036
6.57500e-08;0.0002536102044636655
6.60000e-08;0.0003137718528982523
6.62500e-08;0.00037455170155314363
6.65000e-08;0.0004356102281790004
6.67500e-08;0.0004970765685500435
6.70000e-08;0.0005590815402896117
6.72500e-08;0.0006214071351485835
6.75000e-08;0.0006837009302315453
6.77500e-08;0.0007455785402321144
6.80000e-08;0.0008066557222431228
6.82500e-08;0.0008665520369906886
6.85000e-08;0.0009249921200159696
6.87500e-08;0.0009818861956644657
6.90000e-08;0.001037145913943584
6.92500e-08;0.001090510045683575
6.95000e-08;0.00114160753716121
6.97500e-08;0.0011900474295532223
7.00000e-08;0.0012354387199661663
7.02500e-08;0.0012773880422941074
7.05000e-08;0.0013154441695556538
7.07500e-08;0.0013491029820556662
7.10000e-08;0.0013779903318323846
7.12500e-08;0.0014019480241775834
7.15000e-08;0.0014209230540602451
7.17500e-08;0.001434879143970152
7.20000e-08;0.0014437801689849692
7.22500e-08;0.001447588355257061
7.25000e-08;0.001446229862502392
7.27500e-08;0.0014377728818078357
7.30000e-08;0.0014268435785640791
7.32500e-08;0.0014088368642670092
7.35000e-08;0.0013876397296381177
7.37500e-08;0.0013598665808149445
7.40000e-08;0.0013291290359393542
7.42500e-08;0.0012923155497230445
7.45000e-08;0.0012527630948863798
7.47500e-08;0.0012075725433055085
7.50000e-08;0.001159840398711316
7.52500e-08;0.0011071691118965028
7.55000e-08;0.0010522713132055579
7.57500e-08;0.000993323963544444
7.60000e-08;0.0009325511201183507
7.62500e-08;0.0008680010562611605
7.65000e-08;0.000801748262299649
7.67500e-08;0.000735495468338134
7.70000e-08;0.0006665267513193963
7.72500e-08;0.0005963337255702196
7.75000e-08;0.0005261406998210465
7.77500e-08;0.00045550252738458825
7.80000e-08;0.0003846636876375766
7.82500e-08;0.00031478941095071025
7.85000e-08;0.00024534994885567693
7.87500e-08;0.00017732037705427055
7.90000e-08;0.00011124912523479514
7.92500e-08;4.741283024123446e-05
7.95000e-08;-1.3724511152167731e-05
7.97500e-08;-7.169639148985262e-05
8.00000e-08;-0.00012603636378469494
8.02500e-08;-0.00017630365174182942
8.05000e-08;-0.00022277563812208694
8.07500e-08;-0.00026701861178996173
8.10000e-08;-0.0003106611638298936
8.12500e-08;-0.0003541994442367648
8.15000e-08;-0.0003967408981917443
8.17500e-08;-0.00043884490524710414
8.20000e-08;-0.0004809489123024662
8.22500e-08;-0.000520652417199491
8.25000e-08;-0.0005592738016947395
8.27500e-08;-0.0005978951861899879
8.30000e-08;-0.0006371951346330038
8.32500e-08;-0.0006768009723622461
8.35000e-08;-0.0007164068100914863
8.37500e-08;-0.0007560126478207287
8.40000e-08;-0.0007956065253901861
8.42500e-08;-0.0008351491754697454
8.45000e-08;-0.0008746918255493068
8.47500e-08;-0.000914234475628866
8.50000e-08;-0.0009537771257084274
8.52500e-08;-0.0009938991233894088
8.55000e-08;-0.0010342822847011117
8.57500e-08;-0.0010746654460128148
8.60000e-08;-0.0011150486073245158
8.62500e-08;-0.0011554317686362189
8.65000e-08;-0.0011958149299479198
8.67500e-08;-0.0012361980912596229
8.70000e-08;-0.0012747577474111497
8.72500e-08;-0.001312495387165094
8.75000e-08;-0.00135023302691904
8.77500e-08;-0.0013879706666729845
8.80000e-08;-0.0014257083064269306
8.82500e-08;-0.0014634459461808748
8.85000e-08;-0.0015011835859348212
8.87500e-08;-0.0015351515929744456
8.90000e-08;-0.0015674202903703646
8.92500e-08;-0.0015996889877662854
8.95000e-08;-0.0016319576851622044
8.97500e-08;-0.0016594764326947778
9.00000e-08;-0.0016848539542189834
9.02500e-08;-0.0017102314757431879
9.05000e-08;-0.0017356089972673937
9.07500e-08;-0.0017541331254515443
9.10000e-08;-0.0017695678180653252
9.12500e-08;-0.0017784592355291667
9.15000e-08;-0.0017844010153475528
9.17500e-08;-0.0017839535058642002
9.20000e-08;-0.0017806257738897774
9.22500e-08;-0.0017710285550478853
9.25000e-08;-0.0017586051193561416
9.27500e-08;-0.001739179259466307
9.30000e-08;-0.0017165967825076745
9.32500e-08;-0.0016868590590227107
9.35000e-08;-0.0016538958278167705
9.37500e-08;-0.0016145007385271924
9.40000e-08;-0.0015722062372002142
9.42500e-08;-0.0015241813599599836
9.45000e-08;-0.0014735732912553785
9.47500e-08;-0.001417402313268678
9.50000e-08;-0.0013587236359631019
9.52500e-08;-0.0012950130558113141
9.55000e-08;-0.001229034148296954
9.57500e-08;-0.00115995277499734
9.60000e-08;-0.0010877728206651273
9.62500e-08;-0.0010133998783933844
9.65000e-08;-0.0009371639335749539
9.67500e-08;-0.0008592846875308245
9.70000e-08;-0.0007800082583652989
9.72500e-08;-0.0006997179484465201
9.75000e-08;-0.0006188776376476423
9.77500e-08;-0.0005379653052449964
9.80000e-08;-0.00045745891440303625
9.82500e-08;-0.0003778347522314742
9.85000e-08;-0.00029952641937629464
9.87500e-08;-0.00022289848465603993
9.90000e-08;-0.00014833199630061362
9.92500e-08;-7.62939402709158e-05
9.95000e-08;-7.3017155457227544e-06
9.97500e-08;5.8118475708743076e-05
1.00000e-07;0.00011944048501235987
1.00250e-07;0.00017614293861533631
1.00500e-07;0.0002278520031113892
1.00750e-07;0.0002745098493560798
1.01000e-07;0.0003162067227362336
1.01250e-07;0.0003529256389088762
1.01500e-07;0.00038454568277240873
1.01750e-07;0.00041092414015982224
1.02000e-07;0.00043191831499038446
1.02250e-07;0.0004473885804687746
1.02500e-07;0.0004572877288066696
1.02750e-07;0.00046176646457941857
1.03000e-07;0.0004610683166083337
1.03250e-07;0.000455369545604326
1.03500e-07;0.0004447813446645135
1.03750e-07;0.00042940126982858704
1.04000e-07;0.0004093268570755503
1.04250e-07;0.0003846575792280879
1.04500e-07;0.00035555077871085713
1.04750e-07;0.00032228778688933764
1.05000e-07;0.00028520804827649463
1.05250e-07;0.0002446088527153125
1.05500e-07;0.00020074671513160115
1.05750e-07;0.00015386958010016563
1.06000e-07;0.00010422538816783416
1.06250e-07;5.2063258200118756e-05
1.06500e-07;-2.331445234259395e-06
1.06750e-07;-5.859570686326699e-05
1.07000e-07;-0.00011633015600593398
1.07250e-07;-0.00017538364677531718
1.07500e-07;-0.00023484336902694536
1.07750e-07;-0.00029462613189580903
1.08000e-07;-0.0003545545179799204
1.08250e-07;-0.0004144829040640349
1.08500e-07;-0.00047329264260809016
1.08750e-07;-0.0005315981069438044
1.09000e-07;-0.0005876669348586897
1.09250e-07;-0.0006427275112733762
1.09500e-07;-0.0006944222250572143
1.09750e-07;-0.0007445996443825511
1.10000e-07;-0.0007903059975420041
1.10250e-07;-0.0008339968424466355
1.10500e-07;-0.0008736300118020931
1.10750e-07;-0.0009083751309513441
1.11000e-07;-0.0009369084731031159
1.11250e-07;-0.0009632632139425674
1.11500e-07;-0.0009830204957113034
1.11750e-07;-0.0009998037143092962
1.12000e-07;-0.0010098329202201913
1.12250e-07;-0.0010168174902838417
1.12500e-07;-0.0010168845731063313
1.12750e-07;-0.0010138333275212475
1.13000e-07;-0.001003914947024208
1.13250e-07;-0.0009909009364048355
1.13500e-07;-0.0009714082059325043
1.13750e-07;-0.0009489949386441473
1.14000e-07;-0.0009205406757352094
1.14250e-07;-0.0008893631973584334
1.14500e-07;-0.0008525781345453332
1.14750e-07;-0.000813265233337158
1.15000e-07;-0.000768911963672055
1.15250e-07;-0.0007222865504386432
1.15500e-07;-0.0006713997453600095
1.15750e-07;-0.0006185919509418264
1.16000e-07;-0.0005623324642352188
1.16250e-07;-0.0005045169919890711
1.16500e-07;-0.0004446154187318008
1.16750e-07;-0.0003826561936992983
1.17000e-07;-0.0003193108702972269
1.17250e-07;-0.00025494164401063867
1.17500e-07;-0.0001899247211548029
1.17750e-07;-0.00012463819263195292
1.18000e-07;-5.946009939981124e-05
1.18250e-07;5.231689373324211e-06
1.18500e-07;6.906125435770548e-05
1.18750e-07;0.00013164864474910954
1.19000e-07;0.00019259433783252967
1.19250e-07;0.00025147750475180264
1.19500e-07;0.00030786861254119093
1.19750e-07;0.00036133694909219673
1.20000e-07;0.00041145186699996283
1.20250e-07;0.00045779767114160195
1.20500e-07;0.0005003822556074349
1.20750e-07;0.0005399923988038654
1.21000e-07;0.0005775003737508832
1.21250e-07;0.0006131558856985124
1.21500e-07;0.0006459877998621218
1.21750e-07;0.0006778060863778975
1.22000e-07;0.0007060727081619823
1.22250e-07;0.0007327382779107117
1.22500e-07;0.0007559224153996878
1.22750e-07;0.0007775371608918034
1.23000e-07;0.0007969819015413574
1.23250e-07;0.0008154484274853072
1.23500e-07;0.0008311780936996997
1.23750e-07;0.0008456740131582678
1.24000e-07;0.0008601699326168359
1.24250e-07;0.0008710045891132142
1.24500e-07;0.0008801887878776776
1.24750e-07;0.0008893729866421409
1.25000e-07;0.0008961939961296798
1.25250e-07;0.0009019497054586789
1.25500e-07;0.000907705414787678
1.25750e-07;0.0009101333232996151
1.26000e-07;0.000911061095206915
1.26250e-07;0.0009119888671142147
1.26500e-07;0.0009129166390215145
1.26750e-07;0.0009138444109288143
1.27000e-07;0.0009147721828361141
1.27250e-07;0.0009156999547434138
1.27500e-07;0.0009140964001424559
1.27750e-07;0.0009113517509381632
1.28000e-07;0.0009086071017338708
1.28250e-07;0.0009058624525295783
1.28500e-07;0.0009031178033252855
1.28750e-07;0.0009003731541209931
1.29000e-07;0.0008976285049167006
1.29250e-07;0.0008948103017635525
1.29500e-07;0.0008919589412860451
1.29750e-07;0.000889107580808538
1.30000e-07;0.0008862562203310307
1.30250e-07;0.0008834048598535233
1.30500e-07;0.0008802235098091609
1.30750e-07;0.000875628755804818
1.31000e-07;0.0008710340018004749
1.31250e-07;0.0008664392477961316
1.31500e-07;0.0008618444937917886
1.31750e-07;0.0008572497397874456
1.32000e-07;0.0008491753727933501
1.32250e-07;0.000839532433909641
1.32500e-07;0.0008298894950259319
1.32750e-07;0.0008202465561422219
1.33000e-07;0.0008106036172585129
1.33250e-07;0.0008009606783748038
1.33500e-07;0.0007913177394910947
1.33750e-07;0.0007774427862081826
1.34000e-07;0.0007616600866205607
1.34250e-07;0.0007458773870329389
1.34500e-07;0.0007300946874453153
1.34750e-07;0.0007143119878576935
1.35000e-07;0.0006985292882700717
1.35250e-07;0.0006827465886824498
1.35500e-07;0.0006641407703134185
1.35750e-07;0.0006442623205412444
1.36000e-07;0.0006243838707690703
1.36250e-07;0.000604505420996894
1.36500e-07;0.0005846269712247198
1.36750e-07;0.0005647485214525456
1.37000e-07;0.0005442158324324087
1.37250e-07;0.0005233882194375469
1.37500e-07;0.0005025606064426873
1.37750e-07;0.0004817329934478276
1.38000e-07;0.0004609053804529658
1.38250e-07;0.00044007776745810616
1.38500e-07;0.00042022756472292073
1.38750e-07;0.0004008179679581257
1.39000e-07;0.0003814083711933327
1.39250e-07;0.0003631238313587138
1.39500e-07;0.00034534645501614896
1.39750e-07;0.00032887940275289
1.40000e-07;0.0003130030304080981
1.40250e-07;0.0002983456257652422
1.40500e-07;0.00028532893980917336
1.40750e-07;0.00027431716179931233
1.41000e-07;0.00026578321931812693
1.41250e-07;0.000259895176305466
1.41500e-07;0.0002566422791590789
1.41750e-07;0.000255982425653843
1.42000e-07;0.0002578735316509173
1.42250e-07;0.00026227704369271296
1.42500e-07;0.000269248700358079
1.42750e-07;0.0002789962219471501
1.43000e-07;0.00029168985910378836
1.43250e-07;0.00030730888013538786
1.43500e-07;0.00032572059729673827
1.43750e-07;0.0003467726610785416
