Time(s);Current(A)
5.50000e-06;-0.0037881126744621373
5.50025e-06;-0.0038869153535215127
5.50050e-06;-0.0039845973358843025
5.50075e-06;-0.004080608538524609
5.50100e-06;-0.004174529382897618
5.50125e-06;-0.004266001872486506
5.50150e-06;-0.004354538545311395
5.50175e-06;-0.004439521894307872
5.50200e-06;-0.0045203060472707455
5.50225e-06;-0.004596245278946595
5.50250e-06;-0.004666709906636534
5.50275e-06;-0.004731368128089592
5.50300e-06;-0.004790794980799435
5.50325e-06;-0.004846156914525933
5.50350e-06;-0.004898028512481555
5.50375e-06;-0.0049462556935024465
5.50400e-06;-0.0049905152638496
5.50425e-06;-0.005030484692008662
5.50450e-06;-0.0050658509487222616
5.50475e-06;-0.0050964884634467945
5.50500e-06;-0.005122839497989854
5.50525e-06;-0.005145715609511705
5.50550e-06;-0.0051655585676338624
5.50575e-06;-0.005182353602428512
5.50600e-06;-0.0051954476515296485
5.50625e-06;-0.00520516274296675
5.50650e-06;-0.005213250048980509
5.50675e-06;-0.0052167829030332815
5.50700e-06;-0.005217273651004174
5.50725e-06;-0.005214993387378532
5.50750e-06;-0.005210565181366879
5.50775e-06;-0.005204863784698136
5.50800e-06;-0.005196401089293249
5.50825e-06;-0.005186674681624336
5.50850e-06;-0.005174207531979204
5.50875e-06;-0.0051606689565399265
5.50900e-06;-0.005144806670449076
5.50925e-06;-0.00512834011843227
5.50950e-06;-0.00511056303312801
5.50975e-06;-0.005092364489974653
5.51000e-06;-0.005073251888098329
5.51025e-06;-0.005053826646203256
5.51050e-06;-0.00503372334993825
5.51075e-06;-0.005013530560008564
5.51100e-06;-0.004993143676019588
5.51125e-06;-0.0049730628192170695
5.51150e-06;-0.0049536456748588455
5.51175e-06;-0.004934599730823857
5.51200e-06;-0.004916662890214133
5.51225e-06;-0.004899732118838679
5.51250e-06;-0.004883917476659612
5.51275e-06;-0.004869054268334176
5.51300e-06;-0.0048542527282859835
5.51325e-06;-0.004841886876960314
5.51350e-06;-0.010570833412133888
5.51375e-06;-0.026808137906393813
5.51400e-06;-0.022186515900256457
5.51425e-06;-0.018442083918182767
5.51450e-06;-0.011621522434534398
5.51475e-06;0.0011642563086267626
5.51500e-06;-0.00016805934368682132
5.51525e-06;-0.0011095903406230742
5.51550e-06;-0.007035679229638323
5.51575e-06;-0.013371977339459636
5.51600e-06;-0.013068501493932528
5.51625e-06;-0.009624124996417535
5.51650e-06;-0.004888940108218191
5.51675e-06;-0.0002684256366387295
5.51700e-06;0.00032299227976250795
5.51725e-06;-0.0014599664281630459
5.51750e-06;-0.004997381843290878
5.51775e-06;-0.008614270350744828
5.51800e-06;-0.008450654490591947
5.51825e-06;-0.006303987748975435
5.51850e-06;-0.0033369003105853017
5.51875e-06;-0.00043271809433053705
5.51900e-06;-4.5658160792654516e-05
5.51925e-06;-0.0011409278555294237
5.51950e-06;-0.0033316508424730477
5.51975e-06;-0.005569852911823802
5.52000e-06;-0.005438825604923457
5.52025e-06;-0.004065557036708123
5.52050e-06;-0.0021791638621801173
5.52075e-06;-0.00033364257066000914
5.52100e-06;-6.68156676434727e-05
5.52125e-06;-0.0007308880398927273
5.52150e-06;-0.0020839074945483023
5.52175e-06;-0.003469811174479795
5.52200e-06;-0.003375230045741272
5.52225e-06;-0.0025065728883468244
5.52250e-06;-0.0013209345835231063
5.52275e-06;-0.00016544856520580675
5.52300e-06;-2.6928128170698837e-06
5.52325e-06;-0.00042558485789131583
5.52350e-06;-0.0012817502099573739
5.52375e-06;-0.002160023497244181
5.52400e-06;-0.002112392628431184
5.52425e-06;-0.001581330930938427
5.52450e-06;-0.0008531054782191976
5.52475e-06;-0.0001450782423020112
5.52500e-06;-6.0085461418415275e-05
5.52525e-06;-0.00034299251899788197
5.52550e-06;-0.0008982284426803627
5.52575e-06;-0.0014681311566173793
5.52600e-06;-0.0014587967971915192
5.52625e-06;-0.001147333441816357
5.52650e-06;-0.000712980609058304
5.52675e-06;-0.000291800864961822
5.52700e-06;-0.0002612937555403636
5.52725e-06;-0.0004615167222568275
5.52750e-06;-0.0008324875555083027
5.52775e-06;-0.0012127003855004368
5.52800e-06;-0.001230052077311424
5.52825e-06;-0.0010580493963014618
5.52850e-06;-0.0008088810306760102
5.52875e-06;-0.0005676808252056977
5.52900e-06;-0.0005708034719682185
5.52925e-06;-0.0007179445487663121
5.52950e-06;-0.0009714207749540095
5.52975e-06;-0.001229960970144251
5.53000e-06;-0.0012603914549572115
5.53025e-06;-0.0011713133964614745
5.53050e-06;-0.0010329103468263365
5.53075e-06;-0.0008984128448320997
5.53100e-06;-0.0009157669662017876
5.53125e-06;-0.001022031981387482
5.53150e-06;-0.0011934969152130207
5.53175e-06;-0.001366623561020567
5.53200e-06;-0.001395259326920837
5.53225e-06;-0.0013473428756650442
5.53250e-06;-0.0012667508434805845
5.53275e-06;-0.0011868465147603805
5.53300e-06;-0.0012006963591398377
5.53325e-06;-0.0012695285058780849
5.53350e-06;-0.0013788746340232568
5.53375e-06;-0.001489004150199987
5.53400e-06;-0.0015083841163786335
5.53425e-06;-0.0014795903197319723
5.53450e-06;-0.0014301229491506195
5.53475e-06;-0.0013808943454587134
5.53500e-06;-0.0013902112099700797
5.53525e-06;-0.0014337953990845845
5.53550e-06;-0.0015025939485038393
5.53575e-06;-0.001571731229193404
5.53600e-06;-0.0015838864218314169
5.53625e-06;-0.0015657456182629722
5.53650e-06;-0.0015345494914129534
5.53675e-06;-0.0015034107501084183
5.53700e-06;-0.0015088638001158688
5.53725e-06;-0.0015357107825137784
5.53750e-06;-0.0015782918141516368
5.53775e-06;-0.0016210368513465388
5.53800e-06;-0.0016280544548835183
5.53825e-06;-0.001616075935989898
5.53850e-06;-0.0015959147153356027
5.53875e-06;-0.001575797714517725
5.53900e-06;-0.001578621353957703
5.53925e-06;-0.0015948768913908603
5.53950e-06;-0.0016210305029682396
5.53975e-06;-0.0016473412272337577
5.54000e-06;-0.001651340592914792
5.54025e-06;-0.0016435229047904942
5.54050e-06;-0.0016306752788150796
5.54075e-06;-0.0016179637689402147
5.54100e-06;-0.0016197426624937512
5.54125e-06;-0.0016300673485921285
5.54150e-06;-0.0016467359489384385
5.54175e-06;-0.0016636592922901388
5.54200e-06;-0.001666776061086334
5.54225e-06;-0.0016626736952073944
5.54250e-06;-0.0016556135975013782
5.54275e-06;-0.0016488031082876368
5.54300e-06;-0.0016510739061720637
5.54325e-06;-0.0016584632641425021
5.54350e-06;-0.001669468476757796
5.54375e-06;-0.0016802728553017155
5.54400e-06;-0.00168208885508379
5.54425e-06;-0.0016790631997313434
5.54450e-06;-0.0016738853456239634
5.54475e-06;-0.0016685843292185826
5.54500e-06;-0.001668711694170737
5.54525e-06;-0.001671804593251974
5.54550e-06;-0.001676941296494978
5.54575e-06;-0.0016817508925200777
5.54600e-06;-0.001680748778544793
5.54625e-06;-0.0016765525813448926
5.54650e-06;-0.0016708671341299284
5.54675e-06;-0.001664982974126657
5.54700e-06;-0.0016623974792341575
5.54725e-06;-0.0016615873688518338
5.54750e-06;-0.0016615587452762821
5.54775e-06;-0.001660569971740345
5.54800e-06;-0.001658650594855723
5.54825e-06;-0.0016531430050135646
5.54850e-06;-0.0016469741669523988
5.54875e-06;-0.0016411336102563415
5.54900e-06;-0.0016358196153384297
5.54925e-06;-0.0016326189331786999
5.54950e-06;-0.0016300176378321945
5.54975e-06;-0.0016269531791080728
5.55000e-06;-0.0016233524479403016
5.55025e-06;-0.0016177103771591672
5.55050e-06;-0.0016118515041805062
5.55075e-06;-0.0016064298680200431
5.55100e-06;-0.001601410288585179
5.55125e-06;-0.0015980306769009687
5.55150e-06;-0.0015953111065759062
5.55175e-06;-0.0015926254051013497
5.55200e-06;-0.001589701522232713
5.55225e-06;-0.0015859248914401594
5.55250e-06;-0.001582247023654947
5.55275e-06;-0.0015792574159085955
5.55300e-06;-0.0015788037534875587
5.55325e-06;-0.0015818868319546699
5.55350e-06;-0.001589027498249934
5.55375e-06;-0.0015998100293683826
5.55400e-06;-0.0016132135680990603
5.55425e-06;-0.0016297757056976294
5.55450e-06;-0.0016497893621648288
5.55475e-06;-0.0016709693285999973
5.55500e-06;-0.0016973456803345153
5.55525e-06;-0.0017286888434539017
5.55550e-06;-0.0017654234072180864
5.55575e-06;-0.001803348840265881
5.55600e-06;-0.0018463092018199548
5.55625e-06;-0.0018925258725500467
5.55650e-06;-0.0019418577675317551
5.55675e-06;-0.0019942086402249047
5.55700e-06;-0.0020499757858778176
5.55725e-06;-0.0021092242542699747
5.55750e-06;-0.0021718307100042286
5.55775e-06;-0.0022373042462873255
5.55800e-06;-0.0023049167443723742
5.55825e-06;-0.0023744295247145313
5.55850e-06;-0.002445552956812608
5.55875e-06;-0.0025180255779981313
5.55900e-06;-0.002591894634827702
5.55925e-06;-0.0026669995486440614
5.55950e-06;-0.0027430616799134044
5.55975e-06;-0.002819572167245423
5.56000e-06;-0.00289587342651141
5.56025e-06;-0.002971615108112049
5.56050e-06;-0.003046414417179914
5.56075e-06;-0.0031199059528795635
5.56100e-06;-0.0031919183548068854
5.56125e-06;-0.003262150067573564
5.56150e-06;-0.003330225116042368
5.56175e-06;-0.0033956234368655246
5.56200e-06;-0.003457732567758641
5.56225e-06;-0.0035161316264296
5.56250e-06;-0.0035703981186371767
5.56275e-06;-0.0036203727157517484
5.56300e-06;-0.0036668859462135332
5.56325e-06;-0.0037112752715512997
5.56350e-06;-0.0037541816041186263
5.56375e-06;-0.003795415422247323
5.56400e-06;-0.003834592461922066
5.56425e-06;-0.003871448577702358
5.56450e-06;-0.003905718424462418
5.56475e-06;-0.003937301733773936
5.56500e-06;-0.003966718269736496
5.56525e-06;-0.003994805294645379
5.56550e-06;-0.004021963470012264
5.56575e-06;-0.004048073836020899
5.56600e-06;-0.00407289423455868
5.56625e-06;-0.004096258880212322
5.56650e-06;-0.004118001196724045
5.56675e-06;-0.00413805794451012
5.56700e-06;-0.004156753649906062
5.56725e-06;-0.004174612240881344
5.56750e-06;-0.00419188385451012
5.56775e-06;-0.004208396482297585
5.56800e-06;-0.004223937229269603
5.56825e-06;-0.004239046134279217
5.56850e-06;-0.00425258593469962
5.56875e-06;-0.0042657418811812235
5.56900e-06;-0.004277503088314755
5.56925e-06;-0.00428907812201676
5.56950e-06;-0.004299976691615592
5.56975e-06;-0.004310589326293141
5.57000e-06;-0.00432016301191933
5.57025e-06;-0.0043297366975455515
5.57050e-06;-0.004338919142594708
5.57075e-06;-0.004346680008829408
5.57100e-06;-0.004354440875064134
5.57125e-06;-0.0043619831236084705
5.57150e-06;-0.004368731021322847
5.57175e-06;-0.004375478919037246
5.57200e-06;-0.004382077476012478
5.57225e-06;-0.004388042449930835
5.57250e-06;-0.004393561579253867
5.57275e-06;-0.0043983887488016375
5.57300e-06;-0.004401664687966965
5.57325e-06;-0.004402185238535907
5.57350e-06;-0.0043993718016121465
5.57375e-06;-0.004392933903459835
5.57400e-06;-0.004382805304799604
5.57425e-06;-0.004371427560300018
5.57450e-06;-0.004355511024669142
5.57475e-06;-0.004338236453097416
5.57500e-06;-0.004316027436491204
5.57525e-06;-0.004292146577444655
5.57550e-06;-0.004262191052493435
5.57575e-06;-0.004230708855154248
5.57600e-06;-0.004193679469587411
5.57625e-06;-0.0041550617725658505
5.57650e-06;-0.004110672920793948
5.57675e-06;-0.004066284069022197
5.57700e-06;-0.004020045911246714
5.57725e-06;-0.003967088270906604
5.57750e-06;-0.003914130630566673
5.57775e-06;-0.0038598619791988527
5.57800e-06;-0.003800829748560685
5.57825e-06;-0.003741097093776275
5.57850e-06;-0.003678819436796416
5.57875e-06;-0.003616050618626913
5.57900e-06;-0.0035514971585206595
5.57925e-06;-0.003486581476772989
5.57950e-06;-0.0034203496569717323
5.57975e-06;-0.0033540645729770524
5.58000e-06;-0.003287585952693747
5.58025e-06;-0.0032213975971409794
5.58050e-06;-0.0031562639230707404
5.58075e-06;-0.0030915382225740894
5.58100e-06;-0.0030286314196552124
5.58125e-06;-0.0029673470468506748
5.58150e-06;-0.0029080024949050863
5.58175e-06;-0.0028510094065476543
5.58200e-06;-0.0027967959439137214
5.58225e-06;-0.002745791811872831
5.58250e-06;-0.002698434490508987
5.58275e-06;-0.0026552644019825515
5.58300e-06;-0.002617139088039044
5.58325e-06;-0.0025849967061273437
5.58350e-06;-0.0025592935063619916
5.58375e-06;-0.002540772588813071
5.58400e-06;-0.0025298539957789227
5.58425e-06;-0.0025217134821884273
5.58450e-06;-0.0025236671641193334
5.58475e-06;-0.002528507262853851
5.58500e-06;-0.002543835202617568
5.58525e-06;-0.0025614475230488864
5.58550e-06;-0.00258883418788922
5.58575e-06;-0.0026229855838165016
5.58600e-06;-0.0026636000125655496
5.58625e-06;-0.0027103760087021827
5.58650e-06;-0.002763015404826542
5.58675e-06;-0.002821260246897874
5.58700e-06;-0.0028849773131345165
5.58725e-06;-0.002954064685609158
5.58750e-06;-0.003028231359500721
5.58775e-06;-0.0031070259401338113
5.58800e-06;-0.0031899703441143723
5.58825e-06;-0.003276587035791699
5.58850e-06;-0.0033664004392362683
5.58875e-06;-0.003458960188919517
5.58900e-06;-0.003553894009930363
5.58925e-06;-0.003650849267017106
5.58950e-06;-0.003749355055380477
5.58975e-06;-0.003848839909971968
5.59000e-06;-0.003948715883167453
5.59025e-06;-0.004048394895009621
5.59050e-06;-0.004147290505351528
5.59075e-06;-0.004244832523241103
5.59100e-06;-0.004340498700848213
5.59125e-06;-0.004433780188276162
5.59150e-06;-0.004524093063662485
5.59175e-06;-0.004610791434811401
5.59200e-06;-0.004693218782975487
5.59225e-06;-0.004770067355842583
5.59250e-06;-0.004840285119847648
5.59275e-06;-0.004908586729610323
5.59300e-06;-0.004968875251087274
5.59325e-06;-0.005024421811389785
5.59350e-06;-0.00507565620194775
5.59375e-06;-0.0051224081996734065
5.59400e-06;-0.0051643936875143005
5.59425e-06;-0.005201329808072191
5.59450e-06;-0.005232942721975292
5.59475e-06;-0.00525909481061868
5.59500e-06;-0.0052801278749814
5.59525e-06;-0.005296739012210788
5.59550e-06;-0.0053093245039130595
5.59575e-06;-0.005317905630579708
5.59600e-06;-0.005322432100791654
5.59625e-06;-0.005322854025123814
5.59650e-06;-0.005319128401720129
5.59675e-06;-0.0053112956635517124
5.59700e-06;-0.005299698306742331
5.59725e-06;-0.005284900298735324
5.59750e-06;-0.005267277591407624
5.59775e-06;-0.005246971026009761
5.59800e-06;-0.005223815986461237
5.59825e-06;-0.00519774384381552
5.59850e-06;-0.0051706979714103395
5.59875e-06;-0.005140114036551898
5.59900e-06;-0.00510887093217217
5.59925e-06;-0.0050752327249301635
5.59950e-06;-0.005041212221475583
5.59975e-06;-0.005005802638696772
5.60000e-06;-0.004970176481696402
5.60025e-06;-0.004933763398843442
5.60050e-06;-0.004897313181802631
5.60075e-06;-0.004860728037103887
5.60100e-06;-0.004824302684986285
5.60125e-06;-0.0047886780334026775
5.60150e-06;-0.004754296186162239
5.60175e-06;-0.004721524341745382
5.60200e-06;-0.0046895193509696054
5.60225e-06;-0.00466030073500555
5.60250e-06;-0.004631776412781115
5.60275e-06;-0.004606161234470678
5.60300e-06;-0.004582113618184422
5.60325e-06;-0.004558721677106042
5.60350e-06;-0.004535553398247898
5.60375e-06;-0.004512565162414305
5.60400e-06;-0.004490231115752451
5.60425e-06;-0.004468233688744711
5.60450e-06;-0.004447459374564694
5.60475e-06;-0.004426949823626643
5.60500e-06;-0.004407402294107972
5.60525e-06;-0.004387787631605638
5.60550e-06;-0.004367929040347112
5.60575e-06;-0.00434807044908852
5.60600e-06;-0.004328314911841373
5.60625e-06;-0.0043089338229713855
5.60650e-06;-0.004289552734101464
5.60675e-06;-0.004270171645231542
5.60700e-06;-0.004251029791434485
5.60725e-06;-0.004231982914322786
5.60750e-06;-0.004212936037211088
5.60775e-06;-0.0041938649256090445
5.60800e-06;-0.004174705757604055
5.60825e-06;-0.004155546589599065
5.60850e-06;-0.00413655014298786
5.60875e-06;-0.004118144947130055
5.60900e-06;-0.004099739751272248
5.60925e-06;-0.004081334555414379
5.60950e-06;-0.004063317354654945
5.60975e-06;-0.004045454188535582
5.61000e-06;-0.004027591022416159
5.61025e-06;-0.004010015234089309
5.61050e-06;-0.003993483637508112
5.61075e-06;-0.003976952040926971
5.61100e-06;-0.0039607487058765925
5.61125e-06;-0.003945738114280176
5.61150e-06;-0.003930727522683811
5.61175e-06;-0.003916048500693136
5.61200e-06;-0.003902574242098876
5.61225e-06;-0.003889469214915231
5.61250e-06;-0.0038777057958905847
5.61275e-06;-0.0038664815009546395
5.61300e-06;-0.0038572161219057556
5.61325e-06;-0.0038486992052766495
5.61350e-06;-0.0038429018386649705
5.61375e-06;-0.003838059182475922
5.61400e-06;-0.003836685481678364
5.61425e-06;-0.003835311780880802
5.61450e-06;-0.003835087966926296
5.61475e-06;-0.0038390422849679125
5.61500e-06;-0.003842996603009515
5.61525e-06;-0.0038479971520883247
5.61550e-06;-0.0038567991981563673
5.61575e-06;-0.0038662009940204065
5.61600e-06;-0.0038781547390931022
5.61625e-06;-0.0038918152206893052
5.61650e-06;-0.0039070892160478175
5.61675e-06;-0.003923899806849143
5.61700e-06;-0.0039422210128614
5.61725e-06;-0.003962045585050908
5.61750e-06;-0.003983300870812152
5.61775e-06;-0.004005855433174033
5.61800e-06;-0.004029567245443769
5.61825e-06;-0.004054294381427284
5.61850e-06;-0.0040798959835826746
5.61875e-06;-0.004106241187394858
5.61900e-06;-0.004133231376317834
5.61925e-06;-0.0041607787818945165
5.61950e-06;-0.00418875590713425
5.61975e-06;-0.004216996765627051
5.62000e-06;-0.004245329930351626
5.62025e-06;-0.004273584932445811
5.62050e-06;-0.004301590080224266
5.62075e-06;-0.00432918059640672
5.62100e-06;-0.004356212283313467
5.62125e-06;-0.004382547931882436
5.62150e-06;-0.00440802448385243
5.62175e-06;-0.004432455701544881
5.62200e-06;-0.004455651960317451
5.62225e-06;-0.004477423270364764
5.62250e-06;-0.004497582254842122
5.62275e-06;-0.004515979170711862
5.62300e-06;-0.004532601393494656
5.62325e-06;-0.004547375379546315
5.62350e-06;-0.0045602355473178926
5.62375e-06;-0.004572356548778794
5.62400e-06;-0.004581791777782255
5.62425e-06;-0.004590234550809231
5.62450e-06;-0.004595071219380068
5.62475e-06;-0.0045999078879509206
5.62500e-06;-0.004603619543051907
5.62525e-06;-0.004603243443952192
5.62550e-06;-0.004602867344852475
5.62575e-06;-0.004601638482661644
5.62600e-06;-0.004597311092318693
5.62625e-06;-0.004592323075226097
5.62650e-06;-0.0045849346604110285
5.62675e-06;-0.004576935516340996
5.62700e-06;-0.004566717277882924
5.62725e-06;-0.004555989863882624
5.62750e-06;-0.0045434123525124
5.62775e-06;-0.004530395260796439
5.62800e-06;-0.004515780946955573
5.62825e-06;-0.00450078845733935
5.62850e-06;-0.004484421860074345
5.62875e-06;-0.004467758440552532
5.62900e-06;-0.004450016512675403
5.62925e-06;-0.004432091627317879
5.62950e-06;-0.004413501963067267
5.62975e-06;-0.004394823106416752
5.63000e-06;-0.004375820167773654
5.63025e-06;-0.004356816575890444
5.63050e-06;-0.004337810610448915
5.63075e-06;-0.004318905093236904
5.63100e-06;-0.004300364556252103
5.63125e-06;-0.004282045970157437
5.63150e-06;-0.004264533846125655
5.63175e-06;-0.0042472565870385285
5.63200e-06;-0.004231024464532538
5.63225e-06;-0.0042157070538656706
5.63250e-06;-0.004201403983965512
5.63275e-06;-0.004187918704045917
5.63300e-06;-0.0041740571931551665
5.63325e-06;-0.004158046034947654
5.63350e-06;-0.0041390345000278305
5.63375e-06;-0.004116858945389788
5.63400e-06;-0.004091621500601486
5.63425e-06;-0.004065657049818341
5.63450e-06;-0.004036629520658064
5.63475e-06;-0.00400555745394461
5.63500e-06;-0.0039718846777429175
5.63525e-06;-0.003934293813864867
5.63550e-06;-0.003892190815742151
5.63575e-06;-0.0038486517948573655
5.63600e-06;-0.003799894962600287
5.63625e-06;-0.003749755489023078
5.63650e-06;-0.0036945921663855998
5.63675e-06;-0.0036394288437479345
5.63700e-06;-0.0035825409337163347
5.63725e-06;-0.003519386708168226
5.63750e-06;-0.0034562324826199037
5.63775e-06;-0.0033918263642722575
5.63800e-06;-0.003322871473678371
5.63825e-06;-0.0032533269585096527
5.63850e-06;-0.003181640033143132
5.63875e-06;-0.003109571665800663
5.63900e-06;-0.0030361173230179167
5.63925e-06;-0.0029623471386414453
5.63950e-06;-0.0028874293388482615
5.63975e-06;-0.002812478600678425
5.64000e-06;-0.0027375164172599013
5.64025e-06;-0.0026631532345719115
5.64050e-06;-0.002589837578361568
5.64075e-06;-0.0025179728047563872
5.64100e-06;-0.0024478078310790755
5.64125e-06;-0.0023795033964544186
5.64150e-06;-0.0023133619028353966
5.64175e-06;-0.002249831567351351
5.64200e-06;-0.002189386848605235
5.64225e-06;-0.002132502123116433
5.64250e-06;-0.002079653640044369
5.64275e-06;-0.002031332472349634
5.64300e-06;-0.001988051844562237
5.64325e-06;-0.0019502330313246293
5.64350e-06;-0.0019180845614769708
5.64375e-06;-0.0018916845147181351
5.64400e-06;-0.0018717315069178542
5.64425e-06;-0.0018586902551131746
5.64450e-06;-0.0018482335980596883
5.64475e-06;-0.0018471681068266672
5.64500e-06;-0.0018480810914573817
