Time(s);Current(A)
6.50000e-06;-0.0028886639830272495
6.50025e-06;-0.002895351228358954
6.50050e-06;-0.002906185898440231
6.50075e-06;-0.0029206403352391216
6.50100e-06;-0.0029350947720380117
6.50125e-06;-0.0029495492088369513
6.50150e-06;-0.002964003645635842
6.50175e-06;-0.002978458082434732
6.50200e-06;-0.002995854316102485
6.50225e-06;-0.003015818075171739
6.50250e-06;-0.003035781834240993
6.50275e-06;-0.0030557455933103153
6.50300e-06;-0.0030757093523795694
6.50325e-06;-0.003095673111448891
6.50350e-06;-0.003115690957926715
6.50375e-06;-0.003137247063677978
6.50400e-06;-0.0031588031694293143
6.50425e-06;-0.0031803592751805778
6.50450e-06;-0.003201915380931841
6.50475e-06;-0.003223471486683177
6.50500e-06;-0.0032450275924344406
6.50525e-06;-0.003265604303152347
6.50550e-06;-0.003285326222823115
6.50575e-06;-0.003305048142493816
6.50600e-06;-0.0033225456701586552
6.50625e-06;-0.003338101805119581
6.50650e-06;-0.003353657940080454
6.50675e-06;-0.003369214075041327
6.50700e-06;-0.0033847702100022526
6.50725e-06;-0.0034002199428852554
6.50750e-06;-0.003412643574366443
6.50775e-06;-0.003425067205847588
6.50800e-06;-0.0034374908373287333
6.50825e-06;-0.0034499144688099207
6.50850e-06;-0.0034623381002910655
6.50875e-06;-0.0034740049870338138
6.50900e-06;-0.0034850114062376326
6.50925e-06;-0.0034960178254414137
6.50950e-06;-0.0035070242446451952
6.50975e-06;-0.003518030663849014
6.51000e-06;-0.003529037083052795
6.51025e-06;-0.0035400435022565767
6.51050e-06;-0.0035510499214603955
6.51075e-06;-0.0035620563406641766
6.51100e-06;-0.0035730541844663593
6.51125e-06;-0.003583808141726994
6.51150e-06;-0.003594562098987592
6.51175e-06;-0.003605316056248226
6.51200e-06;-0.003616070013508824
6.51225e-06;-0.0036268239707694223
6.51250e-06;-0.003637577928030057
6.51275e-06;-0.003648331885290655
6.51300e-06;-0.003659085842551253
6.51325e-06;-0.003669839799811887
6.51350e-06;-0.0036801860084714746
6.51375e-06;-0.003690176344534482
6.51400e-06;-0.003700166680597523
6.51425e-06;-0.003710157016660531
6.51450e-06;-0.0037201473527235383
6.51475e-06;-0.0037301376887865795
6.51500e-06;-0.003739159562350305
6.51525e-06;-0.003747336186504356
6.51550e-06;-0.0037555128106584353
6.51575e-06;-0.003763689434812486
6.51600e-06;-0.003771866058966565
6.51625e-06;-0.003780042683120616
6.51650e-06;-0.0037869800465896333
6.51675e-06;-0.0037928358148877628
6.51700e-06;-0.003798691583185872
6.51725e-06;-0.003802454897280225
6.51750e-06;-0.003804391970625217
6.51775e-06;-0.003806329043970203
6.51800e-06;-0.0038057035944266105
6.51825e-06;-0.0038028416401548076
6.51850e-06;-0.003799979685883014
6.51875e-06;-0.0037931540575926056
6.51900e-06;-0.003782869035544912
6.51925e-06;-0.0037725840134972535
6.51950e-06;-0.0037622989914495946
6.51975e-06;-0.003752013969401901
6.52000e-06;-0.003741728947354242
6.52025e-06;-0.003726330897506746
6.52050e-06;-0.003706470327187749
6.52075e-06;-0.003686609756868752
6.52100e-06;-0.003666749186549688
6.52125e-06;-0.003646888616230691
6.52150e-06;-0.003627028045911694
6.52175e-06;-0.0036036157281124745
6.52200e-06;-0.003577103535550252
6.52225e-06;-0.0035505913429880295
6.52250e-06;-0.0035240791504257173
6.52275e-06;-0.003497566957863495
6.52300e-06;-0.003469460385813907
6.52325e-06;-0.00343996227994511
6.52350e-06;-0.0034104641740764128
6.52375e-06;-0.0033809660682077155
6.52400e-06;-0.0033514679623389185
6.52425e-06;-0.0033218340823335623
6.52450e-06;-0.0032920817021188297
6.52475e-06;-0.003262788698733206
6.52500e-06;-0.0032338966277468753
6.52525e-06;-0.003205525411760485
6.52550e-06;-0.003178055107574727
6.52575e-06;-0.003151519502904169
6.52600e-06;-0.003126106433236342
6.52625e-06;-0.0031020061212072843
6.52650e-06;-0.0030794085408049625
6.52675e-06;-0.003058528562432699
6.52700e-06;-0.0030397668337620374
6.52725e-06;-0.0030237776626212956
6.52750e-06;-0.0030111116420252462
6.52775e-06;-0.003001947134271676
6.52800e-06;-0.0029962630903459775
6.52825e-06;-0.0029949146010270974
6.52850e-06;-0.0029959428975647948
6.52875e-06;-0.0030006050575221376
6.52900e-06;-0.003008438760943194
6.52925e-06;-0.0030213235995803964
6.52950e-06;-0.0030386169404174167
6.52975e-06;-0.003055910281254379
6.53000e-06;-0.003078896703791061
6.53025e-06;-0.0031068519030725303
6.53050e-06;-0.0031348071023539047
6.53075e-06;-0.0031676718526443283
6.53100e-06;-0.00320482153404372
6.53125e-06;-0.003241971215442986
6.53150e-06;-0.003282921706545749
6.53175e-06;-0.0033271894475778436
6.53200e-06;-0.0033739222208365076
6.53225e-06;-0.0034228064114554995
6.53250e-06;-0.003473552166066437
6.53275e-06;-0.00352592264632818
6.53300e-06;-0.003579663735480975
6.53325e-06;-0.00363460105717368
6.53350e-06;-0.0036903120465273144
6.53375e-06;-0.0037469957804203793
6.53400e-06;-0.003804054294874854
6.53425e-06;-0.003861146027336689
6.53450e-06;-0.003917929663899646
6.53475e-06;-0.003974067588739727
6.53500e-06;-0.004029250586298817
6.53525e-06;-0.004083208608768461
6.53550e-06;-0.004135655890082212
6.53575e-06;-0.004186249139188026
6.53600e-06;-0.004234614674293314
6.53625e-06;-0.0042803752781206935
6.53650e-06;-0.004322208562012068
6.53675e-06;-0.0043617453007804225
6.53700e-06;-0.00439713558866834
6.53725e-06;-0.004428906959809523
6.53750e-06;-0.004454906842307714
6.53775e-06;-0.004475869516478446
6.53800e-06;-0.00449683219064925
6.53825e-06;-0.004510588553989181
6.53850e-06;-0.004518055432731161
6.53875e-06;-0.0045255223114731655
6.53900e-06;-0.004525567716146001
6.53925e-06;-0.004519135847225277
6.53950e-06;-0.004512703978304533
6.53975e-06;-0.004497004988926694
6.54000e-06;-0.004473217892783925
6.54025e-06;-0.004449430796641075
6.54050e-06;-0.004425643700498306
6.54075e-06;-0.004401856604355538
6.54100e-06;-0.004368301975749461
6.54125e-06;-0.004326222493521897
6.54150e-06;-0.004284143011294191
6.54175e-06;-0.004242063529066627
6.54200e-06;-0.004199984046839063
6.54225e-06;-0.0041521598884904
6.54250e-06;-0.004099321923101307
6.54275e-06;-0.004046483957712214
6.54300e-06;-0.003991253171564144
6.54325e-06;-0.00393393399238686
6.54350e-06;-0.0038756541623954136
6.54375e-06;-0.003816136821099269
6.54400e-06;-0.003756056217140545
6.54425e-06;-0.0036957567997305783
6.54450e-06;-0.0036355830655322007
6.54475e-06;-0.0035758797124051675
6.54500e-06;-0.0035169918269975023
6.54525e-06;-0.0034592727623902106
6.54550e-06;-0.003403094518360396
6.54575e-06;-0.003348844500104666
6.54600e-06;-0.0032969156805118045
6.54625e-06;-0.003247701511735066
6.54650e-06;-0.003201595384872503
6.54675e-06;-0.003158990643571133
6.54700e-06;-0.0031202645168213424
6.54725e-06;-0.003085721772374589
6.54750e-06;-0.0030555469630347536
6.54775e-06;-0.0030298344583043098
6.54800e-06;-0.003008650985674923
6.54825e-06;-0.0029920618462336997
6.54850e-06;-0.0029814014553072843
6.54875e-06;-0.002974034460911407
6.54900e-06;-0.0029717759979354234
6.54925e-06;-0.0029739761311026306
6.54950e-06;-0.002982345278599707
6.54975e-06;-0.002996098584720341
6.55000e-06;-0.003009851890841022
6.55025e-06;-0.0030304213793792283
6.55050e-06;-0.0030569398583688294
6.55075e-06;-0.0030834583373585203
6.55100e-06;-0.003115132155718334
6.55125e-06;-0.0031513054230083303
6.55150e-06;-0.0031910822186859995
6.55175e-06;-0.003234004082182303
6.55200e-06;-0.0032799611894962243
6.55225e-06;-0.0033285673803268583
6.55250e-06;-0.003379090397125228
6.55275e-06;-0.0034323725887778836
6.55300e-06;-0.003487541200641241
6.55325e-06;-0.003544304975506636
6.55350e-06;-0.003602343409981009
6.55375e-06;-0.0036613136283623255
6.55400e-06;-0.003720866167671227
6.55425e-06;-0.003780651284647013
6.55450e-06;-0.003840318926325128
6.55475e-06;-0.0038995193968961715
6.55500e-06;-0.003957900233790495
6.55525e-06;-0.004015098164898397
6.55550e-06;-0.004070731443190663
6.55575e-06;-0.004124404220512076
6.55600e-06;-0.004174929740511024
6.55625e-06;-0.004223581566147649
6.55650e-06;-0.004268667657863863
6.55675e-06;-0.004310641667809851
6.55700e-06;-0.00434764972513405
6.55725e-06;-0.004380323625460254
6.55750e-06;-0.004412997525786347
6.55775e-06;-0.004440951649410351
6.55800e-06;-0.004464786472110618
6.55825e-06;-0.004483670694220274
6.55850e-06;-0.004499341943383984
6.55875e-06;-0.00451131888370818
6.55900e-06;-0.011813670081486882
6.55925e-06;-0.018702710326619087
6.55950e-06;-0.017379667010998644
6.55975e-06;-0.015312969702570194
6.56000e-06;-0.009904917942860641
6.56025e-06;-0.0038927555943205415
6.56050e-06;-0.003560613887854784
6.56075e-06;-0.004205021305434854
6.56100e-06;-0.007973864650410379
6.56125e-06;-0.013158170514258757
6.56150e-06;-0.012140717983259646
6.56175e-06;-0.010593624440884034
6.56200e-06;-0.007551434215417473
6.56225e-06;-0.0036963363934420447
6.56250e-06;-0.002742102707959023
6.56275e-06;-0.0030710260629923975
6.56300e-06;-0.004317942414866125
6.56325e-06;-0.006233442641720628
6.56350e-06;-0.0072756123601371596
6.56375e-06;-0.007211083498483956
6.56400e-06;-0.005920316581538956
6.56425e-06;-0.004210541922357548
6.56450e-06;-0.003060501385238711
6.56475e-06;-0.0027206964556608757
6.56500e-06;-0.003499241441200675
6.56525e-06;-0.004696554779318847
6.56550e-06;-0.005347114228798886
6.56575e-06;-0.0053050947612973244
6.56600e-06;-0.004495961726184874
6.56625e-06;-0.0034256684837267724
6.56650e-06;-0.002707535541891836
6.56675e-06;-0.0024986591551100393
6.56700e-06;-0.002992150008231197
6.56725e-06;-0.003749780039320793
6.56750e-06;-0.004166675046318508
6.56775e-06;-0.004151440155094638
6.56800e-06;-0.003657357816781658
6.56825e-06;-0.0030013097583077557
6.56850e-06;-0.0025673951338394114
6.56875e-06;-0.002453907581699803
6.56900e-06;-0.0027816862847896864
6.56925e-06;-0.0032761040560285643
6.56950e-06;-0.003558173520709266
6.56975e-06;-0.0035705674370133753
6.57000e-06;-0.0032839459601359394
6.57025e-06;-0.0028967175661242925
6.57050e-06;-0.002649373991833444
6.57075e-06;-0.002603363143388797
6.57100e-06;-0.002834247901127954
6.57125e-06;-0.00316987509513768
6.57150e-06;-0.0033727380295827574
6.57175e-06;-0.003406828843853185
6.57200e-06;-0.0032536730068867957
6.57225e-06;-0.0030374516965081494
6.57250e-06;-0.0029086936040945374
6.57275e-06;-0.002905765733493207
6.57300e-06;-0.0030758722340825943
6.57325e-06;-0.003311050813255663
6.57350e-06;-0.003462412679674274
6.57375e-06;-0.0035072960730768324
6.57400e-06;-0.0034340225492172425
6.57425e-06;-0.0033202702980089024
6.57450e-06;-0.0032602134064506445
6.57475e-06;-0.003277762292551018
6.57500e-06;-0.003402360822797441
6.57525e-06;-0.0035662575507146308
6.57550e-06;-0.003676072919272622
6.57575e-06;-0.0037174999642752633
6.57600e-06;-0.003683113056256187
6.57625e-06;-0.003621457228272069
6.57650e-06;-0.0035914054132345084
6.57675e-06;-0.003607814768629081
6.57700e-06;-0.003689014927076192
6.57725e-06;-0.003792503062195482
6.57750e-06;-0.003859819243353915
6.57775e-06;-0.0038821071896363974
6.57800e-06;-0.003854840181812905
6.57825e-06;-0.0038085501163389063
6.57850e-06;-0.0037802359909293835
6.57875e-06;-0.003779322389983283
6.57900e-06;-0.003817408479108123
6.57925e-06;-0.003867988456885418
6.57950e-06;-0.003894564276747795
6.57975e-06;-0.0038917111458520236
6.58000e-06;-0.003856717086899811
6.58025e-06;-0.003808829339367067
6.58050e-06;-0.0037713446485991824
6.58075e-06;-0.0037502857861538494
6.58100e-06;-0.0037530370728567583
6.58125e-06;-0.0037631143149988375
6.58150e-06;-0.0037577759897153965
6.58175e-06;-0.0037337460894336966
6.58200e-06;-0.003689447526580222
6.58225e-06;-0.0036370590183361045
6.58250e-06;-0.0035912939788695693
6.58275e-06;-0.003556044565940214
6.58300e-06;-0.003536055633469961
6.58325e-06;-0.003521121077298312
6.58350e-06;-0.0034971159779126917
6.58375e-06;-0.003462109902628395
6.58400e-06;-0.0034152364747356057
6.58425e-06;-0.003364245180254956
6.58450e-06;-0.003318473142655467
6.58475e-06;-0.0032804783285208966
6.58500e-06;-0.00325335245480021
6.58525e-06;-0.00323082192669041
6.58550e-06;-0.003204159724418172
6.58575e-06;-0.003172277199459258
6.58600e-06;-0.0031347525743082643
6.58625e-06;-0.003096561331883122
6.58650e-06;-0.0030636721567510925
6.58675e-06;-0.003038239625040028
6.58700e-06;-0.0030227687272611067
6.58725e-06;-0.0030073967430669737
6.58750e-06;-0.0029919336674362135
6.58775e-06;-0.0029730801266030266
6.58800e-06;-0.002950391362455566
6.58825e-06;-0.0029281527539498173
6.58850e-06;-0.0029087216275794506
6.58875e-06;-0.0028939424115664715
6.58900e-06;-0.002885381694460577
6.58925e-06;-0.0028768783818247903
6.58950e-06;-0.002868293932926045
6.58975e-06;-0.0028575680919821884
6.59000e-06;-0.002844420261950376
6.59025e-06;-0.0028317722708409657
6.59050e-06;-0.0028214505391617895
6.59075e-06;-0.002812183748454335
6.59100e-06;-0.0028078266722043185
6.59125e-06;-0.0028033914986963886
6.59150e-06;-0.0027985928591306823
6.59175e-06;-0.0027933545235611736
6.59200e-06;-0.0027860698347978285
6.59225e-06;-0.0027790939524341873
6.59250e-06;-0.0027735552606676086
6.59275e-06;-0.0027686732612141277
6.59300e-06;-0.002766847519721916
6.59325e-06;-0.0027648853705488103
6.59350e-06;-0.002762288377549495
6.59375e-06;-0.0027596913845501798
6.59400e-06;-0.002756870703544034
6.59425e-06;-0.0027533400041872443
6.59450e-06;-0.00275134992306572
6.59475e-06;-0.002749359841944189
6.59500e-06;-0.0027477049153525287
6.59525e-06;-0.002747609804034596
6.59550e-06;-0.0027473062068740185
6.59575e-06;-0.0027460323128123735
6.59600e-06;-0.002744758418750729
6.59625e-06;-0.002743504057582656
6.59650e-06;-0.0027424467228845967
6.59675e-06;-0.002742234679502792
6.59700e-06;-0.0027436580896427697
6.59725e-06;-0.0027457916844966543
6.59750e-06;-0.002751230491917105
6.59775e-06;-0.002757424328719987
6.59800e-06;-0.0027671320859918133
6.59825e-06;-0.0027779017916439953
6.59850e-06;-0.0027936138243594747
6.59875e-06;-0.002809325857074954
6.59900e-06;-0.002826484943649243
6.59925e-06;-0.0028503786451827195
6.59950e-06;-0.0028742723467161963
6.59975e-06;-0.0029000133493542854
6.60000e-06;-0.002934351724907774
6.60025e-06;-0.002968690100461263
6.60050e-06;-0.0030030284760148677
6.60075e-06;-0.0030373668515683567
6.60100e-06;-0.0030736820822363747
6.60125e-06;-0.003119197632537008
6.60150e-06;-0.003164713182837487
6.60175e-06;-0.00321022873313812
6.60200e-06;-0.003255744283438599
6.60225e-06;-0.0033022703706651006
6.60250e-06;-0.003353499515111826
6.60275e-06;-0.0034051007179424163
6.60300e-06;-0.003458433487254381
6.60325e-06;-0.003512008434248493
6.60350e-06;-0.003566710480575786
6.60375e-06;-0.0036214733286965535
6.60400e-06;-0.0036764938239678725
6.60425e-06;-0.003731331925340405
6.60450e-06;-0.0037857514416155067
6.60475e-06;-0.0038394595649568946
6.60500e-06;-0.0038922147676273815
6.60525e-06;-0.003943770114667768
6.60550e-06;-0.003993851995326756
6.60575e-06;-0.004042158824614316
6.60600e-06;-0.0040883403108949974
6.60625e-06;-0.004132096767763344
6.60650e-06;-0.004172841566250564
6.60675e-06;-0.0042097543036649305
6.60700e-06;-0.00424535184454671
6.60725e-06;-0.0042748284368639335
6.60750e-06;-0.004302452012337131
6.60775e-06;-0.004321451613741004
6.60800e-06;-0.004340451215144875
6.60825e-06;-0.004357178659222882
6.60850e-06;-0.004363331441812079
6.60875e-06;-0.004369484224401276
6.60900e-06;-0.004372364952194253
6.60925e-06;-0.004360017477499998
6.60950e-06;-0.004347670002805741
6.60975e-06;-0.004335322528111444
6.61000e-06;-0.004322975053417189
6.61025e-06;-0.004310627578722891
6.61050e-06;-0.004283982913788893
6.61075e-06;-0.004250512789105307
6.61100e-06;-0.004217042664421607
6.61125e-06;-0.004183572539738021
6.61150e-06;-0.004150102415054434
6.61175e-06;-0.0041143626212953865
6.61200e-06;-0.004068059746412371
6.61225e-06;-0.004021756871529354
6.61250e-06;-0.003974513137106466
6.61275e-06;-0.003922890625287461
6.61300e-06;-0.0038707293597507273
6.61325e-06;-0.003816060724620613
6.61350e-06;-0.0037610588429523675
6.61375e-06;-0.00370450602583867
6.61400e-06;-0.00364785102135563
6.61425e-06;-0.0035907335301370784
6.61450e-06;-0.003533749748415383
6.61475e-06;-0.0034772368418951997
6.61500e-06;-0.0034215292884793255
6.61525e-06;-0.0033669552874561045
6.61550e-06;-0.0033138573325185443
6.61575e-06;-0.0032626076548788923
6.61600e-06;-0.0032141484338698624
6.61625e-06;-0.003170398779825155
6.61650e-06;-0.0031266491257804473
6.61675e-06;-0.00308434214682269
6.61700e-06;-0.003048749403937538
6.61725e-06;-0.0030131566610523855
6.61750e-06;-0.002978164351197722
6.61775e-06;-0.0029459664675789772
6.61800e-06;-0.002913768583960232
6.61825e-06;-0.0028815707003413777
6.61850e-06;-0.0028526231910656025
6.61875e-06;-0.0028252274062106337
6.61900e-06;-0.0027978316213557583
6.61925e-06;-0.00277090159512276
6.61950e-06;-0.00274613921797977
6.61975e-06;-0.002721376840836864
6.62000e-06;-0.0026966144636939578
6.62025e-06;-0.0026718520865509675
6.62050e-06;-0.002647562789776579
6.62075e-06;-0.0026254752176340973
6.62100e-06;-0.002603387645491541
6.62125e-06;-0.002581300073349059
6.62150e-06;-0.002559212501206577
6.62175e-06;-0.0025374309585810438
6.62200e-06;-0.0025170736828889185
6.62225e-06;-0.002496716407196793
6.62250e-06;-0.0024763591315045993
6.62275e-06;-0.002456001855812474
6.62300e-06;-0.0024356445801202798
6.62325e-06;-0.002415710350116155
6.62350e-06;-0.0023977449824313934
6.62375e-06;-0.0023797796147465708
6.62400e-06;-0.0023618142470618092
6.62425e-06;-0.0023438488793770472
6.62450e-06;-0.002325883511692225
6.62475e-06;-0.002308311437378642
6.62500e-06;-0.002292569757561204
6.62525e-06;-0.0022770165159469668
6.62550e-06;-0.0022623402691548888
6.62575e-06;-0.002247816551887473
6.62600e-06;-0.0022341297079241903
6.62625e-06;-0.00222118022693463
6.62650e-06;-0.0022090769770532
6.62675e-06;-0.002197933964314311
6.62700e-06;-0.0021879106550960832
6.62725e-06;-0.0021792308345763493
6.62750e-06;-0.0021720811924883943
6.62775e-06;-0.002166662431321786
6.62800e-06;-0.002163204547017549
6.62825e-06;-0.0021603068298634695
6.62850e-06;-0.0021600161408048676
6.62875e-06;-0.0021604477501491856
6.62900e-06;-0.00216424094938538
6.62925e-06;-0.0021680341486215744
6.62950e-06;-0.002172985828265845
6.62975e-06;-0.0021833290967795244
6.63000e-06;-0.002193672365293204
6.63025e-06;-0.0022040156338069185
6.63050e-06;-0.002214358902320598
6.63075e-06;-0.0022259251743060532
6.63100e-06;-0.002243183326671796
6.63125e-06;-0.0022604414790374804
6.63150e-06;-0.0022776996314032238
6.63175e-06;-0.002294957783768908
6.63200e-06;-0.0023129623644558063
6.63225e-06;-0.002334440836112519
6.63250e-06;-0.0023559193077691597
6.63275e-06;-0.002377747024268918
6.63300e-06;-0.002401200132614466
6.63325e-06;-0.002424653240959935
6.63350e-06;-0.0024482840807926016
6.63375e-06;-0.0024727420861961635
6.63400e-06;-0.0024972000915996426
6.63425e-06;-0.0025216148995216396
6.63450e-06;-0.0025458286655800078
6.63475e-06;-0.002570042431638294
6.63500e-06;-0.002593996463745322
6.63525e-06;-0.0026167416893239457
6.63550e-06;-0.0026394869149024922
6.63575e-06;-0.002661741676797956
6.63600e-06;-0.00268171381180037
6.63625e-06;-0.0027016859468027847
6.63650e-06;-0.0027210923073556
6.63675e-06;-0.002737865543339747
6.63700e-06;-0.0027546345584069706
6.63725e-06;-0.002771383929250199
6.63750e-06;-0.0027886860343119043
6.63775e-06;-0.0028085605744695204
6.63800e-06;-0.0028289704161156906
6.63825e-06;-0.002851871560615271
6.63850e-06;-0.002874772705114851
6.63875e-06;-0.002898280824331346
6.63900e-06;-0.0029246138149081695
6.63925e-06;-0.002950946805484993
6.63950e-06;-0.002978376575587125
6.63975e-06;-0.0030109107775270253
6.64000e-06;-0.0030434449794670363
6.64025e-06;-0.003076800304172323
6.64050e-06;-0.0031139771491466815
6.64075e-06;-0.0031511539941211668
6.64100e-06;-0.0031890939259690493
6.64125e-06;-0.0032305852779907435
6.64150e-06;-0.003272076630012578
6.64175e-06;-0.0033142234389579007
6.64200e-06;-0.0033594207563346335
6.64225e-06;-0.0034049192206916405
6.64250e-06;-0.003451819228565414
6.64275e-06;-0.0034988697275698936
6.64300e-06;-0.003546620615031062
6.64325e-06;-0.003594525329176639
6.64350e-06;-0.0036431459555070146
6.64375e-06;-0.0036917845567666988
6.64400e-06;-0.0037405068136730293
6.64425e-06;-0.003789034599553448
6.64450e-06;-0.003836657313745123
6.64475e-06;-0.003883905128154605
6.64500e-06;-0.00392940815216661
