Time(s);Current(A)
1.25000e-05;0.00014305425528210125
1.25003e-05;0.00010195487872483169
1.25005e-05;5.790015145917711e-05
1.25008e-05;1.1079751847543011e-05
1.25010e-05;-3.860684821308485e-05
1.25012e-05;-9.136098336912863e-05
1.25015e-05;-0.000147071089742329
1.25018e-05;-0.00020539240774627868
1.25020e-05;-0.00026596330513920365
1.25023e-05;-0.00032842176245659674
1.25025e-05;-0.0003929849648606354
1.25028e-05;-0.0004576377854440683
1.25030e-05;-0.0005244163557303696
1.25033e-05;-0.0005912889836703985
1.25035e-05;-0.0006595790289150879
1.25038e-05;-0.0007279317903601917
1.25040e-05;-0.0007962035318457804
1.25043e-05;-0.0008644716884562097
1.25045e-05;-0.0009311013299484973
1.25048e-05;-0.0009976584723663752
1.25050e-05;-0.001061371359897548
1.25053e-05;-0.0011249583982092244
1.25055e-05;-0.0011845504585154384
1.25058e-05;-0.0012439657537698775
1.25060e-05;-0.0012993626039364185
1.25063e-05;-0.0013433017324824272
1.25065e-05;-0.0013600852146868673
1.25068e-05;-0.0014316464315253298
1.25070e-05;-0.009941261812585303
1.25073e-05;-0.018488238899360767
1.25075e-05;-0.015874118475506942
1.25078e-05;-0.013347759015762371
1.25080e-05;-0.006591687483841006
1.25083e-05;0.0009239121901899673
1.25085e-05;0.000455041994037516
1.25088e-05;-0.00022804554593130945
1.25090e-05;-0.00488475621946069
1.25093e-05;-0.012354951007083132
1.25095e-05;-0.010449975887454811
1.25097e-05;-0.007308726739606423
1.25100e-05;-0.0033144218336813394
1.25103e-05;0.0007031292526974519
1.25105e-05;0.0016168565532462629
1.25108e-05;0.00015630383721340597
1.25110e-05;-0.0029608063018623392
1.25113e-05;-0.006140328711237484
1.25115e-05;-0.006496385680036371
1.25118e-05;-0.004797787096465331
1.25120e-05;-0.0021587037445474654
1.25123e-05;0.00033574446194794297
1.25125e-05;0.0008907049889349563
1.25128e-05;-3.754894685153136e-05
1.25130e-05;-0.002000058489137019
1.25133e-05;-0.003998831049857552
1.25135e-05;-0.004226770855913604
1.25138e-05;-0.0031660560526672425
1.25140e-05;-0.001515080763868801
1.25143e-05;4.607572667561911e-05
1.25145e-05;0.00039288621087572655
1.25148e-05;-0.00018899835175272735
1.25150e-05;-0.001418502962517436
1.25153e-05;-0.002670653327571404
1.25155e-05;-0.0028137117387495515
1.25158e-05;-0.00214995941394144
1.25160e-05;-0.0011170638701821028
1.25163e-05;-0.00014116893414817364
1.25165e-05;7.32461302913213e-05
1.25168e-05;-0.0002948848213023789
1.25170e-05;-0.0010693421785431597
1.25173e-05;-0.0018584023766969532
1.25175e-05;-0.0019530604925416708
1.25178e-05;-0.0015427049513646114
1.25180e-05;-0.0009015137502131025
1.25182e-05;-0.0002964184471389473
1.25185e-05;-0.00016866481367875513
1.25188e-05;-0.000406112443595071
1.25190e-05;-0.0008983295348108728
1.25193e-05;-0.0013999076012929427
1.25195e-05;-0.0014667237738243974
1.25198e-05;-0.0012174211062567547
1.25200e-05;-0.0008237409915685924
1.25203e-05;-0.00045286921940670624
1.25205e-05;-0.00038116079321037343
1.25208e-05;-0.0005383205197810279
1.25210e-05;-0.0008551293329877088
1.25213e-05;-0.0011778287266534264
1.25215e-05;-0.0012282053109747399
1.25218e-05;-0.0010805706842708152
1.25220e-05;-0.000842488307142542
1.25223e-05;-0.0006186583173322941
1.25225e-05;-0.0005821514344871372
1.25228e-05;-0.0006888911407449126
1.25230e-05;-0.0008954790000539704
1.25233e-05;-0.001105567249337787
1.25235e-05;-0.0011448622021380432
1.25238e-05;-0.001059897014502406
1.25240e-05;-0.0009180285199832563
1.25243e-05;-0.0007848140291475565
1.25245e-05;-0.0007686299695150257
1.25248e-05;-0.0008418282620929075
1.25250e-05;-0.0009771880710220853
1.25253e-05;-0.0011143251745647906
1.25255e-05;-0.001144037938556898
1.25258e-05;-0.0010954538368402249
1.25260e-05;-0.0010107411591906948
1.25263e-05;-0.000930936965170086
1.25265e-05;-0.0009238960980120873
1.25267e-05;-0.0009722761035490946
1.25270e-05;-0.0010590441415207054
1.25273e-05;-0.0011464314989635745
1.25275e-05;-0.0011660821785055065
1.25278e-05;-0.0011362717675748595
1.25280e-05;-0.0010834406861712491
1.25283e-05;-0.0010333186974137846
1.25285e-05;-0.0010284306509070807
1.25288e-05;-0.0010581355474527778
1.25290e-05;-0.0011132095407334944
1.25293e-05;-0.0011645236610668757
1.25295e-05;-0.0011751831977783128
1.25298e-05;-0.001154573696727574
1.25300e-05;-0.001118897930315526
1.25303e-05;-0.0010857796140477643
1.25305e-05;-0.0010802851658265234
1.25308e-05;-0.001096314516275748
1.25310e-05;-0.0011280796591972139
1.25313e-05;-0.0011574783201926681
1.25315e-05;-0.001161293204529323
1.25318e-05;-0.0011454735488644389
1.25320e-05;-0.0011201923901227896
1.25323e-05;-0.0010965149599232171
1.25325e-05;-0.001090162387907605
1.25328e-05;-0.001097340193858976
1.25330e-05;-0.0011144719890342917
1.25333e-05;-0.0011301352975394414
1.25335e-05;-0.0011299242184401217
1.25338e-05;-0.0011175588722378603
1.25340e-05;-0.0010994930187277472
1.25343e-05;-0.0010824584643590676
1.25345e-05;-0.0010765645460625412
1.25348e-05;-0.0010793863035310992
1.25350e-05;-0.0010887920794581383
1.25352e-05;-0.0010973169851687763
1.25355e-05;-0.0010963178210268143
1.25358e-05;-0.0010880337630385197
1.25360e-05;-0.0010765894360070117
1.25363e-05;-0.001065999085777565
1.25365e-05;-0.0010628445662419796
1.25368e-05;-0.0010652669529832954
1.25370e-05;-0.001070719104299088
1.25373e-05;-0.0010743370982811322
1.25375e-05;-0.0010690572761963648
1.25378e-05;-0.001056679281254815
1.25380e-05;-0.001039272105635601
1.25383e-05;-0.0010220191398630063
1.25385e-05;-0.001006469270552659
1.25388e-05;-0.0009924299248313738
1.25390e-05;-0.0009777114192774726
1.25393e-05;-0.0009622401090210715
1.25395e-05;-0.0009386908740920644
1.25398e-05;-0.0009093337162212464
1.25400e-05;-0.0008752730377766745
1.25403e-05;-0.0008411795508609337
1.25405e-05;-0.0008067866148502565
1.25408e-05;-0.000772654833783268
1.25410e-05;-0.0007380136595324405
1.25413e-05;-0.0007011836924585896
1.25415e-05;-0.0006596229004402928
1.25418e-05;-0.0006143036676359493
1.25420e-05;-0.000566524751744515
1.25423e-05;-0.000517557244939757
1.25425e-05;-0.0004693031351641983
1.25428e-05;-0.0004215894779136454
1.25430e-05;-0.0003740743845024694
1.25433e-05;-0.0003258467263758911
1.25435e-05;-0.0002754550396519736
1.25437e-05;-0.00022364944890470396
1.25440e-05;-0.00017138435329827528
1.25443e-05;-0.00011959682839868415
1.25445e-05;-6.961897116210097e-05
1.25448e-05;-2.148314111645549e-05
1.25450e-05;2.488418890563253e-05
1.25453e-05;6.991303891461859e-05
1.25455e-05;0.0001143718318758149
1.25458e-05;0.00015764993934885854
1.25460e-05;0.00019900879493841452
1.25463e-05;0.00023772078767695976
1.25465e-05;0.000272805654517861
1.25468e-05;0.00030402500824968254
1.25470e-05;0.0003310054424084772
1.25473e-05;0.00035359770279273935
1.25475e-05;0.0003722242588776232
1.25478e-05;0.0003866848953098312
1.25480e-05;0.00039671610032731886
1.25483e-05;0.0004020612181750139
1.25485e-05;0.0004023053652462032
1.25488e-05;0.0003974984372280919
1.25490e-05;0.0003876057081807595
1.25493e-05;0.00037273290141156705
1.25495e-05;0.00035334384805817874
1.25498e-05;0.0003295123481754964
1.25500e-05;0.00030127243641736394
1.25503e-05;0.00026866262406287107
1.25505e-05;0.00023162219837151131
1.25508e-05;0.00019038160917174678
1.25510e-05;0.00014511830659421184
1.25513e-05;9.609771792504034e-05
1.25515e-05;4.3809539840924404e-05
1.25518e-05;-1.1500874421783689e-05
1.25520e-05;-6.961303225445102e-05
1.25522e-05;-0.0001303037480023585
1.25525e-05;-0.00019341189873532037
1.25528e-05;-0.0002586596288847343
1.25530e-05;-0.00032619722114303864
1.25533e-05;-0.0003939101694764706
1.25535e-05;-0.0004633806926345589
1.25538e-05;-0.0005328933524727686
1.25540e-05;-0.0006028283436606421
1.25543e-05;-0.0006726853163791094
1.25545e-05;-0.0007417603184812908
1.25548e-05;-0.0008106154330677043
1.25550e-05;-0.0008772666390656184
1.25553e-05;-0.0009435328168254755
1.25555e-05;-0.0010059398985389526
1.25558e-05;-0.0010678063639274983
1.25560e-05;-0.0011242542908362298
1.25563e-05;-0.0011800166458534613
1.25565e-05;-0.0012289075885611191
1.25568e-05;-0.0012770315111473197
1.25570e-05;-0.0013174676746917004
1.25573e-05;-0.0013571446545499796
1.25575e-05;-0.001389212419100427
1.25578e-05;-0.0014204881756515971
1.25580e-05;-0.001443825722387599
1.25583e-05;-0.001466335859870907
1.25585e-05;-0.0014805529646336514
1.25588e-05;-0.0014939470324943297
1.25590e-05;-0.0014990918912271666
1.25593e-05;-0.0015034740335411465
1.25595e-05;-0.0015002115523545965
1.25598e-05;-0.0014962211804155998
1.25600e-05;-0.001484935238833465
1.25603e-05;-0.0014729546162965677
1.25605e-05;-0.0014540112822982452
1.25607e-05;-0.0014345779070802358
1.25610e-05;-0.0014099399124181066
1.25613e-05;-0.001382094365191513
1.25615e-05;-0.0013512812564705828
1.25618e-05;-0.0013177105577347158
1.25620e-05;-0.0012815894037664277
1.25623e-05;-0.0012431248746087112
1.25625e-05;-0.001202531366248509
1.25628e-05;-0.0011600235561227937
1.25630e-05;-0.0011158872425620738
1.25633e-05;-0.0010704619104590482
1.25635e-05;-0.0010240503388108078
1.25638e-05;-0.0009769363114497148
1.25640e-05;-0.0009294020403595454
1.25643e-05;-0.0008817298264474392
1.25645e-05;-0.000834206205631199
1.25648e-05;-0.0007871181014133765
1.25650e-05;-0.0007407969937680374
1.25653e-05;-0.0006956076692983308
1.25655e-05;-0.0006518921375151715
1.25658e-05;-0.0006099804677808103
1.25660e-05;-0.0005702018245388887
1.25663e-05;-0.000532885096311261
1.25665e-05;-0.0004983665345289122
1.25668e-05;-0.0004670443882854004
1.25670e-05;-0.00043951000416577206
1.25673e-05;-0.0004163522148293593
1.25675e-05;-0.00039781276050187306
1.25678e-05;-0.0003839096172918928
1.25680e-05;-0.00037464546017177254
1.25683e-05;-0.0003700228313735386
1.25685e-05;-0.0003700488186899918
1.25688e-05;-0.00037476937353269545
1.25690e-05;-0.00038435130984874145
1.25692e-05;-0.0003989599823426225
1.25695e-05;-0.0004185431335229026
1.25698e-05;-0.00044290852138201357
1.25700e-05;-0.0004718541574157787
1.25703e-05;-0.0005051780925429587
1.25705e-05;-0.0005426812504179228
1.25708e-05;-0.0005841888391451917
1.25710e-05;-0.0006296017074169852
1.25713e-05;-0.0006789685305436128
1.25715e-05;-0.0007330963000883334
1.25718e-05;-0.0007877584178656257
1.25720e-05;-0.0008477762497220106
1.25723e-05;-0.0009082093360654046
1.25725e-05;-0.0009728044728564345
1.25728e-05;-0.0010377087686266925
1.25730e-05;-0.001105711731134
1.25733e-05;-0.0011739111642616238
1.25735e-05;-0.0012440798010008775
1.25738e-05;-0.0013142995805117874
1.25740e-05;-0.0013850319584465091
1.25743e-05;-0.0014556670885466306
1.25745e-05;-0.0015253275141984492
1.25748e-05;-0.0015947504863637139
1.25750e-05;-0.0016617934881272365
1.25753e-05;-0.0017284547013114962
1.25755e-05;-0.0017912892891905495
1.25758e-05;-0.0018534059385205148
1.25760e-05;-0.0019083267680426279
1.25763e-05;-0.0019632475975643686
1.25765e-05;-0.0020172805195707456
1.25768e-05;-0.0020624140413511172
1.25770e-05;-0.002106979460317203
1.25773e-05;-0.002145850846716075
1.25775e-05;-0.0021847222331149462
1.25777e-05;-0.002222934359175703
1.25780e-05;-0.002254538790745279
1.25783e-05;-0.0022861432223148554
1.25785e-05;-0.00231709089303843
1.25788e-05;-0.0023414559214047117
1.25790e-05;-0.002365384031554887
1.25793e-05;-0.0023849329580573533
1.25795e-05;-0.0024044818845596868
1.25798e-05;-0.002423365913842217
1.25800e-05;-0.0024355857507776346
1.25803e-05;-0.0024478055877129694
1.25805e-05;-0.002460025424648387
1.25808e-05;-0.0024722452615838046
1.25810e-05;-0.0024837885121263784
1.25813e-05;-0.002488550411016516
1.25815e-05;-0.002493312309906654
1.25818e-05;-0.0024980742087967593
1.25820e-05;-0.0025028361076868968
1.25823e-05;-0.0025071789396612443
1.25825e-05;-0.0025073215096253747
1.25828e-05;-0.0025074640795895056
1.25830e-05;-0.0025074041907137993
1.25833e-05;-0.0025053150789585174
1.25835e-05;-0.002503225967203221
1.25838e-05;-0.0025010096418740017
1.25840e-05;-0.002497518268762221
1.25843e-05;-0.0024940268956504166
1.25845e-05;-0.002490437986029899
1.25848e-05;-0.0024858714786159465
1.25850e-05;-0.002481304971201963
1.25853e-05;-0.0024767585794167515
1.25855e-05;-0.002472413804385771
1.25858e-05;-0.00246806902935476
1.25860e-05;-0.0024637640420094972
1.25862e-05;-0.002459882745688746
1.25865e-05;-0.00245625878413171
1.25868e-05;-0.002452615038810123
1.25870e-05;-0.0024477450411050966
1.25873e-05;-0.00244004073835559
1.25875e-05;-0.002428876077569207
1.25878e-05;-0.002414279840388641
1.25880e-05;-0.0023955522239817906
1.25883e-05;-0.002376334809264386
1.25885e-05;-0.002352208199477041
1.25888e-05;-0.002327501450590994
1.25890e-05;-0.0022969800307603735
1.25893e-05;-0.002265717022259528
1.25895e-05;-0.0022270211513611264
1.25898e-05;-0.002187821224487339
1.25900e-05;-0.0021432736962199678
1.25903e-05;-0.002095499199109862
1.25905e-05;-0.0020448242415256374
1.25908e-05;-0.0019914622423094362
1.25910e-05;-0.0019352611818188004
1.25913e-05;-0.0018759121153457763
1.25915e-05;-0.0018134915066617653
1.25918e-05;-0.0017483836695931316
1.25920e-05;-0.0016809964706204935
1.25923e-05;-0.0016117372997615286
1.25925e-05;-0.001541009049157421
1.25928e-05;-0.001469142679486051
1.25930e-05;-0.0013962411375963621
1.25933e-05;-0.0013223085577036106
1.25935e-05;-0.001247590504562224
1.25938e-05;-0.0011725257763032832
1.25940e-05;-0.0010975674402373767
1.25943e-05;-0.0010231683783684786
1.25945e-05;-0.0009497786059316769
1.25947e-05;-0.0008778032234850646
1.25950e-05;-0.0008075041970578455
1.25953e-05;-0.0007390818485293988
1.25955e-05;-0.0006728876161363866
1.25958e-05;-0.0006093938214284799
1.25960e-05;-0.0005490817888348388
1.25963e-05;-0.0004924328798693681
1.25965e-05;-0.0004399273520347995
1.25968e-05;-0.0003920278092168332
1.25970e-05;-0.00034909955224184986
1.25973e-05;-0.00031134464008782326
1.25975e-05;-0.00027886634696968514
1.25978e-05;-0.0002517524075536623
1.25980e-05;-0.00023009130012475405
1.25983e-05;-0.00021397151886983867
1.25985e-05;-0.00020348086597387743
1.25988e-05;-0.00019869612935942966
1.25990e-05;-0.0001996329974236912
1.25993e-05;-0.00020620498225396288
1.25995e-05;-0.0002182637330896758
1.25998e-05;-0.0002356510956351372
1.26000e-05;-0.0002582094594163501
1.26003e-05;-0.0002857812179501997
1.26005e-05;-0.0003182083011684433
1.26008e-05;-0.0003553257155431259
1.26010e-05;-0.0003969303235676664
1.26013e-05;-0.00044275487532542435
1.26015e-05;-0.0004924934087963704
1.26018e-05;-0.0005458339229362624
1.26020e-05;-0.0006025868931660593
1.26023e-05;-0.0006632992297286333
1.26025e-05;-0.0007244425490932525
1.26028e-05;-0.0007899055621089399
1.26030e-05;-0.0008556697656522657
1.26032e-05;-0.0009244527690230086
1.26035e-05;-0.0009933907637713244
1.26038e-05;-0.0010638822201980045
1.26040e-05;-0.0011343805783900706
1.26043e-05;-0.0012049481122295646
1.26045e-05;-0.0012753735869219555
1.26048e-05;-0.0013443752182675554
1.26050e-05;-0.0014130763086009556
1.26053e-05;-0.0014787651091333264
1.26055e-05;-0.0015439846476737872
1.26058e-05;-0.0016045008244186725
1.26060e-05;-0.001664377835333815
1.26063e-05;-0.0017178485568021444
1.26065e-05;-0.0017705191592468335
1.26068e-05;-0.0018151702559335544
1.26070e-05;-0.0018589334222239896
1.26073e-05;-0.0018937969589355357
1.26075e-05;-0.0019277391547900381
1.26078e-05;-0.0019524468516562822
1.26080e-05;-0.00197619927970367
1.26083e-05;-0.0019903771525030547
1.26085e-05;-0.002003571299240957
1.26088e-05;-0.002006905666888713
1.26090e-05;-0.0020092736711423025
1.26093e-05;-0.0020019559204275585
1.26095e-05;-0.0019937232289628684
1.26098e-05;-0.001976320186087579
1.26100e-05;-0.001958262927624954
1.26103e-05;-0.001933229372856949
1.26105e-05;-0.001903588844269351
1.26108e-05;-0.001869493762818514
1.26110e-05;-0.0018311466245783746
1.26113e-05;-0.001788818122020192
1.26115e-05;-0.0017428020461386113
1.26117e-05;-0.0016933870013197856
1.26120e-05;-0.0016408605122854721
1.26123e-05;-0.0015855099131727392
1.26125e-05;-0.0015276231089088323
1.26128e-05;-0.0014674944127468237
1.26130e-05;-0.0014054503295196257
1.26133e-05;-0.0013418593422616764
1.26135e-05;-0.0012771050190616446
1.26138e-05;-0.001211567159746368
1.26140e-05;-0.0011456249395807084
1.26143e-05;-0.0010796576185611566
1.26145e-05;-0.0010140445142861317
1.26148e-05;-0.0009491693387125752
1.26150e-05;-0.0008854353703195249
1.26153e-05;-0.0008232726453708931
1.26155e-05;-0.0007631202987864082
1.26158e-05;-0.0007054152532319885
1.26160e-05;-0.0006505940079560548
1.26163e-05;-0.0005990930410857237
1.26165e-05;-0.0005513454295474311
1.26168e-05;-0.0005077347190011917
1.26170e-05;-0.0004684489210818022
1.26173e-05;-0.0004334824229238816
1.26175e-05;-0.000402855361744095
1.26178e-05;-0.00037666504591832636
1.26180e-05;-0.00035501650853050383
1.26183e-05;-0.00033801474827971427
1.26185e-05;-0.00032576268312119395
1.26188e-05;-0.00031833215893453204
1.26190e-05;-0.0003156724413834837
1.26193e-05;-0.0003176116329673738
1.26195e-05;-0.0003239938886038773
1.26198e-05;-0.00033471174800257466
1.26200e-05;-0.0003496626175208939
1.26202e-05;-0.0003687438638507495
1.26205e-05;-0.00039185147778196804
1.26208e-05;-0.0004188620813787697
1.26210e-05;-0.0004495754641038492
1.26213e-05;-0.00048371562496195395
1.26215e-05;-0.0005211395710601563
1.26218e-05;-0.0005624761489114816
1.26220e-05;-0.0006042628650010409
1.26223e-05;-0.0006505612675954433
1.26225e-05;-0.0006972216590959708
1.26228e-05;-0.0007475102259494811
1.26230e-05;-0.0007980487587095401
1.26233e-05;-0.0008510926725042215
1.26235e-05;-0.0009042679865209228
1.26238e-05;-0.0009587603106459445
1.26240e-05;-0.001013270023841326
1.26243e-05;-0.0010679540257933651
1.26245e-05;-0.0011225391851648553
1.26248e-05;-0.0011761336561202868
1.26250e-05;-0.0012294981034176706
1.26253e-05;-0.0012805570486637114
1.26255e-05;-0.0013312507336617717
1.26258e-05;-0.0013782834550021095
1.26260e-05;-0.0014248185204762396
1.26263e-05;-0.0014663656354370889
1.26265e-05;-0.001507276177351145
1.26268e-05;-0.0015418064169965366
1.26270e-05;-0.0015755612245021758
1.26273e-05;-0.0016015439601805533
1.26275e-05;-0.0016267018688320503
1.26278e-05;-0.0016435926260835812
1.26280e-05;-0.0016596441032604636
1.26283e-05;-0.0016672835677170774
1.26285e-05;-0.0016740655286913188
1.26288e-05;-0.0016722528257151579
1.26290e-05;-0.0016695644486550067
1.26293e-05;-0.0016580992856848422
1.26295e-05;-0.0016457963212127922
1.26298e-05;-0.0016250961635927092
1.26300e-05;-0.0016038049782440096
1.26303e-05;-0.0015762159708737242
1.26305e-05;-0.0015445184361550638
1.26308e-05;-0.0015088668826937388
1.26310e-05;-0.001469397088890269
1.26313e-05;-0.0014262726976090041
1.26315e-05;-0.001379738478597671
1.26318e-05;-0.0013300845169908141
1.26320e-05;-0.001277604147716109
1.26323e-05;-0.001222590377576634
1.26325e-05;-0.0011653356533894348
1.26328e-05;-0.0011061265289691933
1.26330e-05;-0.001045237392569311
1.26333e-05;-0.0009829602303083594
1.26335e-05;-0.0009196378477027969
1.26338e-05;-0.0008556414399233845
1.26340e-05;-0.0007913440016616844
1.26343e-05;-0.0007271185170480295
1.26345e-05;-0.0006633375686428335
1.26348e-05;-0.0006003699407559149
1.26350e-05;-0.0005385768420359276
1.26353e-05;-0.0004783303719307171
1.26355e-05;-0.0004200345117438559
1.26358e-05;-0.00036411104984721655
1.26360e-05;-0.0003109828040486207
1.26363e-05;-0.0002610725604128775
1.26365e-05;-0.0002148025015733829
1.26368e-05;-0.00017258330165877215
1.26370e-05;-0.00013475279545301013
1.26373e-05;-0.00010151081432198408
1.26375e-05;-7.2956779386707e-05
1.26378e-05;-4.916562707013948e-05
1.26380e-05;-3.0212228476504014e-05
1.26383e-05;-1.6171393025267985e-05
1.26385e-05;-7.117547783361247e-06
1.26388e-05;-3.117905139143706e-06
1.26390e-05;-4.194003469001112e-06
1.26393e-05;-1.028095624667304e-05
1.26395e-05;-2.1250978680485955e-05
1.26398e-05;-3.6960951721769974e-05
1.26400e-05;-5.7267709666185476e-05
1.26403e-05;-8.202805538581138e-05
1.26405e-05;-0.0001110985669773835
1.26408e-05;-0.00014433130001478142
1.26410e-05;-0.00018154971184697094
1.26413e-05;-0.00022252311893953316
1.26415e-05;-0.00026698145957343693
1.26418e-05;-0.0003146451107763689
1.26420e-05;-0.0003652343741458277
1.26423e-05;-0.0004185653285539273
1.26425e-05;-0.00047503054313795007
1.26428e-05;-0.0005318231717902639
1.26430e-05;-0.0005918974359739044
