Time(s);Current(A)
1.32500e-05;-0.01205579103169649
1.32503e-05;-0.012048640686214558
1.32505e-05;-0.012041490340732626
1.32508e-05;-0.012034339995250743
1.32510e-05;-0.012027322652176008
1.32513e-05;-0.012021400456589717
1.32515e-05;-0.012015478261003465
1.32518e-05;-0.012009556065417175
1.32520e-05;-0.012003633869830882
1.32523e-05;-0.011997711674244632
1.32525e-05;-0.011993397259014122
1.32528e-05;-0.011990118156894585
1.32530e-05;-0.01198683905477507
1.32533e-05;-0.011983559952655534
1.32535e-05;-0.011980280850535997
1.32538e-05;-0.01197743943650988
1.32540e-05;-0.011978201964896485
1.32543e-05;-0.011978964493283093
1.32545e-05;-0.011979727021669703
1.32548e-05;-0.011980489550056308
1.32550e-05;-0.011981252078442917
1.32553e-05;-0.011982014606829527
1.32555e-05;-0.011982777135216132
1.32558e-05;-0.011983539663602742
1.32560e-05;-0.01198430219198935
1.32563e-05;-0.011985064720375955
1.32565e-05;-0.011985827248762565
1.32568e-05;-0.011986589777149175
1.32570e-05;-0.011987352305535779
1.32573e-05;-0.011988114833922389
1.32575e-05;-0.011990334253312479
1.32578e-05;-0.011993491822215265
1.32580e-05;-0.011996649391118072
1.32583e-05;-0.01199980696002088
1.32585e-05;-0.012002964528923667
1.32588e-05;-0.012006122097826475
1.32590e-05;-0.012009279666729282
1.32593e-05;-0.012012437235632068
1.32595e-05;-0.012015594804534877
1.32598e-05;-0.012018752373437686
1.32600e-05;-0.012021909942340472
1.32603e-05;-0.012025067511243279
1.32605e-05;-0.012028225080146088
1.32608e-05;-0.012031382649048874
1.32610e-05;-0.012034638260149062
1.32613e-05;-0.012038701154880822
1.32615e-05;-0.012042764049612555
1.32618e-05;-0.012046826944344315
1.32620e-05;-0.012050941931981606
1.32623e-05;-0.012055485854823154
1.32625e-05;-0.012060029777664674
1.32628e-05;-0.012064573700506223
1.32630e-05;-0.012069150805469588
1.32633e-05;-0.012074018682645436
1.32635e-05;-0.012079052845964848
1.32638e-05;-0.012084329324825732
1.32640e-05;-0.012090270458993985
1.32643e-05;-0.012097617731452622
1.32645e-05;-0.012106817737127351
1.32648e-05;-0.012117978419308171
1.32650e-05;-0.012131490978543267
1.32653e-05;-0.01214535255520246
1.32655e-05;-0.012162087956206899
1.32658e-05;-0.012179197336870019
1.32660e-05;-0.012199386081981246
1.32663e-05;-0.012220047344541168
1.32665e-05;-0.012244599335914468
1.32668e-05;-0.012269586930886811
1.32670e-05;-0.012298161304459682
1.32673e-05;-0.012327019339788298
1.32675e-05;-0.01235850727963964
1.32678e-05;-0.01239241785216825
1.32680e-05;-0.012426328424697089
1.32683e-05;-0.012462698821857207
1.32685e-05;-0.012500653197004769
1.32688e-05;-0.012538941037348058
1.32690e-05;-0.012579974644324329
1.32693e-05;-0.012621209008180081
1.32695e-05;-0.012664096412741124
1.32698e-05;-0.012707122143381336
1.32700e-05;-0.012751286856853165
1.32703e-05;-0.012795556209995092
1.32705e-05;-0.012840687170638384
1.32708e-05;-0.012885836134347756
1.32710e-05;-0.01293113333607031
1.32713e-05;-0.012976349347495163
1.32715e-05;-0.013020896834545458
1.32718e-05;-0.013065279772562914
1.32720e-05;-0.013108307806832723
1.32723e-05;-0.013151105633829003
1.32725e-05;-0.013192007924321975
1.32728e-05;-0.013232581419322712
1.32730e-05;-0.013270447598222716
1.32733e-05;-0.013308000664973247
1.32735e-05;-0.013342655330336472
1.32738e-05;-0.013374673269129177
1.32740e-05;-0.013406721263460548
1.32743e-05;-0.01343901673638049
1.32745e-05;-0.013471619572571383
1.32748e-05;-0.013506753251037227
1.32750e-05;-0.013542113573144655
1.32753e-05;-0.013579340088656326
1.32755e-05;-0.013616566604167745
1.32758e-05;-0.01365412665547496
1.32760e-05;-0.013694433054740884
1.32763e-05;-0.013734739454006537
1.32765e-05;-0.01377594750262918
1.32768e-05;-0.013824579770491738
1.32770e-05;-0.013873212038353967
1.32773e-05;-0.013921844306216525
1.32775e-05;-0.013970476574079084
1.32778e-05;-0.014019108841941312
1.32780e-05;-0.014068358072020457
1.32783e-05;-0.014122687395292367
1.32785e-05;-0.014177016718563909
1.32788e-05;-0.01423134604183582
1.32790e-05;-0.01428567536510773
1.32793e-05;-0.01434000468837964
1.32795e-05;-0.014389931346580802
1.32798e-05;-0.014444142296231763
1.32800e-05;-0.014506189262841118
1.32803e-05;-0.023866460340781916
1.32805e-05;-0.02981329264075378
1.32808e-05;-0.02767235910096205
1.32810e-05;-0.025204608827549616
1.32813e-05;-0.018732067806907334
1.32815e-05;-0.01311645092361206
1.32818e-05;-0.013286479412650626
1.32820e-05;-0.01420410638566353
1.32823e-05;-0.019112985320624432
1.32825e-05;-0.023614594648975012
1.32828e-05;-0.022506174143177383
1.32830e-05;-0.020659513466502452
1.32833e-05;-0.017004462687634708
1.32835e-05;-0.013595792382147375
1.32838e-05;-0.012830276076662558
1.32840e-05;-0.01410797134114106
1.32843e-05;-0.01681877945984296
1.32845e-05;-0.019428507738353775
1.32848e-05;-0.019684612073863874
1.32850e-05;-0.018330595593377703
1.32853e-05;-0.016125468279960562
1.32855e-05;-0.014025546258369301
1.32858e-05;-0.013564336463250172
1.32860e-05;-0.014378890913701618
1.32863e-05;-0.0160874901931305
1.32865e-05;-0.017729554319912195
1.32868e-05;-0.017894575015756305
1.32870e-05;-0.017048760234894655
1.32873e-05;-0.0156679423733867
1.32875e-05;-0.014351457765676834
1.32878e-05;-0.01406009722536139
1.32880e-05;-0.014566648412858652
1.32883e-05;-0.015632142620610065
1.32885e-05;-0.01665503259740679
1.32888e-05;-0.016751987268513468
1.32890e-05;-0.01621526130020856
1.32893e-05;-0.015343097801671673
1.32895e-05;-0.014511066231268488
1.32898e-05;-0.014321092959498863
1.32900e-05;-0.01463091374984043
1.32903e-05;-0.015290908746889632
1.32905e-05;-0.015924355203709682
1.32908e-05;-0.015978063383269524
1.32910e-05;-0.015635239074408353
1.32913e-05;-0.01508282118717133
1.32915e-05;-0.01455616073336579
1.32918e-05;-0.014432369532744826
1.32920e-05;-0.0146223857069402
1.32923e-05;-0.015032545624876511
1.32925e-05;-0.015426941658248886
1.32928e-05;-0.015461274244700337
1.32930e-05;-0.01526594763361068
1.32933e-05;-0.014893319557842278
1.32935e-05;-0.014548068011826818
1.32938e-05;-0.0144373506609617
1.32940e-05;-0.014591282089777603
1.32943e-05;-0.014841980053226216
1.32945e-05;-0.015081325313126106
1.32948e-05;-0.015150817347724053
1.32950e-05;-0.01502989543477437
1.32953e-05;-0.014806898270575294
1.32955e-05;-0.01459734379098302
1.32958e-05;-0.014503422711741643
1.32960e-05;-0.01455305581840239
1.32963e-05;-0.014696877020557724
1.32965e-05;-0.014832697571670724
1.32968e-05;-0.014861120989427577
1.32970e-05;-0.014769379855716285
1.32973e-05;-0.01461291995277491
1.32975e-05;-0.014464204301405591
1.32978e-05;-0.014387345424167503
1.32980e-05;-0.014399925714457378
1.32983e-05;-0.014471116598178424
1.32985e-05;-0.014537007112212426
1.32988e-05;-0.014535440518384162
1.32990e-05;-0.014458526045532188
1.32993e-05;-0.014341101462175009
1.32995e-05;-0.014228663350361865
1.32998e-05;-0.014189501390797625
1.33000e-05;-0.01415080167819321
1.33003e-05;-0.014176924094538064
1.33005e-05;-0.014200428361288361
1.33008e-05;-0.01415920707891987
1.33010e-05;-0.014117577425495987
1.33013e-05;-0.014028604291171825
1.33015e-05;-0.013943549786048356
1.33018e-05;-0.013906005126273697
1.33020e-05;-0.013868760139530836
1.33023e-05;-0.013873917486704803
1.33025e-05;-0.01387877789684352
1.33028e-05;-0.013845304067046944
1.33030e-05;-0.0138115883272006
1.33033e-05;-0.013750623628627731
1.33035e-05;-0.013693870039714201
1.33038e-05;-0.013669176424091867
1.33040e-05;-0.013644684968685998
1.33043e-05;-0.013646845999028817
1.33045e-05;-0.013639062035127412
1.33048e-05;-0.013631214245452388
1.33050e-05;-0.01359644465484352
1.33053e-05;-0.013551764461872071
1.33055e-05;-0.013520903786116104
1.33058e-05;-0.01349013071516494
1.33060e-05;-0.013459357644213568
1.33063e-05;-0.01344998757236264
1.33065e-05;-0.013427190259872497
1.33068e-05;-0.013404307353773338
1.33070e-05;-0.013381424447674177
1.33073e-05;-0.013340083579603167
1.33075e-05;-0.013298626220855446
1.33078e-05;-0.013271336599249669
1.33080e-05;-0.013244136392135633
1.33083e-05;-0.013216936185021413
1.33085e-05;-0.013186956139268851
1.33088e-05;-0.013156958549581549
1.33090e-05;-0.013126960959894041
1.33093e-05;-0.01308539222631956
1.33095e-05;-0.013043750465702346
1.33098e-05;-0.013009456104579747
1.33100e-05;-0.012975208113882124
1.33103e-05;-0.01294711318850045
1.33105e-05;-0.01291858972766394
1.33108e-05;-0.012886033769728905
1.33110e-05;-0.012849178506126184
1.33113e-05;-0.012810337950174833
1.33115e-05;-0.012772467896609678
1.33118e-05;-0.012738194915148451
1.33120e-05;-0.012708270297774124
1.33123e-05;-0.012681495555857953
1.33125e-05;-0.012655508670774687
1.33128e-05;-0.012628142112912404
1.33130e-05;-0.012599310108903162
1.33133e-05;-0.012580678751875185
1.33135e-05;-0.012562111830521971
1.33138e-05;-0.012543544909168631
1.33140e-05;-0.012524977987815291
1.33143e-05;-0.012506411066462076
1.33145e-05;-0.012487844145108737
1.33148e-05;-0.012469277223755397
1.33150e-05;-0.012450710302402182
1.33153e-05;-0.012432143381048841
1.33155e-05;-0.012413576459695501
1.33158e-05;-0.012395009538342288
1.33160e-05;-0.012376442616988947
1.33163e-05;-0.012362762152355218
1.33165e-05;-0.012354092284243667
1.33168e-05;-0.012345422416132056
1.33170e-05;-0.012336752548020446
1.33173e-05;-0.012328082679908894
1.33175e-05;-0.012319412811797284
1.33178e-05;-0.012310742943685673
1.33180e-05;-0.012302073075574122
1.33183e-05;-0.012293403207462512
1.33185e-05;-0.0122847333393509
1.33188e-05;-0.01227606347123935
1.33190e-05;-0.012267393603127738
1.33193e-05;-0.012258723735016129
1.33195e-05;-0.0122546123139692
1.33198e-05;-0.012250529661894249
1.33200e-05;-0.012246447009819299
1.33203e-05;-0.012242364357744378
1.33205e-05;-0.012238281705669428
1.33208e-05;-0.012234199053594477
1.33210e-05;-0.012230116401519555
1.33213e-05;-0.012226033749444604
1.33215e-05;-0.012221951097369654
1.33218e-05;-0.012217868445294704
1.33220e-05;-0.012213785793219781
1.33223e-05;-0.012209703141144833
1.33225e-05;-0.012205620489069882
1.33228e-05;-0.01220153783699496
1.33230e-05;-0.012198583082731602
1.33233e-05;-0.012195620639075184
1.33235e-05;-0.012192829316086324
1.33238e-05;-0.012190398160565948
1.33240e-05;-0.01218862173591451
1.33243e-05;-0.012187889670525132
1.33245e-05;-0.012188314544036086
1.33248e-05;-0.012189755452801833
1.33250e-05;-0.012192142092043789
1.33253e-05;-0.012195502713632763
1.33255e-05;-0.012199892102057148
1.33258e-05;-0.012205962603808755
1.33260e-05;-0.012212043674559728
1.33263e-05;-0.012220791983670888
1.33265e-05;-0.012229557126081822
1.33268e-05;-0.012241353992409627
1.33270e-05;-0.012253169992354632
1.33273e-05;-0.012264985992299558
1.33275e-05;-0.012281031690568484
1.33278e-05;-0.012297104083032168
1.33280e-05;-0.012313176475495744
1.33283e-05;-0.012329248867959428
1.33285e-05;-0.012345321260423111
1.33288e-05;-0.0123656182919104
1.33290e-05;-0.012385941985662688
1.33293e-05;-0.012406265679414977
1.33295e-05;-0.01242658937316713
1.33298e-05;-0.012446913066919417
1.33300e-05;-0.012469159541524232
1.33303e-05;-0.012491418151057542
1.33305e-05;-0.012513676760590701
1.33308e-05;-0.012536339497148268
1.33310e-05;-0.012559004784205826
1.33313e-05;-0.012581670071263231
1.33315e-05;-0.012603812769634464
1.33318e-05;-0.012625952169878224
1.33320e-05;-0.012647179045131194
1.33323e-05;-0.012668400161316382
1.33325e-05;-0.012688035742193291
1.33328e-05;-0.012707661316543516
1.33330e-05;-0.012725979529397217
1.33333e-05;-0.012742957167403429
1.33335e-05;-0.012759934805409524
1.33338e-05;-0.012774269175032642
1.33340e-05;-0.012788586862633494
1.33343e-05;-0.01280352786218271
1.33345e-05;-0.012818472795537564
1.33348e-05;-0.012835481090420398
1.33350e-05;-0.012852502407455241
1.33353e-05;-0.012871142854785413
1.33355e-05;-0.012889793520664663
1.33358e-05;-0.012908444186543785
1.33360e-05;-0.012931708995859317
1.33363e-05;-0.01295500292565474
1.33365e-05;-0.012978296855450006
1.33368e-05;-0.013001590785245432
1.33370e-05;-0.013024884715040855
1.33373e-05;-0.01304817864483612
1.33375e-05;-0.013078235840903119
1.33378e-05;-0.013108335720853403
1.33380e-05;-0.013138435600803485
1.33383e-05;-0.01316853548075377
1.33385e-05;-0.013198635360704055
1.33388e-05;-0.01322873524065434
1.33390e-05;-0.0132635945528078
1.33393e-05;-0.013298483902378441
1.33395e-05;-0.013333373251949082
1.33398e-05;-0.013368262601519488
1.33400e-05;-0.013403151951090129
1.33403e-05;-0.01343804130066077
1.33405e-05;-0.013472927254634023
1.33408e-05;-0.013507809726745652
1.33410e-05;-0.01354269219885728
1.33413e-05;-0.013577574670968673
1.33415e-05;-0.0136124571430803
1.33418e-05;-0.01364733961519193
1.33420e-05;-0.013682222087303322
1.33423e-05;-0.013713338987808571
1.33425e-05;-0.013744432123284684
1.33428e-05;-0.013775525258760586
1.33430e-05;-0.013803109430239054
1.33433e-05;-0.013830671456173511
1.33435e-05;-0.013854400599502973
1.33438e-05;-0.01387810555299466
1.33440e-05;-0.013900055793117105
1.33443e-05;-0.013921994959007172
1.33445e-05;-0.013948119461796187
1.33448e-05;-0.013974270378809673
1.33450e-05;-0.014000421295822983
1.33453e-05;-0.01403049687237993
1.33455e-05;-0.014060597217991503
1.33458e-05;-0.014090697563602872
1.33460e-05;-0.014129469388306042
1.33463e-05;-0.014168295939880969
1.33465e-05;-0.014207122491455632
1.33468e-05;-0.014245949043030559
1.33470e-05;-0.014284775594605486
1.33473e-05;-0.014323602146180415
1.33475e-05;-0.014368692442632445
1.33478e-05;-0.01442020561359918
1.33480e-05;-0.014471718784565915
1.33483e-05;-0.014523231955532302
1.33485e-05;-0.014574745126499037
1.33488e-05;-0.014626258297465772
1.33490e-05;-0.014677771468432159
1.33493e-05;-0.014736962710464185
1.33495e-05;-0.014796202409836407
1.33498e-05;-0.014855442109208231
1.33500e-05;-0.014914681808580453
1.33503e-05;-0.014973921507952678
1.33505e-05;-0.0150331612073245
1.33508e-05;-0.015092400906696724
1.33510e-05;-0.015149384810446268
1.33513e-05;-0.01520635447756552
1.33515e-05;-0.01526332414468516
1.33518e-05;-0.0153202938118048
1.33520e-05;-0.015377263478924052
1.33523e-05;-0.015434233146043691
1.33525e-05;-0.01549120281316333
1.33528e-05;-0.015528863234657074
1.33530e-05;-0.015566401792901778
1.33533e-05;-0.015603940351146484
1.33535e-05;-0.015641478909390934
1.33538e-05;-0.01567901746763564
1.33540e-05;-0.015716556025880346
1.33543e-05;-0.015754094584124797
1.33545e-05;-0.0157916331423695
1.33548e-05;-0.015829171700614205
1.33550e-05;-0.015866710258858656
1.33553e-05;-0.015904248817103363
1.33555e-05;-0.015941787375348068
1.33557e-05;-0.015973486876051674
1.33560e-05;-0.01599919897870327
1.33563e-05;-0.016024911081354867
1.33565e-05;-0.016050623184006463
1.33568e-05;-0.016076335286657882
1.33570e-05;-0.01610204738930948
1.33573e-05;-0.016127759491961075
1.33575e-05;-0.016153471594612497
1.33578e-05;-0.016179183697264093
1.33580e-05;-0.01620489579991569
1.33583e-05;-0.016230607902567112
1.33585e-05;-0.01625632000521871
1.33588e-05;-0.016282032107870305
1.33590e-05;-0.016304379010857253
1.33593e-05;-0.016326704675615936
1.33595e-05;-0.016349030340374618
1.33598e-05;-0.016371356005133147
1.33600e-05;-0.01639368166989183
1.33603e-05;-0.016416007334650512
1.33605e-05;-0.016438332999409045
1.33608e-05;-0.016460658664167727
1.33610e-05;-0.01648298432892641
1.33613e-05;-0.01650530999368494
1.33615e-05;-0.01652763565844362
1.33618e-05;-0.016549961323202304
1.33620e-05;-0.016567938484382837
1.33623e-05;-0.016581456668806286
1.33625e-05;-0.016594974853229732
1.33628e-05;-0.016608493037653087
1.33630e-05;-0.016622011222076533
1.33633e-05;-0.01663552940649998
1.33635e-05;-0.016649047590923335
1.33638e-05;-0.01666256577534678
1.33640e-05;-0.01667608395977023
1.33642e-05;-0.016689602144193582
1.33645e-05;-0.01670312032861703
1.33648e-05;-0.016716638513040477
1.33650e-05;-0.016730156697463923
1.33653e-05;-0.016734138735514215
1.33655e-05;-0.016738060589659605
1.33658e-05;-0.016741982443804995
1.33660e-05;-0.016745904297950358
1.33663e-05;-0.016749826152095748
1.33665e-05;-0.01675374800624114
1.33668e-05;-0.0167576698603865
1.33670e-05;-0.01676159171453189
1.33673e-05;-0.016765513568677278
1.33675e-05;-0.016769435422822644
1.33678e-05;-0.01677335727696803
1.33680e-05;-0.01677727913111342
1.33683e-05;-0.016781200985258784
1.33685e-05;-0.016785122839404174
1.33688e-05;-0.016789044693549564
1.33690e-05;-0.016792966547694927
1.33693e-05;-0.016796888401840317
1.33695e-05;-0.016796153885178234
1.33698e-05;-0.01679538998153233
1.33700e-05;-0.016794626077886423
1.33703e-05;-0.016793862174240514
1.33705e-05;-0.01679309827059461
1.33708e-05;-0.0167923343669487
1.33710e-05;-0.016791570463302794
1.33713e-05;-0.01679080655965689
1.33715e-05;-0.01679004265601098
1.33718e-05;-0.016789278752365074
1.33720e-05;-0.01678851484871917
1.33723e-05;-0.01678775094507326
1.33725e-05;-0.016786987041427354
1.33727e-05;-0.01678622313778145
1.33730e-05;-0.01678545923413554
1.33733e-05;-0.01678469533048963
1.33735e-05;-0.016783931426843725
1.33738e-05;-0.016777129027080027
1.33740e-05;-0.016770288517553158
1.33743e-05;-0.016763448008026288
1.33745e-05;-0.016756607498499464
1.33748e-05;-0.016749766988972594
1.33750e-05;-0.016742926479445724
1.33753e-05;-0.0167360859699189
1.33755e-05;-0.01672924546039203
1.33758e-05;-0.01671537489128792
1.33760e-05;-0.016694295664836302
1.33763e-05;-0.01667321643838454
1.33765e-05;-0.016652137211932778
1.33768e-05;-0.01663105798548116
1.33770e-05;-0.0166099787590294
1.33773e-05;-0.01658889953257764
1.33775e-05;-0.016567820306126017
1.33778e-05;-0.016546741079674257
1.33780e-05;-0.016513229530441348
1.33783e-05;-0.016479639519142917
1.33785e-05;-0.01644604950784426
1.33788e-05;-0.016412459496545604
1.33790e-05;-0.016378869485247177
1.33793e-05;-0.01634527947394852
1.33795e-05;-0.016311689462649864
1.33798e-05;-0.016278099451351433
1.33800e-05;-0.016239611559343076
1.33803e-05;-0.01620109275614891
1.33805e-05;-0.016162573952955006
1.33808e-05;-0.01612405514976084
1.33810e-05;-0.016085536346566676
1.33812e-05;-0.016047017543372774
1.33815e-05;-0.01600849874017861
1.33818e-05;-0.015969979936984444
1.33820e-05;-0.015934247065181685
1.33823e-05;-0.015898531775768
1.33825e-05;-0.01586281648635407
1.33828e-05;-0.01582710119694014
1.33830e-05;-0.015797182199629816
1.33833e-05;-0.015767299783500704
1.33835e-05;-0.01573741736737159
1.33838e-05;-0.01570753495124268
1.33840e-05;-0.015680812823866533
1.33843e-05;-0.01565411064149909
1.33845e-05;-0.015627408459131825
1.33848e-05;-0.015600706276764383
1.33850e-05;-0.015574004094396939
1.33853e-05;-0.015547301912029675
1.33855e-05;-0.015520599729662231
1.33858e-05;-0.015493897547294787
1.33860e-05;-0.015462598728522672
1.33863e-05;-0.015431270899757757
1.33865e-05;-0.015399943070992841
1.33868e-05;-0.015368615242228137
1.33870e-05;-0.015337287413463222
1.33873e-05;-0.015305959584698306
1.33875e-05;-0.015274631755933604
1.33878e-05;-0.015243303927168689
1.33880e-05;-0.015206397788098512
1.33883e-05;-0.015169456443559437
1.33885e-05;-0.015132515099020112
1.33888e-05;-0.015095573754480788
1.33890e-05;-0.015058632409941715
1.33893e-05;-0.01502169106540239
1.33895e-05;-0.014984749720863066
1.33897e-05;-0.014946919635363709
1.33900e-05;-0.014908178230552169
1.33903e-05;-0.014869436825740627
1.33905e-05;-0.014830695420929086
1.33908e-05;-0.014791954016117806
1.33910e-05;-0.014753212611306266
1.33913e-05;-0.014714471206494724
1.33915e-05;-0.014675729801683446
1.33918e-05;-0.014639682412502138
1.33920e-05;-0.01460365202561713
1.33923e-05;-0.014567621638732367
1.33925e-05;-0.014534751771970522
1.33928e-05;-0.014501901851677827
1.33930e-05;-0.014469051931385354
1.33933e-05;-0.014441076523387997
1.33935e-05;-0.0144131318790958
1.33938e-05;-0.014385187234803795
1.33940e-05;-0.014363700910548446
1.33943e-05;-0.014342255345622775
1.33945e-05;-0.01432080978069725
1.33948e-05;-0.014311816819303522
1.33950e-05;-0.014302902447971973
1.33953e-05;-0.014293988076640484
1.33955e-05;-0.014285073705308935
1.33958e-05;-0.014276159333977387
1.33960e-05;-0.014267244962645899
1.33963e-05;-0.01425833059131435
1.33965e-05;-0.014257975317785653
1.33968e-05;-0.01426639658485797
1.33970e-05;-0.014274817851930344
1.33973e-05;-0.01428323911900272
1.33975e-05;-0.014291660386075038
