Time(s);Current(A)
1.23000e-05;0.0017556182904854805
1.23003e-05;0.0017005156802022033
1.23005e-05;0.0016399932033736731
1.23008e-05;0.0015791078842260753
1.23010e-05;0.0015182225650784778
1.23013e-05;0.0014573372459312926
1.23015e-05;0.001396451926783695
1.23018e-05;0.0013366918829255765
1.23020e-05;0.0012783800691045764
1.23023e-05;0.001220068255283181
1.23025e-05;0.0011639195752976437
1.23028e-05;0.0011105548499801992
1.23030e-05;0.0010597481813720252
1.23033e-05;0.001012233733429649
1.23035e-05;0.0009678881534140527
1.23038e-05;0.0009276209085013687
1.23040e-05;0.0008903224825062439
1.23042e-05;0.000856844928408699
1.23045e-05;0.0008261641790774707
1.23048e-05;0.0007990829193183277
1.23050e-05;0.000775040928305921
1.23053e-05;0.0007549104781670988
1.23055e-05;0.00073721437758668
1.23058e-05;0.0007249860569430983
1.23060e-05;0.0007157625874101034
1.23063e-05;0.0007092630803708514
1.23065e-05;0.0007062693148509094
1.23068e-05;0.0007058913301056708
1.23070e-05;0.0007088798569361307
1.23073e-05;0.0007144604437173586
1.23075e-05;0.0007233770133581885
1.23078e-05;0.0007346958000035966
1.23080e-05;0.0007491062415121133
1.23083e-05;0.0007654645393498671
1.23085e-05;0.0007843297295634132
1.23088e-05;0.0008052742035541847
1.23090e-05;0.0008288947171322806
1.23093e-05;0.0008525152307105366
1.23095e-05;0.0008786464850654786
1.23098e-05;0.0009080090644495904
1.23100e-05;0.0009373716438339011
1.23103e-05;0.0009667342232182117
1.23105e-05;0.0009960968026023235
1.23108e-05;0.0010254593819866342
1.23110e-05;0.0010566877645441144
1.23113e-05;0.0010880410565146641
1.23115e-05;0.0011193943484854266
1.23118e-05;0.0011507476404561889
1.23120e-05;0.0011821009324267388
1.23123e-05;0.0012122275255409846
1.23125e-05;0.0012407753564206729
1.23127e-05;0.0012693231873001677
1.23130e-05;0.001295828838488503
1.23133e-05;0.0013197062030718164
1.23135e-05;0.0013435835676549681
1.23138e-05;0.0013645510590596284
1.23140e-05;0.001381773541770705
1.23143e-05;0.0013951004390811864
1.23145e-05;0.0014034137154204807
1.23148e-05;0.0014077320690460264
1.23150e-05;0.0014069089545130462
1.23153e-05;0.0014022424302115356
1.23155e-05;0.0013926294350116437
1.23158e-05;0.0013789700795601072
1.23160e-05;0.0013601030558053062
1.23163e-05;0.001336711132172203
1.23165e-05;0.0013074956594218373
1.23168e-05;0.0012740857239795641
1.23170e-05;0.0012352775122953371
1.23173e-05;0.001192762387386426
1.23175e-05;0.0011454764627211167
1.23178e-05;0.0010947490079117083
1.23180e-05;0.0010395923015450203
1.23183e-05;0.0009810868867570328
1.23185e-05;0.000918271682028638
1.23188e-05;0.0008527073686973157
1.23190e-05;0.0007836049507873124
1.23193e-05;0.0007124512415386459
1.23195e-05;0.0006386575189891925
1.23198e-05;0.0005633711725011468
1.23200e-05;0.00048616381802167754
1.23203e-05;0.0004077771415480009
1.23205e-05;0.0003278726768929866
1.23208e-05;0.0002479682122374308
1.23210e-05;0.00016806374758187502
1.23212e-05;8.833552974958677e-05
1.23215e-05;9.317222702118207e-06
1.23218e-05;-6.842337210738777e-05
1.23220e-05;-0.00014452090091599657
1.23223e-05;-0.00021861567226948763
1.23225e-05;-0.00029026207306509955
1.23228e-05;-0.0003589499977615777
1.23230e-05;-0.00042415789841210473
1.23233e-05;-0.00048536433076073267
1.23235e-05;-0.0005420828700836325
1.23238e-05;-0.0005943049399921911
1.23240e-05;-0.0006430702966663152
1.23243e-05;-0.0006897669924692375
1.23245e-05;-0.0007345136831247338
1.23248e-05;-0.0007778321736225017
1.23250e-05;-0.0008191841136442479
1.23253e-05;-0.0008580051019097823
1.23255e-05;-0.0008940531843945035
1.23258e-05;-0.0009265325353152701
1.23260e-05;-0.0009590118862358166
1.23263e-05;-0.000989879451285283
1.23265e-05;-0.001018672646858275
1.23268e-05;-0.0010474658424310722
1.23270e-05;-0.0010744887485012377
1.23273e-05;-0.00109923329081684
1.23275e-05;-0.0011239778331322747
1.23278e-05;-0.0011458885273230692
1.23280e-05;-0.0011641520571131444
1.23283e-05;-0.0011824155869030958
1.23285e-05;-0.001200679116693171
1.23288e-05;-0.0012189426464832463
1.23290e-05;-0.0012372061762731977
1.23293e-05;-0.001255469706063273
1.23295e-05;-0.0012737332358533481
1.23297e-05;-0.0012919967656432995
1.23300e-05;-0.0013102602954333748
1.23303e-05;-0.0013223778827205872
1.23305e-05;-0.001334084019279693
1.23308e-05;-0.0013457901558388784
1.23310e-05;-0.0013574962923980636
1.23313e-05;-0.0013692024289572488
1.23315e-05;-0.0013809085655163548
1.23318e-05;-0.00139261470207554
1.23320e-05;-0.0014043208386347252
1.23323e-05;-0.001416026975193831
1.23325e-05;-0.00142635406581542
1.23328e-05;-0.0014349063234078993
1.23330e-05;-0.0014434585810003209
1.23333e-05;-0.001451110075087253
1.23335e-05;-0.001457602285949805
1.23338e-05;-0.001464094496812313
1.23340e-05;-0.0014675604361765063
1.23343e-05;-0.0014671315621308943
1.23345e-05;-0.0014628705787963602
1.23348e-05;-0.0014536776682852826
1.23350e-05;-0.001440948395238702
1.23353e-05;-0.0014236678212820922
1.23355e-05;-0.0014030472942302282
1.23358e-05;-0.0013781282453472073
1.23360e-05;-0.0013490252198030842
1.23363e-05;-0.0013145374135424984
1.23365e-05;-0.001275639773762608
1.23368e-05;-0.0012310666753418133
1.23370e-05;-0.0011826868173535898
1.23373e-05;-0.0011294076572973266
1.23375e-05;-0.001072862633543951
1.23378e-05;-0.0010121144410622544
1.23380e-05;-0.0009479895053020619
1.23382e-05;-0.0008795186987206263
1.23385e-05;-0.0008079474760980063
1.23388e-05;-0.0007323860159904414
1.23390e-05;-0.0006545197291513515
1.23393e-05;-0.0005736871287906152
1.23395e-05;-0.0004913061720081929
1.23398e-05;-0.0004069324794919554
1.23400e-05;-0.00032135857564101315
1.23403e-05;-0.0002342399990109945
1.23405e-05;-0.00014651190919236123
1.23408e-05;-5.799937549938664e-05
1.23410e-05;3.0399346237664866e-05
1.23413e-05;0.00011826662409456288
1.23415e-05;0.00020502626802635827
1.23418e-05;0.0002902123768188965
1.23420e-05;0.00037348303379756796
1.23423e-05;0.00045451850687128784
1.23425e-05;0.0005328688236978515
1.23428e-05;0.0006079819490730795
1.23430e-05;0.0006792873388088359
1.23433e-05;0.0007462144595607362
1.23435e-05;0.0008082000281306544
1.23438e-05;0.0008647910592625511
1.23440e-05;0.0009158169770046619
1.23443e-05;0.0009613140350037355
1.23445e-05;0.0010012657761633607
1.23448e-05;0.0010355508991856356
1.23450e-05;0.0010640236883811907
1.23453e-05;0.0010865385227915015
1.23455e-05;0.00110295423170899
1.23458e-05;0.0011131988639307027
1.23460e-05;0.0011173772560332162
1.23463e-05;0.0011157238572740663
1.23465e-05;0.0011084401479732823
1.23467e-05;0.0010945017361961194
1.23470e-05;0.0010760163800738014
1.23473e-05;0.0010529973942015054
1.23475e-05;0.0010241436238562515
1.23478e-05;0.000991086024658534
1.23480e-05;0.0009526180949600072
1.23483e-05;0.0009105315688402171
1.23485e-05;0.0008637879067439738
1.23488e-05;0.0008139557908252074
1.23490e-05;0.0007601488328036113
1.23493e-05;0.0007037564067790163
1.23495e-05;0.0006440364817311866
1.23498e-05;0.0005823077312203363
1.23500e-05;0.0005179936210161948
1.23503e-05;0.0004522361504263223
1.23505e-05;0.00038462107407006527
1.23508e-05;0.00031700599771426643
1.23510e-05;0.00024896314586445387
1.23513e-05;0.00018036974667271296
1.23515e-05;0.00011203399011623497
1.23518e-05;4.444667446711206e-05
1.23520e-05;-2.1976162044065064e-05
1.23523e-05;-8.675002613949181e-05
1.23525e-05;-0.00014939860329860554
1.23528e-05;-0.00020946176710855466
1.23530e-05;-0.00026648322998343
1.23533e-05;-0.00032000672934778314
1.23535e-05;-0.00036960264766405587
1.23538e-05;-0.00041520653381235743
1.23540e-05;-0.0004575602613236847
1.23543e-05;-0.0004976880815408432
1.23545e-05;-0.0005359824540467347
1.23548e-05;-0.0005717584965435234
1.23550e-05;-0.000605652846597266
1.23552e-05;-0.0006372211687966668
1.23555e-05;-0.0006657958916156971
1.23558e-05;-0.000692174783871228
1.23560e-05;-0.0007157276407447892
1.23563e-05;-0.0007379786010669902
1.23565e-05;-0.0007585540196696654
1.23568e-05;-0.0007774059880653853
1.23570e-05;-0.0007940398749091923
1.23573e-05;-0.000810673761753112
1.23575e-05;-0.0008249941810719756
1.23578e-05;-0.000836337166161767
1.23580e-05;-0.0008476801512516353
1.23583e-05;-0.0008576027714118253
1.23585e-05;-0.0008656973809715945
1.23588e-05;-0.0008737919905314186
1.23590e-05;-0.0008805236453245238
1.23593e-05;-0.000885501176434737
1.23595e-05;-0.000890478707544984
1.23598e-05;-0.0008937518821845597
1.23600e-05;-0.0008948315489232631
1.23603e-05;-0.0008959112156619738
1.23605e-05;-0.0008969908824006846
1.23608e-05;-0.0008980705491393881
1.23610e-05;-0.0008991502158780989
1.23613e-05;-0.0009002298826168096
1.23615e-05;-0.0009013095493555131
1.23618e-05;-0.00090035563238097
1.23620e-05;-0.0008992655736345307
1.23623e-05;-0.0008981755148880989
1.23625e-05;-0.0008970854561416598
1.23628e-05;-0.0008959953973952206
1.23630e-05;-0.0008949053386487888
1.23633e-05;-0.0008938152799023495
1.23635e-05;-0.0008921309636132841
1.23637e-05;-0.0008896818374752592
1.23640e-05;-0.0008872327113372178
1.23643e-05;-0.0008816087276826849
1.23645e-05;-0.0008718987003121488
1.23648e-05;-0.0008592820957380021
1.23650e-05;-0.0008429247243872518
1.23653e-05;-0.0008240133685737003
1.23655e-05;-0.0008018150330734166
1.23658e-05;-0.0007776703556113043
1.23660e-05;-0.0007493025530211835
1.23663e-05;-0.000716820769533142
1.23665e-05;-0.0006800745238085654
1.23668e-05;-0.0006393207154569172
1.23670e-05;-0.0005948907680574354
1.23673e-05;-0.0005471159668592993
1.23675e-05;-0.000496316253035781
1.23678e-05;-0.00044266020016126895
1.23680e-05;-0.0003859989180931551
1.23683e-05;-0.00032611881686586626
1.23685e-05;-0.0002631274903905396
1.23688e-05;-0.00019738766841200238
1.23690e-05;-0.00012930871268411332
1.23693e-05;-5.929996540128629e-05
1.23695e-05;1.2236414031313367e-05
1.23698e-05;8.499312738382165e-05
1.23700e-05;0.0001590699410271468
1.23703e-05;0.00023404223774286083
1.23705e-05;0.0003094310762838981
1.23708e-05;0.00038535600442824586
1.23710e-05;0.0004612809325731081
1.23713e-05;0.0005361483836722827
1.23715e-05;0.0006096548611159069
1.23718e-05;0.0006831613385600291
1.23720e-05;0.0007547669771325404
1.23723e-05;0.0008239262348234254
1.23725e-05;0.0008908414313066683
1.23728e-05;0.0009548685195352814
1.23730e-05;0.0010158045451609927
1.23733e-05;0.001072762371179326
1.23735e-05;0.001126110407006649
1.23738e-05;0.0011748126404776253
1.23740e-05;0.0012218498010628043
1.23743e-05;0.0012667440117466071
1.23745e-05;0.0013116382224304098
1.23748e-05;0.001354588216355165
1.23750e-05;0.001395036002029449
1.23753e-05;0.001435483787703733
1.23755e-05;0.0014759315733777426
1.23758e-05;0.0015163793590520266
1.23760e-05;0.0015568271447263106
1.23763e-05;0.0015960165389941321
1.23765e-05;0.001633586382692425
1.23768e-05;0.001671156226390718
1.23770e-05;0.0017087260700887565
1.23773e-05;0.0017462959137870494
1.23775e-05;0.0017838657574853424
1.23778e-05;0.001820933425125294
1.23780e-05;0.0018573547918474698
1.23783e-05;0.001893776158569646
1.23785e-05;0.001930197525291575
1.23788e-05;0.001966618892013751
1.23790e-05;0.002003040258735927
1.23793e-05;0.002039461625457856
1.23795e-05;0.002075882992180032
1.23798e-05;0.002112304358902208
1.23800e-05;0.002148725725624137
1.23803e-05;0.00218138145181138
1.23805e-05;0.0022137850806924204
1.23808e-05;0.0022461887095732414
1.23810e-05;0.002278592338454282
1.23813e-05;0.0023109959673353222
1.23815e-05;0.0023433995962161428
1.23818e-05;0.002375803225097183
1.23820e-05;0.0024082068539782236
1.23823e-05;0.002440610482859264
1.23825e-05;0.0024695912348909428
1.23828e-05;0.0024941667421592858
1.23830e-05;0.0025187422494276288
1.23833e-05;0.002543317756695805
1.23835e-05;0.0025678932639641478
1.23838e-05;0.002585200873671394
1.23840e-05;0.002593154694421468
1.23843e-05;0.0026011085151715963
1.23845e-05;0.002609062335921724
1.23848e-05;0.0026170161566717986
1.23850e-05;0.0026159096339564204
1.23853e-05;0.002603142443221817
1.23855e-05;0.0025903752524873004
1.23858e-05;0.002570485909820529
1.23860e-05;0.0025414303529172465
1.23863e-05;0.0025123747960141603
1.23865e-05;0.002475554453069101
1.23868e-05;0.002428740825364123
1.23870e-05;0.002381927197659462
1.23873e-05;0.00232856533300709
1.23875e-05;0.0022667758830818663
1.23878e-05;0.002204986433157061
1.23880e-05;0.002137168822803941
1.23883e-05;0.0020615929660015766
1.23885e-05;0.0019860171091997244
1.23888e-05;0.0019055704068747126
1.23890e-05;0.0018188549231471583
1.23893e-05;0.0017321394394201914
1.23895e-05;0.001641986196621003
1.23898e-05;0.0015474085556274823
1.23900e-05;0.0014528309146346027
1.23903e-05;0.001358253273641082
1.23905e-05;0.0012622690730515105
1.23908e-05;0.0011644746293333528
1.23910e-05;0.0010666801856158577
1.23913e-05;0.0009688857418977
1.23915e-05;0.0008723963825341746
1.23918e-05;0.0007775866675972345
1.23920e-05;0.0006847646660788873
1.23923e-05;0.0005945008530433245
1.23925e-05;0.0005062858243685675
1.23928e-05;0.00042243980077463224
1.23930e-05;0.0003428331140016694
1.23933e-05;0.000268101009705242
1.23935e-05;0.00019885642621700865
1.23938e-05;0.0001353992343385712
1.23940e-05;7.731615978124332e-05
1.23943e-05;2.3883270184976705e-05
1.23945e-05;-2.5159727201611188e-05
1.23948e-05;-6.963520385315271e-05
1.23950e-05;-0.0001092795211116403
1.23953e-05;-0.000143829121259598
1.23955e-05;-0.0001730344870118676
1.23958e-05;-0.00019684219855794133
1.23960e-05;-0.00021564555179024727
1.23963e-05;-0.0002300324057277004
1.23965e-05;-0.00024030014308858898
1.23968e-05;-0.0002464718476700816
1.23970e-05;-0.00024851672761956665
1.23973e-05;-0.0002464040292617337
1.23975e-05;-0.00024011182246963387
1.23978e-05;-0.00022974101747685313
1.23980e-05;-0.00021567232212456623
1.23983e-05;-0.00019840828689712803
1.23985e-05;-0.0001782694786720947
1.23988e-05;-0.00015540462096368788
1.23990e-05;-0.00012992868662810384
1.23993e-05;-0.00010195668080668202
1.23995e-05;-7.1609117099244e-05
1.23998e-05;-3.908344931579021e-05
1.24000e-05;-4.752381752020208e-06
1.24003e-05;3.0935097171591446e-05
1.24005e-05;6.764401681649899e-05
1.24008e-05;0.00010525025932699522
1.24010e-05;0.0001433709184822752
1.24013e-05;0.00018168784868524907
1.24015e-05;0.00022025737985590038
1.24018e-05;0.00025882691102629035
1.24020e-05;0.000296784453847852
1.24023e-05;0.0003339543672599238
1.24025e-05;0.00036992826883976485
1.24028e-05;0.0004043629024021062
1.24030e-05;0.0004371362065752772
1.24033e-05;0.00046777137872703006
1.24035e-05;0.0004963857313852952
1.24038e-05;0.0005223992880203025
1.24040e-05;0.0005468315157808019
1.24043e-05;0.0005692285722355945
1.24045e-05;0.0005903157912631993
1.24048e-05;0.0006097172486566098
1.24050e-05;0.0006276002806268248
1.24053e-05;0.0006435290980740997
1.24055e-05;0.0006577754295497084
1.24058e-05;0.0006698564004684681
1.24060e-05;0.0006803150528274094
1.24063e-05;0.0006886857801279966
1.24065e-05;0.0006970565074286405
1.24068e-05;0.0007037037251368508
1.24070e-05;0.0007081327848608438
1.24073e-05;0.0007125618445848668
1.24075e-05;0.0007152118764504554
1.24078e-05;0.0007155722982868324
1.24080e-05;0.000715932720123207
1.24083e-05;0.0007150288797349139
1.24085e-05;0.0007124979330281703
1.24088e-05;0.0007099669863214439
1.24090e-05;0.0007058556315636468
1.24093e-05;0.0006997102906000218
1.24095e-05;0.0006935649496364384
1.24098e-05;0.0006874196086728135
1.24100e-05;0.0006812742677091885
1.24103e-05;0.0006751289267456052
1.24105e-05;0.0006689835857819802
1.24108e-05;0.0006607083868454392
1.24110e-05;0.00065229060088976
1.24113e-05;0.0006438728149340237
1.24115e-05;0.0006354550289782874
1.24118e-05;0.0006270372430226082
1.24120e-05;0.0006186194570668719
1.24123e-05;0.0006105432649847466
1.24125e-05;0.0006029067044437381
1.24128e-05;0.0005952701439026778
1.24130e-05;0.0005876335833616175
1.24133e-05;0.0005799970228206091
1.24135e-05;0.0005734576553981099
1.24138e-05;0.0005669917414632698
1.24140e-05;0.0005605258275284735
1.24143e-05;0.0005540599135936333
1.24145e-05;0.0005461375501198359
1.24148e-05;0.0005363407351268784
1.24150e-05;0.0005265439201338545
1.24153e-05;0.0005167471051408306
1.24155e-05;0.0005069502901478731
1.24158e-05;0.0004971534751548492
1.24160e-05;0.00048735666016182537
1.24163e-05;0.0004775598451688015
1.24165e-05;0.00046776303017584403
1.24168e-05;0.00045545488465484915
1.24170e-05;0.00043991465508431466
1.24173e-05;0.0004243744255138855
1.24175e-05;0.000408834195943351
1.24178e-05;0.0003932939663728165
1.24180e-05;0.0003777537368023873
1.24183e-05;0.00036221350723185283
1.24185e-05;0.00034667327766131834
1.24188e-05;0.00033113304809088913
1.24190e-05;0.0003141936267887415
1.24193e-05;0.00029545344480296463
1.24195e-05;0.0002767132628173148
1.24198e-05;0.0002579730808315379
1.24200e-05;0.0002389551081455532
1.24203e-05;0.00021957961864486759
1.24205e-05;0.00020020412914405067
1.24208e-05;0.00018082863964323374
1.24210e-05;0.00016154832931220616
1.24213e-05;0.00014239051463533277
1.24215e-05;0.0001235604265562069
1.24218e-05;0.00010515212282521052
1.24220e-05;8.705147079927801e-05
1.24223e-05;6.957942549988368e-05
1.24225e-05;5.268796250427134e-05
1.24228e-05;3.6493143050789284e-05
1.24230e-05;2.1117663151826548e-05
1.24233e-05;6.6841999486299356e-06
1.24235e-05;-6.705712036542283e-06
1.24238e-05;-1.9233855795154777e-05
1.24240e-05;-3.168677490895266e-05
1.24243e-05;-4.50051030841016e-05
1.24245e-05;-5.956553721816754e-05
1.24248e-05;-7.528387443301336e-05
1.24250e-05;-9.199048440799504e-05
1.24253e-05;-0.00010951575729539666
1.24255e-05;-0.0001277033371302655
1.24258e-05;-0.00014657434032079117
1.24260e-05;-0.00016652866610682035
1.24263e-05;-0.00018806271626501826
1.24265e-05;-0.0002113196060037456
1.24268e-05;-0.00023615371405877615
1.24270e-05;-0.00026236595019926397
1.24273e-05;-0.00028995115034153646
1.24275e-05;-0.0003183863639492724
1.24278e-05;-0.00034769469221816116
1.24280e-05;-0.0003781267196333274
1.24283e-05;-0.0004096794987124399
1.24285e-05;-0.00044267468592422166
1.24288e-05;-0.00047665617498294664
1.24290e-05;-0.0005119070351717239
1.24293e-05;-0.0005471578953605012
1.24295e-05;-0.0005830964719494439
1.24298e-05;-0.0006199201400009549
1.24300e-05;-0.000656743808052466
1.24303e-05;-0.0006935674761037275
1.24305e-05;-0.0007303911441552386
1.24308e-05;-0.0007669416715007307
1.24310e-05;-0.0008031406665766053
1.24313e-05;-0.0008393396616527252
1.24315e-05;-0.0008755386567288451
1.24318e-05;-0.0009117376518047197
1.24320e-05;-0.0009464362453818436
1.24323e-05;-0.0009792038212369
1.24325e-05;-0.0010119713970917345
1.24328e-05;-0.0010432102354135382
1.24330e-05;-0.0010724815875183809
1.24333e-05;-0.0011000366667493237
1.24335e-05;-0.0011253829016556168
1.24338e-05;-0.0011476712627550485
1.24340e-05;-0.0011660241382411268
1.24343e-05;-0.0011805589791393078
1.24345e-05;-0.0011874593913841487
1.24348e-05;-0.0011882082037522068
1.24350e-05;-0.0011829664841458939
1.24353e-05;-0.0011718953367613227
1.24355e-05;-0.0011551381807498053
1.24358e-05;-0.0011326065998294233
1.24360e-05;-0.0011037399576702188
1.24363e-05;-0.001067921544783461
1.24365e-05;-0.0010250750121853533
1.24368e-05;-0.0009755363712294642
1.24370e-05;-0.0009197157457902546
1.24373e-05;-0.0008580232743515657
1.24375e-05;-0.000790857856662987
1.24378e-05;-0.0007184732680346277
1.24380e-05;-0.0006408275033666597
1.24383e-05;-0.0005578433358674887
1.24385e-05;-0.0004697821044212869
1.24388e-05;-0.00037716345036468936
1.24390e-05;-0.00028055337591769466
1.24393e-05;-0.00018051781507933364
1.24395e-05;-7.761568129292673e-05
1.24398e-05;2.7685060217579597e-05
1.24400e-05;0.00013510176085969702
1.24403e-05;0.00024460085569750513
1.24405e-05;0.00035532081256257366
1.24408e-05;0.0004662089775143532
1.24410e-05;0.0005773136263843267
1.24413e-05;0.0006884182752550531
1.24415e-05;0.0007980337340249627
1.24417e-05;0.0009057326041485283
1.24420e-05;0.0010111657410913704
1.24423e-05;0.0011136828779296577
1.24425e-05;0.001212877903199666
1.24428e-05;0.0013077973686812577
1.24430e-05;0.0013981353046454879
1.24433e-05;0.0014825768090866896
1.24435e-05;0.0015615227178402441
1.24438e-05;0.0016333957913063663
1.24440e-05;0.001701597685500638
1.24443e-05;0.0017650747695408496
1.24445e-05;0.0018251558731958717
1.24448e-05;0.0018808663478459369
1.24450e-05;0.0019365768224956243
