Time(s);Current(A)
5.50000e-07;-0.011159524196000806
5.50250e-07;-0.011176514127465
5.50500e-07;-0.011193504058929197
5.50750e-07;-0.011210493990393392
5.51000e-07;-0.01122748392185758
5.51250e-07;-0.011244473853321776
5.51500e-07;-0.01126146378478597
5.51750e-07;-0.011278453716250166
5.52000e-07;-0.01129544364771436
5.52250e-07;-0.011312433579178549
5.52500e-07;-0.01133328802554659
5.52750e-07;-0.011357661761779108
5.53000e-07;-0.011382035498011629
5.53250e-07;-0.011406409234244148
5.53500e-07;-0.011430782970476666
5.53750e-07;-0.011455156706709175
5.54000e-07;-0.011479530442941694
5.54250e-07;-0.011503904179174214
5.54500e-07;-0.011528277915406733
5.54750e-07;-0.011552651651639252
5.55000e-07;-0.011575032761845143
5.55250e-07;-0.011595599251392627
5.55500e-07;-0.011616165740940118
5.55750e-07;-0.011636732230487608
5.56000e-07;-0.0116572987200351
5.56250e-07;-0.01167786520958259
5.56500e-07;-0.011698431699130074
5.56750e-07;-0.011718998188677564
5.57000e-07;-0.011739564678225055
5.57250e-07;-0.011760131167772546
5.57500e-07;-0.011773934086017976
5.57750e-07;-0.011781577636652359
5.58000e-07;-0.01178922118728674
5.58250e-07;-0.011796864737921124
5.58500e-07;-0.011804508288555508
5.58750e-07;-0.011812151839189893
5.59000e-07;-0.011819795389824276
5.59250e-07;-0.011827438940458661
5.59500e-07;-0.011835082491093041
5.59750e-07;-0.011842726041727425
5.60000e-07;-0.01184351121534494
5.60250e-07;-0.011838050684825454
5.60500e-07;-0.01183259015430597
5.60750e-07;-0.011827129623786486
5.61000e-07;-0.011821669093267
5.61250e-07;-0.011816208562747515
5.61500e-07;-0.011810748032228029
5.61750e-07;-0.011805287501708544
5.62000e-07;-0.011799826971189059
5.62250e-07;-0.011794366440669576
5.62500e-07;-0.011785587758874748
5.62750e-07;-0.011773787343060825
5.63000e-07;-0.011761986927246903
5.63250e-07;-0.01175018651143298
5.63500e-07;-0.011738386095619061
5.63750e-07;-0.011726585679805139
5.64000e-07;-0.011714785263991216
5.64250e-07;-0.011702984848177294
5.64500e-07;-0.011691184432363371
5.64750e-07;-0.011679384016549447
5.65000e-07;-0.011668061020450503
5.65250e-07;-0.01165717279518459
5.65500e-07;-0.011646284569918678
5.65750e-07;-0.011635461553985826
5.66000e-07;-0.011627362772876971
5.66250e-07;-0.011619263991768115
5.66500e-07;-0.011611165210659262
5.66750e-07;-0.011602887704124014
5.67000e-07;-0.011594447438071132
5.67250e-07;-0.011586007172018251
5.67500e-07;-0.011573061887876664
5.67750e-07;-0.011556014028148334
5.68000e-07;-0.011538966168419998
5.68250e-07;-0.011514568097870269
5.68500e-07;-0.01148347642590106
5.68750e-07;-0.01145238475393185
5.69000e-07;-0.01142129308196264
5.69250e-07;-0.011390201409993445
5.69500e-07;-0.011359109738024235
5.69750e-07;-0.011328018066055026
5.70000e-07;-0.011285381822462333
5.70250e-07;-0.011232232307497684
5.70500e-07;-0.011179082792533036
5.70750e-07;-0.011125933277568409
5.71000e-07;-0.01107278376260376
5.71250e-07;-0.011019634247639113
5.71500e-07;-0.010966484732674463
5.71750e-07;-0.010905131488527491
5.72000e-07;-0.010836307371145154
5.72250e-07;-0.010767483253762788
5.72500e-07;-0.010698659136380424
5.72750e-07;-0.010629835018998057
5.73000e-07;-0.010561010901615693
5.73250e-07;-0.010492186784233326
5.73500e-07;-0.010423355424134199
5.73750e-07;-0.01035422148677534
5.74000e-07;-0.010285087549416483
5.74250e-07;-0.010215953612057625
5.74500e-07;-0.010146819674698767
5.74750e-07;-0.010077685737339909
5.75000e-07;-0.010008551799981079
5.75250e-07;-0.009939417862622221
5.75500e-07;-0.009882199766077755
5.75750e-07;-0.009835833043858235
5.76000e-07;-0.009789466321638714
5.76250e-07;-0.009743099599419214
5.76500e-07;-0.009696732877199694
5.76750e-07;-0.009650366154980173
5.77000e-07;-0.009603999432760654
5.77250e-07;-0.009557632710541133
5.77500e-07;-0.009511265988321613
5.77750e-07;-0.009483459847473603
5.78000e-07;-0.009472556233210862
5.78250e-07;-0.009461652618948123
5.78500e-07;-0.009450749004685384
5.78750e-07;-0.009439845390422643
5.79000e-07;-0.009428941776159909
5.79250e-07;-0.009418038161897168
5.79500e-07;-0.009407134547634428
5.79750e-07;-0.00939623093337169
5.80000e-07;-0.00940066730334106
5.80250e-07;-0.00941907330530159
5.80500e-07;-0.009437479307262112
5.80750e-07;-0.009455885309222641
5.81000e-07;-0.00947429131118317
5.81250e-07;-0.0094926973131437
5.81500e-07;-0.009511103315104229
5.81750e-07;-0.009529509317064758
5.82000e-07;-0.009548306704921893
5.82250e-07;-0.009583454928455245
5.82500e-07;-0.009618603151988595
5.82750e-07;-0.009653751375521945
5.83000e-07;-0.009688899599055296
5.83250e-07;-0.009724047822588632
5.83500e-07;-0.009759196046121982
5.83750e-07;-0.009794344269655334
5.84000e-07;-0.009829492493188685
5.84250e-07;-0.009866136015138706
5.84500e-07;-0.009904141257432235
5.84750e-07;-0.00994214649972575
5.85000e-07;-0.009980151742019279
5.85250e-07;-0.010018156984312809
5.85500e-07;-0.010056016510639271
5.85750e-07;-0.01008778849560659
5.86000e-07;-0.01011956048057391
5.86250e-07;-0.010151332465541217
5.86500e-07;-0.010183104450508537
5.86750e-07;-0.010214876435475856
5.87000e-07;-0.010243203541910254
5.87250e-07;-0.010268393507873617
5.87500e-07;-0.010293583473836968
5.87750e-07;-0.010318773439800331
5.88000e-07;-0.010343963405763695
5.88250e-07;-0.010369153371727058
5.88500e-07;-0.010394343337690421
5.88750e-07;-0.010419533303653784
5.89000e-07;-0.010444723269617137
5.89250e-07;-0.0104699132355805
5.89500e-07;-0.010495103201543864
5.89750e-07;-0.010520293167507227
5.90000e-07;-0.010545448594855617
5.90250e-07;-0.010569161110686611
5.90500e-07;-0.010592873626517596
5.90750e-07;-0.010616586142348589
5.91000e-07;-0.010640298658179583
5.91250e-07;-0.010664011174010578
5.91500e-07;-0.01068772368984157
5.91750e-07;-0.010711436205672555
5.92000e-07;-0.01073514872150355
5.92250e-07;-0.010758861237334544
5.92500e-07;-0.010782573753165537
5.92750e-07;-0.010806286268996532
5.93000e-07;-0.010829998784827526
5.93250e-07;-0.010853142557857031
5.93500e-07;-0.010875768395045532
5.93750e-07;-0.010898394232234035
5.94000e-07;-0.010921020069422535
5.94250e-07;-0.010943645906611036
5.94500e-07;-0.010966271743799537
5.94750e-07;-0.010988827114389076
5.95000e-07;-0.011008438618604536
5.95250e-07;-0.011028050122819995
5.95500e-07;-0.011047661627035455
5.95750e-07;-0.011067273131250915
5.96000e-07;-0.011086884635466367
5.96250e-07;-0.011106496139681827
5.96500e-07;-0.011125841594539884
5.96750e-07;-0.011144944766775074
5.97000e-07;-0.011164047939010265
5.97250e-07;-0.011183151111245456
5.97500e-07;-0.01120225428348064
5.97750e-07;-0.011221357455715831
5.98000e-07;-0.011240460627951022
5.98250e-07;-0.011259563800186213
5.98500e-07;-0.011283802566309861
5.98750e-07;-0.011312718153191188
5.99000e-07;-0.011341633740072528
5.99250e-07;-0.011370549326953867
5.99500e-07;-0.011399464913835207
5.99750e-07;-0.011428380500716546
6.00000e-07;-0.011457296087597886
6.00250e-07;-0.011486211674479213
6.00500e-07;-0.011520470367654865
6.00750e-07;-0.011559594856485432
6.01000e-07;-0.011598719345316
6.01250e-07;-0.011637843834146568
6.01500e-07;-0.011676968322977136
6.01750e-07;-0.011716092811807686
6.02000e-07;-0.011755217300638254
6.02250e-07;-0.011794463319063347
6.02500e-07;-0.011838786450505415
6.02750e-07;-0.011883109581947484
6.03000e-07;-0.011927432713389533
6.03250e-07;-0.011971755844831603
6.03500e-07;-0.01201607897627367
6.03750e-07;-0.01206040210771574
6.04000e-07;-0.012104725239157808
6.04250e-07;-0.012148564707100538
6.04500e-07;-0.012191963718195885
6.04750e-07;-0.01223536272929125
6.05000e-07;-0.012277268733165632
6.05250e-07;-0.01231781510321495
6.05500e-07;-0.012358361473264266
6.05750e-07;-0.01239363577774796
6.06000e-07;-0.012424108981091453
6.06250e-07;-0.012454582184434956
6.06500e-07;-0.01248505538777846
6.06750e-07;-0.012515528591121965
6.07000e-07;-0.01254600179446547
6.07250e-07;-0.012576474997808961
6.07500e-07;-0.012606948201152466
6.07750e-07;-0.01263702717034966
6.08000e-07;-0.01265063631321411
6.08250e-07;-0.012664245456078563
6.08500e-07;-0.012677854598943014
6.08750e-07;-0.01269146374180746
6.09000e-07;-0.012705072884671912
6.09250e-07;-0.012718682027536362
6.09500e-07;-0.012732291170400813
6.09750e-07;-0.012745900313265265
6.10000e-07;-0.012751812653606915
6.10250e-07;-0.01275071576257459
6.10500e-07;-0.012749618871542264
6.10750e-07;-0.012748521980509941
6.11000e-07;-0.012747425089477616
6.11250e-07;-0.012746328198445291
6.11500e-07;-0.012745231307412966
6.11750e-07;-0.01274413441638064
6.12000e-07;-0.012743037525348316
6.12250e-07;-0.012737476723075472
6.12500e-07;-0.012727850779904818
6.12750e-07;-0.012718224836734165
6.13000e-07;-0.012708598893563515
6.13250e-07;-0.012698972950392861
6.13500e-07;-0.012689347007222207
6.13750e-07;-0.012679721064051555
6.14000e-07;-0.012670095120880902
6.14250e-07;-0.012660469177710248
6.14500e-07;-0.012650563258451201
6.14750e-07;-0.012640402373941718
6.15000e-07;-0.012630241489432233
6.15250e-07;-0.01262008060492275
6.15500e-07;-0.012609919720413266
6.15750e-07;-0.012599758835903786
6.16000e-07;-0.012591747612079589
6.16250e-07;-0.012585694015344588
6.16500e-07;-0.012579640418609588
6.16750e-07;-0.012573586821874587
6.17000e-07;-0.012567533225139586
6.17250e-07;-0.012561479628404587
6.17500e-07;-0.012557162885363217
6.17750e-07;-0.012554427839314257
6.18000e-07;-0.012551692793265299
6.18250e-07;-0.012548957747216339
6.18500e-07;-0.01254622270116738
6.18750e-07;-0.012543487655118422
6.19000e-07;-0.012540752609069462
6.19250e-07;-0.012538017563020504
6.19500e-07;-0.012535282516971545
6.19750e-07;-0.012532547470922585
6.20000e-07;-0.012529812424873627
6.20250e-07;-0.012527077378824669
6.20500e-07;-0.012524342332775709
6.20750e-07;-0.01252160728672675
6.21000e-07;-0.01251887224067779
6.21250e-07;-0.012517047459473185
6.21500e-07;-0.012516051627288236
6.21750e-07;-0.012515055795103284
6.22000e-07;-0.012514059962918335
6.22250e-07;-0.012513064130733383
6.22500e-07;-0.012512068298548434
6.22750e-07;-0.012511072466363484
6.23000e-07;-0.012510076634178533
6.23250e-07;-0.012509080801993583
6.23500e-07;-0.012508084969808632
6.23750e-07;-0.01250708913762368
6.24000e-07;-0.012506093305438731
6.24250e-07;-0.012505097473253781
6.24500e-07;-0.01250410164106883
6.24750e-07;-0.01250310580888388
6.25000e-07;-0.01250347818482898
6.25250e-07;-0.012505096544066889
6.25500e-07;-0.0125067149033048
6.25750e-07;-0.012508333262542708
6.26000e-07;-0.012509951621780617
6.26250e-07;-0.012511569981018527
6.26500e-07;-0.012513188340256436
6.26750e-07;-0.012514806699494344
6.27000e-07;-0.012516425058732253
6.27250e-07;-0.012518043417970163
6.27500e-07;-0.012523783218036065
6.27750e-07;-0.012533276282171378
6.28000e-07;-0.01254276934630669
6.28250e-07;-0.012552262410442003
6.28500e-07;-0.012561755474577312
6.28750e-07;-0.012571248538712627
6.29000e-07;-0.01258074160284794
6.29250e-07;-0.012590234666983252
6.29500e-07;-0.012599727731118565
6.29750e-07;-0.012609220795253877
6.30000e-07;-0.012623424302045652
6.30250e-07;-0.01264191745799447
6.30500e-07;-0.012660410613943287
6.30750e-07;-0.012678903769892105
6.31000e-07;-0.012697396925840923
6.31250e-07;-0.012715890081789732
6.31500e-07;-0.01273438323773855
6.31750e-07;-0.012752876393687367
6.32000e-07;-0.012773905724365719
6.32250e-07;-0.012797244668085583
6.32500e-07;-0.012820583611805447
6.32750e-07;-0.012843922555525302
6.33000e-07;-0.012867261499245166
6.33250e-07;-0.01289060044296503
6.33500e-07;-0.012913939386684893
6.33750e-07;-0.012937278330404757
6.34000e-07;-0.012960143148063952
6.34250e-07;-0.012982576194315478
6.34500e-07;-0.013005009240567014
6.34750e-07;-0.013027442286818548
6.35000e-07;-0.013049875333070084
6.35250e-07;-0.01307230837932162
6.35500e-07;-0.013094741425573146
6.35750e-07;-0.01311717447182468
6.36000e-07;-0.013139607518076217
6.36250e-07;-0.013162040564327751
6.36500e-07;-0.013178938711592866
6.36750e-07;-0.013190796403745127
6.37000e-07;-0.013202654095897383
6.37250e-07;-0.013214511788049645
6.37500e-07;-0.013226369480201906
6.37750e-07;-0.013238227172354169
6.38000e-07;-0.01325008486450643
6.38250e-07;-0.013261942556658687
6.38500e-07;-0.013273800248810948
6.38750e-07;-0.013285657940963211
6.39000e-07;-0.013290235805295732
6.39250e-07;-0.013288184163752026
6.39500e-07;-0.013286132522208319
6.39750e-07;-0.013284080880664614
6.40000e-07;-0.013282029239120908
6.40250e-07;-0.013279977597577201
6.40500e-07;-0.013277925956033495
6.40750e-07;-0.013275648719102131
6.41000e-07;-0.013263946837216602
6.41250e-07;-0.01325224495533108
6.41500e-07;-0.01324054307344555
6.41750e-07;-0.013228841191560023
6.42000e-07;-0.013217139309674494
6.42250e-07;-0.013205437427788966
6.42500e-07;-0.013193735545903442
6.42750e-07;-0.013179600022556793
6.43000e-07;-0.013163248259929941
6.43250e-07;-0.013146896497303088
6.43500e-07;-0.013130544734676236
6.43750e-07;-0.013114192972049384
6.44000e-07;-0.013097841209422539
6.44250e-07;-0.013081489446795685
6.44500e-07;-0.013065943062720091
6.44750e-07;-0.013051130111078668
6.45000e-07;-0.013036317159437243
6.45250e-07;-0.01302150420779582
6.45500e-07;-0.013006691256154404
6.45750e-07;-0.012991878304512981
6.46000e-07;-0.012977065352871558
6.46250e-07;-0.01296475648372034
6.46500e-07;-0.012954728002236881
6.46750e-07;-0.012944699520753427
6.47000e-07;-0.012934138599977003
6.47250e-07;-0.012923092803801205
6.47500e-07;-0.012912047007625407
6.47750e-07;-0.012898774455114526
6.48000e-07;-0.012883474066977027
6.48250e-07;-0.012868173678839533
6.48500e-07;-0.012849443812233642
6.48750e-07;-0.012827590829501677
6.49000e-07;-0.012805737846769711
6.49250e-07;-0.012783884864037746
6.49500e-07;-0.012762031881305782
6.49750e-07;-0.012740178898573824
6.50000e-07;-0.012718073019196885
6.50250e-07;-0.012685401936718582
6.50500e-07;-0.012652730854240277
6.50750e-07;-0.012620059771761973
6.51000e-07;-0.012587388689283682
6.51250e-07;-0.012554717606805378
6.51500e-07;-0.012522046524327073
6.51750e-07;-0.012485270366270717
6.52000e-07;-0.012444755847453451
6.52250e-07;-0.012404241328636188
6.52500e-07;-0.01236372680981894
6.52750e-07;-0.012323212291001674
6.53000e-07;-0.01228269777218441
6.53250e-07;-0.012242183253367145
6.53500e-07;-0.012201681484053734
6.53750e-07;-0.012161712347736161
6.54000e-07;-0.012121743211418606
6.54250e-07;-0.012081774075101035
6.54500e-07;-0.012041804938783462
6.54750e-07;-0.01200183580246589
6.55000e-07;-0.011961866666148319
6.55250e-07;-0.011921897529830763
6.55500e-07;-0.011889141903367829
6.55750e-07;-0.011862955389135935
6.56000e-07;-0.01183676887490404
6.56250e-07;-0.011810582360672147
6.56500e-07;-0.011784395846440254
6.56750e-07;-0.01175820933220837
6.57000e-07;-0.011732022817976478
6.57250e-07;-0.011705836303744584
6.57500e-07;-0.01167964978951269
6.57750e-07;-0.0116637795235285
6.58000e-07;-0.011657303934186914
6.58250e-07;-0.011650828344845328
6.58500e-07;-0.01164435275550374
6.58750e-07;-0.011637877166162153
6.59000e-07;-0.011631401576820565
6.59250e-07;-0.011624925987478978
6.59500e-07;-0.011618450398137393
6.59750e-07;-0.011611974808795805
6.60000e-07;-0.011613755413446355
6.60250e-07;-0.01162305466935389
6.60500e-07;-0.011632353925261426
6.60750e-07;-0.011641653181168962
6.61000e-07;-0.011650952437076492
6.61250e-07;-0.011660251692984028
6.61500e-07;-0.011669550948891563
6.61750e-07;-0.011678850204799099
6.62000e-07;-0.011688149460706634
6.62250e-07;-0.011702117512184255
6.62500e-07;-0.011720337286152316
6.62750e-07;-0.011738557060120378
6.63000e-07;-0.011756776834088437
6.63250e-07;-0.011774996608056499
6.63500e-07;-0.01179321638202456
6.63750e-07;-0.011811436155992613
6.64000e-07;-0.011829655929960672
6.64250e-07;-0.011847875703928734
6.64500e-07;-0.011866876453850865
6.64750e-07;-0.01188658841354403
6.65000e-07;-0.011906300373237196
6.65250e-07;-0.011926012332930355
6.65500e-07;-0.011945672224408416
6.65750e-07;-0.011963156874424249
6.66000e-07;-0.01198064152444008
6.66250e-07;-0.011998126174455913
6.66500e-07;-0.012015610824471737
6.66750e-07;-0.012033233580498863
6.67000e-07;-0.012050982105244168
6.67250e-07;-0.012068730629989472
6.67500e-07;-0.012086479154734778
6.67750e-07;-0.012104227679480082
6.68000e-07;-0.01212197620422538
6.68250e-07;-0.012139724728970685
6.68500e-07;-0.012157627234745642
6.68750e-07;-0.012181962569444002
6.69000e-07;-0.012206297904142361
6.69250e-07;-0.012230633238840721
6.69500e-07;-0.01225496857353907
6.69750e-07;-0.01227930390823743
6.70000e-07;-0.01230363924293579
6.70250e-07;-0.012327974577634149
6.70500e-07;-0.01235574532998426
6.70750e-07;-0.012386644607084442
6.71000e-07;-0.012417543884184637
6.71250e-07;-0.012448443161284833
6.71500e-07;-0.012479342438385027
6.71750e-07;-0.012510241715485223
6.72000e-07;-0.012541228364067111
6.72250e-07;-0.012575865110299424
6.72500e-07;-0.012610501856531751
6.72750e-07;-0.01264513860276408
6.73000e-07;-0.012679775348996407
6.73250e-07;-0.012714412095228734
6.73500e-07;-0.012749048841461047
6.73750e-07;-0.012783878161215729
6.74000e-07;-0.012818882851505226
6.74250e-07;-0.012853887541794723
6.74500e-07;-0.012888072532287773
6.74750e-07;-0.012921511048447624
6.75000e-07;-0.012954949564607464
6.75250e-07;-0.012987093621247336
6.75500e-07;-0.013018058855089868
6.75750e-07;-0.013049024088932399
6.76000e-07;-0.0130755906950585
6.76250e-07;-0.013098151611899532
6.76500e-07;-0.013120712528740551
6.76750e-07;-0.01314327344558158
6.77000e-07;-0.013165834362422612
6.77250e-07;-0.013188395279263642
6.77500e-07;-0.013210956196104672
6.77750e-07;-0.013233517112945693
6.78000e-07;-0.013256078029786723
6.78250e-07;-0.013278638946627752
6.78500e-07;-0.013295745342181068
6.78750e-07;-0.013307884480015379
6.79000e-07;-0.013320023617849688
6.79250e-07;-0.013332162755683994
6.79500e-07;-0.013344301893518306
6.79750e-07;-0.013356441031352615
6.80000e-07;-0.013368580169186926
6.80250e-07;-0.013380719307021238
6.80500e-07;-0.013392858444855547
6.80750e-07;-0.013404997582689853
6.81000e-07;-0.013413481225745288
6.81250e-07;-0.013418635926864408
6.81500e-07;-0.013423790627983528
6.81750e-07;-0.013428945329102647
6.82000e-07;-0.013434100030221765
6.82250e-07;-0.013439254731340885
6.82500e-07;-0.013444409432460003
6.82750e-07;-0.013449564133579122
6.83000e-07;-0.013454718834698242
6.83250e-07;-0.013459873535817362
6.83500e-07;-0.01346502823693648
6.83750e-07;-0.013468888759178857
6.84000e-07;-0.013471570714196683
6.84250e-07;-0.01347425266921451
6.84500e-07;-0.013476934624232337
6.84750e-07;-0.013479616579250163
6.85000e-07;-0.01348229853426799
6.85250e-07;-0.013484980489285816
6.85500e-07;-0.013487662444303643
6.85750e-07;-0.01349034439932147
6.86000e-07;-0.013493026354339296
6.86250e-07;-0.013495708309357122
6.86500e-07;-0.013498675220649802
6.86750e-07;-0.013501901632489127
6.87000e-07;-0.013505128044328454
6.87250e-07;-0.013506938788313192
6.87500e-07;-0.013507460328954977
6.87750e-07;-0.01350798186959676
6.88000e-07;-0.013508503410238544
6.88250e-07;-0.013509024950880329
6.88500e-07;-0.013509546491522114
6.88750e-07;-0.013510068032163898
6.89000e-07;-0.013510478667797834
6.89250e-07;-0.013506256051244529
6.89500e-07;-0.013502033434691222
6.89750e-07;-0.013497810818137916
6.90000e-07;-0.01349358820158461
6.90250e-07;-0.013489365585031303
6.90500e-07;-0.013485142968477998
6.90750e-07;-0.013480920351924691
6.91000e-07;-0.013474448110305662
6.91250e-07;-0.013465927207239861
6.91500e-07;-0.01345740630417406
6.91750e-07;-0.01344888540110826
6.92000e-07;-0.013440364498042465
6.92250e-07;-0.013431843594976664
6.92500e-07;-0.013423322691910863
6.92750e-07;-0.013414801788845063
6.93000e-07;-0.013405551198606652
6.93250e-07;-0.013395636105646657
6.93500e-07;-0.013385721012686657
6.93750e-07;-0.013375805919726657
6.94000e-07;-0.013365890826766657
6.94250e-07;-0.013355975733806657
6.94500e-07;-0.013346060640846657
6.94750e-07;-0.01333614554788666
6.95000e-07;-0.013326972612259699
6.95250e-07;-0.013318475535529766
6.95500e-07;-0.013309978458799833
6.95750e-07;-0.01330371607113775
6.96000e-07;-0.01329948874318789
6.96250e-07;-0.01329526141523803
6.96500e-07;-0.01329103408728817
6.96750e-07;-0.01328680675933831
6.97000e-07;-0.013282579431388448
6.97250e-07;-0.013278352103438588
