Time(s);Current(A)
7.25000e-06;0.0004286341273499754
7.25025e-06;0.0004289029303280747
7.25050e-06;0.0004274307855870281
7.25075e-06;0.0004251975322607536
7.25100e-06;0.0004229642789344866
7.25125e-06;0.00042073102560821957
7.25150e-06;0.000418497772281945
7.25175e-06;0.000416264518955678
7.25200e-06;0.0004129957962865239
7.25225e-06;0.00040927438649877694
7.25250e-06;0.0004055529767110426
7.25275e-06;0.0004018315669233082
7.25300e-06;0.00039811015713556126
7.25325e-06;0.0003943887473478269
7.25350e-06;0.0003910554624090539
7.25375e-06;0.00038789185812834753
7.25400e-06;0.00038472825384765186
7.25425e-06;0.00038156464956695625
7.25450e-06;0.0003784010452862499
7.25475e-06;0.00037523744100555423
7.25500e-06;0.00037260587952898163
7.25525e-06;0.0003721594581123619
7.25550e-06;0.0003717130366957421
7.25575e-06;0.0003712666152791208
7.25600e-06;0.0003708201938625011
7.25625e-06;0.0003703737724458813
7.25650e-06;0.00036992735102926
7.25675e-06;0.00037132742212182937
7.25700e-06;0.0003735347439351594
7.25725e-06;0.00037574206574849696
7.25750e-06;0.00037921385791818884
7.25775e-06;0.0003832384520090678
7.25800e-06;0.0003872630460999604
7.25825e-06;0.0003931037771949242
7.25850e-06;0.00039973848817239754
7.25875e-06;0.0004063731991498934
7.25900e-06;0.0004130079101273667
7.25925e-06;0.00041964262110486255
7.25950e-06;0.0004262773320823359
7.25975e-06;0.0004329120430598092
7.26000e-06;0.0004400154006361076
7.26025e-06;0.0004490435252591103
7.26050e-06;0.0004580716498821129
7.26075e-06;0.00046709977450514617
7.26100e-06;0.00047612789912814885
7.26125e-06;0.0004851560237511515
7.26150e-06;0.0004941841483741847
7.26175e-06;0.0005032122729971874
7.26200e-06;0.0005121075129053588
7.26225e-06;0.0005209446581929323
7.26250e-06;0.0005297818034804758
7.26275e-06;0.0005386189487680194
7.26300e-06;0.0005474560940555928
7.26325e-06;0.0005562932393431364
7.26350e-06;0.0005651303846307098
7.26375e-06;0.0005739675299182534
7.26400e-06;0.0005812367439117185
7.26425e-06;0.0005878204887463837
7.26450e-06;0.0005944042335810266
7.26475e-06;0.0006009879784156694
7.26500e-06;0.0006075717232503346
7.26525e-06;0.0006141554680849775
7.26550e-06;0.0006207392129196203
7.26575e-06;0.0006273229577542854
7.26600e-06;0.0006344840907250085
7.26625e-06;0.0006418976465929775
7.26650e-06;0.0006493112024609716
7.26675e-06;0.0006567247583289406
7.26700e-06;0.0006641383141969096
7.26725e-06;0.0006715518700649036
7.26750e-06;0.0006789654259328726
7.26775e-06;0.0006863789818008668
7.26800e-06;0.0006937925376688357
7.26825e-06;0.0007012060935368047
7.26850e-06;0.0007086196494047988
7.26875e-06;0.0007160332052727678
7.26900e-06;0.0007238428272318685
7.26925e-06;0.0007332791225996791
7.26950e-06;0.0007427154179674578
7.26975e-06;0.0007521517133352364
7.27000e-06;0.000761588008703047
7.27025e-06;0.0007710243040708256
7.27050e-06;0.0007804605994386042
7.27075e-06;0.0007898968948064148
7.27100e-06;0.0007993331901741934
7.27125e-06;0.0008087694855419721
7.27150e-06;0.0008182057809097827
7.27175e-06;0.0008276420762775613
7.27200e-06;0.0008370783716453719
7.27225e-06;0.0008449934537343174
7.27250e-06;0.0008522434908749487
7.27275e-06;0.0008594935280156046
7.27300e-06;0.0008667435651562358
7.27325e-06;0.0008739936022968672
7.27350e-06;0.000881243639437523
7.27375e-06;0.0008884936765781544
7.27400e-06;0.0008957437137187856
7.27425e-06;0.0009029937508594414
7.27450e-06;0.0009102437880000728
7.27475e-06;0.000917493825140704
7.27500e-06;0.0009247438622813599
7.27525e-06;0.0009319938994219912
7.27550e-06;0.0009392439365626225
7.27575e-06;0.0009455871820315235
7.27600e-06;0.0009482061654836994
7.27625e-06;0.0009508251489358842
7.27650e-06;0.0009534441323880602
7.27675e-06;0.0009560631158402361
7.27700e-06;0.0009586820992924208
7.27725e-06;0.0009613010827445968
7.27750e-06;0.0009639200661967727
7.27775e-06;0.0009665390496489575
7.27800e-06;0.0009691580331011334
7.27825e-06;0.0009717770165533093
7.27850e-06;0.0009743960000054941
7.27875e-06;0.0009770149834576701
7.27900e-06;0.000979633966909846
7.27925e-06;0.0009822529503620307
7.27950e-06;0.000982964227541909
7.27975e-06;0.0009828414925311829
7.28000e-06;0.0009827187575204563
7.28025e-06;0.0009825960225097303
7.28050e-06;0.0009824732874990038
7.28075e-06;0.0009823505524882775
7.28100e-06;0.0009822278174775514
7.28125e-06;0.0009821050824668249
7.28150e-06;0.0009819823474560988
7.28175e-06;0.0009818596124453727
7.28200e-06;0.0009817368774346462
7.28225e-06;0.00098161414242392
7.28250e-06;0.000981491407413194
7.28275e-06;0.0009813686724024675
7.28300e-06;0.0009812459373917412
7.28325e-06;0.0009811232023810151
7.28350e-06;0.0009810004673702886
7.28375e-06;0.0009808777323595625
7.28400e-06;0.0009807549973488365
7.28425e-06;0.00098063226233811
7.28450e-06;0.0009805095273273839
7.28475e-06;0.0009803867923166574
7.28500e-06;0.0009802640573059313
7.28525e-06;0.000980141322295205
7.28550e-06;0.0009800185872844785
7.28575e-06;0.0009798958522737524
7.28600e-06;0.0009797731172630263
7.28625e-06;0.0009796503822522998
7.28650e-06;0.000978099230577749
7.28675e-06;0.0009759236028357863
7.28700e-06;0.0009737479750938163
7.28725e-06;0.0009715723473518536
7.28750e-06;0.000969396719609891
7.28775e-06;0.0009672210918679209
7.28800e-06;0.0009650454641259582
7.28825e-06;0.0009628698363839956
7.28850e-06;0.0009606942086420255
7.28875e-06;0.0009585185809000629
7.28900e-06;0.0009563429531580928
7.28925e-06;0.0009541673254161301
7.28950e-06;0.0009519916976741675
7.28975e-06;0.0009498160699321974
7.29000e-06;0.0009476404421902348
7.29025e-06;0.0009454648144482721
7.29050e-06;0.000943289186706302
7.29075e-06;0.0009411135589643394
7.29100e-06;0.0009389379312223767
7.29125e-06;0.0009367623034804067
7.29150e-06;0.000934586675738444
7.29175e-06;0.0009324110479964813
7.29200e-06;0.0009302354202545113
7.29225e-06;0.0009280597925125486
7.29250e-06;0.0009258841647705859
7.29275e-06;0.0009237085370286159
7.29300e-06;0.0009215329092866532
7.29325e-06;0.0009193572815446832
7.29350e-06;0.0009171901635726353
7.29375e-06;0.0009150267659069831
7.29400e-06;0.0009128633682413237
7.29425e-06;0.0009106999705756715
7.29450e-06;0.0009082498560201589
7.29475e-06;0.0009046221735015173
7.29500e-06;0.000900994490982888
7.29525e-06;0.0008973668084642588
7.29550e-06;0.0008937391259456173
7.29575e-06;0.0008867266880687201
7.29600e-06;0.0008782345007823034
7.29625e-06;0.0008697423134958579
7.29650e-06;0.0008586759320606837
7.29675e-06;0.0008464841628593752
7.29700e-06;0.0008342923936580254
7.29725e-06;0.0008185935642191261
7.29750e-06;0.0008013615160490476
7.29775e-06;0.0007841294678790274
7.29800e-06;0.0007637135327218704
7.29825e-06;0.0007419056639120468
7.29850e-06;0.0007200977951022971
7.29875e-06;0.000695645516416636
7.29900e-06;0.0006700371530104374
7.29925e-06;0.0006444287896043256
7.29950e-06;0.0006162067702977503
7.29975e-06;0.0005868421113123638
7.30000e-06;0.0005574774523270769
7.30025e-06;0.000526496265568429
7.30050e-06;0.0004948083642129955
7.30075e-06;0.0004631204628576693
7.30100e-06;0.0004304435953483807
7.30125e-06;0.00039733437101336115
7.30150e-06;0.00036422514667845376
7.30175e-06;0.0003311291385056568
7.30200e-06;0.0002980874101113007
7.30225e-06;0.00026504568171694455
7.30250e-06;0.00023200395332247648
7.30275e-06;0.00020006259709781895
7.30300e-06;0.00016860230224857966
7.30325e-06;0.00013801757429566627
7.30350e-06;0.00010854931304568583
7.30375e-06;8.028422675425016e-05
7.30400e-06;5.3436009965429396e-05
7.30425e-06;2.8218325919375984e-05
7.30450e-06;4.844815233007308e-06
7.30475e-06;-1.647351356880065e-05
7.30500e-06;-3.555333347474676e-05
7.30525e-06;-5.22752702761226e-05
7.30550e-06;-6.657842722222264e-05
7.30575e-06;-7.842461629778976e-05
7.30600e-06;-8.777881010178855e-05
7.30625e-06;-9.460599672611273e-05
7.30650e-06;-9.887119970138451e-05
7.30675e-06;-0.00010054108822797705
7.30700e-06;-9.959969021587404e-05
7.30725e-06;-9.607108149766464e-05
7.30750e-06;-9.0015975722784e-05
7.30775e-06;-8.150932099537562e-05
7.30800e-06;-7.062802418740684e-05
7.30825e-06;-5.7449012421454895e-05
7.30850e-06;-4.204922673607928e-05
7.30875e-06;-2.4506643165768784e-05
7.30900e-06;-4.910095556397927e-06
7.30925e-06;1.662648944676943e-05
7.30950e-06;3.9966242799421624e-05
7.30975e-06;6.496339698971635e-05
7.31000e-06;9.147095770293313e-05
7.31025e-06;0.00011934192821424499
7.31050e-06;0.00014842931235178503
7.31075e-06;0.00017888693723556228
7.31100e-06;0.00020978778370395169
7.31125e-06;0.00024182475195805883
7.31150e-06;0.0002743584106264419
7.31175e-06;0.00030689206929493526
7.31200e-06;0.0003394431155937718
7.31225e-06;0.0003720655742066
7.31250e-06;0.00040468803281953875
7.31275e-06;0.0004373104914323669
7.31300e-06;0.00046852381970711717
7.31325e-06;0.000499121103522565
7.31350e-06;0.0005297183873379091
7.31375e-06;0.0005581929043227014
7.31400e-06;0.0005857393888117886
7.31425e-06;0.0006108797729833626
7.31450e-06;0.0006349682567528908
7.31475e-06;0.0006562834555584301
7.31500e-06;0.0006763862279544879
7.31525e-06;0.0006939844211595869
7.31550e-06;0.0007104876609085864
7.31575e-06;0.0007244419725598863
7.31600e-06;0.0007372819422731707
7.31625e-06;0.0007473607166559401
7.31650e-06;0.0007562323499825748
7.31675e-06;0.0007616488929695687
7.31700e-06;0.0007655549374577206
7.31725e-06;0.0007694609819458725
7.31750e-06;0.0007697506667291552
7.31775e-06;0.0007684593491743436
7.31800e-06;0.000767168031619532
7.31825e-06;0.0007624197269148477
7.31850e-06;0.0007561600944627671
7.31875e-06;0.0007499004620106653
7.31900e-06;0.0007406485406481552
7.31925e-06;0.000730088448597573
7.31950e-06;0.000719528356546955
7.31975e-06;0.000706638657605104
7.32000e-06;0.0006927304997038865
7.32025e-06;0.0006788223418026218
7.32050e-06;0.0006626746140659506
7.32075e-06;0.000645547789824819
7.32100e-06;0.0006284209655836295
7.32125e-06;0.000611294141342498
7.32150e-06;0.0005941673171013664
7.32175e-06;0.000576044987484382
7.32200e-06;0.0005574874422210618
7.32225e-06;0.0005389298969577415
7.32250e-06;0.0005203723516943585
7.32275e-06;0.0005018148064310383
7.32300e-06;0.0004839068018700254
7.32325e-06;0.00046628276390886026
7.32350e-06;0.0004486587259476952
7.32375e-06;0.00043257329128846157
7.32400e-06;0.00041716050415773815
7.32425e-06;0.00040174771702701474
7.32450e-06;0.000388183141893523
7.32475e-06;0.0003754265692064559
7.32500e-06;0.00036431093644233894
7.32525e-06;0.00035391269079289143
7.32550e-06;0.00034513336249291694
7.32575e-06;0.0003370617934655378
7.32600e-06;0.0003306973232095493
7.32625e-06;0.0003250791634339271
7.32650e-06;0.0003212563749795858
7.32675e-06;0.0003182184880526712
7.32700e-06;0.0003169234220302418
7.32725e-06;0.00031639028351201833
7.32750e-06;0.0003174662812830185
7.32775e-06;0.00031924576223671934
7.32800e-06;0.0003225697698053404
7.32825e-06;0.00032656901445989153
7.32850e-06;0.0003320481963056836
7.32875e-06;0.0003381743779938641
7.32900e-06;0.0003459154606541079
7.32925e-06;0.0003543625467045934
7.32950e-06;0.00036280963275510766
7.32975e-06;0.00037282158044051695
7.33000e-06;0.00038351765528826977
7.33025e-06;0.00039421373013605885
7.33050e-06;0.0004064060151003193
7.33075e-06;0.00041925241411429234
7.33100e-06;0.00043209881312830883
7.33125e-06;0.0004449452121422818
7.33150e-06;0.00045779161115629835
7.33175e-06;0.00047077585305339105
7.33200e-06;0.0004843262261016544
7.33225e-06;0.0004978765991499638
7.33250e-06;0.0005114269721982271
7.33275e-06;0.0005249773452464906
7.33300e-06;0.0005385277182947998
7.33325e-06;0.0005509909075865749
7.33350e-06;0.0005629788012217796
7.33375e-06;0.0005749666948570248
7.33400e-06;0.0005869545884922294
7.33425e-06;0.0005981081175638966
7.33450e-06;0.000605834848239253
7.33475e-06;0.0006135615789145831
7.33500e-06;0.0006212883095899133
7.33525e-06;0.0006290150402652697
7.33550e-06;0.0006322843525582021
7.33575e-06;0.0006336049679690113
7.33600e-06;0.0006319013929571703
7.33625e-06;0.0006288757005352274
7.33650e-06;0.0006229345231385829
7.33675e-06;0.000615718752245784
7.33700e-06;0.000605205164251308
7.33725e-06;0.0005932498345685895
7.33750e-06;0.0005778026056282304
7.33775e-06;0.000560828786044576
7.33800e-06;0.0005407320339062249
7.33825e-06;0.0005192699962125157
7.33850e-06;0.000495063237085445
7.33875e-06;0.00046965653897112033
7.33900e-06;0.0004415757435385959
7.33925e-06;0.00041232588461254555
7.33950e-06;0.0003805903808455232
7.33975e-06;0.0003477682013538915
7.34000e-06;0.00031300162606386246
7.34025e-06;0.0002773849986351818
7.34050e-06;0.00024037083894139702
7.34075e-06;0.0002027457052410664
7.34100e-06;0.00016407720529061293
7.34125e-06;0.0001249525658477239
7.34150e-06;8.51932788683887e-05
7.34175e-06;4.515653629292207e-05
7.34200e-06;5.119793717455438e-06
7.34225e-06;-3.477310374068111e-05
7.34250e-06;-7.425526899173245e-05
7.34275e-06;-0.00011309194626230497
7.34300e-06;-0.00015110695626997924
7.34325e-06;-0.0001881279402907934
7.34350e-06;-0.0002239370049944933
7.34375e-06;-0.0002582812887085456
7.34400e-06;-0.00029090050829588484
7.34425e-06;-0.0003215344128781947
7.34450e-06;-0.00034992322176809307
7.34475e-06;-0.00037597100334243506
7.34500e-06;-0.00039944225564518597
7.34525e-06;-0.0004220994130327704
7.34550e-06;-0.00044268188198931334
7.34575e-06;-0.0004623573373947568
7.34600e-06;-0.0004796659382270037
7.34625e-06;-0.0004959397961362584
7.34650e-06;-0.0005095446295130406
7.34675e-06;-0.000521982617120013
7.34700e-06;-0.0005321476726329266
7.34725e-06;-0.0005413190463094664
7.34750e-06;-0.000548695808063519
7.34775e-06;-0.0005552880002849519
7.34800e-06;-0.0005600021074362962
7.34825e-06;-0.0005638951522135107
7.34850e-06;-0.0005653893059014107
7.34875e-06;-0.0005658347109227205
7.34900e-06;-0.0005662801159440304
7.34925e-06;-0.0005646141214948188
7.34950e-06;-0.0005620250641399414
7.34975e-06;-0.000559436006785064
7.35000e-06;-0.0005550866960974915
7.35025e-06;-0.0005499678367865466
7.35050e-06;-0.0005448489774756018
7.35075e-06;-0.0005379401700264335
7.35100e-06;-0.0005302488319607629
7.35125e-06;-0.0005225574938950922
7.35150e-06;-0.0005148661558293955
7.35175e-06;-0.0005071748177637249
7.35200e-06;-0.0004992622053779642
7.35225e-06;-0.0004904408026168624
7.35250e-06;-0.00048161939985579043
7.35275e-06;-0.0004727979970946886
7.35300e-06;-0.00046397659433361667
7.35325e-06;-0.0004551551915725448
7.35350e-06;-0.00044699695579420654
7.35375e-06;-0.00043912864376104333
7.35400e-06;-0.0004312603317278801
7.35425e-06;-0.0004236246189397326
7.35450e-06;-0.00041694420885049846
7.35475e-06;-0.00041026379876126434
7.35500e-06;-0.0004035833886720076
7.35525e-06;-0.00039546708943125514
7.35550e-06;-0.0003867230472973427
7.35575e-06;-0.00037624724110928544
7.35600e-06;-0.00036501434125811973
7.35625e-06;-0.000352398150405913
7.35650e-06;-0.0003391772115519487
7.35675e-06;-0.0003245247244163283
7.35700e-06;-0.0003092463921316248
7.35725e-06;-0.0002922939493715319
7.35750e-06;-0.0002734124000008587
7.35775e-06;-0.00025292537732575553
7.35800e-06;-0.00023099832522505197
7.35825e-06;-0.000207796710372283
7.35850e-06;-0.00018348568301174384
7.35875e-06;-0.00015814424283243033
7.35900e-06;-0.00013166246710833443
7.35925e-06;-0.00010388894801010651
7.35950e-06;-7.484340262837078e-05
7.35975e-06;-4.468577335818801e-05
7.36000e-06;-1.3606656122452568e-05
7.36025e-06;1.820337380057483e-05
7.36050e-06;5.05539282859038e-05
7.36075e-06;8.344539586605069e-05
7.36100e-06;0.0001165091553403673
7.36125e-06;0.00015011099547561246
7.36150e-06;0.0001839480740417692
7.36175e-06;0.00021778515260781128
7.36200e-06;0.00025128538536467893
7.36225e-06;0.0002846383556655421
7.36250e-06;0.0003179913259664053
7.36275e-06;0.0003502045631165967
7.36300e-06;0.00038191953103424765
7.36325e-06;0.00041236511781385604
7.36350e-06;0.0004422557557751736
7.36375e-06;0.00047036219064388674
7.36400e-06;0.000497688606518882
7.36425e-06;0.000522629972618413
7.36450e-06;0.0005465286412056208
7.36475e-06;0.0005679381326919919
7.36500e-06;0.0005882594042187716
7.36525e-06;0.0006050608097345355
7.36550e-06;0.000621815724398461
7.36575e-06;-0.010407170814533009
7.36600e-06;-0.015548862479811309
7.36625e-06;-0.013007129406020957
7.36650e-06;-0.010374477709294271
7.36675e-06;-0.0025038431713310678
7.36700e-06;0.0032854406245455456
7.36725e-06;0.002661655835368163
7.36750e-06;0.001784971565049559
7.36775e-06;-0.0037350099689988834
7.36800e-06;-0.009410561148187753
7.36825e-06;-0.007483471917615621
7.36850e-06;-0.004349519198992308
7.36875e-06;-0.00025850290842360595
7.36900e-06;0.003384720059038224
7.36925e-06;0.00392679328459559
7.36950e-06;0.0022883928724516016
7.36975e-06;-0.0008692564007993905
7.37000e-06;-0.003692598251488223
7.37025e-06;-0.0036969722564174417
7.37050e-06;-0.0018941403785768278
7.37075e-06;0.0007375031256413909
7.37100e-06;0.0029889919277885364
7.37125e-06;0.0033023728429190007
7.37150e-06;0.0022537656127982163
7.37175e-06;0.0002568436534155074
7.37200e-06;-0.001527818927054488
7.37225e-06;-0.0015443657975312574
7.37250e-06;-0.00042706819921431086
7.37275e-06;0.0012108205363244794
7.37300e-06;0.0026117280413350207
7.37325e-06;0.0027995979748726653
7.37350e-06;0.00213521644523391
7.37375e-06;0.000877614586088389
7.37400e-06;-0.0002463396788012894
7.37425e-06;-0.0002622314476711488
7.37450e-06;0.0004324471530398711
7.37475e-06;0.001453326080727572
7.37500e-06;0.002325389615540612
7.37525e-06;0.0024367093614687764
7.37550e-06;0.0020131069200159655
7.37575e-06;0.0012169019704785316
7.37600e-06;0.0005034600854805178
7.37625e-06;0.0004831660804675861
7.37650e-06;0.0009070317071058049
7.37675e-06;0.0015343144940675791
7.37700e-06;0.0020675192127963525
7.37725e-06;0.0021234217483094117
7.37750e-06;0.001843577716751898
7.37775e-06;0.001329754890131368
7.37800e-06;0.0008678088498245178
7.37825e-06;0.0008461130857491884
7.37850e-06;0.0010818391168983031
7.37875e-06;0.0013621327300244119
7.37900e-06;0.0017736354516329797
7.37925e-06;0.0018147053450110083
7.37950e-06;0.0016398149899387211
7.37975e-06;0.0013327393862242096
7.38000e-06;0.001005543431595843
7.38025e-06;0.0009026659163184278
7.38050e-06;0.0010240339116207452
7.38075e-06;0.0012247587683279785
7.38100e-06;0.001418878472495235
7.38125e-06;0.0014545671431159858
7.38150e-06;0.001328578357934934
7.38175e-06;0.0011190699957462948
7.38200e-06;0.0008975823391915081
7.38225e-06;0.0008172996746672028
7.38250e-06;0.0008782378606137876
7.38275e-06;0.0009897042576561678
7.38300e-06;0.001097924913345747
7.38325e-06;0.0011078749421866733
7.38350e-06;0.001017604696034207
7.38375e-06;0.0008761533673409802
7.38400e-06;0.0007284109313356661
7.38425e-06;0.0006704025748920018
7.38450e-06;0.0007022045699365595
7.38475e-06;0.0007670331025296463
7.38500e-06;0.0008310824991022816
7.38525e-06;0.0008346106156395318
7.38550e-06;0.0007762636639811382
7.38575e-06;0.0006867097885879631
7.38600e-06;0.0005940212042517093
7.38625e-06;0.0005582975355251093
7.38650e-06;0.0005795331358428519
7.38675e-06;0.0006221071858419104
7.38700e-06;0.0006647946608949935
7.38725e-06;0.0006701268071624078
7.38750e-06;0.0006372111333967276
7.38775e-06;0.0005852124255232174
7.38800e-06;0.0005316681344361663
7.38825e-06;0.0005141748092915948
7.38850e-06;0.0005326776725652267
7.38875e-06;0.0005648133845200043
7.38900e-06;0.0005972380571738626
7.38925e-06;0.0006064342112514812
7.38950e-06;0.0005917967872619888
7.38975e-06;0.0005652843437296209
7.39000e-06;0.0005378345949763067
7.39025e-06;0.000532949118103032
7.39050e-06;0.0005505432901728373
7.39075e-06;0.0005765593073249428
7.39100e-06;0.0006025901574769531
7.39125e-06;0.000613857116567957
7.39150e-06;0.000609934485456053
7.39175e-06;0.0005979509294078165
7.39200e-06;0.0005856414061084801
7.39225e-06;0.0005867751253275833
7.39250e-06;0.0006015231719976459
7.39275e-06;0.0006210447385157978
7.39300e-06;0.0006400253469373919
7.39325e-06;0.0006491600298405189
7.39350e-06;0.0006481349516376364
7.39375e-06;0.0006410127428725316
7.39400e-06;0.0006336415284212383
7.39425e-06;0.000633578323472727
7.39450e-06;0.0006411902727286666
7.39475e-06;0.0006503916227950914
7.39500e-06;0.0006596485908369733
7.39525e-06;0.0006617554585193711
7.39550e-06;0.0006571204849535108
7.39575e-06;0.0006481932905636544
