Time(s);Current(A)
4.75000e-06;-0.0012617548493300804
4.75025e-06;-0.0012321202586853502
4.75050e-06;-0.0012006370088333193
4.75075e-06;-0.0011674222287898865
4.75100e-06;-0.001132685366400305
4.75125e-06;-0.0010966371142037226
4.75150e-06;-0.0010594880291311046
4.75175e-06;-0.0010214418520031808
4.75200e-06;-0.0009826520935041897
4.75225e-06;-0.0009431856568429664
4.75250e-06;-0.0009031180233169034
4.75275e-06;-0.0008626326753738299
4.75300e-06;-0.0008219708044833213
4.75325e-06;-0.0007813743702950413
4.75350e-06;-0.0007410852838480216
4.75375e-06;-0.000701341252862743
4.75400e-06;-0.0006623482906897921
4.75425e-06;-0.0006242583823785489
4.75450e-06;-0.0005872286942341008
4.75475e-06;-0.0005514840429698178
4.75500e-06;-0.0005172856159570751
4.75525e-06;-0.0004848947067576309
4.75550e-06;-0.00045457285741475864
4.75575e-06;-0.0004265675193128132
4.75600e-06;-0.0004010155899743002
4.75625e-06;-0.00037782989361106984
4.75650e-06;-0.00035684755247820666
4.75675e-06;-0.00033805498575626466
4.75700e-06;-0.00032153755695258257
4.75725e-06;-0.00030738195678140927
4.75750e-06;-0.00029567482734598193
4.75775e-06;-0.0002864941162148649
4.75800e-06;-0.0002798484806518192
4.75825e-06;-0.0002756061682752081
4.75850e-06;-0.00027358808344505545
4.75875e-06;-0.0002737086102853837
4.75900e-06;-0.0002759441146019942
4.75925e-06;-0.0002802718324011416
4.75950e-06;-0.0002866689609886593
4.75975e-06;-0.00029510719306875973
4.76000e-06;-0.00030551488747184477
4.76025e-06;-0.0003178564923476748
4.76050e-06;-0.000332198976412075
4.76075e-06;-0.000347007467387785
4.76100e-06;-0.00036417648636237086
4.76125e-06;-0.0003817512239026082
4.76150e-06;-0.0004013811027094898
4.76175e-06;-0.00042134469906579503
4.76200e-06;-0.000442998720177112
4.76225e-06;-0.0004648712442561762
4.76250e-06;-0.00048785058104699455
4.76275e-06;-0.0005109469677723018
4.76300e-06;-0.0005346362634032039
4.76325e-06;-0.0005583540849774924
4.76350e-06;-0.0005822164028804598
4.76375e-06;-0.0006060113813236525
4.76400e-06;-0.0006294652560700695
4.76425e-06;-0.0006527289018807633
4.76450e-06;-0.0006750289552687192
4.76475e-06;-0.0006970244984103121
4.76500e-06;-0.0007174775645097472
4.76525e-06;-0.0007373969691491792
4.76550e-06;-0.0007546131460303236
4.76575e-06;-0.000771829322911468
4.76600e-06;-0.000788290732282518
4.76625e-06;-0.0008009289154379256
4.76650e-06;-0.000813567098593333
4.76675e-06;-0.0008254275623302053
4.76700e-06;-0.0008333485384375245
4.76725e-06;-0.0008412695145448438
4.76750e-06;-0.0008483592253109646
4.76775e-06;-0.000851238215024852
4.76800e-06;-0.0008541172047387394
4.76825e-06;-0.0008563807440685713
4.76850e-06;-0.0008555267591132008
4.76875e-06;-0.0008543463457194731
4.76900e-06;-0.002862789803870021
4.76925e-06;-0.008377777436154314
4.76950e-06;-0.011146688842356537
4.76975e-06;-0.010419827629293919
4.77000e-06;-0.008088501066433674
4.77025e-06;-0.0040687903107820686
4.77050e-06;-0.0013202094239211713
4.77075e-06;-0.0009791027673175553
4.77100e-06;-0.002416829887038458
4.77125e-06;-0.005072491469873137
4.77150e-06;-0.006963121653439668
4.77175e-06;-0.00684964735027742
4.77200e-06;-0.005240688451780402
4.77225e-06;-0.0029861507563390672
4.77250e-06;-0.001240167714275092
4.77275e-06;-0.0008165786895468367
4.77300e-06;-0.0016850710848718654
4.77325e-06;-0.003405108785595145
4.77350e-06;-0.004479276044929488
4.77375e-06;-0.004350471610605529
4.77400e-06;-0.0030802265244946362
4.77425e-06;-0.0014135436148377998
4.77450e-06;-0.00025919295162731053
4.77475e-06;7.088611443128712e-05
4.77500e-06;-0.0005824417252271692
4.77525e-06;-0.001714947367582314
4.77550e-06;-0.002494339752793473
4.77575e-06;-0.002525187524602228
4.77600e-06;-0.0017536626254276797
4.77625e-06;-0.0007099208495960506
4.77650e-06;1.2612302086578626e-05
4.77675e-06;0.00021873448090341865
4.77700e-06;-0.00019117549862223681
4.77725e-06;-0.0009012193446038947
4.77750e-06;-0.0013900407006603413
4.77775e-06;-0.0014099679185475464
4.77800e-06;-0.0009273228190616401
4.77825e-06;-0.0002742212679635227
4.77850e-06;0.00017762026019904514
4.77875e-06;0.0003059534616357953
4.77900e-06;4.8409773188422335e-05
4.77925e-06;-0.0003971052261264472
4.77950e-06;-0.0007040118434179691
4.77975e-06;-0.0007171885398225496
4.78000e-06;-0.0004155675631806179
4.78025e-06;-7.205793612150256e-06
4.78050e-06;0.0002750538547701421
4.78075e-06;0.0003546488489131857
4.78100e-06;0.00019253027402671766
4.78125e-06;-8.731956742547225e-05
4.78150e-06;-0.00028033228644556415
4.78175e-06;-0.0002893546570326851
4.78200e-06;-0.00010120978017555305
4.78225e-06;0.00015376104926745522
4.78250e-06;0.0003297031150632378
4.78275e-06;0.000378664247470806
4.78300e-06;0.0002761938721585707
4.78325e-06;9.996150637629508e-05
4.78350e-06;-2.1893869478964337e-05
4.78375e-06;-2.8526674461055806e-05
4.78400e-06;8.830276415841498e-05
4.78425e-06;0.00024693778253187103
4.78450e-06;0.0003560120253854629
4.78475e-06;0.0003854905347368412
4.78500e-06;0.00032006192943603655
4.78525e-06;0.00020838097859907618
4.78550e-06;0.00013071062877678563
4.78575e-06;0.00012514256766375082
4.78600e-06;0.00019649141171004298
4.78625e-06;0.0002926873854892164
4.78650e-06;0.0003556610317377287
4.78675e-06;0.0003664209125725258
4.78700e-06;0.0003155125032351132
4.78725e-06;0.00023354885419339745
4.78750e-06;0.00017093848602274742
4.78775e-06;0.00015167056285262919
4.78800e-06;0.00017888822338941543
4.78825e-06;0.0002201036998335509
4.78850e-06;0.00023907412445572481
4.78875e-06;0.00022403722711044523
4.78900e-06;0.00016920550502342926
4.78925e-06;9.388906052094972e-05
4.78950e-06;2.9795545031273713e-05
4.78975e-06;-7.918608751981359e-06
4.79000e-06;-1.7155635640241838e-05
4.79025e-06;-1.8136134763013087e-05
4.79050e-06;-3.343090872522486e-05
4.79075e-06;-7.027480359544533e-05
4.79100e-06;-0.00013215956170025247
4.79125e-06;-0.0002068562434171689
4.79150e-06;-0.0002743715613098816
4.79175e-06;-0.00032508119201082197
4.79200e-06;-0.00035754137060007397
4.79225e-06;-0.00038428786664528714
4.79250e-06;-0.0004193274603127756
4.79275e-06;-0.00046705968148417755
4.79300e-06;-0.0005295390914655912
4.79325e-06;-0.000598973042927798
4.79350e-06;-0.0006627062486782527
4.79375e-06;-0.0007145794481241114
4.79400e-06;-0.0007535578926419222
4.79425e-06;-0.0007873633965342083
4.79450e-06;-0.0008246383636021168
4.79475e-06;-0.0008680067845930456
4.79500e-06;-0.0009186234897075465
4.79525e-06;-0.0009714753235710925
4.79550e-06;-0.0010185036396604546
4.79575e-06;-0.0010557173360982487
4.79600e-06;-0.0010822792630199285
4.79625e-06;-0.0011027817368286686
4.79650e-06;-0.0011225167888319215
4.79675e-06;-0.0011432091733883246
4.79700e-06;-0.001165740908224789
4.79725e-06;-0.0011871301083083024
4.79750e-06;-0.0012024877390473681
4.79775e-06;-0.0012094729907898712
4.79800e-06;-0.0012077209448076518
4.79825e-06;-0.001200267558587
4.79850e-06;-0.0011905865219784353
4.79875e-06;-0.0011799170736663557
4.79900e-06;-0.001168970273394655
4.79925e-06;-0.0011560370065452816
4.79950e-06;-0.0011382138995387155
4.79975e-06;-0.0011141936489167197
4.80000e-06;-0.0010839069478753949
4.80025e-06;-0.0010494144592283667
4.80050e-06;-0.0010130513302123894
4.80075e-06;-0.0009757523359235794
4.80100e-06;-0.0009381217758884271
4.80125e-06;-0.0008992477943079077
4.80150e-06;-0.0008574704891564563
4.80175e-06;-0.0008121299715980937
4.80200e-06;-0.0007633418775046013
4.80225e-06;-0.0007125560554684393
4.80250e-06;-0.0006613938461860823
4.80275e-06;-0.0006105996578446559
4.80300e-06;-0.0005607106280607145
4.80325e-06;-0.0005113142441658201
4.80350e-06;-0.0004615294714733542
4.80375e-06;-0.0004111017939038188
4.80400e-06;-0.000360262392806392
4.80425e-06;-0.0003100781818500033
4.80450e-06;-0.000261723435964998
4.80475e-06;-0.0002158230314140143
4.80500e-06;-0.00017287194428603408
4.80525e-06;-0.0001327703198815662
4.80550e-06;-9.51248073525767e-05
4.80575e-06;-5.9926977843891886e-05
4.80600e-06;-2.728549192222198e-05
4.80625e-06;2.5547595530210867e-06
4.80650e-06;2.9372276626999152e-05
4.80675e-06;5.3019771535115223e-05
4.80700e-06;7.327848208954847e-05
4.80725e-06;9.030225523771942e-05
4.80750e-06;0.00010442873472895298
4.80775e-06;0.00011575446272974453
4.80800e-06;0.00012430262969859127
4.80825e-06;0.00013001109534768008
4.80850e-06;0.00013283237765587436
4.80875e-06;0.0001327654821062084
4.80900e-06;0.0001297646847188199
4.80925e-06;0.00012401761070475245
4.80950e-06;0.00011582703780797676
4.80975e-06;0.0001053446769041486
4.81000e-06;9.267629843105074e-05
4.81025e-06;7.787420902805931e-05
4.81050e-06;6.099990534089333e-05
4.81075e-06;4.214400853035997e-05
4.81100e-06;2.1369086276893614e-05
4.81125e-06;-1.116095136229278e-06
4.81150e-06;-2.5030679818837697e-05
4.81175e-06;-5.018843835914189e-05
4.81200e-06;-7.643194731678882e-05
4.81225e-06;-0.00010363726623156163
4.81250e-06;-0.00013168673794055613
4.81275e-06;-0.00016066597489920273
4.81300e-06;-0.00018967349073051665
4.81325e-06;-0.0002193147525204644
4.81350e-06;-0.0002489448902346553
4.81375e-06;-0.00027832573094967617
4.81400e-06;-0.00030766430937605513
4.81425e-06;-0.00033605576537479553
4.81450e-06;-0.0003643749092860008
4.81475e-06;-0.00039107349733038345
4.81500e-06;-0.0004176647289675202
4.81525e-06;-0.0004418500411808963
4.81550e-06;-0.00046588798549615767
4.81575e-06;-0.0004866233296472629
4.81600e-06;-0.0005071837443487839
4.81625e-06;-0.0005238238885163082
4.81650e-06;-0.0005402799558325739
4.81675e-06;-0.0005526107540319742
4.81700e-06;-0.0005647508218202963
4.81725e-06;-0.0005726165103510245
4.81750e-06;-0.0005802818051445631
4.81775e-06;-0.0005834561599324898
4.81800e-06;-0.0005864282611689969
4.81825e-06;-0.0005848677428837373
4.81850e-06;-0.0005831146468050319
4.81875e-06;-0.0005770457705590415
4.81900e-06;-0.000570795551239501
4.81925e-06;-0.0005604813283485823
4.81950e-06;-0.0005500367021481642
4.81975e-06;-0.0005365864851073971
4.82000e-06;-0.0005211930378301468
4.82025e-06;-0.0005039510181012631
4.82050e-06;-0.00048498328140591623
4.82075e-06;-0.0004644248375734781
4.82100e-06;-0.00044241523154209044
4.82125e-06;-0.00041907981166503265
4.82150e-06;-0.0003945371069683195
4.82175e-06;-0.0003689147640120047
4.82200e-06;-0.0003423462573840611
4.82225e-06;-0.00031498093664734136
4.82250e-06;-0.00028698584047469236
4.82275e-06;-0.00025853558929660577
4.82300e-06;-0.00022980762212805955
4.82325e-06;-0.00020097053543744405
4.82350e-06;-0.00017218856588201623
4.82375e-06;-0.0001436317178274544
4.82400e-06;-0.00011547355575407287
4.82425e-06;-8.789766783693526e-05
4.82450e-06;-6.109863998463132e-05
4.82475e-06;-3.5275823787565706e-05
4.82500e-06;-1.0630314860416687e-05
4.82525e-06;1.2642346955362596e-05
4.82550e-06;3.434936736263828e-05
4.82575e-06;5.428761006806442e-05
4.82600e-06;7.20888072669108e-05
4.82625e-06;8.71173720057762e-05
4.82650e-06;9.884400954760036e-05
4.82675e-06;0.00010712814777479789
4.82700e-06;0.00011200170612005162
4.82725e-06;0.00011350010471690657
4.82750e-06;0.0001116604767391756
4.82775e-06;0.00010651348475717485
4.82800e-06;9.798636789722372e-05
4.82825e-06;8.583892688847575e-05
4.82850e-06;6.98975849040581e-05
4.82875e-06;5.0232263879868155e-05
4.82900e-06;2.702092578234092e-05
4.82925e-06;4.437269346804484e-07
4.82950e-06;-2.9318116631349777e-05
4.82975e-06;-6.208744905450994e-05
4.83000e-06;-9.775191594055656e-05
4.83025e-06;-0.00013630403280941896
4.83050e-06;-0.0001776945617944257
4.83075e-06;-0.00022172177292396067
4.83100e-06;-0.00026811627719155144
4.83125e-06;-0.0003166407157572807
4.83150e-06;-0.00036767300189462313
4.83175e-06;-0.0004188208202871755
4.83200e-06;-0.00047255778359670523
4.83225e-06;-0.0005263771356808332
4.83250e-06;-0.0005820428680422095
4.83275e-06;-0.000637741048940271
4.83300e-06;-0.0006941664203803985
4.83325e-06;-0.0007505682967480648
4.83350e-06;-0.0008064436348963905
4.83375e-06;-0.000862242597586311
4.83400e-06;-0.0009163299419107105
4.83425e-06;-0.0009702932070393924
4.83450e-06;-0.0010214757853572133
4.83475e-06;-0.0010724760621008231
4.83500e-06;-0.0011193908547204687
4.83525e-06;-0.001166061372678693
4.83550e-06;-0.0012072575536520346
4.83575e-06;-0.0012481890915172946
4.83600e-06;-0.00128318982368585
4.83625e-06;-0.0013179716580429771
4.83650e-06;-0.0013478478653549252
4.83675e-06;-0.0013777240726668733
4.83700e-06;-0.0014073199784619295
4.83725e-06;-0.0014306341645233514
4.83750e-06;-0.0014539483505848524
4.83775e-06;-0.0014770013753027458
4.83800e-06;-0.0014942016226873536
4.83825e-06;-0.0015112202928637024
4.83850e-06;-0.0015241697123820144
4.83875e-06;-0.0015371191319003262
4.83900e-06;-0.0015498528792741318
4.83925e-06;-0.001557753288674595
4.83950e-06;-0.001565653698075058
4.83975e-06;-0.00157336815589136
4.84000e-06;-0.0015769153307474268
4.84025e-06;-0.0015803597160591561
4.84050e-06;-0.001581500528005403
4.84075e-06;-0.0015825292563090261
4.84100e-06;-0.001581046125108951
4.84125e-06;-0.0015795629939088709
4.84150e-06;-0.0015779667546765228
4.84175e-06;-0.001573835698773819
4.84200e-06;-0.001569638559793554
4.84225e-06;-0.001563960460679106
4.84250e-06;-0.0015582449788017739
4.84275e-06;-0.001551691727505492
4.84300e-06;-0.0015451081771504624
4.84325e-06;-0.0015378456072982646
4.84350e-06;-0.001530559240277923
4.84375e-06;-0.0015227395649031468
4.84400e-06;-0.0015149179750137177
4.84425e-06;-0.001507053479740038
4.84450e-06;-0.00149921555444844
4.84475e-06;-0.0014919730778807944
4.84500e-06;-0.0014847306013131734
4.84525e-06;-0.0014780633193454673
4.84550e-06;-0.0014718806878677288
4.84575e-06;-0.001465732445050922
4.84600e-06;-0.0014603548720897523
4.84625e-06;-0.0014549518957572443
4.84650e-06;-0.0014489796151245398
4.84675e-06;-0.001442968524545301
4.84700e-06;-0.0014360876805333983
4.84725e-06;-0.0014292068365214954
4.84750e-06;-0.0014222958227427017
4.84775e-06;-0.001414708686973275
4.84800e-06;-0.001407121551203848
4.84825e-06;-0.0013994468092341475
4.84850e-06;-0.0013898087614570313
4.84875e-06;-0.0013801707136799149
4.84900e-06;-0.001370532665902766
4.84925e-06;-0.0013608946181256497
4.84950e-06;-0.0013511665941283524
4.84975e-06;-0.0013394221508011242
4.85000e-06;-0.0013276777074739358
4.85025e-06;-0.0013159332641467074
4.85050e-06;-0.0013041888208195189
4.85075e-06;-0.001292379255815977
4.85100e-06;-0.0012791102762392053
4.85125e-06;-0.0012658412966624786
4.85150e-06;-0.00125255238458497
4.85175e-06;-0.001238816773593207
4.85200e-06;-0.0012250811626014907
4.85225e-06;-0.0012113336070276003
4.85250e-06;-0.001197318366432808
4.85275e-06;-0.001183303367017179
4.85300e-06;-0.0011692937725655429
4.85325e-06;-0.0011552995414721577
4.85350e-06;-0.001141649612157306
4.85375e-06;-0.0011280271673160959
4.85400e-06;-0.0011150206654849375
4.85425e-06;-0.0011020468173169645
4.85450e-06;-0.0010898047566965854
4.85475e-06;-0.001077622229193263
4.85500e-06;-0.0010667738734032838
4.85525e-06;-0.0010559255176132677
4.85550e-06;-0.001045155501109766
4.85575e-06;-0.001036141113494741
4.85600e-06;-0.0010271500779853958
4.85625e-06;-0.00101868237672167
4.85650e-06;-0.0010101961593664594
4.85675e-06;-0.0010012949856518809
4.85700e-06;-0.000992388698069847
4.85725e-06;-0.000983367805748715
4.85750e-06;-0.0009743469134275522
4.85775e-06;-0.0009653260211064201
4.85800e-06;-0.0009562731520398063
4.85825e-06;-0.0009465036655435482
4.85850e-06;-0.0009367341790473232
4.85875e-06;-0.0009269646925510651
4.85900e-06;-0.00091714326068694
4.85925e-06;-0.0009061577029726739
4.85950e-06;-0.0008951721452583706
4.85975e-06;-0.0008841865875441045
4.86000e-06;-0.0008732010298298385
4.86025e-06;-0.0008616251703736255
4.86050e-06;-0.0008495519313724859
4.86075e-06;-0.0008374786923713464
4.86100e-06;-0.0008254054533701658
4.86125e-06;-0.0008133082166326117
4.86150e-06;-0.0008006731766908935
4.86175e-06;-0.0007880381367491325
4.86200e-06;-0.000775399319992189
4.86225e-06;-0.0007626758626135432
4.86250e-06;-0.0007499524052348544
4.86275e-06;-0.0007372347626764025
4.86300e-06;-0.0007246474336140371
4.86325e-06;-0.0007120601045517143
4.86350e-06;-0.0006994996350522275
4.86375e-06;-0.0006875411039481587
4.86400e-06;-0.0006756193481009268
4.86425e-06;-0.000664521747106916
4.86450e-06;-0.0006534241461128676
4.86475e-06;-0.0006423742770351458
4.86500e-06;-0.0006323941079102445
4.86525e-06;-0.0006224678584791937
4.86550e-06;-0.0006137499806888618
4.86575e-06;-0.0006051048519681305
4.86600e-06;-0.000598090072128442
4.86625e-06;-0.0005912003291564673
4.86650e-06;-0.0005871127349739263
4.86675e-06;-0.0005830251407913715
4.86700e-06;-0.00057909406688229
4.86725e-06;-0.0005786707031619113
4.86750e-06;-0.000578247339441534
4.86775e-06;-0.0005779847236739082
4.86800e-06;-0.0005813245628418124
4.86825e-06;-0.0005846644020097053
4.86850e-06;-0.0005881703423121833
4.86875e-06;-0.0005953987054623177
4.86900e-06;-0.0006026270686124275
4.86925e-06;-0.0006100023786340804
4.86950e-06;-0.0006206708533493195
4.86975e-06;-0.0006313393280645226
4.87000e-06;-0.0006421390854406545
4.87025e-06;-0.0006558809634572424
4.87050e-06;-0.0006696228414737838
4.87075e-06;-0.0006834724295862562
4.87100e-06;-0.0006997358634736241
4.87125e-06;-0.0007159992973609369
4.87150e-06;-0.0007323365743263187
4.87175e-06;-0.0007503287175351006
4.87200e-06;-0.0007683208607438825
4.87225e-06;-0.0007863564675788577
4.87250e-06;-0.0008053661195055143
4.87275e-06;-0.0008243757714321708
4.87300e-06;-0.0008433893377539614
4.87325e-06;-0.0008624906279414493
4.87350e-06;-0.0008815919181289374
4.87375e-06;-0.0009006556001214686
4.87400e-06;-0.0009188764606325331
4.87425e-06;-0.0009370973211435976
4.87450e-06;-0.0009552393434339619
4.87475e-06;-0.0009716145554327822
4.87500e-06;-0.0009879897674316025
4.87525e-06;-0.001004240713341278
4.87550e-06;-0.0010177067840578579
4.87575e-06;-0.001031172854774483
4.87600e-06;-0.0010445182541586216
4.87625e-06;-0.001055159338935602
4.87650e-06;-0.0010658004237126184
4.87675e-06;-0.0010764415084895985
4.87700e-06;-0.001087082593266579
4.87725e-06;-0.0010961960455386618
4.87750e-06;-0.0011040223371842314
4.87775e-06;-0.0011118486288298009
4.87800e-06;-0.001119674920475397
4.87825e-06;-0.0011273365400186817
4.87850e-06;-0.0011313077621620154
4.87875e-06;-0.0011352789843053625
4.87900e-06;-0.001139250206448696
4.87925e-06;-0.00114322142859203
4.87950e-06;-0.001147192650735377
4.87975e-06;-0.0011511638728787107
4.88000e-06;-0.0011551350950220578
4.88025e-06;-0.0011591063171653916
4.88050e-06;-0.0011630775393087253
4.88075e-06;-0.0011670487614520724
4.88100e-06;-0.001171019983595406
4.88125e-06;-0.0011749912057387399
4.88150e-06;-0.0011788258615941126
4.88175e-06;-0.0011795999876641628
4.88200e-06;-0.001180374113734213
4.88225e-06;-0.0011811482398042656
4.88250e-06;-0.0011819223658743156
4.88275e-06;-0.0011826964919443657
4.88300e-06;-0.0011834706180144183
4.88325e-06;-0.0011842447440844686
4.88350e-06;-0.0011850188701545187
4.88375e-06;-0.0011857929962245713
4.88400e-06;-0.0011865671222946214
4.88425e-06;-0.001187341248364674
4.88450e-06;-0.0011881153744347243
4.88475e-06;-0.001188863616305158
4.88500e-06;-0.0011890317782375375
4.88525e-06;-0.0011891991320955575
4.88550e-06;-0.0011893477698607746
4.88575e-06;-0.0011894714488654133
4.88600e-06;-0.001189297546772869
4.88625e-06;-0.0011880886135539996
4.88650e-06;-0.0011851676628091576
4.88675e-06;-0.0011803493757706882
4.88700e-06;-0.0011730479814086856
4.88725e-06;-0.0011656134536879878
4.88750e-06;-0.0011551953301223736
4.88775e-06;-0.0011446416788116027
4.88800e-06;-0.0011310507720648712
4.88825e-06;-0.0011172340802254473
4.88850e-06;-0.0010983574134013603
4.88875e-06;-0.0010794807465773376
4.88900e-06;-0.001060398775823194
4.88925e-06;-0.0010367158248272513
4.88950e-06;-0.0010129311758084617
4.88975e-06;-0.0009868049720521813
4.89000e-06;-0.000959211742073512
4.89025e-06;-0.0009300304176267798
4.89050e-06;-0.0008991634102235423
4.89075e-06;-0.0008667203194089154
4.89100e-06;-0.0008329097490079248
4.89125e-06;-0.0007979400366707829
4.89150e-06;-0.0007620197837357838
4.89175e-06;-0.0007253546415393797
4.89200e-06;-0.000688086515711902
4.89225e-06;-0.0006502428273474038
4.89250e-06;-0.0006118659112521848
4.89275e-06;-0.0005731278001614231
4.89300e-06;-0.000534262486385872
