Time(s);Current(A)
1.02500e-05;0.00752675213277006
1.02503e-05;0.007509562512441242
1.02505e-05;0.007534599990422547
1.02508e-05;0.007566118378134068
1.02510e-05;0.007597636765845801
1.02513e-05;0.007629155153557536
1.02515e-05;0.007660673541269056
1.02518e-05;0.007692191928980791
1.02520e-05;0.007723710316692525
1.02522e-05;0.007755228704404045
1.02525e-05;0.0077867470921157795
1.02528e-05;0.007853655934397977
1.02530e-05;0.007925996415380799
1.02533e-05;0.00799833689636411
1.02535e-05;0.008070677377347422
1.02537e-05;0.008143017858330244
1.02540e-05;0.008215358339313555
1.02543e-05;0.008287698820296868
1.02545e-05;0.008360039301279688
1.02548e-05;0.008432379782263001
1.02550e-05;0.008514674648613928
1.02553e-05;0.008598497289204298
1.02555e-05;0.0086823199297941
1.02558e-05;0.00876614257038447
1.02560e-05;0.00884996521097484
1.02563e-05;0.00893378785156464
1.02565e-05;0.00901761049215501
1.02568e-05;0.00910143313274538
1.02570e-05;0.009166427914963426
1.02573e-05;0.009228533044436337
1.02575e-05;0.009290638173909248
1.02578e-05;0.009352743303381738
1.02580e-05;0.00941484843285465
1.02583e-05;0.009476953562327561
1.02585e-05;0.00953905869180005
1.02588e-05;0.009601163821272962
1.02590e-05;0.009623753963812936
1.02593e-05;0.009640279444709082
1.02595e-05;0.009656804925605339
1.02598e-05;0.009673330406501595
1.02600e-05;0.009689855887397741
1.02603e-05;0.009706381368293998
1.02605e-05;0.009722906849190254
1.02607e-05;0.0097394323300864
1.02610e-05;0.009755957810982657
1.02613e-05;0.009772483291878914
1.02615e-05;0.00974948149311383
1.02618e-05;0.00972041314604715
1.02620e-05;0.00969134479898047
1.02622e-05;0.009662276451913986
1.02625e-05;0.009633208104847307
1.02628e-05;0.009604139757780626
1.02630e-05;0.009575071410714142
1.02633e-05;0.009546003063647463
1.02635e-05;0.009516934716580782
1.02638e-05;0.009487866369514103
1.02640e-05;0.009438391183189787
1.02643e-05;0.009385784006070283
1.02645e-05;0.009333176828950776
1.02648e-05;0.009280569651831626
1.02650e-05;0.00922796247471212
1.02653e-05;0.009175355297592613
1.02655e-05;0.009122748120473465
1.02658e-05;0.009070140943353958
1.02660e-05;0.009017533766234452
1.02663e-05;0.008967490991904754
1.02665e-05;0.008921872361351207
1.02668e-05;0.00887625373079766
1.02670e-05;0.008830635100244422
1.02673e-05;0.008785016469690876
1.02675e-05;0.008739397839137329
1.02678e-05;0.008693779208584091
1.02680e-05;0.008648160578030546
1.02683e-05;0.008602541947476998
1.02685e-05;0.00855692331692376
1.02688e-05;0.008539899713259722
1.02690e-05;0.008527264803008739
1.02692e-05;0.008514629892757843
1.02695e-05;0.00850199498250686
1.02698e-05;0.008489360072255876
1.02700e-05;0.008476725162004978
1.02703e-05;0.008464090251753997
1.02705e-05;0.008451455341503013
1.02707e-05;0.008438820431252115
1.02710e-05;0.00843929877184874
1.02713e-05;0.008462400277329089
1.02715e-05;0.00848550178280928
1.02718e-05;0.008508603288289628
1.02720e-05;0.008531704793769974
1.02723e-05;0.008554806299250322
1.02725e-05;0.008577907804730514
1.02728e-05;0.00860100931021086
1.02730e-05;0.008624110815691208
1.02733e-05;0.0086472123211714
1.02735e-05;0.008689717513955102
1.02738e-05;0.008735200736275067
1.02740e-05;0.008780683958594725
1.02743e-05;0.008826167180914692
1.02745e-05;0.00887165040323466
1.02748e-05;0.008917133625554317
1.02750e-05;0.008962616847874283
1.02753e-05;0.00900810007019425
1.02755e-05;0.009053583292513908
1.02758e-05;0.009099066514833873
1.02760e-05;0.009142616416170719
1.02763e-05;0.009182830924942343
1.02765e-05;0.009223045433714239
1.02768e-05;0.009263259942486135
1.02770e-05;0.00930347445125776
1.02773e-05;0.009343688960029656
1.02775e-05;0.009383903468801552
1.02777e-05;0.009424117977573174
1.02780e-05;0.00946433248634507
1.02783e-05;0.009504546995116967
1.02785e-05;0.009544761503888591
1.02788e-05;0.009557860867946567
1.02790e-05;0.009566798667214873
1.02792e-05;0.00957573646648312
1.02795e-05;0.00958467426575143
1.02798e-05;0.009593612065019736
1.02800e-05;0.009602549864287983
1.02803e-05;0.009611487663556292
1.02805e-05;0.009620425462824598
1.02808e-05;0.009629363262092907
1.02810e-05;0.009638301061361152
1.02813e-05;0.00964723886062946
1.02815e-05;0.009656176659897769
1.02818e-05;0.009665114459166015
1.02820e-05;0.009663723268977365
1.02823e-05;0.009644512360829322
1.02825e-05;0.009625301452681409
1.02828e-05;0.009606090544533366
1.02830e-05;0.009586879636385322
1.02833e-05;0.00956766872823741
1.02835e-05;0.009548457820089366
1.02838e-05;0.009529246911941324
1.02840e-05;0.009510036003793411
1.02843e-05;0.009490825095645368
1.02845e-05;0.009471614187497325
1.02848e-05;0.009452403279349412
1.02850e-05;0.009433192371201368
1.02853e-05;0.009413981463053325
1.02855e-05;0.009388784908779112
1.02858e-05;0.009362669692464319
1.02860e-05;0.009336554476149526
1.02862e-05;0.00931043925983491
1.02865e-05;0.009284324043520118
1.02868e-05;0.009258208827205325
1.02870e-05;0.009235833103408845
1.02873e-05;0.009214031307598384
1.02875e-05;0.009192229511787922
1.02877e-05;0.009170427715977609
1.02880e-05;0.009148625920167148
1.02883e-05;0.009126824124356687
1.02885e-05;0.00910202665714074
1.02888e-05;0.009076769421747812
1.02890e-05;0.009051512186354884
1.02893e-05;0.009026254950961956
1.02895e-05;0.009000997715569198
1.02898e-05;0.00897574048017627
1.02900e-05;0.008950483244783342
1.02903e-05;0.008925226009390585
1.02905e-05;0.008885672168884846
1.02908e-05;0.008843924121078523
1.02910e-05;0.008802176073272484
1.02913e-05;0.008760428025466161
1.02915e-05;0.008718679977659839
1.02918e-05;0.008676931929853799
1.02920e-05;0.008635183882047476
1.02923e-05;0.008593435834241154
1.02925e-05;0.00853712441113263
1.02928e-05;0.00847857783749939
1.02930e-05;0.00842003126386615
1.02933e-05;0.008361484690233309
1.02935e-05;0.00830293811660007
1.02938e-05;0.00824439154296683
1.02940e-05;0.008185844969333987
1.02943e-05;0.008127298395700748
1.02945e-05;0.008068751822067509
1.02947e-05;0.008010205248434665
1.02950e-05;0.007951694655447308
1.02953e-05;0.007893246136776567
1.02955e-05;0.007834797618106222
1.02958e-05;0.007776349099435482
1.02960e-05;0.007717900580764742
1.02962e-05;0.007659452062094396
1.02965e-05;0.007601003543423656
1.02968e-05;0.007542555024752915
1.02970e-05;0.007484106506082571
1.02973e-05;0.007425657987411831
1.02975e-05;0.00736720946874109
1.02978e-05;0.007334363791373071
1.02980e-05;0.007305447574243434
1.02983e-05;0.007276531357113601
1.02985e-05;0.007247615139983768
1.02988e-05;0.007218698922854131
1.02990e-05;0.007189782705724298
1.02993e-05;0.0071608664885944645
1.02995e-05;0.007131950271464828
1.02998e-05;0.007103034054334995
1.03000e-05;0.0070741178372051615
1.03003e-05;0.007045201620075525
1.03005e-05;0.007016285402945691
1.03008e-05;0.006987369185815859
1.03010e-05;0.006958452968686222
1.03013e-05;0.006939886788967967
1.03015e-05;0.006939176639447536
1.03018e-05;0.006938466489927109
1.03020e-05;0.006937756340406679
1.03023e-05;0.006937046190886248
1.03025e-05;0.006936336041365822
1.03028e-05;0.006935625891845392
1.03030e-05;0.006934915742324961
1.03032e-05;0.006934205592804534
1.03035e-05;0.006933495443284104
1.03038e-05;0.0069327852937636734
1.03040e-05;0.006932075144243248
1.03043e-05;0.006931364994722817
1.03045e-05;0.006930654845202386
1.03047e-05;0.00692994469568196
1.03050e-05;0.006937319936720029
1.03053e-05;0.0069459361033391825
1.03055e-05;0.006954552269958278
1.03058e-05;0.006963168436577433
1.03060e-05;0.006971784603196586
1.03063e-05;0.006980400769815741
1.03065e-05;0.006988826743364144
1.03068e-05;0.006996924593150425
1.03070e-05;0.007005022442936707
1.03073e-05;0.007013120292722934
1.03075e-05;0.0070212181425092154
1.03078e-05;0.007029315992295497
1.03080e-05;0.007037413842081724
1.03083e-05;0.007051122935697944
1.03085e-05;0.007065693229025117
1.03088e-05;0.007080263522352191
1.03090e-05;0.0070948338156793635
1.03093e-05;0.007109404109006536
1.03095e-05;0.00712397440233361
1.03098e-05;0.007138544695660783
1.03100e-05;0.007161881013465298
1.03103e-05;0.007200340600065499
1.03105e-05;0.007238800186665962
1.03108e-05;0.007277259773266425
1.03110e-05;0.007315719359866627
1.03113e-05;0.00735417894646709
1.03115e-05;0.007392638533067552
1.03117e-05;0.007431098119667755
1.03120e-05;0.007492117061014694
1.03123e-05;0.007556598355875659
1.03125e-05;0.007621079650736187
1.03128e-05;0.007685560945597153
1.03130e-05;0.007750042240458118
1.03132e-05;0.007814523535318647
1.03135e-05;0.007879004830179611
1.03138e-05;0.007943486125040576
1.03140e-05;0.008007967419901105
1.03143e-05;0.008076433634886925
1.03145e-05;0.008151774690154661
1.03148e-05;0.008227115745422396
1.03150e-05;0.008302456800689622
1.03153e-05;0.008377797855957356
1.03155e-05;0.008453138911225093
1.03158e-05;0.008528479966492317
1.03160e-05;0.008603821021760053
1.03163e-05;0.008679162077027788
1.03165e-05;0.008754503132295014
1.03168e-05;0.008814745352022
1.03170e-05;0.008872670240118799
1.03173e-05;0.008930595128215205
1.03175e-05;0.008988520016312004
1.03178e-05;0.009046444904408802
1.03180e-05;0.009104369792505208
1.03183e-05;0.009162294680602008
1.03185e-05;0.009220219568698807
1.03188e-05;0.009245423695419664
1.03190e-05;0.009265605921272886
1.03193e-05;0.009285788147126108
1.03195e-05;0.009305970372979193
1.03198e-05;0.009326152598832413
1.03200e-05;0.009346334824685635
1.03202e-05;0.00936651705053872
1.03205e-05;0.009386699276391942
1.03208e-05;0.009366594397585732
1.03210e-05;0.009340306354410468
1.03213e-05;0.009314018311235026
1.03215e-05;0.009287730268059584
1.03217e-05;0.009261442224884321
1.03220e-05;0.00923515418170888
1.03223e-05;0.009208866138533438
1.03225e-05;0.009182578095358173
1.03228e-05;0.009156290052182731
1.03230e-05;0.00913000200900729
1.03232e-05;0.00909179713035692
1.03235e-05;0.00903303315942551
1.03238e-05;0.008974269188494102
1.03240e-05;0.008915505217562692
1.03243e-05;0.008856741246631682
1.03245e-05;0.008797977275700272
1.03248e-05;0.008739213304768864
1.03250e-05;0.008680449333837853
1.03253e-05;0.008621685362906443
1.03255e-05;0.008562921391975035
1.03258e-05;0.008504157421044024
1.03260e-05;0.008443452352567044
1.03263e-05;0.008382449369278712
1.03265e-05;0.008321446385990795
1.03268e-05;0.008260443402702463
1.03270e-05;0.00819944041941413
1.03273e-05;0.00814339743051486
1.03275e-05;0.00809591149374312
1.03278e-05;0.00804842555697138
1.03280e-05;0.008000939620199963
1.03283e-05;0.007953453683428223
1.03285e-05;0.007905967746656483
1.03287e-05;0.007874466374256869
1.03290e-05;0.007845418272941293
1.03293e-05;0.007816370171625718
1.03295e-05;0.007787322070310339
1.03298e-05;0.007758273968994764
1.03300e-05;0.007729225867679189
1.03302e-05;0.00770017776636381
1.03305e-05;0.007671129665048235
1.03308e-05;0.00764208156373266
1.03310e-05;0.0076130334624172815
1.03313e-05;0.007583985361101706
1.03315e-05;0.00755493725978613
1.03317e-05;0.007525889158470752
1.03320e-05;0.007496841057155177
1.03323e-05;0.007467792955839602
1.03325e-05;0.0074434919060017
1.03328e-05;0.007427380536186245
1.03330e-05;0.007411269166370679
1.03333e-05;0.007395157796555115
1.03335e-05;0.007379046426739659
1.03338e-05;0.007362935056924094
1.03340e-05;0.007346823687108529
1.03343e-05;0.007330712317293073
1.03345e-05;0.007314600947477508
1.03348e-05;0.0072984895776619435
1.03350e-05;0.007282378207846487
1.03353e-05;0.007266266838030923
1.03355e-05;0.007250155468215357
1.03358e-05;0.007234044098399902
1.03360e-05;0.007217932728584337
1.03363e-05;0.007201821358768772
1.03365e-05;0.007191437002388495
1.03368e-05;0.007181931613751097
1.03370e-05;0.007172426225113699
1.03373e-05;0.007162920836476365
1.03375e-05;0.007153415447838967
1.03378e-05;0.007143910059201569
1.03380e-05;0.007134404670564236
1.03383e-05;0.007124899281926837
1.03385e-05;0.007115393893289439
1.03387e-05;0.007125048430413492
1.03390e-05;0.007137643585172468
1.03393e-05;0.007150238739931443
1.03395e-05;0.0071628338946903335
1.03398e-05;0.00717542904944931
1.03400e-05;0.007188024204208285
1.03402e-05;0.0072006193589671755
1.03405e-05;0.007213214513726151
1.03408e-05;0.007225809668485127
1.03410e-05;0.007271113013779522
1.03413e-05;0.0073214363306065965
1.03415e-05;0.007371759647434013
1.03418e-05;0.007422082964261429
1.03420e-05;0.007472406281088505
1.03423e-05;0.007522729597915921
1.03425e-05;0.007573052914743338
1.03428e-05;0.007623376231570413
1.03430e-05;0.00767369954839783
1.03433e-05;0.007724022865225246
1.03435e-05;0.00779507753616454
1.03438e-05;0.0078693140036452
1.03440e-05;0.00794355047112586
1.03443e-05;0.008017786938606015
1.03445e-05;0.008092023406086675
1.03448e-05;0.008166259873567333
1.03450e-05;0.00824049634104749
1.03453e-05;0.00831473280852815
1.03455e-05;0.00838896927600881
1.03458e-05;0.008463205743488966
1.03460e-05;0.008532802543519456
1.03463e-05;0.008601687258957345
1.03465e-05;0.008670571974394766
1.03468e-05;0.008739456689832656
1.03470e-05;0.008808341405270545
1.03472e-05;0.008877226120707968
1.03475e-05;0.008946110836145856
1.03478e-05;0.009005478421773792
1.03480e-05;0.00904842692109544
1.03483e-05;0.009091375420417377
1.03485e-05;0.009134323919739314
1.03487e-05;0.00917727241906096
1.03490e-05;0.009220220918382899
1.03493e-05;0.009263169417704836
1.03495e-05;0.009306117917026773
1.03498e-05;0.009324694631891523
1.03500e-05;0.009339530826040925
1.03503e-05;0.009354367020190327
1.03505e-05;0.009369203214339629
1.03508e-05;0.009384039408489031
1.03510e-05;0.009398875602638433
1.03513e-05;0.009413711796787735
1.03515e-05;0.009412443653859586
1.03518e-05;0.009405374029944066
1.03520e-05;0.009398304406028592
1.03523e-05;0.009391234782113072
1.03525e-05;0.009384165158197552
1.03528e-05;0.009377095534282079
1.03530e-05;0.009370025910366559
1.03533e-05;0.009363052779708603
1.03535e-05;0.005942587864437625
1.03538e-05;0.00027203564528759317
1.03540e-05;-0.001268861638530332
1.03543e-05;0.00010180725935656247
1.03545e-05;0.0030760679547607696
1.03548e-05;0.006948798320717038
1.03550e-05;0.009042639469259041
1.03553e-05;0.008824649531150173
1.03555e-05;0.006834917833459254
1.03557e-05;0.0038239995276439674
1.03560e-05;0.0023232208363222306
1.03563e-05;0.003069326327630144
1.03565e-05;0.00503404003799198
1.03568e-05;0.007297711680624728
1.03570e-05;0.008751311789717048
1.03572e-05;0.008726195659818232
1.03575e-05;0.007518672971358306
1.03578e-05;0.006324876109522149
1.03580e-05;0.005191743402809318
1.03583e-05;0.005659237334207034
1.03585e-05;0.007041528332423358
1.03588e-05;0.008394034647294374
1.03590e-05;0.009333644163628202
1.03593e-05;0.009187788765751461
1.03595e-05;0.008323898076716303
1.03598e-05;0.007331462667540043
1.03600e-05;0.006659000490786603
1.03603e-05;0.006955898061104271
1.03605e-05;0.007802881487216587
1.03608e-05;0.008629699200806626
1.03610e-05;0.009196511727919526
1.03613e-05;0.009082197274994626
1.03615e-05;0.008517090206436663
1.03618e-05;0.007870599760800867
1.03620e-05;0.007423799589743459
1.03623e-05;0.0075835537118958355
1.03625e-05;0.008087313323416292
1.03628e-05;0.008577983872660736
1.03630e-05;0.00890546618220573
1.03633e-05;0.00880612046270283
1.03635e-05;0.008424388501244499
1.03638e-05;0.007991806736658325
1.03640e-05;0.00768456192027603
1.03642e-05;0.007757615207045007
1.03645e-05;0.008046604339753067
1.03648e-05;0.008327961560312002
1.03650e-05;0.008507793289961275
1.03653e-05;0.008421098579155085
1.03655e-05;0.008158500997713534
1.03657e-05;0.007865167826511414
1.03660e-05;0.007651584933296884
1.03663e-05;0.007677569560720986
1.03665e-05;0.007840273076791589
1.03668e-05;0.00799977065533657
1.03670e-05;0.008097374964392078
1.03673e-05;0.008029865227553742
1.03675e-05;0.007854143524750294
1.03678e-05;0.00766127316881578
1.03680e-05;0.007520584295241178
1.03683e-05;0.007532229485471636
1.03685e-05;0.007631522452701802
1.03688e-05;0.007730335366788898
1.03690e-05;0.007791624601598822
1.03693e-05;0.007750658081466648
1.03695e-05;0.0076430198201705305
1.03698e-05;0.00752568840307355
1.03700e-05;0.007442025154021113
1.03703e-05;0.007454691790001508
1.03705e-05;0.007523096131472188
1.03708e-05;0.007591964417914207
1.03710e-05;0.00763802823596315
1.03713e-05;0.007620675599057477
1.03715e-05;0.007562134345713234
1.03718e-05;0.007498031868683165
1.03720e-05;0.007455461460837579
1.03723e-05;0.0074736038984069605
1.03725e-05;0.007526960804610242
1.03727e-05;0.007580841341557421
1.03730e-05;0.007620602720517053
1.03733e-05;0.007620741981736159
1.03735e-05;0.007595118890951506
1.03738e-05;0.007565983830681558
1.03740e-05;0.0075502413769508265
1.03742e-05;0.0075723658122542
1.03745e-05;0.007616259901543784
1.03748e-05;0.007655835755860272
1.03750e-05;0.00769505158352366
1.03753e-05;0.007704561298458703
1.03755e-05;0.007697588738292968
1.03758e-05;0.007700367649635198
1.03760e-05;0.007703146560977409
1.03763e-05;0.00770629943730531
1.03765e-05;0.007739968679858412
1.03768e-05;0.007763035056504668
1.03770e-05;0.007786101433151079
1.03773e-05;0.007808866722352357
1.03775e-05;0.007807006016301665
1.03778e-05;0.007809043905315357
1.03780e-05;0.00781108179432905
1.03783e-05;0.007813336433443306
1.03785e-05;0.007833256591481808
1.03788e-05;0.007845247602460647
1.03790e-05;0.007857238613439404
1.03793e-05;0.007869229624418243
1.03795e-05;0.007881195142760334
1.03798e-05;0.007891071585833454
1.03800e-05;0.00790094802890664
1.03803e-05;0.007910824471979827
1.03805e-05;0.007920779489748
1.03808e-05;0.007937173561028956
1.03810e-05;0.007953567632309913
1.03812e-05;0.007969961703590758
1.03815e-05;0.007986367878400628
1.03818e-05;0.00800376591541702
1.03820e-05;0.008021163952433293
1.03823e-05;0.008038561989449685
1.03825e-05;0.008056017386614045
1.03827e-05;0.008078173343703426
1.03830e-05;0.008100329300792956
1.03833e-05;0.008122485257882485
1.03835e-05;0.008144641214972015
1.03838e-05;0.008167709831729014
1.03840e-05;0.008191648133265785
1.03843e-05;0.008215586434802557
1.03845e-05;0.008239524736339167
1.03848e-05;0.008263456586902133
1.03850e-05;0.008286859791879646
1.03853e-05;0.008310262996856999
1.03855e-05;0.008333666201834511
1.03858e-05;0.008357069406812023
1.03860e-05;0.00838045221768006
1.03863e-05;0.00840216376833304
1.03865e-05;0.00842387531898602
1.03868e-05;0.008445586869638855
1.03870e-05;0.008467298420291836
1.03873e-05;0.008488847990697969
1.03875e-05;0.00849712357408434
1.03878e-05;0.008505399157470764
1.03880e-05;0.00851367474085719
1.03883e-05;0.00852195032424356
1.03885e-05;0.008530225907629986
1.03888e-05;0.008538501491016412
1.03890e-05;0.008546777074402781
1.03893e-05;0.008555052657789207
1.03895e-05;0.008563328241175632
1.03897e-05;0.008571603824562003
1.03900e-05;0.008579879407948427
1.03903e-05;0.008588154991334853
1.03905e-05;0.00858536880890779
1.03908e-05;0.008572041731876645
1.03910e-05;0.008558714654845503
1.03912e-05;0.00854538757781445
1.03915e-05;0.008532060500783308
1.03918e-05;0.008518733423752164
1.03920e-05;0.008505406346721022
1.03923e-05;0.00849207926968997
1.03925e-05;0.008478752192658827
1.03928e-05;0.008465425115627685
1.03930e-05;0.008452098038596631
1.03933e-05;0.008438770961565489
1.03935e-05;0.008425299775259769
1.03938e-05;0.008400019095612188
1.03940e-05;0.008374738415964436
1.03943e-05;0.008349457736316684
1.03945e-05;0.008324177056669102
1.03948e-05;0.00829889637702135
1.03950e-05;0.008273615697373598
1.03953e-05;0.008248335017726018
1.03955e-05;0.008223054338078266
1.03958e-05;0.008197773658430512
1.03960e-05;0.008172492978782931
1.03963e-05;0.00814721229913518
1.03965e-05;0.008121931619487427
1.03968e-05;0.008096760843232386
1.03970e-05;0.00808059645042637
1.03973e-05;0.008064432057620353
1.03975e-05;0.008048267664814446
1.03978e-05;0.00803210327200843
1.03980e-05;0.008015938879202412
1.03982e-05;0.007999774486396506
1.03985e-05;0.00798361009359049
1.03988e-05;0.007967445700784474
1.03990e-05;0.007951281307978567
1.03993e-05;0.00793511691517255
1.03995e-05;0.007918952522366534
1.03997e-05;0.007902788129560627
1.04000e-05;0.007886917786211952
1.04003e-05;0.00789514426199382
1.04005e-05;0.00790337073777569
1.04008e-05;0.007911597213557503
1.04010e-05;0.007919823689339371
1.04013e-05;0.00792805016512124
1.04015e-05;0.007936276640903052
1.04018e-05;0.00794450311668492
