Time(s);Current(A)
1.80000e-06;-0.013398716092543641
1.80025e-06;-0.013414325058894196
1.80050e-06;-0.013429934025244766
1.80075e-06;-0.013445542991595323
1.80100e-06;-0.013461151957945892
1.80125e-06;-0.013481003294010026
1.80150e-06;-0.013504141188469095
1.80175e-06;-0.013527279082928185
1.80200e-06;-0.013550416977387254
1.80225e-06;-0.013573554871846341
1.80250e-06;-0.01359669276630541
1.80275e-06;-0.013619830660764479
1.80300e-06;-0.013642968555223567
1.80325e-06;-0.013667569267931568
1.80350e-06;-0.0136933032240674
1.80375e-06;-0.01371903718020321
1.80400e-06;-0.01374477113633902
1.80425e-06;-0.01377050509247485
1.80450e-06;-0.013796239048610659
1.80475e-06;-0.013821973004746491
1.80500e-06;-0.0138477069608823
1.80525e-06;-0.013870416976510029
1.80550e-06;-0.013890784349291068
1.80575e-06;-0.013911151722072107
1.80600e-06;-0.013931519094853162
1.80625e-06;-0.0139518864676342
1.80650e-06;-0.013972253840415255
1.80675e-06;-0.013992621213196294
1.80700e-06;-0.014012988585977331
1.80725e-06;-0.014033355958758388
1.80750e-06;-0.014053723331539427
1.80775e-06;-0.014072140472407091
1.80800e-06;-0.014089046771104086
1.80825e-06;-0.01410595306980108
1.80850e-06;-0.01412285936849809
1.80875e-06;-0.014139765667195084
1.80900e-06;-0.014156671965892095
1.80925e-06;-0.01417357826458909
1.80950e-06;-0.014190484563286098
1.80975e-06;-0.014207390861983093
1.81000e-06;-0.014224297160680088
1.81025e-06;-0.014241203459377096
1.81050e-06;-0.01425878028104153
1.81075e-06;-0.014276876555991833
1.81100e-06;-0.014294972830942122
1.81125e-06;-0.014313069105892409
1.81150e-06;-0.014331165380842711
1.81175e-06;-0.014349261655793
1.81200e-06;-0.014367357930743303
1.81225e-06;-0.01438545420569359
1.81250e-06;-0.014403550480643878
1.81275e-06;-0.01442164675559418
1.81300e-06;-0.014439743030544468
1.81325e-06;-0.014457842960590824
1.81350e-06;-0.014475945722235407
1.81375e-06;-0.014494048483880004
1.81400e-06;-0.014512151245524588
1.81425e-06;-0.01453025400716917
1.81450e-06;-0.014548356768813766
1.81475e-06;-0.01456631023840757
1.81500e-06;-0.014582061052350274
1.81525e-06;-0.014597811866292963
1.81550e-06;-0.014613562680235654
1.81575e-06;-0.014629313494178358
1.81600e-06;-0.014645064308121047
1.81625e-06;-0.014660815122063752
1.81650e-06;-0.014674957592823687
1.81675e-06;-0.014687854082175674
1.81700e-06;-0.01469833895493101
1.81725e-06;-0.014706955551391352
1.81750e-06;-0.014710629002920285
1.81775e-06;-0.014710473006389037
1.81800e-06;-0.014704162502729148
1.81825e-06;-0.014693084110263238
1.81850e-06;-0.014682005717797328
1.81875e-06;-0.014664560602794292
1.81900e-06;-0.014642183195979565
1.81925e-06;-0.014619799024889897
1.81950e-06;-0.01458888496944174
1.81975e-06;-0.014543059781344542
1.82000e-06;-0.014497234593247303
1.82025e-06;-0.014451409405150105
1.82050e-06;-0.014405584217052868
1.82075e-06;-0.014354385058893573
1.82100e-06;-0.014287132000999622
1.82125e-06;-0.014219878943105614
1.82150e-06;-0.014152625885211663
1.82175e-06;-0.014085372827317656
1.82200e-06;-0.014011906814548551
1.82225e-06;-0.01393224753511261
1.82250e-06;-0.013849894560892457
1.82275e-06;-0.013764856427926892
1.82300e-06;-0.013678808071967098
1.82325e-06;-0.013591054959494546
1.82350e-06;-0.013502012595711465
1.82375e-06;-0.013412029984835263
1.82400e-06;-0.013321623587355745
1.82425e-06;-0.013230710455165712
1.82450e-06;-0.013139681154276639
1.82475e-06;-0.01305004912968932
1.82500e-06;-0.012962375345410315
1.82525e-06;-0.012876669325177116
1.82550e-06;-0.012793335680614172
1.82575e-06;-0.012712837419448736
1.82600e-06;-0.01263574267505472
1.82625e-06;-0.01256224314257787
1.82650e-06;-0.012492827927269953
1.82675e-06;-0.01242866349513707
1.82700e-06;-0.012370078688329919
1.82725e-06;-0.01231660089833018
1.82750e-06;-0.0122678497884973
1.82775e-06;-0.012223734905899
1.82800e-06;-0.012184425813318847
1.82825e-06;-0.012149885800469223
1.82850e-06;-0.01212026456178604
1.82875e-06;-0.01209613485030692
1.82900e-06;-0.012078764142969628
1.82925e-06;-0.012065257637331267
1.82950e-06;-0.012057450465311707
1.82975e-06;-0.012055324566314717
1.83000e-06;-0.012053198667317726
1.83025e-06;-0.012059064588843474
1.83050e-06;-0.012072897005642808
1.83075e-06;-0.012086729422442155
1.83100e-06;-0.01210056183924149
1.83125e-06;-0.012114406755267182
1.83150e-06;-0.012143991562093583
1.83175e-06;-0.012173576368919959
1.83200e-06;-0.012203161175746362
1.83225e-06;-0.012232745982572738
1.83250e-06;-0.012267079469703263
1.83275e-06;-0.012306146589063266
1.83300e-06;-0.012345213708423236
1.83325e-06;-0.012386653095045212
1.83350e-06;-0.012430457231460535
1.83375e-06;-0.012474261367875857
1.83400e-06;-0.012518934408002285
1.83425e-06;-0.012564473598374117
1.83450e-06;-0.012610012788745987
1.83475e-06;-0.012655395579559161
1.83500e-06;-0.012700622466427676
1.83525e-06;-0.0127448638495165
1.83550e-06;-0.012788122851784814
1.83575e-06;-0.01282965384103678
1.83600e-06;-0.012869462293166144
1.83625e-06;-0.012906129073047666
1.83650e-06;-0.01293966413631442
1.83675e-06;-0.012973199199581174
1.83700e-06;-0.013002205827117735
1.83725e-06;-0.013026698369066688
1.83750e-06;-0.013051190911015663
1.83775e-06;-0.01307103561876416
1.83800e-06;-0.013086247220816213
1.83825e-06;-0.013101458822868279
1.83850e-06;-0.013109263288963545
1.83875e-06;-0.013109684091546843
1.83900e-06;-0.013110104894130139
1.83925e-06;-0.013110525696713437
1.83950e-06;-0.013110946499296734
1.83975e-06;-0.013111367301880032
1.84000e-06;-0.013102896960566955
1.84025e-06;-0.0130855636504695
1.84050e-06;-0.013068230340372028
1.84075e-06;-0.013050897030274572
1.84100e-06;-0.013033563720177116
1.84125e-06;-0.013016230410079646
1.84150e-06;-0.012992594026754746
1.84175e-06;-0.012962674543987139
1.84200e-06;-0.012932755061219556
1.84225e-06;-0.012902835578451975
1.84250e-06;-0.012872916095684368
1.84275e-06;-0.012839523796474076
1.84300e-06;-0.012802669685815877
1.84325e-06;-0.012765815575157708
1.84350e-06;-0.012728961464499538
1.84375e-06;-0.01269210735384134
1.84400e-06;-0.012654264614521656
1.84425e-06;-0.012615436379402042
1.84450e-06;-0.012576678337523748
1.84475e-06;-0.012537990266451613
1.84500e-06;-0.012499633339574294
1.84525e-06;-0.012462001548562534
1.84550e-06;-0.012425289646248533
1.84575e-06;-0.01238975187187143
1.84600e-06;-0.012355633160312341
1.84625e-06;-0.012323171922760556
1.84650e-06;-0.012292609849986936
1.84675e-06;-0.012264222188456545
1.84700e-06;-0.012238494449869672
1.84725e-06;-0.012216231511236979
1.84750e-06;-0.012198141276099948
1.84775e-06;-0.012184469247080684
1.84800e-06;-0.012175195345319802
1.84825e-06;-0.012171328715011328
1.84850e-06;-0.012170677254870383
1.84875e-06;-0.012174333234463148
1.84900e-06;-0.012182283003960072
1.84925e-06;-0.012196208138305142
1.84950e-06;-0.012216089702187174
1.84975e-06;-0.012235971266069224
1.85000e-06;-0.012264566275343345
1.85025e-06;-0.012301847118005235
1.85050e-06;-0.012339127960667093
1.85075e-06;-0.01237640880332895
1.85100e-06;-0.01241368964599084
1.85125e-06;-0.01245993861968796
1.85150e-06;-0.0125151273053436
1.85175e-06;-0.012570315990999194
1.85200e-06;-0.012625504676654789
1.85225e-06;-0.012680693362310428
1.85250e-06;-0.012740815754441494
1.85275e-06;-0.012805856218644112
1.85300e-06;-0.012870896682846675
1.85325e-06;-0.012937992883991872
1.85350e-06;-0.013007138307662482
1.85375e-06;-0.013076283731333092
1.85400e-06;-0.013145849692584467
1.85425e-06;-0.013215834858776521
1.85450e-06;-0.013285820024968635
1.85475e-06;-0.013354351887905808
1.85500e-06;-0.013421435052955361
1.85525e-06;-0.013488518218004971
1.85550e-06;-0.013553134825203608
1.85575e-06;-0.013615292690817361
1.85600e-06;-0.013674428049453109
1.85625e-06;-0.013730550479122012
1.85650e-06;-0.013781549190843663
1.85675e-06;-0.013827440421148697
1.85700e-06;-0.013873331651453774
1.85725e-06;-0.013912149299731178
1.85750e-06;-0.013943915781428763
1.85775e-06;-0.013975682263126323
1.85800e-06;-0.01400000561831219
1.85825e-06;-0.014016909433482334
1.85850e-06;-0.014033813248652462
1.85875e-06;-0.014039779991522259
1.85900e-06;-0.014034844320539551
1.85925e-06;-0.014029908649556845
1.85950e-06;-0.014024972978574133
1.85975e-06;-0.014020037307591425
1.86000e-06;-0.01401508148886575
1.86025e-06;-0.013984754239208724
1.86050e-06;-0.013954426989551698
1.86075e-06;-0.013924099739894646
1.86100e-06;-0.01389377249023762
1.86125e-06;-0.013863445240580568
1.86150e-06;-0.013823658384238909
1.86175e-06;-0.013774441897725254
1.86200e-06;-0.013725225411211638
1.86225e-06;-0.013676008924698025
1.86250e-06;-0.013626792438184368
1.86275e-06;-0.013572119534860986
1.86300e-06;-0.013512007505546894
1.86325e-06;-0.013451895476232854
1.86350e-06;-0.013391783446918812
1.86375e-06;-0.01333167141760472
1.86400e-06;-0.013270042561318392
1.86425e-06;-0.013206901684727133
1.86450e-06;-0.013143814910567753
1.86475e-06;-0.013081050713953237
1.86500e-06;-0.01301901138485249
1.86525e-06;-0.012958093232797563
1.86550e-06;-0.012898712558979201
1.86575e-06;-0.01284128100058562
1.86600e-06;-0.012790632274959251
1.86625e-06;-0.012745673857344948
1.86650e-06;-0.012700715439730644
1.86675e-06;-0.012655757022116302
1.86700e-06;-0.012610798604501998
1.86725e-06;-0.012565840186887656
1.86750e-06;-0.012520881769273354
1.86775e-06;-0.012475932129840024
1.86800e-06;-0.012442036582648695
1.86825e-06;-0.012408141035457395
1.86850e-06;-0.012374245488266065
1.86875e-06;-0.012340349941074765
1.86900e-06;-0.012306454393883465
1.86925e-06;-0.012272558846692138
1.86950e-06;-0.012238663299500838
1.86975e-06;-0.012206462060132895
1.87000e-06;-0.012175949759502484
1.87025e-06;-0.012145437458872048
1.87050e-06;-0.012114925158241637
1.87075e-06;-0.012084412857611226
1.87100e-06;-0.01205390055698079
1.87125e-06;-0.012024296726351481
1.87150e-06;-0.011995598486875966
1.87175e-06;-0.011966900247400478
1.87200e-06;-0.011938202007924989
1.87225e-06;-0.011909503768449476
1.87250e-06;-0.011880805528973987
1.87275e-06;-0.011852929941849095
1.87300e-06;-0.0118258744001748
1.87325e-06;-0.011798818858500502
1.87350e-06;-0.011772130840242393
1.87375e-06;-0.011745809180756893
1.87400e-06;-0.011719487521271372
1.87425e-06;-0.011693781587881431
1.87450e-06;-0.011668689429414831
1.87475e-06;-0.011644397613819088
1.87500e-06;-0.011620903604890551
1.87525e-06;-0.011598108729973288
1.87550e-06;-0.011576010773584099
1.87575e-06;-0.011554670018040347
1.87600e-06;-0.011534084063851046
1.87625e-06;-0.011514235954895815
1.87650e-06;-0.011495709151764162
1.87675e-06;-0.011478426247429868
1.87700e-06;-0.011462564238999282
1.87725e-06;-0.011448807242242795
1.87750e-06;-0.011436390384016734
1.87775e-06;-0.011425857316498892
1.87800e-06;-0.011417202070151703
1.87825e-06;-0.011410447871322893
1.87850e-06;-0.011405588695789837
1.87875e-06;-0.011403160631687002
1.87900e-06;-0.011403155975074129
1.87925e-06;-0.011403151318461256
1.87950e-06;-0.011407257217066634
1.87975e-06;-0.011415460644966601
1.88000e-06;-0.011423664072866577
1.88025e-06;-0.011431867500766545
1.88050e-06;-0.011440070928666514
1.88075e-06;-0.011448281432300587
1.88100e-06;-0.011465402189186808
1.88125e-06;-0.011482522946073043
1.88150e-06;-0.011499643702959264
1.88175e-06;-0.011516764459845485
1.88200e-06;-0.01153388521673172
1.88225e-06;-0.01155407709222471
1.88250e-06;-0.01157733035426773
1.88275e-06;-0.01160058361631073
1.88300e-06;-0.011623836878353729
1.88325e-06;-0.011647090140396747
1.88350e-06;-0.011670343402439746
1.88375e-06;-0.011694470931797108
1.88400e-06;-0.011719469958006224
1.88425e-06;-0.011744468984215363
1.88450e-06;-0.011769468010424479
1.88475e-06;-0.011794467036633595
1.88500e-06;-0.011819466062842732
1.88525e-06;-0.011843390891486545
1.88550e-06;-0.011866244926585912
1.88575e-06;-0.011889098961685258
1.88600e-06;-0.011910220475231997
1.88625e-06;-0.011929614957407521
1.88650e-06;-0.011949009439583031
1.88675e-06;-0.011966582162286772
1.88700e-06;-0.011982338898485835
1.88725e-06;-0.011998095634684895
1.88750e-06;-0.012014586951316141
1.88775e-06;-0.012031810520570223
1.88800e-06;-0.012049034089824317
1.88825e-06;-0.012067616172030027
1.88850e-06;-0.01208755246220051
1.88875e-06;-0.012107488752370974
1.88900e-06;-0.01212742504254144
1.88925e-06;-0.012147361332711923
1.88950e-06;-0.012167297622882387
1.88975e-06;-0.01218723391305287
1.89000e-06;-0.012210178884764866
1.89025e-06;-0.012236123003818093
1.89050e-06;-0.012262067122871343
1.89075e-06;-0.01228801124192457
1.89100e-06;-0.01231395536097782
1.89125e-06;-0.012339899480031048
1.89150e-06;-0.012365843599084275
1.89175e-06;-0.012394231615598215
1.89200e-06;-0.012425055785114776
1.89225e-06;-0.012455879954631365
1.89250e-06;-0.012486704124147926
1.89275e-06;-0.012517528293664515
1.89300e-06;-0.012548352463181076
1.89325e-06;-0.012579176632697637
1.89350e-06;-0.01261000036010288
1.89375e-06;-0.012640267350367138
1.89400e-06;-0.012670534340631421
1.89425e-06;-0.01270080133089568
1.89450e-06;-0.012731068321159939
1.89475e-06;-0.012761335311424224
1.89500e-06;-0.01279160230168848
1.89525e-06;-0.012821869291952765
1.89550e-06;-0.01284821659212422
1.89575e-06;-0.012870656623295066
1.89600e-06;-0.012893096654465933
1.89625e-06;-0.012915536685636778
1.89650e-06;-0.012937976716807643
1.89675e-06;-0.01296041674797849
1.89700e-06;-0.012982856779149355
1.89725e-06;-0.013005290057554613
1.89750e-06;-0.013019219787214964
1.89775e-06;-0.013033149516875326
1.89800e-06;-0.013047079246535679
1.89825e-06;-0.013061008976196041
1.89850e-06;-0.013074938705856392
1.89875e-06;-0.013088868435516744
1.89900e-06;-0.013102798165177107
1.89925e-06;-0.01311284191615645
1.89950e-06;-0.013119012002719086
1.89975e-06;-0.013125182089281718
1.90000e-06;-0.013131352175844352
1.90025e-06;-0.013137522262406989
1.90050e-06;-0.013143692348969623
1.90075e-06;-0.01314986243553226
1.90100e-06;-0.013156032522094891
1.90125e-06;-0.01316220260865753
1.90150e-06;-0.013168372695220162
1.90175e-06;-0.013174542781782794
1.90200e-06;-0.013180712868345433
1.90225e-06;-0.013186882954908065
1.90250e-06;-0.013193053041470702
1.90275e-06;-0.013199223128033335
1.90300e-06;-0.013205393214595967
1.90325e-06;-0.013211563301158606
1.90350e-06;-0.013217733387721238
1.90375e-06;-0.013223903474283875
1.90400e-06;-0.013230073560846508
1.90425e-06;-0.01323624364740914
1.90450e-06;-0.013242413733971777
1.90475e-06;-0.01324858382053441
1.90500e-06;-0.013254753907097048
1.90525e-06;-0.01326092399365968
1.90550e-06;-0.013264218200162246
1.90575e-06;-0.01326464563997109
1.90600e-06;-0.013265073079779937
1.90625e-06;-0.013265500519588783
1.90650e-06;-0.013265927959397628
1.90675e-06;-0.013266355399206474
1.90700e-06;-0.013266782839015319
1.90725e-06;-0.013267210278824165
1.90750e-06;-0.01326763771863301
1.90775e-06;-0.013268065158441856
1.90800e-06;-0.013268492598250702
1.90825e-06;-0.013268920038059547
1.90850e-06;-0.013269347477868393
1.90875e-06;-0.013269774917677238
1.90900e-06;-0.013270202357486084
1.90925e-06;-0.013270629797294929
1.90950e-06;-0.013271057237103775
1.90975e-06;-0.013271484676912622
1.91000e-06;-0.013271912116721466
1.91025e-06;-0.013272339556530312
1.91050e-06;-0.013272766996339157
1.91075e-06;-0.013273194436148003
1.91100e-06;-0.013273621875956848
1.91125e-06;-0.013274049315765694
1.91150e-06;-0.01327447675557454
1.91175e-06;-0.013274208189363207
1.91200e-06;-0.013273245822702772
1.91225e-06;-0.013272283456042335
1.91250e-06;-0.0132713210893819
1.91275e-06;-0.013270358722721465
1.91300e-06;-0.013269396356061029
1.91325e-06;-0.013268433989400594
1.91350e-06;-0.01326747162274016
1.91375e-06;-0.013266509256079723
1.91400e-06;-0.013265546889419288
1.91425e-06;-0.013264584124268855
1.91450e-06;-0.01326311955299723
1.91475e-06;-0.013261654981725607
1.91500e-06;-0.013260190410453983
1.91525e-06;-0.013258725839182361
1.91550e-06;-0.013257261267910736
1.91575e-06;-0.013255796696639113
1.91600e-06;-0.013254332125367491
1.91625e-06;-0.013252867554095868
1.91650e-06;-0.013251402982824243
1.91675e-06;-0.01324993841155262
1.91700e-06;-0.013246632120280124
1.91725e-06;-0.01324148994522683
1.91750e-06;-0.013236347770173535
1.91775e-06;-0.013231205595120248
1.91800e-06;-0.013226063420066953
1.91825e-06;-0.013220921245013659
1.91850e-06;-0.013215779069960373
1.91875e-06;-0.013210636894907077
1.91900e-06;-0.013205494719853782
1.91925e-06;-0.013200346828385253
1.91950e-06;-0.013188000432064528
1.91975e-06;-0.013175654035743781
1.92000e-06;-0.013163307639423036
1.92025e-06;-0.013150961243102312
1.92050e-06;-0.013138614846781567
1.92075e-06;-0.01312626845046082
1.92100e-06;-0.013113922054140074
1.92125e-06;-0.01310157565781935
1.92150e-06;-0.013089229261498605
1.92175e-06;-0.0130741976862893
1.92200e-06;-0.013056489441245378
1.92225e-06;-0.013038781196201424
1.92250e-06;-0.01302107295115747
1.92275e-06;-0.013003364706113548
1.92300e-06;-0.012985656461069594
1.92325e-06;-0.012967948216025642
1.92350e-06;-0.012950239970981688
1.92375e-06;-0.012932531725937764
1.92400e-06;-0.012914823480893812
1.92425e-06;-0.012897115235849858
1.92450e-06;-0.012879406990805935
1.92475e-06;-0.012863118584797304
1.92500e-06;-0.012848245518501123
1.92525e-06;-0.012833372452204945
1.92550e-06;-0.01281849938590879
1.92575e-06;-0.01280362631961261
1.92600e-06;-0.012788753253316429
1.92625e-06;-0.012773880187020274
1.92650e-06;-0.012759007120724093
1.92675e-06;-0.012744134054427914
1.92700e-06;-0.01272926098813176
1.92725e-06;-0.012714387921835579
1.92750e-06;-0.012699514855539398
1.92775e-06;-0.012688719644696034
1.92800e-06;-0.012681989367003927
1.92825e-06;-0.012675259089311807
1.92850e-06;-0.01266852881161969
1.92875e-06;-0.012661798533927583
1.92900e-06;-0.012655068256235464
1.92925e-06;-0.012648337978543346
1.92950e-06;-0.012641607700851227
1.92975e-06;-0.012634877423159122
1.93000e-06;-0.012628147145467002
1.93025e-06;-0.012621416867774885
1.93050e-06;-0.012614686590082778
1.93075e-06;-0.012607956312390659
1.93100e-06;-0.012601226034698541
1.93125e-06;-0.012594495757006434
1.93150e-06;-0.012587769459069607
1.93175e-06;-0.012586054743996421
1.93200e-06;-0.012584340028923236
1.93225e-06;-0.012582625313850054
1.93250e-06;-0.012580910598776867
1.93275e-06;-0.012579195883703683
1.93300e-06;-0.0125774811686305
1.93325e-06;-0.012575766453557314
1.93350e-06;-0.012574051738484129
1.93375e-06;-0.012572337023410943
1.93400e-06;-0.01257062230833776
1.93425e-06;-0.012568907593264575
1.93450e-06;-0.012567192878191389
1.93475e-06;-0.012565478163118206
1.93500e-06;-0.012563763448045022
1.93525e-06;-0.012562048732971835
1.93550e-06;-0.012560895172654575
1.93575e-06;-0.01256030098885197
1.93600e-06;-0.012559706805049364
1.93625e-06;-0.01255911262124676
1.93650e-06;-0.012558518437444157
1.93675e-06;-0.012557924253641552
1.93700e-06;-0.012557330069838946
1.93725e-06;-0.012556735886036343
1.93750e-06;-0.012556141702233738
1.93775e-06;-0.01255920046902453
1.93800e-06;-0.012565900610586878
1.93825e-06;-0.012572600752149235
1.93850e-06;-0.012579300893711594
1.93875e-06;-0.012586001035273952
1.93900e-06;-0.012592701176836299
1.93925e-06;-0.012599401318398658
1.93950e-06;-0.012606101459961015
1.93975e-06;-0.012612801601523362
1.94000e-06;-0.012624875832626248
1.94025e-06;-0.012642307123336922
1.94050e-06;-0.012659738414047599
1.94075e-06;-0.012677169704758245
1.94100e-06;-0.01269460099546892
1.94125e-06;-0.012712032286179595
1.94150e-06;-0.01272946357689024
1.94175e-06;-0.012746894867600916
1.94200e-06;-0.012764331172643093
1.94225e-06;-0.012788081870508256
1.94250e-06;-0.012811832568373458
1.94275e-06;-0.012835583266238662
1.94300e-06;-0.012859333964103865
1.94325e-06;-0.012883084661969028
1.94350e-06;-0.012906835359834232
1.94375e-06;-0.012930586057699435
1.94400e-06;-0.012954336755564597
1.94425e-06;-0.012977790337461355
1.94450e-06;-0.013000947744919363
1.94475e-06;-0.013024105152377372
1.94500e-06;-0.013047262559835342
1.94525e-06;-0.013070419967293351
1.94550e-06;-0.01309357737475136
1.94575e-06;-0.0131167295783762
1.94600e-06;-0.013133328755544169
1.94625e-06;-0.013149927932712135
1.94650e-06;-0.013166527109880076
1.94675e-06;-0.013183126287048043
1.94700e-06;-0.013199725464216012
1.94725e-06;-0.01321632464138398
