Time(s);Current(A)
1.20500e-05;0.003649221978881884
1.20503e-05;0.0036608793369185574
1.20505e-05;0.003670234549790806
1.20508e-05;0.003679589762663054
1.20510e-05;0.0036800987359323716
1.20513e-05;0.003677012332920082
1.20515e-05;0.0036739259299077925
1.20518e-05;0.003662232558293701
1.20520e-05;0.0036470410572871825
1.20523e-05;0.0036318495562806643
1.20525e-05;0.0036102480646170057
1.20528e-05;0.003586041361088244
1.20530e-05;0.0035571168084183105
1.20533e-05;0.003526274780791588
1.20535e-05;0.00349118009187856
1.20538e-05;0.0034543569942621258
1.20540e-05;0.0034140437461286565
1.20543e-05;0.0033723119964673897
1.20545e-05;0.003327869327332825
1.20548e-05;0.0032823248594667127
1.20550e-05;0.0032347650190212803
1.20553e-05;0.0031863860708990174
1.20555e-05;0.0031367704846002233
1.20558e-05;0.003086652291569866
1.20560e-05;0.003036262187133151
1.20562e-05;0.002985761569770935
1.20565e-05;0.0029359640317038332
1.20568e-05;0.0028864522460848724
1.20570e-05;0.002838047061255143
1.20573e-05;0.002791129613515287
1.20575e-05;0.0027459297710251077
1.20578e-05;0.0027028271024665484
1.20580e-05;0.0026632682714853692
1.20583e-05;0.0026248903308306146
1.20585e-05;0.0025912640109617057
1.20588e-05;0.002559568891856641
1.20590e-05;0.0025329021885882506
1.20593e-05;0.0025082791838686356
1.20595e-05;0.0024896261451373735
1.20598e-05;0.0024733994790892043
1.20600e-05;0.002457172813041035
1.20603e-05;0.002448723227082536
1.20605e-05;0.0024434344790119143
1.20608e-05;0.002438145730941293
1.20610e-05;0.002439392210044285
1.20613e-05;0.002443294800877903
1.20615e-05;0.002451860610250159
1.20618e-05;0.0024623216910694924
1.20620e-05;0.0024761786432303612
1.20623e-05;0.002493641562213983
1.20625e-05;0.002514206249522056
1.20628e-05;0.0025378021303013765
1.20630e-05;0.002564251127157049
1.20633e-05;0.0025932841618193526
1.20635e-05;0.0026246678427401375
1.20638e-05;0.0026582384426334996
1.20640e-05;0.002693852630764354
1.20643e-05;0.00273136751640134
1.20645e-05;0.0027706398104344635
1.20647e-05;0.002811507547891666
1.20650e-05;0.002853741299949793
1.20653e-05;0.002897054668392959
1.20655e-05;0.0029411834273002633
1.20658e-05;0.002985907382354666
1.20660e-05;0.0030310188796022837
1.20663e-05;0.0030763106324869
1.20665e-05;0.003121575256188077
1.20668e-05;0.0031665932136515414
1.20670e-05;0.0032111033046404885
1.20673e-05;0.003254808367506773
1.20675e-05;0.0032974252100458658
1.20678e-05;0.003338698166337893
1.20680e-05;0.003378379535558292
1.20683e-05;0.0034162218187334032
1.20685e-05;0.003451155078004953
1.20688e-05;0.0034851304240186265
1.20690e-05;0.003516039420550867
1.20693e-05;0.003545702160967692
1.20695e-05;0.003572649760455808
1.20698e-05;0.0035984938454860656
1.20700e-05;0.003621417345414151
1.20703e-05;0.0036431538322289196
1.20705e-05;0.0036609526390486294
1.20708e-05;0.003677151054978702
1.20710e-05;0.0036933494709086648
1.20713e-05;0.003705997697842077
1.20715e-05;0.003717203021813885
1.20718e-05;0.00372584509448598
1.20720e-05;0.0037334453851867733
1.20723e-05;0.0037384966616539625
1.20725e-05;0.0037425119425190815
1.20728e-05;0.0037440822556156703
1.20730e-05;0.003744658860704681
1.20732e-05;0.003743226466785269
1.20735e-05;0.003740977555598209
1.20738e-05;0.003737020362035633
1.20740e-05;0.0037323688714367316
1.20743e-05;0.0037261958357933957
1.20745e-05;0.003719404398748656
1.20748e-05;0.0037113346883864925
1.20750e-05;0.0037027454495268375
1.20753e-05;0.0036933292192331893
1.20755e-05;0.0036835768748931033
1.20758e-05;0.0036733636469274094
1.20760e-05;0.003662963102075391
1.20763e-05;0.0036523965133021976
1.20765e-05;0.003641762439314667
1.20768e-05;0.003631292836549083
1.20770e-05;0.00362089007980595
1.20773e-05;0.0036111120157214533
1.20775e-05;0.003601587845412148
1.20778e-05;0.0035927922486791906
1.20780e-05;0.0035848993312641367
1.20783e-05;0.0035779500596891676
1.20785e-05;0.003572071957863699
1.20788e-05;0.0035674485719608758
1.20790e-05;0.003564427070665662
1.20793e-05;0.0035634145295625765
1.20795e-05;0.003564626569284079
1.20798e-05;0.003568876075583247
1.20800e-05;0.003574094159553513
1.20803e-05;0.0035832085366988967
1.20805e-05;0.0035939064838931
1.20808e-05;0.003604604431087303
1.20810e-05;0.00362029131109137
1.20813e-05;0.0036380058425627016
1.20815e-05;0.0036557203740340337
1.20817e-05;0.0036768760816182637
1.20820e-05;0.0037010217920652186
1.20823e-05;0.003727320446640763
1.20825e-05;0.0037556523031104985
1.20828e-05;0.003785919538764838
1.20830e-05;0.0038180888361835767
1.20833e-05;0.003852150147346225
1.20835e-05;0.003888018038258849
1.20838e-05;0.003925532621949004
1.20840e-05;0.003964514758709836
1.20843e-05;0.004004784703284167
1.20845e-05;0.004046163372604757
1.20848e-05;0.004088485527613918
1.20850e-05;0.004131625549229351
1.20853e-05;0.00417547300312092
1.20855e-05;0.004219870315608086
1.20858e-05;0.004264612392363884
1.20860e-05;0.0043094827008903205
1.20863e-05;0.0043542653708776155
1.20865e-05;0.004398743476771209
1.20868e-05;0.004442708825398177
1.20870e-05;0.0044859791747885154
1.20873e-05;0.004528380636753943
1.20875e-05;0.004569710248746985
1.20878e-05;0.004609735792902293
1.20880e-05;0.004648217588223372
1.20883e-05;0.00468491581914779
1.20885e-05;0.004719590339017753
1.20888e-05;0.0047521121143804974
1.20890e-05;0.004782711866035456
1.20893e-05;0.004811868671592968
1.20895e-05;0.0048398381001308974
1.20898e-05;0.004866575917317002
1.20900e-05;0.004891956746987123
1.20902e-05;0.004915268916166411
1.20905e-05;0.00493790401285051
1.20908e-05;0.004958761959491181
1.20910e-05;0.004977882814393338
1.20913e-05;0.004995828711503704
1.20915e-05;0.005012783308836264
1.20918e-05;0.00502874183045986
1.20920e-05;0.005043650197703967
1.20923e-05;0.00505745260381994
1.20925e-05;0.0050700933659810245
1.20928e-05;0.0050815601127865775
1.20930e-05;0.0050919821269704
1.20933e-05;0.005101585507027513
1.20935e-05;0.005110509571630786
1.20938e-05;0.005118775223107447
1.20940e-05;0.005126128500333424
1.20943e-05;0.005133188623940892
1.20945e-05;0.005139274170715138
1.20948e-05;0.005144963620323464
1.20950e-05;0.005149911418120471
1.20953e-05;0.005154557786445227
1.20955e-05;0.005158795252990104
1.20958e-05;0.005162866529625007
1.20960e-05;0.005166601248641118
1.20963e-05;0.005170199180577501
1.20965e-05;0.005173516013233607
1.20968e-05;0.005176718598737066
1.20970e-05;0.005179853309856012
1.20973e-05;0.005182960434795552
1.20975e-05;0.005186275156023354
1.20978e-05;0.0051896742505900565
1.20980e-05;0.005193392851405781
1.20983e-05;0.0051972413091147356
1.20985e-05;0.005201389904041056
1.20987e-05;0.0052058356327284215
1.20990e-05;0.0052103376479601705
1.20993e-05;0.005214587604432093
1.20995e-05;0.005218281163975537
1.20998e-05;0.00522178922328347
1.21000e-05;0.005224715383904684
1.21003e-05;0.005227405043500173
1.21005e-05;0.0052300947030956444
1.21008e-05;0.005232294342744427
1.21010e-05;0.005234294823634701
1.21013e-05;0.00523519358738128
1.21015e-05;0.005235644580338038
1.21018e-05;0.005236095573294797
1.21020e-05;0.005236546566251552
1.21023e-05;0.005235819193674313
1.21025e-05;0.005234612898109538
1.21028e-05;0.005233406602544771
1.21030e-05;0.005232200306979996
1.21033e-05;0.0052300337820129
1.21035e-05;0.00522747699110474
1.21038e-05;0.0052249202001965625
1.21040e-05;0.005221738523491487
1.21043e-05;0.005218302874513754
1.21045e-05;0.005214867225535998
1.21048e-05;0.005211146173048745
1.21050e-05;0.0052073091240413556
1.21053e-05;0.00520347207503394
1.21055e-05;0.0051994731207873806
1.21058e-05;0.005195408363410499
1.21060e-05;0.005191417936761989
1.21063e-05;0.005187457720344081
1.21065e-05;0.0051837756233553975
1.21068e-05;0.005180206562418827
1.21070e-05;0.005177041602390991
1.21072e-05;0.0051740408810556
1.21075e-05;0.005171728063848034
1.21078e-05;0.005169694831447215
1.21080e-05;0.005167661599046409
1.21083e-05;0.0051663873457386805
1.21085e-05;0.005165891387407409
1.21088e-05;0.00516600786263728
1.21090e-05;0.005166388347789236
1.21093e-05;0.005166494289456508
1.21095e-05;0.005166039269732291
1.21098e-05;0.005164884703624161
1.21100e-05;0.0051635175220846215
1.21103e-05;0.005161675054306253
1.21105e-05;0.005159639415988801
1.21108e-05;0.00515735032478675
1.21110e-05;0.005154335930531019
1.21113e-05;0.005151068618108646
1.21115e-05;0.005146648103338765
1.21118e-05;0.005141758892652677
1.21120e-05;0.005135786175023724
1.21123e-05;0.0051293730877749215
1.21125e-05;0.005122960000526119
1.21128e-05;0.005115553408871975
1.21130e-05;0.005107743027320391
1.21133e-05;0.005099932645768807
1.21135e-05;0.005091066458852465
1.21138e-05;0.005081771161065871
1.21140e-05;0.0050718924746671005
1.21143e-05;0.005061776681692339
1.21145e-05;0.005051383265930163
1.21148e-05;0.005040877015965926
1.21150e-05;0.005030176744590448
1.21153e-05;0.005019397617111849
1.21155e-05;0.005008462875190731
1.21158e-05;0.004997464886907171
1.21160e-05;0.004986618208836793
1.21163e-05;0.004975833027761459
1.21165e-05;0.0049655219740940325
1.21168e-05;0.004955403619982123
1.21170e-05;0.00494594331630532
1.21173e-05;0.004936750464001934
1.21175e-05;0.004928370945481667
1.21178e-05;0.004920321990130553
1.21180e-05;0.004913410179040748
1.21183e-05;0.004906960537380936
1.21185e-05;0.004901575199179501
1.21188e-05;0.004897375003659253
1.21190e-05;0.004894051485332439
1.21193e-05;0.004891404620038115
1.21195e-05;0.004888938477860533
1.21198e-05;0.004887073603401258
1.21200e-05;0.004885453102121421
1.21203e-05;0.004884878528552
1.21205e-05;0.0048847290512787755
1.21208e-05;0.00488457957400555
1.21210e-05;0.0048853503740577744
1.21213e-05;0.004886495202332616
1.21215e-05;0.0048879863555156946
1.21218e-05;0.004889618265497071
1.21220e-05;0.0048917621469942935
1.21223e-05;0.004894114109024228
1.21225e-05;0.004896666136384859
1.21228e-05;0.0048999661847957295
1.21230e-05;0.004903266233206621
1.21233e-05;0.004906973704508273
1.21235e-05;0.004910846764655214
1.21238e-05;0.004914719824802182
1.21240e-05;0.004919134555646902
1.21243e-05;0.004923769437659873
1.21245e-05;0.004928404319672877
1.21248e-05;0.00493303920168588
1.21250e-05;0.004937832616148172
1.21253e-05;0.004943218765038032
1.21255e-05;0.004948604913927891
1.21258e-05;0.004953991062817751
1.21260e-05;0.004959377211707574
1.21263e-05;0.004965112886086377
1.21265e-05;0.0049709906180752045
1.21268e-05;0.004976868350063991
1.21270e-05;0.004982996720633616
1.21273e-05;0.004989226958216935
1.21275e-05;0.004995457195800212
1.21278e-05;0.005001781022778738
1.21280e-05;0.005008200497739117
1.21283e-05;0.005014708944032849
1.21285e-05;0.0050213188619091485
1.21288e-05;0.005028173078950955
1.21290e-05;0.0050358178020363424
1.21293e-05;0.005045013922823092
1.21295e-05;0.005056165943355059
1.21298e-05;0.005069276916558258
1.21300e-05;0.005084246146317133
1.21303e-05;0.005101548119416585
1.21305e-05;0.005119583413904535
1.21308e-05;0.005139358775844806
1.21310e-05;0.005161232612563142
1.21313e-05;0.0051861858996584435
1.21315e-05;0.0052121609519257565
1.21318e-05;0.005240559947455826
1.21320e-05;0.005271395624551757
1.21323e-05;0.005305327959089365
1.21325e-05;0.005340279098330822
1.21328e-05;0.005375230237572042
1.21330e-05;0.0054138002403378025
1.21333e-05;0.005453841057449533
1.21335e-05;0.005493881874560992
1.21338e-05;0.005536707196909603
1.21340e-05;0.005580664225447592
1.21343e-05;0.005626147599900208
1.21345e-05;0.005672251326972373
1.21348e-05;0.0057193647269009485
1.21350e-05;0.005766888488069071
1.21353e-05;0.005815215319088468
1.21355e-05;0.005863868541708955
1.21358e-05;0.005912791771941883
1.21360e-05;0.005961824741341838
1.21363e-05;0.0060104241424177975
1.21365e-05;0.006058847328362355
1.21368e-05;0.006106199423409917
1.21370e-05;0.006153116195090034
1.21373e-05;0.0061985200301852
1.21375e-05;0.00624330896261266
1.21378e-05;0.006286571714673148
1.21380e-05;0.00632794608923812
1.21383e-05;0.006365665303533415
1.21385e-05;0.006402108421539406
1.21388e-05;0.006438551539545397
1.21390e-05;0.006470926995353113
1.21393e-05;0.006501649231613885
1.21395e-05;0.006529584976070611
1.21398e-05;0.00655638820693722
1.21400e-05;0.006580176821849209
1.21403e-05;0.006602740206695062
1.21405e-05;0.006622017312500776
1.21408e-05;0.006639958776239456
1.21410e-05;0.006655496162389163
1.21413e-05;0.006668027015424547
1.21415e-05;0.006679733041695533
1.21418e-05;0.006688834843716983
1.21420e-05;0.006696878211132595
1.21423e-05;0.006702963485329571
1.21425e-05;0.00670694444619711
1.21427e-05;0.006709113587789204
1.21430e-05;0.006709600021412832
1.21433e-05;0.006708610774739329
1.21435e-05;0.006706303943030769
1.21438e-05;0.006702760847491852
1.21440e-05;0.006698042158656635
1.21443e-05;0.0066922077503033745
1.21445e-05;0.006685317889266002
1.21448e-05;0.006677451321712493
1.21450e-05;0.006668751143245094
1.21453e-05;0.00665940908922444
1.21455e-05;0.0066495862009238495
1.21458e-05;0.006639395379359393
1.21460e-05;0.006628936410613357
1.21463e-05;0.006618308946201083
1.21465e-05;0.006607612968732681
1.21468e-05;0.006596959190410868
1.21470e-05;0.006586499381069448
1.21473e-05;0.0065764154777990394
1.21475e-05;0.006566870444573336
1.21478e-05;0.006557996821526378
1.21480e-05;0.006549918940221945
1.21483e-05;0.006542761463318351
1.21485e-05;0.00653664819475682
1.21488e-05;0.006531675716119308
1.21490e-05;0.006527844617781185
1.21493e-05;0.006525806824028641
1.21495e-05;0.0065243649814627006
1.21498e-05;0.00652292313889677
1.21500e-05;0.006524657398138045
1.21503e-05;0.006527682520124919
1.21505e-05;0.006530707642111773
1.21508e-05;0.006533732764098647
1.21510e-05;0.006536757886085522
1.21512e-05;0.006542891963903123
1.21515e-05;0.006550289614333723
1.21518e-05;0.006557687264764323
1.21520e-05;0.006567170479818518
1.21523e-05;0.0065775013306977985
1.21525e-05;0.00658783218157715
1.21528e-05;0.006600102032555543
1.21530e-05;0.006613159951153709
1.21533e-05;0.006626217869751964
1.21535e-05;0.006640800037332381
1.21538e-05;0.006656001705276868
1.21540e-05;0.006671203373221459
1.21543e-05;0.006687630091032231
1.21545e-05;0.006704554705739745
1.21548e-05;0.006721479320447374
1.21550e-05;0.006739244694603696
1.21553e-05;0.006757351778540105
1.21555e-05;0.006775458862476638
1.21558e-05;0.0067939263980224375
1.21560e-05;0.006812540431880293
1.21563e-05;0.006831154465738274
1.21565e-05;0.00684977103798787
1.21568e-05;0.006868388641915595
1.21570e-05;0.0068867585871137515
1.21573e-05;0.006905027876398696
1.21575e-05;0.006922800854940457
1.21578e-05;0.006940372117955727
1.21580e-05;0.006957436144107511
1.21583e-05;0.006973885774439993
1.21585e-05;0.006989708269275995
1.21588e-05;0.0070047135708085455
1.21590e-05;0.007018361043732257
1.21593e-05;0.00702993732196242
1.21595e-05;0.007039063922338035
1.21597e-05;0.007045725470734681
1.21600e-05;0.007050001501337839
1.21603e-05;0.007051189276430618
1.21605e-05;0.007051399289671195
1.21608e-05;0.007049245949953855
1.21610e-05;0.0070443454866884496
1.21613e-05;0.007035677963382181
1.21615e-05;0.0070257745119543975
1.21618e-05;0.007012939383759141
1.21620e-05;0.006997125817131126
1.21623e-05;0.006978924561373274
1.21625e-05;0.006958513095396913
1.21628e-05;0.006936023610764844
1.21630e-05;0.006911450865884872
1.21633e-05;0.006884720781846011
1.21635e-05;0.006855890989598768
1.21638e-05;0.006825163119688891
1.21640e-05;0.006792774193711209
1.21643e-05;0.006758962557639392
1.21645e-05;0.0067239657713358365
1.21648e-05;0.006687993375546962
1.21650e-05;0.006651169576800313
1.21653e-05;0.006613574532704729
1.21655e-05;0.00657537148240732
1.21658e-05;0.006536813366257765
1.21660e-05;0.006498175586604955
1.21663e-05;0.006459734477119566
1.21665e-05;0.006421765316228288
1.21668e-05;0.00638452695155208
1.21670e-05;0.006348222769513513
1.21673e-05;0.006313030612052551
1.21675e-05;0.006279179670793193
1.21678e-05;0.006246954377719231
1.21680e-05;0.006216654411527569
1.21682e-05;0.006189507685154009
1.21685e-05;0.006163406205847192
1.21688e-05;0.006140126148819613
1.21690e-05;0.006119423130664792
1.21693e-05;0.0061000970610028534
1.21695e-05;0.006081710191068981
1.21698e-05;0.006064317915818151
1.21700e-05;0.006048107202626556
1.21703e-05;0.00603384070031845
1.21705e-05;0.006020219176342124
1.21708e-05;0.006008343182877621
1.21710e-05;0.005998059654395157
1.21713e-05;0.0059886213932850135
1.21715e-05;0.005979755609739814
1.21718e-05;0.0059714984040331424
1.21720e-05;0.005963968964165556
1.21723e-05;0.005957642798796528
1.21725e-05;0.005951716094762319
1.21728e-05;0.005946874222048591
1.21730e-05;0.00594302188090548
1.21733e-05;0.005939810192617577
1.21735e-05;0.005936768260258239
1.21738e-05;0.005934297300464805
1.21740e-05;0.005932058400995421
1.21743e-05;0.005930835299631095
1.21745e-05;0.005930025048991184
1.21748e-05;0.0059292147983512665
1.21750e-05;0.0059293059526464905
1.21753e-05;0.005929763464861269
1.21755e-05;0.005930668561736529
1.21758e-05;0.005931755570401536
1.21760e-05;0.005932842579066537
1.21763e-05;0.005934691105215774
1.21765e-05;0.005936849134841588
1.21767e-05;0.0059390071644673855
1.21770e-05;0.005941820209494485
1.21773e-05;0.005944899472367021
1.21775e-05;0.005947978735239558
1.21778e-05;0.005951479150390302
1.21780e-05;0.005955150734420295
1.21783e-05;0.005958822318450287
1.21785e-05;0.005962994958911894
1.21788e-05;0.005967371243690012
1.21790e-05;0.005972518482147252
1.21793e-05;0.005977979059232829
1.21795e-05;0.005984812078445226
1.21798e-05;0.005992202899176945
1.21800e-05;0.005999593719908614
1.21803e-05;0.006008999692487278
1.21805e-05;0.006019224683033981
1.21808e-05;0.006029449673580615
1.21810e-05;0.006039674664127318
1.21813e-05;0.006050677140603463
1.21815e-05;0.0060645865467355365
1.21818e-05;0.0060784959528677055
1.21820e-05;0.006092405358999874
1.21823e-05;0.006106314765131947
1.21825e-05;0.006123067868849096
1.21828e-05;0.006140976736297665
1.21830e-05;0.0061588856037461115
1.21833e-05;0.00617679447119468
1.21835e-05;0.006194703338643248
1.21838e-05;0.006212612206091695
1.21840e-05;0.0062305210735402634
1.21843e-05;0.006250588157217693
1.21845e-05;0.006271532404505915
1.21848e-05;0.006292476651794278
1.21850e-05;0.006313420899082641
1.21852e-05;0.006334365146370862
1.21855e-05;0.006355309393659226
1.21858e-05;0.006376253640947589
1.21860e-05;0.006397549699853782
1.21863e-05;0.006418988745521286
1.21865e-05;0.006440427791188934
1.21868e-05;0.006461391053976276
1.21870e-05;0.006482160944373923
1.21873e-05;0.00650293083477171
1.21875e-05;0.006522776088432969
1.21878e-05;0.0065422455420756035
1.21880e-05;0.006561714995718369
1.21883e-05;0.006580001669233984
1.21885e-05;0.006597807625537936
1.21888e-05;0.006614836171819096
1.21890e-05;0.006631449758147636
1.21893e-05;0.006648687781349896
1.21895e-05;0.006666195947260736
1.21898e-05;0.006684798325504357
1.21900e-05;0.006703845424359405
1.21903e-05;0.006722892523214583
1.21905e-05;0.006742604349577983
1.21908e-05;0.00676258634107751
1.21910e-05;0.00678449622997125
1.21913e-05;0.006807189674014648
1.21915e-05;0.006829883118057892
1.21918e-05;0.00685257656210129
1.21920e-05;0.006875270006144688
1.21923e-05;0.006900329931988618
1.21925e-05;0.006926351666799984
1.21928e-05;0.00695237340161135
1.21930e-05;0.006978395136422539
1.21933e-05;0.0070062760499523535
1.21935e-05;0.007034912589307274
1.21937e-05;0.007063549128662
1.21940e-05;0.00709218566801692
1.21943e-05;0.007121892139436951
1.21945e-05;0.007152033463241806
1.21948e-05;0.007182174787046457
1.21950e-05;0.007212694441566581
1.21953e-05;0.007243367861002399
1.21955e-05;0.007274041280438011
1.21958e-05;0.0073047215424947
1.21960e-05;0.007335404585597124
1.21963e-05;0.0073660876286993394
1.21965e-05;0.007395924394110801
1.21968e-05;0.007425417206962865
1.21970e-05;0.007454910019814731
1.21973e-05;0.007483048876653151
1.21975e-05;0.007510637445280985
1.21978e-05;0.007538226013908633
1.21980e-05;0.007564145203773655
1.21983e-05;0.007589385908190883
1.21985e-05;0.007612791521018731
1.21988e-05;0.007635451297751056
1.21990e-05;0.007655659815921231
1.21993e-05;0.007674872069312843
1.21995e-05;0.0076904576232781855
1.21998e-05;0.007704569178149188
1.22000e-05;0.0077186807330200955
1.22003e-05;0.00772761385863502
1.22005e-05;0.007734442315752124
