Time(s);Current(A)
6.80000e-06;-0.0004382498409124031
6.80025e-06;-0.00037317442280047425
6.80050e-06;-0.0003079021932573487
6.80075e-06;-0.0002428091710633843
6.80100e-06;-0.00017827248771786977
6.80125e-06;-0.00011467706559160509
6.80150e-06;-5.242689538003623e-05
6.80175e-06;8.05456345832689e-06
6.80200e-06;6.633616713659956e-05
6.80225e-06;0.00012198634506632471
6.80250e-06;0.0001745735984193678
6.80275e-06;0.00022366648042206313
6.80300e-06;0.00026887227722102193
6.80325e-06;0.00030998458334846005
6.80350e-06;0.0003470740573104482
6.80375e-06;0.00038027079657296356
6.80400e-06;0.000409542804583949
6.80425e-06;0.0004347645744426758
6.80450e-06;0.00045580910759105586
6.80475e-06;0.00047254946624851913
6.80500e-06;0.00048488302790113927
6.80525e-06;0.0004928238576887231
6.80550e-06;0.000496559576864771
6.80575e-06;0.0004963150422111172
6.80600e-06;0.0004922135479407685
6.80625e-06;0.0004843197533179855
6.80650e-06;0.00047269749360086624
6.80675e-06;0.00045741061203555223
6.80700e-06;0.0004385381367888642
6.80725e-06;0.00041623220432398253
6.80750e-06;0.00039075366806251983
6.80775e-06;0.0003623866902102913
6.80800e-06;0.00033135175261487284
6.80825e-06;0.0002978326864607932
6.80850e-06;0.0002620127241855244
6.80875e-06;0.0002240750942325556
6.80900e-06;0.000184212557601293
6.80925e-06;0.0001426636538983262
6.80950e-06;9.973497376042099e-05
6.80975e-06;5.574770331259563e-05
6.81000e-06;1.0983153872584704e-05
6.81025e-06;-3.430430587721763e-05
6.81050e-06;-7.982462726563611e-05
6.81075e-06;-0.0001253449486542088
6.81100e-06;-0.00017054219731516012
6.81125e-06;-0.00021517193906628334
6.81150e-06;-0.00025925982240294443
6.81175e-06;-0.0003018731019973959
6.81200e-06;-0.00034293466054500154
6.81225e-06;-0.00038213972502567603
6.81250e-06;-0.0004191837820610858
6.81275e-06;-0.00045376232883126037
6.81300e-06;-0.0004853254664919939
6.81325e-06;-0.000514568747952361
6.81350e-06;-0.0005429983747180847
6.81375e-06;-0.00056999875493248
6.81400e-06;-0.0005961461995509324
6.81425e-06;-0.0006207953977179586
6.81450e-06;-0.0006454445958850681
6.81475e-06;-0.0006686255122202336
6.81500e-06;-0.0006892272794908188
6.81525e-06;-0.0007098290467613341
6.81550e-06;-0.0007297110425035039
6.81575e-06;-0.0007483287046390787
6.81600e-06;-0.0007669463667745903
6.81625e-06;-0.0007843664689820022
6.81650e-06;-0.0007996829658043766
6.81675e-06;-0.0008149994626266992
6.81700e-06;-0.0008303159594490217
6.81725e-06;-0.0008456324562713962
6.81750e-06;-0.0008609489530937188
6.81775e-06;-0.0008762654499160414
6.81800e-06;-0.0008915819467384159
6.81825e-06;-0.0009068984435607384
6.81850e-06;-0.0009191668256825366
6.81875e-06;-0.0009309503777099411
6.81900e-06;-0.0009427339297373057
6.81925e-06;-0.0009545174817647102
6.81950e-06;-0.0009663010337920747
6.81975e-06;-0.0009780845858194393
6.82000e-06;-0.0009898681378468438
6.82025e-06;-0.0010016516898742084
6.82050e-06;-0.0010120105423056186
6.82075e-06;-0.0010198668011953053
6.82100e-06;-0.0010277230600849656
6.82125e-06;-0.0010355793189746258
6.82150e-06;-0.0010434355778643127
6.82175e-06;-0.001051291836753973
6.82200e-06;-0.0010591480956436332
6.82225e-06;-0.00106700435453332
6.82250e-06;-0.0010748606134229803
6.82275e-06;-0.0010827168723126406
6.82300e-06;-0.0010905731312023273
6.82325e-06;-0.0010984293900919875
6.82350e-06;-0.0011041558263062737
6.82375e-06;-0.0011061410664906653
6.82400e-06;-0.001108126306675057
6.82425e-06;-0.001110111546859455
6.82450e-06;-0.0011120967870438467
6.82475e-06;-0.0011140820272282383
6.82500e-06;-0.0011160672674126364
6.82525e-06;-0.001118052507597028
6.82550e-06;-0.0011200377477814196
6.82575e-06;-0.0011220229879658177
6.82600e-06;-0.0011240082281502094
6.82625e-06;-0.001125993468334601
6.82650e-06;-0.0011261220814536026
6.82675e-06;-0.001122989387476084
6.82700e-06;-0.0011198566934985657
6.82725e-06;-0.0011167239995210365
6.82750e-06;-0.001113591305543518
6.82775e-06;-0.0011104586115659888
6.82800e-06;-0.0011073259175884702
6.82825e-06;-0.0011041932236109519
6.82850e-06;-0.0011010605296334227
6.82875e-06;-0.0010979278356559041
6.82900e-06;-0.0010947951416783856
6.82925e-06;-0.0010909677490948486
6.82950e-06;-0.0010859200654061213
6.82975e-06;-0.001080872381717394
6.83000e-06;-0.0010758246980286496
6.83025e-06;-0.0010707770143399224
6.83050e-06;-0.001065729330651195
6.83075e-06;-0.0010606816469624506
6.83100e-06;-0.0010556339632737234
6.83125e-06;-0.001050586279584996
6.83150e-06;-0.0010455385958962518
6.83175e-06;-0.0010404909122075244
6.83200e-06;-0.0010356815966084466
6.83225e-06;-0.0010312909927457437
6.83250e-06;-0.0010269003888830409
6.83275e-06;-0.001022724343943692
6.83300e-06;-0.0010189251881235308
6.83325e-06;-0.0010142749267542171
6.83350e-06;-0.0010081296335507034
6.83375e-06;-0.0010019843403472105
6.83400e-06;-0.0009939826053224068
6.83425e-06;-0.0009827198885969
6.83450e-06;-0.0009714571718714314
6.83475e-06;-0.000958598443077769
6.83500e-06;-0.000942936197314871
6.83525e-06;-0.0009272739515520261
6.83550e-06;-0.0009094072171993738
6.83575e-06;-0.0008876681304421965
6.83600e-06;-0.000865929043685093
6.83625e-06;-0.000842405939213156
6.83650e-06;-0.0008157490715097331
6.83675e-06;-0.000787698077586571
6.83700e-06;-0.0007571981945903854
6.83725e-06;-0.0007266983115943031
6.83750e-06;-0.0006944467991945009
6.83775e-06;-0.000659118416102544
6.83800e-06;-0.0006237900330107068
6.83825e-06;-0.0005872999678117507
6.83850e-06;-0.000548769319358459
6.83875e-06;-0.0005096868800868325
6.83900e-06;-0.00046963517814251104
6.83925e-06;-0.0004291806371211019
6.83950e-06;-0.00038801847852570383
6.83975e-06;-0.0003465864847918127
6.84000e-06;-0.0003046805050493747
6.84025e-06;-0.00026285322700251565
6.84050e-06;-0.00022116419448826047
6.84075e-06;-0.00017976360288288106
6.84100e-06;-0.00013917139992754223
6.84125e-06;-9.945642706529372e-05
6.84150e-06;-6.0737705273112485e-05
6.84175e-06;-2.315863898647318e-05
6.84200e-06;1.3052591063110341e-05
6.84225e-06;4.76287467137724e-05
6.84250e-06;8.030208812859796e-05
6.84275e-06;0.00011080491750519192
6.84300e-06;0.00013890172183336606
6.84325e-06;0.00016450769743461512
6.84350e-06;0.0001877502219911903
6.84375e-06;0.00020877721455076878
6.84400e-06;0.00022758185890275667
6.84425e-06;0.00024407449708487648
6.84450e-06;0.00025816425895042796
6.84475e-06;0.00026976031144464814
6.84500e-06;0.0002787919766639079
6.84525e-06;0.00028528299977871813
6.84550e-06;0.00028939004291624434
6.84575e-06;0.0002912826036917386
6.84600e-06;0.00029103324174673814
6.84625e-06;0.00028866265900350636
6.84650e-06;0.0002841907465062847
6.84675e-06;0.0002776374694827611
6.84700e-06;0.0002690353993683775
6.84725e-06;0.00025847625702465096
6.84750e-06;0.00024613501601755233
6.84775e-06;0.00023219463428942108
6.84800e-06;0.000216777403791341
6.84825e-06;0.00019997307472784294
6.84850e-06;0.00018187093636567493
6.84875e-06;0.00016256027126889788
6.84900e-06;0.00014213828061240697
6.84925e-06;0.00012073918742965284
6.84950e-06;9.854937240134161e-05
6.84975e-06;7.576021148352218e-05
6.85000e-06;5.2525042554682776e-05
6.85025e-06;2.897682919901564e-05
6.85050e-06;5.248224945665901e-06
6.85075e-06;-1.8528123791308316e-05
6.85100e-06;-4.2214622052193676e-05
6.85125e-06;-6.565048310050206e-05
6.85150e-06;-8.864227871736552e-05
6.85175e-06;-0.00011099345202538078
6.85200e-06;-0.0001325312975848796
6.85225e-06;-0.00015309587102375994
6.85250e-06;-0.00017252745052054932
6.85275e-06;-0.00019066631425375963
6.85300e-06;-0.00020732916974939734
6.85325e-06;-0.00022223792398682265
6.85350e-06;-0.0002350291979385108
6.85375e-06;-0.0002454380476384528
6.85400e-06;-0.00025339194405826174
6.85425e-06;-0.000258899362872943
6.85450e-06;-0.000261969869969813
6.85475e-06;-0.00026261301939316316
6.85500e-06;-0.00026082359973721056
6.85525e-06;-0.00025653706992638785
6.85550e-06;-0.00024963543824435634
6.85575e-06;-0.00024006239063552022
6.85600e-06;-0.00022788217411097344
6.85625e-06;-0.00021320973727095014
6.85650e-06;-0.00019616071890689066
6.85675e-06;-0.0001768507538161344
6.85700e-06;-0.0001553862320143825
6.85725e-06;-0.00013183634106617858
6.85750e-06;-0.00010623681776942983
6.85775e-06;-7.86620280862706e-05
6.85800e-06;-4.9261831989488806e-05
6.85825e-06;-1.8217867249143476e-05
6.85850e-06;1.4287824907664531e-05
6.85875e-06;4.807320748036626e-05
6.85900e-06;8.29620556172433e-05
6.85925e-06;0.00011880145160342256
6.85950e-06;0.00015555738989331275
6.85975e-06;0.0001929519412208915
6.86000e-06;0.0002305762839728611
6.86025e-06;0.00026860427289424635
6.86050e-06;0.0003066019103117166
6.86075e-06;0.0003444178903986507
6.86100e-06;0.0003818026311062155
6.86125e-06;0.00041855087250338173
6.86150e-06;0.0004544704981199594
6.86175e-06;0.0004893542293519969
6.86200e-06;0.0005229652387385389
6.86225e-06;0.0005550542045998747
6.86250e-06;0.0005849763085481176
6.86275e-06;0.0006129738150976995
6.86300e-06;0.0006393702487949082
6.86325e-06;0.0006629542758711281
6.86350e-06;0.0006852795403702591
6.86375e-06;0.0007053936923640255
6.86400e-06;0.000724292802305494
6.86425e-06;0.0007410575981788082
6.86450e-06;0.0007564470715639233
6.86475e-06;0.0007694206860666654
6.86500e-06;0.0007806614361845228
6.86525e-06;0.0007888582777994647
6.86550e-06;0.0007970551194144341
6.86575e-06;0.0008036002521865425
6.86600e-06;0.0008072440323571842
6.86625e-06;0.0008108878125278137
6.86650e-06;0.0008128936725552322
6.86675e-06;0.0008120224008841229
6.86700e-06;0.0008111511292130165
6.86725e-06;0.0008088556516851112
6.86750e-06;0.0008040584479083578
6.86775e-06;0.0007992612441316207
6.86800e-06;0.0007928771806862981
6.86825e-06;0.000783705677161897
6.86850e-06;0.0007745341736375269
6.86875e-06;0.0007653626701131569
6.86900e-06;0.0007561911665887558
6.86925e-06;0.0007470196630643858
6.86950e-06;0.0007378481595400158
6.86975e-06;0.0007259729170446289
6.87000e-06;0.0007136676205169805
6.87025e-06;0.0007013623239892903
6.87050e-06;0.000689057027461642
6.87075e-06;0.0006767517309339935
6.87100e-06;0.0006644464344063034
6.87125e-06;0.0006521823783648827
6.87150e-06;0.0006399907643840034
6.87175e-06;0.0006277991504030826
6.87200e-06;0.0006161358850437961
6.87225e-06;0.0006054007043491863
6.87250e-06;0.0005946655236545401
6.87275e-06;0.0005847241961956613
6.87300e-06;0.0005761773325130932
6.87325e-06;0.0005676304688304962
6.87350e-06;0.0005599429388700086
6.87375e-06;0.000553764894155975
6.87400e-06;0.0005475868494419204
6.87425e-06;0.000542303570973704
6.87450e-06;0.0005385920176832051
6.87475e-06;0.0005348804643927188
6.87500e-06;0.0005321072606192002
6.87525e-06;0.0005309823393643828
6.87550e-06;0.0005298574181095691
6.87575e-06;0.0005295860166585841
6.87600e-06;0.0005308138878630042
6.87625e-06;0.0005320417590674202
6.87650e-06;0.0005340682134750152
6.87675e-06;0.0005374974402075292
6.87700e-06;0.0005409266669400316
6.87725e-06;0.000545423458579007
6.87750e-06;0.0005517955094268867
6.87775e-06;0.0005581675602747449
6.87800e-06;0.0005645396111226031
6.87825e-06;0.0005709116619704829
6.87850e-06;0.0005772837128183411
6.87875e-06;0.0005836557636662208
6.87900e-06;0.0005908681710519233
6.87925e-06;0.000599556728811915
6.87950e-06;0.0006082452865719362
6.87975e-06;0.0006169338443319279
6.88000e-06;0.0006256224020919196
6.88025e-06;0.0006343109598519408
6.88050e-06;0.0006429995176119325
6.88075e-06;0.00065175447188725
6.88100e-06;0.0006606260567075308
6.88125e-06;0.0006694976415277814
6.88150e-06;0.0006781284062512963
6.88175e-06;0.0006863361521014103
6.88200e-06;0.0006945438979514965
6.88225e-06;0.0007023975508394444
6.88250e-06;0.0007096292124236972
6.88275e-06;0.0007164619730509323
6.88300e-06;0.0007225940337128651
6.88325e-06;0.0007280285403191997
6.88350e-06;0.0007322377400066657
6.88375e-06;0.0007354797774961141
6.88400e-06;0.000737022920794591
6.88425e-06;0.000737385170011956
6.88450e-06;0.0007356730886789488
6.88475e-06;0.0007339610073459473
6.88500e-06;0.0007308074614056763
6.88525e-06;0.000725121872905505
6.88550e-06;0.0007194362844053531
6.88575e-06;0.0007121543600584028
6.88600e-06;0.000702068350003373
6.88625e-06;0.0006919823399483773
6.88650e-06;0.0006805114207744058
6.88675e-06;0.0006666078030706925
6.88700e-06;0.0006527041853670261
6.88725e-06;0.0006375581347353011
6.88750e-06;0.000620229655873701
6.88775e-06;0.0006029011770121008
6.88800e-06;0.0005845216318206143
6.88825e-06;0.0005642958084293854
6.88850e-06;0.0005440699850381565
6.88875e-06;0.0005230358064622643
6.88900e-06;0.0005005816903309902
6.88925e-06;0.00047812757419971616
6.88950e-06;0.000455673458068366
6.88975e-06;0.00043321934193709196
6.89000e-06;0.00040999502772176013
6.89025e-06;0.00038664820656503137
6.89050e-06;0.00036330138540838176
6.89075e-06;0.0003399545642517321
6.89100e-06;0.0003170233960199612
6.89125e-06;0.0002948223538632947
6.89150e-06;0.00027262131170655295
6.89175e-06;0.00025104156343898885
6.89200e-06;0.0002305531652893793
6.89225e-06;0.0002105950672249259
6.89250e-06;0.00019199558299572806
6.89275e-06;0.0001746285960975488
6.89300e-06;0.00015863724329282766
6.89325e-06;0.00014411940010987753
6.89350e-06;0.00013109866615650272
6.89375e-06;0.0001195681654353137
6.89400e-06;0.0001095467222480216
6.89425e-06;0.00010107174187608633
6.89450e-06;9.418091713136714e-05
6.89475e-06;8.891191628899259e-05
6.89500e-06;8.529682053406388e-05
6.89525e-06;8.33393379650049e-05
6.89550e-06;8.299665914334549e-05
6.89575e-06;8.420688970825402e-05
6.89600e-06;8.692423499717859e-05
6.89625e-06;9.111452483845995e-05
6.89650e-06;9.674378650099038e-05
6.89675e-06;0.00010377802735327147
6.89700e-06;0.00011217975551108285
6.89725e-06;0.00012189370475150948
6.89750e-06;0.00013283548494982724
6.89775e-06;0.00014490874702772144
6.89800e-06;0.000158027226645315
6.89825e-06;0.00017226380824065146
6.89850e-06;0.00018735083377175344
6.89875e-06;0.0002029869499227794
6.89900e-06;0.00021958758564040234
6.89925e-06;0.00023666549407425915
6.89950e-06;0.00025458176844773945
6.89975e-06;0.00027249804282115903
6.90000e-06;0.00029066262112752394
6.90025e-06;0.00030926336423626343
6.90050e-06;0.00032786410734500287
6.90075e-06;0.0003464117896512182
6.90100e-06;0.0003648662666093589
6.90125e-06;0.00038308160042715327
6.90150e-06;0.00040087686107359403
6.90175e-06;0.0004182456750374809
6.90200e-06;0.00043486540286788347
6.90225e-06;0.0004510518266188929
6.90250e-06;0.0004661280724395034
6.90275e-06;0.00048019701033349884
6.90300e-06;0.0004930694377649066
6.90325e-06;0.000504281799811802
6.90350e-06;0.0005130740712522408
6.90375e-06;0.0005188564107077434
6.90400e-06;0.0005214980508200061
6.90425e-06;0.0005210728743384705
6.90450e-06;0.0005176576360519372
6.90475e-06;0.0005113290536575165
6.90500e-06;0.0005021233022744243
6.90525e-06;0.0004899046918298172
6.90550e-06;0.0004743518024593768
6.90575e-06;0.000455249944075543
6.90600e-06;0.0004326719146663473
6.90625e-06;0.00040681876641080866
6.90650e-06;0.00037789329479944524
6.90675e-06;0.0003460983058810419
6.90700e-06;0.0003116111584432617
6.90725e-06;0.0002745015215081448
6.90750e-06;0.00023472282658013123
6.90775e-06;0.00019229528672519574
6.90800e-06;0.00014741923150089054
6.90825e-06;0.00010037530440453397
6.90850e-06;5.144521328867582e-05
6.90875e-06;9.106644342704644e-07
6.90900e-06;-5.096260197432527e-05
6.90925e-06;-0.00010397629313912946
6.90950e-06;-0.000158129632895766
6.90975e-06;-0.00021310030757817458
6.91000e-06;-0.00026829477940196
6.91025e-06;-0.00032388236797855995
6.91050e-06;-0.0003794699565551599
6.91075e-06;-0.00043438726581380353
6.91100e-06;-0.00048812717831130413
6.91125e-06;-0.0005418670908088047
6.91150e-06;-0.0005943890331782958
6.91175e-06;-0.0006447715180930308
6.91200e-06;-0.0006936470649522516
6.91225e-06;-0.0007398755601460536
6.91250e-06;-0.0007840723231764984
6.91275e-06;-0.0008247001936523717
6.91300e-06;-0.0008627271099492836
6.91325e-06;-0.0008961852517921406
6.91350e-06;-0.0009264807558256674
6.91375e-06;-0.0009512208452552098
6.91400e-06;-0.0009726267722088015
6.91425e-06;-0.000988175988395482
6.91450e-06;-0.001000341219078844
6.91475e-06;-0.0010065622210466316
6.91500e-06;-0.0010093219848960465
6.91525e-06;-0.0010060018199175424
6.91550e-06;-0.00099914792584685
6.91575e-06;-0.0009860867670220938
6.91600e-06;-0.0009696637733003769
6.91625e-06;-0.0009473354600931231
6.91650e-06;-0.0009218934452346273
6.91675e-06;-0.0008909819758682259
6.91700e-06;-0.0008571877286168764
6.91725e-06;-0.0008183296620709454
6.91750e-06;-0.000776822718751951
6.91775e-06;-0.0007306628212865358
6.91800e-06;-0.0006827521390527302
6.91825e-06;-0.0006307437633590612
6.91850e-06;-0.0005760259634087653
6.91875e-06;-0.0005188983020813202
6.91900e-06;-0.00045965649971258193
6.91925e-06;-0.00039858316379787033
6.91950e-06;-0.0003359590404526659
6.91975e-06;-0.0002721010765922633
6.92000e-06;-0.0002073720629332477
6.92025e-06;-0.00014215175653609292
6.92050e-06;-7.682011061611608e-05
6.92075e-06;-1.1757017828023044e-05
6.92100e-06;5.266010126860413e-05
6.92125e-06;0.00011606202078935226
6.92150e-06;0.00017808072239788452
6.92175e-06;0.00023832552573831262
6.92200e-06;0.0002963770828809196
6.92225e-06;0.00035180540727013446
6.92250e-06;0.00040418048053822485
6.92275e-06;0.0004530723252642391
6.92300e-06;0.000498049647129154
6.92325e-06;0.000538694271615213
6.92350e-06;0.0005746663423686951
6.92375e-06;0.000605765793525103
6.92400e-06;0.0006318968505761002
6.92425e-06;0.000652992288813509
6.92450e-06;0.0006689851214997135
6.92475e-06;0.0006798084999840199
6.92500e-06;0.000685394645959464
6.92525e-06;0.0006856841642826384
6.92550e-06;0.0006806667023558637
6.92575e-06;0.0006704193736907322
6.92600e-06;0.0006550846621768852
6.92625e-06;0.0006348229721518838
6.92650e-06;0.0006097948454847867
6.92675e-06;0.0005801608719718744
6.92700e-06;0.0005460810655837894
6.92725e-06;0.000507720705660041
6.92750e-06;0.00046527575074134015
6.92775e-06;0.00041899696528433953
6.92800e-06;0.0003691760285789046
6.92825e-06;0.00031611582932856313
6.92850e-06;0.0002601193516750602
6.92875e-06;0.00020148955194191807
6.92900e-06;0.00014052905387625602
6.92925e-06;7.754370317599025e-05
6.92950e-06;1.2858569904434542e-05
6.92975e-06;-5.316695498418727e-05
6.93000e-06;-0.0001202142496214376
6.93025e-06;-0.0001878277737734036
6.93050e-06;-0.0002554412979255986
6.93075e-06;-0.0003227468852473339
6.93100e-06;-0.0003895115379763683
6.93125e-06;-0.00045535840282086043
6.93150e-06;-0.0005195931032240367
6.93175e-06;-0.0005822885423676464
6.93200e-06;-0.000642280151672993
6.93225e-06;-0.0007000843094184346
6.93250e-06;-0.0007540460416103996
6.93275e-06;-0.0008059613132804413
6.93300e-06;-0.0008520397318930106
6.93325e-06;-0.0008941797500879244
6.93350e-06;-0.0009336809004581209
6.93375e-06;-0.0009685466781648483
6.93400e-06;-0.0010007851173422884
6.93425e-06;-0.0010284084359437817
6.93450e-06;-0.0010531687728401453
6.93475e-06;-0.0010729000639443204
6.93500e-06;-0.0010896638706258007
6.93525e-06;-0.0011012150645187564
6.93550e-06;-0.0011101650719566895
6.93575e-06;-0.0011145458969323589
6.93600e-06;-0.0011165032048539767
6.93625e-06;-0.0011142034201712778
6.93650e-06;-0.001109503113677881
6.93675e-06;-0.0011005861074795643
6.93700e-06;-0.0010893735889702803
6.93725e-06;-0.0010741288279540605
6.93750e-06;-0.0010569885113804816
6.93775e-06;-0.0010365185068516515
6.93800e-06;-0.0010144347176815052
6.93825e-06;-0.0009895161926674325
6.93850e-06;-0.0009631686262480886
6.93875e-06;-0.0009343108395740361
6.93900e-06;-0.0009042602670322777
6.93925e-06;-0.0008721144751123758
6.93950e-06;-0.0008391967482871912
6.93975e-06;-0.0008049230589071595
6.94000e-06;-0.0007702242109160187
6.94025e-06;-0.0007347785393874409
6.94050e-06;-0.0006991937455805596
6.94075e-06;-0.0006633645728780534
6.94100e-06;-0.0006277144315537938
6.94125e-06;-0.0005923787725042228
6.94150e-06;-0.0005576559504159332
6.94175e-06;-0.000524009623205343
6.94200e-06;-0.0004913634571067049
6.94225e-06;-0.00046047415030719626
6.94250e-06;-0.0004305532357091474
6.94275e-06;-0.000403095344083046
6.94300e-06;-0.0003780230359232291
6.94325e-06;-0.0003547900883538099
6.94350e-06;-0.0003321167022644509
6.94375e-06;-0.0003106315387535976
6.94400e-06;-0.0002899276263108281
