Time(s);Current(A)
3.50000e-06;0.0041417236274162005
3.50025e-06;0.004118244345025914
3.50050e-06;0.004094765062635588
3.50075e-06;0.004071285780245262
3.50100e-06;0.004047806497854975
3.50125e-06;0.004024327215464649
3.50150e-06;0.004000847933074323
3.50175e-06;0.003977137168653274
3.50200e-06;0.0039460386274570505
3.50225e-06;0.003914940086260774
3.50250e-06;0.003883841545064498
3.50275e-06;0.003852743003868275
3.50300e-06;0.003821644462671999
3.50325e-06;0.003790545921475723
3.50350e-06;0.003759447380279447
3.50375e-06;0.0037283488390832237
3.50400e-06;0.0036972502978869478
3.50425e-06;0.003666151756690672
3.50450e-06;0.0036350532154944483
3.50475e-06;0.003597614137464397
3.50500e-06;0.0035545609169927903
3.50525e-06;0.003511507696521256
3.50550e-06;0.003468454476049649
3.50575e-06;0.003425401255578042
3.50600e-06;0.003382348035106435
3.50625e-06;0.003339294814634901
3.50650e-06;0.0032962415941632938
3.50675e-06;0.0032531883736916867
3.50700e-06;0.003210135153220153
3.50725e-06;0.0031670819327485455
3.50750e-06;0.003124085028098106
3.50775e-06;0.003082885449635647
3.50800e-06;0.003041685871173258
3.50825e-06;0.003000486292710799
3.50850e-06;0.00295928671424834
3.50875e-06;0.0029180871357859504
3.50900e-06;0.0028768875573234915
3.50925e-06;0.0028356879788610325
3.50950e-06;0.0027944884003986434
3.50975e-06;0.0027532888219361845
3.51000e-06;0.0027212831417826747
3.51025e-06;0.0026974180743336174
3.51050e-06;0.0026735530068846005
3.51075e-06;0.002649687939435543
3.51100e-06;0.0026258228719864855
3.51125e-06;0.0026019578045374686
3.51150e-06;0.0025780927370884113
3.51175e-06;0.002554227669639354
3.51200e-06;0.0025303626021902967
3.51225e-06;0.00250713216010704
3.51250e-06;0.002504155862706147
3.51275e-06;0.0025011795653052545
3.51300e-06;0.0024982032679043667
3.51325e-06;0.0024952269705034737
3.51350e-06;0.002492250673102581
3.51375e-06;0.0024892743757016934
3.51400e-06;0.002486298078300801
3.51425e-06;0.002483321780899908
3.51450e-06;0.002480345483499015
3.51475e-06;0.0024778217869889808
3.51500e-06;0.002489742902208578
3.51525e-06;0.002501664017428175
3.51550e-06;0.0025135851326477518
3.51575e-06;0.002525506247867349
3.51600e-06;0.002537427363086946
3.51625e-06;0.002549348478306543
3.51650e-06;0.00256126959352612
3.51675e-06;0.002573190708745717
3.51700e-06;0.002585111823965314
3.51725e-06;0.0025971592364811284
3.51750e-06;0.0026132374423583583
3.51775e-06;0.0026293156482355886
3.51800e-06;0.0026453938541127916
3.51825e-06;0.002661472059990022
3.51850e-06;0.002677550265867252
3.51875e-06;0.0026936284717444824
3.51900e-06;0.0027097066776216854
3.51925e-06;0.0027257848834989157
3.51950e-06;0.002741863089376146
3.51975e-06;0.0027566084200871736
3.52000e-06;0.0027701735745392455
3.52025e-06;0.0027837387289913174
3.52050e-06;0.002797303883443389
3.52075e-06;0.002810869037895438
3.52100e-06;0.0028244341923475092
3.52125e-06;0.002837999346799581
3.52150e-06;0.00285156450125163
3.52175e-06;0.0028651296557037015
3.52200e-06;0.00287895489789751
3.52225e-06;0.002901080871574114
3.52250e-06;0.002923206845250756
3.52275e-06;0.002945332818927398
3.52300e-06;0.0029674587926040398
3.52325e-06;0.002989584766280644
3.52350e-06;0.0030117107399572855
3.52375e-06;0.0030338367136339274
3.52400e-06;0.0030559626873105316
3.52425e-06;0.0030780886609871735
3.52450e-06;0.0031002146346638154
3.52475e-06;0.003122340608340457
3.52500e-06;0.0031447673402494694
3.52525e-06;0.0031767928072329865
3.52550e-06;0.0032088182742165032
3.52575e-06;0.003240843741199966
3.52600e-06;0.0032728692081834833
3.52625e-06;0.003304894675167
3.52650e-06;0.003336920142150463
3.52675e-06;0.00336894560913398
3.52700e-06;0.003400971076117497
3.52725e-06;0.003432996543101014
3.52750e-06;0.0034650220100844766
3.52775e-06;0.0034970474770679937
3.52800e-06;0.0035289475885088187
3.52825e-06;0.0035568469627628193
3.52850e-06;0.0035847463370168673
3.52875e-06;0.0036126457112709153
3.52900e-06;0.0036405450855249155
3.52925e-06;0.0036684444597789635
3.52950e-06;0.0036963438340330114
3.52975e-06;0.0037242432082870594
3.53000e-06;0.00375214258254106
3.53025e-06;0.003780041956795108
3.53050e-06;0.0038077313619358103
3.53075e-06;0.003828719577628116
3.53100e-06;0.003849707793320457
3.53125e-06;0.0038706960090127986
3.53150e-06;0.0038916842247051398
3.53175e-06;0.003912672440397446
3.53200e-06;0.003933660656089787
3.53225e-06;0.003954648871782128
3.53250e-06;0.003975637087474434
3.53275e-06;0.003996625303166776
3.53300e-06;0.004017762470672205
3.53325e-06;0.004043653453167065
3.53350e-06;0.00406954443566197
3.53375e-06;0.004095435418156873
3.53400e-06;0.004121326400651778
3.53425e-06;0.0041472173831466385
3.53450e-06;0.004173108365641543
3.53475e-06;0.004198999348136448
3.53500e-06;0.004224890330631308
3.53525e-06;0.004250781313126213
3.53550e-06;0.0042766722956211175
3.53575e-06;0.004302563278116021
3.53600e-06;0.0043284542606108825
3.53625e-06;0.004354384067750884
3.53650e-06;0.0043815529680985565
3.53675e-06;0.004408721868446184
3.53700e-06;0.004435890768793857
3.53725e-06;0.00446305966914153
3.53750e-06;0.004490228569489157
3.53775e-06;0.004517397469836829
3.53800e-06;0.004544566370184503
3.53825e-06;0.004571735270532176
3.53850e-06;0.0045989041708798025
3.53875e-06;0.004626073071227476
3.53900e-06;0.004653241971575148
3.53925e-06;0.004680410871922776
3.53950e-06;0.004707175048121057
3.53975e-06;0.004721022404517118
3.54000e-06;0.00473486976091318
3.54025e-06;0.004748717117309217
3.54050e-06;0.0047625644737052785
3.54075e-06;0.0047764118301013405
3.54100e-06;0.004790259186497378
3.54125e-06;0.004804106542893439
3.54150e-06;0.004817953899289501
3.54175e-06;0.004831801255685539
3.54200e-06;0.0048456486120816
3.54225e-06;0.004859495968477661
3.54250e-06;0.004873343324873723
3.54275e-06;0.004887190681269761
3.54300e-06;0.004901038037665822
3.54325e-06;0.004914885394061884
3.54350e-06;0.004928732750457921
3.54375e-06;0.0049425801068539825
3.54400e-06;0.004951312196450133
3.54425e-06;0.004955515042355642
3.54450e-06;0.004959717888261143
3.54475e-06;0.004963920734166652
3.54500e-06;0.00496812358007216
3.54525e-06;0.004972326425977662
3.54550e-06;0.00497652927188317
3.54575e-06;0.004980732117788679
3.54600e-06;0.00498493496369418
3.54625e-06;0.004989137809599689
3.54650e-06;0.004993340655505197
3.54675e-06;0.004997543501410706
3.54700e-06;0.005001746347316207
3.54725e-06;0.0050059491932217155
3.54750e-06;0.005010152039127224
3.54775e-06;0.0050143548850327254
3.54800e-06;0.005018557730938234
3.54825e-06;0.005022612909123035
3.54850e-06;0.0050219552542758745
3.54875e-06;0.005021297599428716
3.54900e-06;0.0050206399445815566
3.54925e-06;0.005019982289734397
3.54950e-06;0.005019324634887239
3.54975e-06;0.005018666980040079
3.55000e-06;0.005018009325192919
3.55025e-06;0.00501735167034576
3.55050e-06;0.005016694015498601
3.55075e-06;0.005016036360651442
3.55100e-06;0.005015378705804282
3.55125e-06;0.005014721050957124
3.55150e-06;0.005014063396109963
3.55175e-06;0.005013405741262804
3.55200e-06;0.0050127480864156455
3.55225e-06;0.005012090431568486
3.55250e-06;0.0050046253750368145
3.55275e-06;0.004991132796904225
3.55300e-06;0.004977640218771658
3.55325e-06;0.004964147640639068
3.55350e-06;0.004950655062506479
3.55375e-06;0.004937162484373913
3.55400e-06;0.004923669906241323
3.55425e-06;0.004910177328108734
3.55450e-06;0.004896684749976167
3.55475e-06;0.004883192171843577
3.55500e-06;0.004869699593710987
3.55525e-06;0.004856207015578398
3.55550e-06;0.004842714437445832
3.55575e-06;0.004829221859313242
3.55600e-06;0.004815729281180653
3.55625e-06;0.0048022367030480856
3.55650e-06;0.004788549697938003
3.55675e-06;0.0047686575325006616
3.55700e-06;0.004748765367063321
3.55725e-06;0.004728873201626014
3.55750e-06;0.004708981036188674
3.55775e-06;0.004689088870751332
3.55800e-06;0.0046691967053140255
3.55825e-06;0.004649304539876685
3.55850e-06;0.004629412374439344
3.55875e-06;0.004609520209002037
3.55900e-06;0.004589753969009039
3.55925e-06;0.004574006654690025
3.55950e-06;0.00455825934037101
3.55975e-06;0.004542512026052023
3.56000e-06;0.0045267647117330076
3.56025e-06;0.004511017397413993
3.56050e-06;0.004495270083095006
3.56075e-06;0.004479522768775991
3.56100e-06;0.004463775454456976
3.56125e-06;0.004448028140137962
3.56150e-06;0.00443211138038977
3.56175e-06;0.004410786749425086
3.56200e-06;0.004389462118460402
3.56225e-06;0.004368137487495754
3.56250e-06;0.00434681285653107
3.56275e-06;0.0043254882255663865
3.56300e-06;0.004304163594601738
3.56325e-06;0.0042828389636370544
3.56350e-06;0.00426151433267237
3.56375e-06;0.004240189701707686
3.56400e-06;0.004218865070743039
3.56425e-06;0.004197540439778354
3.56450e-06;0.00417621580881367
3.56475e-06;0.004154891177849022
3.56500e-06;0.0041286706474950655
3.56525e-06;0.004098115109351791
3.56550e-06;0.0040675595712085155
3.56575e-06;0.004037004033065293
3.56600e-06;0.004006448494922018
3.56625e-06;0.003975892956778744
3.56650e-06;0.0039453374186355205
3.56675e-06;0.003914781880492246
3.56700e-06;0.0038842263423489714
3.56725e-06;0.0038536708042057484
3.56750e-06;0.003823115266062474
3.56775e-06;0.003792559727919199
3.56800e-06;0.0037620041897759244
3.56825e-06;0.003731545200394228
3.56850e-06;0.003704167576329544
3.56875e-06;0.00367678995226486
3.56900e-06;0.0036494123282002225
3.56925e-06;0.0036220347041355386
3.56950e-06;0.0035946570800708547
3.56975e-06;0.0035672794560061708
3.57000e-06;0.003540044762484537
3.57025e-06;0.003517371714405523
3.57050e-06;0.0034946986663265092
3.57075e-06;0.003472025618247534
3.57100e-06;0.00344935257016852
3.57125e-06;0.0034266795220895064
3.57150e-06;0.0034040064740105307
3.57175e-06;0.0033810167425145847
3.57200e-06;0.0033479200217396187
3.57225e-06;0.003314823300964653
3.57250e-06;0.0032817265801897435
3.57275e-06;0.0032486298594147775
3.57300e-06;0.003215533138639812
3.57325e-06;0.0031824364178649023
3.57350e-06;0.0031493396970899363
3.57375e-06;0.0031162429763149707
3.57400e-06;0.0030831462555400047
3.57425e-06;0.003050049534765095
3.57450e-06;0.0030089464582349593
3.57475e-06;0.00296075426246325
3.57500e-06;0.002912562066691622
3.57525e-06;0.002864369870919913
3.57550e-06;0.0028161776751482034
3.57575e-06;0.0027679854793765755
3.57600e-06;0.002719793283604866
3.57625e-06;0.0026716010878331566
3.57650e-06;0.002623408892061447
3.57675e-06;0.002575216696289819
3.57700e-06;0.002526893488432679
3.57725e-06;0.002474389014135513
3.57750e-06;0.002421884539838436
3.57775e-06;0.0023695291404493835
3.57800e-06;0.0023219314846557315
3.57825e-06;0.0022743338288620796
3.57850e-06;0.0022267361730685083
3.57875e-06;0.0021791385172748564
3.57900e-06;0.0021315408614812044
3.57925e-06;0.002083943205687633
3.57950e-06;0.002036345549893981
3.57975e-06;0.0019891802062054
3.58000e-06;0.0019558121552697787
3.58025e-06;0.0019224441043341003
3.58050e-06;0.0018890760533984221
3.58075e-06;0.001855708002462744
3.58100e-06;0.0018223399515271224
3.58125e-06;0.0017889719005914442
3.58150e-06;0.001755603849655766
3.58175e-06;0.0017224988067195677
3.58200e-06;0.0016977876956729384
3.58225e-06;0.001673076584626309
3.58250e-06;0.0016483654735796798
3.58275e-06;0.0016236543625330923
3.58300e-06;0.001598943251486463
3.58325e-06;0.0015742321404398337
3.58350e-06;0.0015495210293932462
3.58375e-06;0.0015248099183466169
3.58400e-06;0.0015000988072999875
3.58425e-06;0.0014753876962534
3.58450e-06;0.0014506765852067708
3.58475e-06;0.0014259654741601414
3.58500e-06;0.0014012543631135121
3.58525e-06;0.0013765432520669247
3.58550e-06;0.0013539476266529234
3.58575e-06;0.0013332251293340829
3.58600e-06;0.0013125026320152777
3.58625e-06;0.0012917801346964371
3.58650e-06;0.0012710576373775968
3.58675e-06;0.0012503351400587565
3.58700e-06;0.001229612642739951
3.58725e-06;0.0012088901454211107
3.58750e-06;0.0011881676481022702
3.58775e-06;0.001167445150783465
3.58800e-06;0.0011467226534646246
3.58825e-06;0.001126000156145784
3.58850e-06;0.0011052776588269786
3.58875e-06;0.0010845551615081383
3.58900e-06;0.0010640378072794498
3.58925e-06;0.0010500676194142521
3.58950e-06;0.001036097431549078
3.58975e-06;0.0010221272436838804
3.59000e-06;0.0010081570558186828
3.59025e-06;0.0009941868679535087
3.59050e-06;0.000980216680088311
3.59075e-06;0.0009662464922231135
3.59100e-06;0.0009522763043579159
3.59125e-06;0.0009384832254291169
3.59150e-06;0.0009303425994795819
3.59175e-06;0.0009222019735300467
3.59200e-06;0.0009140613475805254
3.59225e-06;0.0009059207216309904
3.59250e-06;0.0008977800956814552
3.59275e-06;0.0008896394697319339
3.59300e-06;0.0008814988437823988
3.59325e-06;0.0008733582178328637
3.59350e-06;0.0008653379812649457
3.59375e-06;0.0008611599862733344
3.59400e-06;0.0008569819912817159
3.59425e-06;0.0008528039962900975
3.59450e-06;0.0008486260012984862
3.59475e-06;0.0008444480063068677
3.59500e-06;0.0008402700113152493
3.59525e-06;0.0008360920163236308
3.59550e-06;0.0008319140213320195
3.59575e-06;0.000827736026340401
3.59600e-06;0.0008235580313487826
3.59625e-06;0.0008193800363571713
3.59650e-06;0.0008152020413655528
3.59675e-06;0.0008110240463739343
3.59700e-06;0.0008081192891892457
3.59725e-06;0.0008063419031723778
3.59750e-06;0.00080456451715551
3.59775e-06;0.0008027871311386421
3.59800e-06;0.0008010097451217772
3.59825e-06;0.0007992323591049093
3.59850e-06;0.0007974549730880414
3.59875e-06;0.0007956775870711765
3.59900e-06;0.0007939002010543086
3.59925e-06;0.0007921228150374407
3.59950e-06;0.0007903454290205728
3.59975e-06;0.0007885680430037079
3.60000e-06;0.00078679065698684
3.60025e-06;0.0007850527478031094
3.60050e-06;0.0007845747464916886
3.60075e-06;0.000784096745180267
3.60100e-06;0.0007837317563312808
3.60125e-06;0.0007869735737981936
3.60150e-06;0.0007902153912651119
3.60175e-06;0.0007935755930561136
3.60200e-06;0.0008007140447726657
3.60225e-06;0.0008078524964892058
3.60250e-06;0.0008151162340722575
3.60275e-06;0.0008263784851364388
3.60300e-06;0.0008376407362006011
3.60325e-06;0.0008490515755632443
3.60350e-06;0.0008652046283229116
3.60375e-06;0.0008813576810825514
3.60400e-06;0.0008976305370262591
3.60425e-06;0.0009177269259821702
3.60450e-06;0.0009378233149380812
3.60475e-06;0.0009580854566300341
3.60500e-06;0.0009836376168082704
3.60525e-06;0.0010091897769865066
3.60550e-06;0.0010347419371646994
3.60575e-06;0.0010602940973429356
3.60600e-06;0.0010858462575211718
3.60625e-06;0.001111398417699408
3.60650e-06;0.0011389623370165842
3.60675e-06;0.0011683075412105928
3.60700e-06;0.0011976527454046013
3.60725e-06;0.0012269979495985602
3.60750e-06;0.0012563431537925688
3.60775e-06;0.0012856883579865773
3.60800e-06;0.001315018716464847
3.60825e-06;0.0013438752721431975
3.60850e-06;0.0013727318278215482
3.60875e-06;0.0014015883834998986
3.60900e-06;0.001427620135081981
3.60925e-06;0.0014536338293480507
3.60950e-06;0.0014796475236141205
3.60975e-06;0.0014998736685989972
3.61000e-06;0.0015205661811020484
3.61025e-06;-0.04413293327881006
3.61050e-06;-0.024351090162660904
3.61075e-06;0.0025142225050040056
3.61100e-06;0.022167399306336155
3.61125e-06;0.03147540273211087
3.61150e-06;0.021434391640147658
3.61175e-06;0.004902517199227292
3.61200e-06;-0.012354618858167724
3.61225e-06;-0.02115844965583312
3.61250e-06;-0.011473286191058387
3.61275e-06;0.003059080990827013
3.61300e-06;0.015304627436998182
3.61325e-06;0.02109537553416061
3.61350e-06;0.01477502235780742
3.61375e-06;0.00439406484563041
3.61400e-06;-0.0064370581277354635
3.61425e-06;-0.011969623109365314
3.61450e-06;-0.005918335766293819
3.61475e-06;0.00317072265589709
3.61500e-06;0.0108285444575981
3.61525e-06;0.014444383480232725
3.61550e-06;0.010475497033499068
3.61575e-06;0.003965003587344235
3.61600e-06;-0.002825554741727171
3.61625e-06;-0.00629547841669832
3.61650e-06;-0.002508299013228776
3.61675e-06;0.003182167103073322
3.61700e-06;0.007976354153815316
3.61725e-06;0.010238916206509558
3.61750e-06;0.007750886919999814
3.61775e-06;0.003671431349885435
3.61800e-06;-0.000582865993328903
3.61825e-06;-0.002756738343922477
3.61850e-06;-0.00038480626618541606
3.61875e-06;0.003178930760956386
3.61900e-06;0.006180689177284832
3.61925e-06;0.007596080078430298
3.61950e-06;0.006035248745740714
3.61975e-06;0.003477170173847399
3.62000e-06;0.0008091401201978521
3.62025e-06;-0.0005562988174428552
3.62050e-06;0.000924874175926101
3.62075e-06;0.003151457927207976
3.62100e-06;0.00502480212757941
3.62125e-06;0.005903290190441633
3.62150e-06;0.004916492274708871
3.62175e-06;0.0033042030144161765
3.62200e-06;0.0016223104980314543
3.62225e-06;0.0007556520808287837
3.62250e-06;0.001671339305871456
3.62275e-06;0.003053138451978174
3.62300e-06;0.00421290498196355
3.62325e-06;0.004748830535680371
3.62350e-06;0.004115822267591839
3.62375e-06;0.003090619452435362
3.62400e-06;0.0020215125745747277
3.62425e-06;0.001462805025563728
3.62450e-06;0.002020284389415569
3.62475e-06;0.002869464301568972
3.62500e-06;0.0035793505744477453
3.62525e-06;0.00389834113809217
3.62550e-06;0.003485108917062347
3.62575e-06;0.0028263139865946983
3.62600e-06;0.002140205047086497
3.62625e-06;0.0017740517598936266
3.62650e-06;0.00210734052029371
3.62675e-06;0.0026236425191356358
3.62700e-06;0.0030530483554808245
3.62725e-06;0.0032380396165667407
3.62750e-06;0.0029649111148558104
3.62775e-06;0.002538604015275448
3.62800e-06;0.002095907239563594
3.62825e-06;0.0018544122499000778
3.62850e-06;0.002051870104318422
3.62875e-06;0.00236483633978228
3.62900e-06;0.0026243084991994696
3.62925e-06;0.0027316980502572795
3.62950e-06;0.002553231793050019
3.62975e-06;0.0022800139514427735
3.63000e-06;0.0019978055069390546
3.63025e-06;0.0018429719345230528
3.63050e-06;0.0019644126424170688
3.63075e-06;0.00215919202727998
3.63100e-06;0.0023208457592449254
3.63125e-06;0.0023871717238649324
3.63150e-06;0.0022742700830299346
3.63175e-06;0.0021018685138437937
3.63200e-06;0.0019237002623665087
3.63225e-06;0.0018251906628423999
3.63250e-06;0.0018996083651720407
3.63275e-06;0.0020198347116977123
3.63300e-06;0.002119189319236261
3.63325e-06;0.0021587225426123267
3.63350e-06;0.0020858975717898414
3.63375e-06;0.0019757283907887086
3.63400e-06;0.0018618856624122587
3.63425e-06;0.001797887907021526
3.63450e-06;0.0018421613893437605
3.63475e-06;0.0019150830320524223
3.63500e-06;0.0019748941893263866
3.63525e-06;0.001997209560403341
3.63550e-06;0.0019491354848708534
3.63575e-06;0.0018776754748550952
3.63600e-06;0.0018039322078985081
3.63625e-06;0.0017614388521587135
3.63650e-06;0.0017867996484558673
3.63675e-06;0.0018301455903515001
3.63700e-06;0.0018653291246710855
3.63725e-06;0.0018770873358780252
3.63750e-06;0.0018448295108028376
3.63775e-06;0.0017980119686024686
3.63800e-06;0.0017498648434577633
3.63825e-06;0.001721403156278452
3.63850e-06;0.0017355635604017216
3.63875e-06;0.0017611164581164086
3.63900e-06;0.0017816935925984534
3.63925e-06;0.0017877460116140559
3.63950e-06;0.0017663882989083983
3.63975e-06;0.0017360843837555344
3.64000e-06;0.0017051327898434832
3.64025e-06;0.001686707690654989
3.64050e-06;0.0016952093515677786
3.64075e-06;0.0017111936324818366
3.64100e-06;0.001724592674449345
3.64125e-06;0.0017295423488526782
3.64150e-06;0.0017179755951057716
3.64175e-06;0.001701604167789474
3.64200e-06;0.001685380644955008
3.64225e-06;0.0016770536270493306
3.64250e-06;0.0016864357137198087
3.64275e-06;0.0017008803620443122
3.64300e-06;0.0017141483908958994
3.64325e-06;0.0017227631309429047
3.64350e-06;0.0017212194348412391
3.64375e-06;0.0017170312883470157
3.64400e-06;0.001713212109091497
3.64425e-06;0.001714462210685073
3.64450e-06;0.001727097294596235
3.64475e-06;0.001743092881057801
3.64500e-06;0.0017584817642424557
3.64525e-06;0.0017705260852613923
3.64550e-06;0.001776371764231605
3.64575e-06;0.0017818609776768615
3.64600e-06;0.0017866895359802812
3.64625e-06;0.001795263817863424
3.64650e-06;0.00181078023403314
3.64675e-06;0.001826609643824785
3.64700e-06;0.0018430191401358972
3.64725e-06;0.001857176787789595
3.64750e-06;0.0018671609732430993
3.64775e-06;0.0018767133772326305
3.64800e-06;0.0018854655393352256
3.64825e-06;0.0018963035775925669
3.64850e-06;0.0019110074730235788
3.64875e-06;0.0019255948449866608
3.64900e-06;0.0019399662582585107
