Time(s);Current(A)
2.55000e-06;0.0029901510227890275
2.55025e-06;0.003041122307297748
2.55050e-06;0.003092093591806382
2.55075e-06;0.003143064876315102
2.55100e-06;0.0031940361608238225
2.55125e-06;0.003245007445332543
2.55150e-06;0.003295978729841177
2.55175e-06;0.003346950014349897
2.55200e-06;0.0033682865937089716
2.55225e-06;0.003377616281951212
2.55250e-06;0.003386945970193468
2.55275e-06;0.0033962756584357237
2.55300e-06;0.0034056053466779636
2.55325e-06;0.0034149350349202195
2.55350e-06;0.003424264723162476
2.55375e-06;0.0034335944114047318
2.55400e-06;0.003437635305528857
2.55425e-06;0.003419963048729143
2.55450e-06;0.003394786372738919
2.55475e-06;0.003369609696748738
2.55500e-06;0.0033403229501051696
2.55525e-06;0.0032957281088839595
2.55550e-06;0.0032511332676627494
2.55575e-06;0.003206538426441615
2.55600e-06;0.003161943585220405
2.55625e-06;0.0031173487439991954
2.55650e-06;0.0030727539027780608
2.55675e-06;0.003016229524116778
2.55700e-06;0.0029548717362348795
2.55725e-06;0.002893513948353085
2.55750e-06;0.0028321561604711873
2.55775e-06;0.002770798372589289
2.55800e-06;0.0027094405847073906
2.55825e-06;0.002647484875318533
2.55850e-06;0.002583302187429077
2.55875e-06;0.0025191194995396213
2.55900e-06;0.002454936811650274
2.55925e-06;0.002390754123760818
2.55950e-06;0.0023265714358713624
2.55975e-06;0.0022696410134025145
2.56000e-06;0.0022156489417902996
2.56025e-06;0.002161656870177993
2.56050e-06;0.0021076647985656866
2.56075e-06;0.0020536727269534717
2.56100e-06;0.002002977247734301
2.56125e-06;0.001964560036310983
2.56150e-06;0.0019261428248877306
2.56175e-06;0.0018903279234161038
2.56200e-06;0.0018642054117411434
2.56225e-06;0.0018380829000661828
2.56250e-06;0.0018142612206298997
2.56275e-06;0.0017990090672407308
2.56300e-06;0.001786119224381516
2.56325e-06;0.0017820278855061275
2.56350e-06;0.0017779365466307321
2.56375e-06;0.0017764462610365464
2.56400e-06;0.0017846436847281067
2.56425e-06;0.001792841108419653
2.56450e-06;0.0018034618281205254
2.56475e-06;0.0018231081942473608
2.56500e-06;0.001842754560374163
2.56525e-06;0.0018645321164379208
2.56550e-06;0.0018942473601648896
2.56575e-06;0.0019239626038918079
2.56600e-06;0.0019561011632141696
2.56625e-06;0.001997265441911684
2.56650e-06;0.002038429720609198
2.56675e-06;0.002079593999306643
2.56700e-06;0.0021207582780041574
2.56725e-06;0.002161922556701672
2.56750e-06;0.0022030868353991166
2.56775e-06;0.0022490868267479613
2.56800e-06;0.0022970460707699577
2.56825e-06;0.002345005314791954
2.56850e-06;0.0023929645588138693
2.56875e-06;0.0024409238028358657
2.56900e-06;0.0024888830468578617
2.56925e-06;0.0025355990324632703
2.56950e-06;0.002577684460827277
2.56975e-06;0.0026197698891912845
2.57000e-06;0.0026618553175552207
2.57025e-06;0.002703940745919228
2.57050e-06;0.002746026174283235
2.57075e-06;0.0027881116026472422
2.57100e-06;0.0028160606963711396
2.57125e-06;0.002838282267922062
2.57150e-06;0.002860503839472984
2.57175e-06;0.002882725411023869
2.57200e-06;0.0029049469825747913
2.57225e-06;0.0029271685541257136
2.57250e-06;0.0029451414333391537
2.57275e-06;0.0029472899169085747
2.57300e-06;0.0029494384004779993
2.57325e-06;0.002948761872373745
2.57350e-06;0.0029375634945161457
2.57375e-06;0.0029263651166585277
2.57400e-06;0.0029124564208960367
2.57425e-06;0.0028884530561294397
2.57450e-06;0.0028644496913628023
2.57475e-06;0.0028380339299447273
2.57500e-06;0.00280263311712016
2.57525e-06;0.002767232304295653
2.57550e-06;0.002728767942384505
2.57575e-06;0.002678893290207403
2.57600e-06;0.002629018638030386
2.57625e-06;0.002579143985853284
2.57650e-06;0.002529269333676182
2.57675e-06;0.00247939468149908
2.57700e-06;0.0024295200293220627
2.57725e-06;0.0023722611500912876
2.57750e-06;0.0023120104540099136
2.57775e-06;0.002251759757928642
2.57800e-06;0.002191509061847268
2.57825e-06;0.0021312583657658946
2.57850e-06;0.002071007669684623
2.57875e-06;0.002011153641356992
2.57900e-06;0.001952777015245425
2.57925e-06;0.001894400389133858
2.57950e-06;0.0018360237630223898
2.57975e-06;0.0017776471369108228
2.58000e-06;0.0017217616998685275
2.58025e-06;0.0016751547792090646
2.58050e-06;0.0016285478585495224
2.58075e-06;0.0015819409378899803
2.58100e-06;0.0015353340172304382
2.58125e-06;0.0014919909507188861
2.58150e-06;0.0014608042173240249
2.58175e-06;0.0014322735432376798
2.58200e-06;0.0014136354502132034
2.58225e-06;0.0013976584308588516
2.58250e-06;0.0013915926687227149
2.58275e-06;0.0013881732205387155
2.58300e-06;0.0013946100565131758
2.58325e-06;0.0014038632019233975
2.58350e-06;0.0014236057853137395
2.58375e-06;0.0014462252077680825
2.58400e-06;0.001479559512812346
2.58425e-06;0.0015155323700204765
2.58450e-06;0.0015613326023488734
2.58475e-06;0.0016095207057203753
2.58500e-06;0.0016666025140564544
2.58525e-06;0.0017259372984833894
2.58550e-06;0.0017936633671476168
2.58575e-06;0.001863870460634615
2.58600e-06;0.0019433182134307285
2.58625e-06;0.0020227659662267073
2.58650e-06;0.0021050112579231893
2.58675e-06;0.0021976760761179544
2.58700e-06;0.0022903408943125625
2.58725e-06;0.002383005712507328
2.58750e-06;0.002475670530702093
2.58775e-06;0.002568335348896858
2.58800e-06;0.002664711949837684
2.58825e-06;0.0027625924284473908
2.58850e-06;0.002860472907057098
2.58875e-06;0.002958353385666639
2.58900e-06;0.0030562338642763465
2.58925e-06;0.0031506918827362766
2.58950e-06;0.003232402834759951
2.58975e-06;0.0033141137867834865
2.59000e-06;0.003395824738807161
2.59025e-06;0.003477535690830835
2.59050e-06;0.003559246642854371
2.59075e-06;0.0036409575948780455
2.59100e-06;0.00372266854690172
2.59125e-06;0.0037801463390921327
2.59150e-06;0.0038278057473932424
2.59175e-06;0.003875465155694352
2.59200e-06;0.0039231245639954615
2.59225e-06;0.003970783972296491
2.59250e-06;0.0040184433805976
2.59275e-06;0.00406610278889871
2.59300e-06;0.0041064027914380795
2.59325e-06;0.004119292442921694
2.59350e-06;0.004132182094405309
2.59375e-06;0.004145071745888924
2.59400e-06;0.004157961397372516
2.59425e-06;0.004170851048856131
2.59450e-06;0.004183740700339745
2.59475e-06;0.004196630351823338
2.59500e-06;0.004209520003306952
2.59525e-06;0.004222409654790567
2.59550e-06;0.004216503949163015
2.59575e-06;0.004202983057041719
2.59600e-06;0.0041894621649204225
2.59625e-06;0.004175941272799127
2.59650e-06;0.004162420380677854
2.59675e-06;0.004148899488556557
2.59700e-06;0.004135378596435262
2.59725e-06;0.004121857704313989
2.59750e-06;0.004108336812192693
2.59775e-06;0.004092732436277394
2.59800e-06;0.004069368055809711
2.59825e-06;0.004046003675342068
2.59850e-06;0.004022639294874385
2.59875e-06;0.003999274914406702
2.59900e-06;0.003975910533939059
2.59925e-06;0.003952546153471376
2.59950e-06;0.003929181773003693
2.59975e-06;0.003906615014844031
2.60000e-06;0.0038870190274477158
2.60025e-06;0.003867423040051401
2.60050e-06;0.0038478270526550863
2.60075e-06;0.003828231065258805
2.60100e-06;0.00380863507786249
2.60125e-06;0.0037890390904661755
2.60150e-06;0.003769443103069894
2.60175e-06;0.0037484621034052593
2.60200e-06;0.003722322579571271
2.60225e-06;0.003696183055737283
2.60250e-06;0.0036700435319033387
2.60275e-06;0.00364390400806935
2.60300e-06;0.003617764484235362
2.60325e-06;0.003591624960401418
2.60350e-06;0.0035654854365674295
2.60375e-06;0.0035393459127334415
2.60400e-06;0.0035132063888994973
2.60425e-06;0.003487066865065509
2.60450e-06;0.0034609273412315204
2.60475e-06;0.0034347878173975324
2.60500e-06;0.0033984325200238823
2.60525e-06;0.003357938167444763
2.60550e-06;0.0033174438148656435
2.60575e-06;0.003276949462286592
2.60600e-06;0.0032364551097074728
2.60625e-06;0.0031959607571283534
2.60650e-06;0.0031554664045492335
2.60675e-06;0.0031149720519701826
2.60700e-06;0.0030744776993910632
2.60725e-06;0.0030339833468119434
2.60750e-06;0.0029934889942328925
2.60775e-06;0.002952994641653773
2.60800e-06;0.0029124292161726833
2.60825e-06;0.0028715990773089638
2.60850e-06;0.002830768938445175
2.60875e-06;0.002789938799581386
2.60900e-06;0.0027491086607175975
2.60925e-06;0.002708278521853878
2.60950e-06;0.002667448382990089
2.60975e-06;0.0026266182441263006
2.61000e-06;0.002585788105262581
2.61025e-06;0.0025480865009542466
2.61050e-06;0.002522037227451751
2.61075e-06;0.0024959879539492554
2.61100e-06;0.002469938680446804
2.61125e-06;0.0024438894069443084
2.61150e-06;0.002417840133441813
2.61175e-06;0.0023917908599393614
2.61200e-06;0.002365741586436866
2.61225e-06;0.0023396923129343702
2.61250e-06;0.002317495625356799
2.61275e-06;0.002309648021946314
2.61300e-06;0.002301800418535829
2.61325e-06;0.002293952815125344
2.61350e-06;0.0022861052117148723
2.61375e-06;0.002278257608304387
2.61400e-06;0.002270410004893902
2.61425e-06;0.0022625624014834303
2.61450e-06;0.002254714798072945
2.61475e-06;0.0022468671946624602
2.61500e-06;0.002241924195340818
2.61525e-06;0.0022477994903689004
2.61550e-06;0.002253674785396993
2.61575e-06;0.0022595500804250854
2.61600e-06;0.002265425375453168
2.61625e-06;0.0022713006704812603
2.61650e-06;0.002277175965509353
2.61675e-06;0.0022830512605374353
2.61700e-06;0.0022889265555655278
2.61725e-06;0.0022948018505936202
2.61750e-06;0.0023017612094217875
2.61775e-06;0.0023127581998597883
2.61800e-06;0.0023237551902978077
2.61825e-06;0.002334752180735827
2.61850e-06;0.002345749171173828
2.61875e-06;0.0023567461616118474
2.61900e-06;0.002367743152049867
2.61925e-06;0.0023787401424878677
2.61950e-06;0.002389737132925887
2.61975e-06;0.002400734123363906
2.62000e-06;0.0024117311138019256
2.62025e-06;0.0024221193352355974
2.62050e-06;0.002432260905888831
2.62075e-06;0.0024424024765420643
2.62100e-06;0.0024525440471952803
2.62125e-06;0.0024626856178485137
2.62150e-06;0.002472827188501747
2.62175e-06;0.0024829687591549805
2.62200e-06;0.002493110329808197
2.62225e-06;0.0025032519004614304
2.62250e-06;0.002513393471114664
2.62275e-06;0.002525312919968455
2.62300e-06;0.002543854135199046
2.62325e-06;0.0025623953504296366
2.62350e-06;0.002580936565660196
2.62375e-06;0.0025994777808907867
2.62400e-06;0.0026180189961213774
2.62425e-06;0.002636560211351968
2.62450e-06;0.0026551014265825275
2.62475e-06;0.0026736426418131182
2.62500e-06;0.002692183857043709
2.62525e-06;0.002710725072274268
2.62550e-06;0.0027292662875048586
2.62575e-06;0.0027540669696376357
2.62600e-06;0.002781403757232035
2.62625e-06;0.0028087405448263877
2.62650e-06;0.0028360773324207873
2.62675e-06;0.0028634141200151865
2.62700e-06;0.0028907509076095393
2.62725e-06;0.002918087695203939
2.62750e-06;0.002945424482798338
2.62775e-06;0.002972761270392691
2.62800e-06;0.0030000980579870905
2.62825e-06;0.0030274348455814897
2.62850e-06;0.0030545644179929823
2.62875e-06;0.003080922210576897
2.62900e-06;0.003107280003160856
2.62925e-06;0.003133637795744816
2.62950e-06;0.0031599955883287304
2.62975e-06;0.00318635338091269
2.63000e-06;0.0032127111734966494
2.63025e-06;0.003236714824496612
2.63050e-06;0.0032519503970177654
2.63075e-06;0.0032671859695389445
2.63100e-06;0.003282421542060124
2.63125e-06;0.0032976571145812775
2.63150e-06;0.003312892687102457
2.63175e-06;0.003328128259623636
2.63200e-06;0.0033392260046276345
2.63225e-06;0.0033349122736824424
2.63250e-06;0.00333059854273725
2.63275e-06;0.0033234914879282464
2.63300e-06;0.003305980605659917
2.63325e-06;0.003288469723391558
2.63350e-06;0.0032677479084095304
2.63375e-06;0.0032350668679437537
2.63400e-06;0.003202385827477922
2.63425e-06;0.0031667353157288623
2.63450e-06;0.0031200249096092376
2.63475e-06;0.003073314503489692
2.63500e-06;0.003024053926924426
2.63525e-06;0.00296529515587743
2.63550e-06;0.0029065363848305337
2.63575e-06;0.002844640422165333
2.63600e-06;0.002771059885173975
2.63625e-06;0.002697479348182742
2.63650e-06;0.0026238988111913844
2.63675e-06;0.0025503182742000266
2.63700e-06;0.002476737737208669
2.63725e-06;0.002401212523179174
2.63750e-06;0.002318444294963698
2.63775e-06;0.002235676066748222
2.63800e-06;0.0021529078385328863
2.63825e-06;0.0020701396103174107
2.63850e-06;0.0019873713821019347
2.63875e-06;0.0019053550014927374
2.63900e-06;0.001826138902252143
2.63925e-06;0.0017469228030114145
2.63950e-06;0.001667706703770686
2.63975e-06;0.0015884906045300915
2.64000e-06;0.0015186728853895
2.64025e-06;0.0014526630437371323
2.64050e-06;0.0013866532020848765
2.64075e-06;0.0013206433604325087
2.64100e-06;0.0012573701336770608
2.64125e-06;0.0012056106009572971
2.64150e-06;0.001160232025085016
2.64175e-06;0.0011218021465701183
2.64200e-06;0.001090508088207695
2.64225e-06;0.0010663840268211927
2.64250e-06;0.0010494638571221199
2.64275e-06;0.0010397811313638328
2.64300e-06;0.001037384327214141
2.64325e-06;0.0010424008256985666
2.64350e-06;0.001055023343665575
2.64375e-06;0.001075302631931799
2.64400e-06;0.0011030509716541052
2.64425e-06;0.001137985227194505
2.64450e-06;0.0011798214190895243
2.64475e-06;0.0012289272050796938
2.64500e-06;0.0012855001038364065
2.64525e-06;0.0013445993907550496
2.64550e-06;0.001413108294251017
2.64575e-06;0.0014838702847193859
2.64600e-06;0.0015630239724125645
2.64625e-06;0.0016444085130456027
2.64650e-06;0.0017341019395104454
2.64675e-06;0.0018237953659754403
2.64700e-06;0.0019157376987248582
2.64725e-06;0.002016056157587461
2.64750e-06;0.0021163746164498936
2.64775e-06;0.0022166930753124963
2.64800e-06;0.002317011534175099
2.64825e-06;0.0024176587823888777
2.64850e-06;0.0025195306174567457
2.64875e-06;0.0026214024525246142
2.64900e-06;0.0027232742875923097
2.64925e-06;0.002825146122660178
2.64950e-06;0.002925095784126466
2.64975e-06;0.00301788624620313
2.65000e-06;0.0031106767082796365
2.65025e-06;0.00320051136639162
2.65050e-06;0.0032793370345129973
2.65075e-06;0.003358162702634241
2.65100e-06;0.00343316104527741
2.65125e-06;0.003493904387120697
2.65150e-06;0.0035546477289639844
2.65175e-06;0.0036118476542956767
2.65200e-06;0.0036558500071989636
2.65225e-06;0.00369985236010225
2.65250e-06;0.003739989588850445
2.65275e-06;0.0037657310343719584
2.65300e-06;0.003791472479893472
2.65325e-06;0.0038134499919811726
2.65350e-06;0.0038214086090425582
2.65375e-06;0.0038293672261039435
2.65400e-06;0.0038340213747432533
2.65425e-06;0.0038263679210455014
2.65450e-06;0.003818714467347736
2.65475e-06;0.0038061928998323973
2.65500e-06;0.0037755398807958764
2.65525e-06;0.0037448868617593035
2.65550e-06;0.0037142338427227305
2.65575e-06;0.0036835808236861576
2.65600e-06;0.0036529278046496367
2.65625e-06;0.0036222747856130637
2.65650e-06;0.0035872678715255235
2.65675e-06;0.0035360447307835126
2.65700e-06;0.003484821590041415
2.65725e-06;0.0034335984492993173
2.65750e-06;0.0033823753085573064
2.65775e-06;0.003331152167815209
2.65800e-06;0.0032799290270731116
2.65825e-06;0.003227796603868714
2.65850e-06;0.0031722775279478524
2.65875e-06;0.0031167584520268962
2.65900e-06;0.0030612393761059405
2.65925e-06;0.0030057203001850785
2.65950e-06;0.002950201224264123
2.65975e-06;0.002894682148343167
2.66000e-06;0.002847668045225327
2.66025e-06;0.00280409984386232
2.66050e-06;0.002760531642499239
2.66075e-06;0.002716963441136158
2.66100e-06;0.002673395239773151
2.66125e-06;0.0026298270384100698
2.66150e-06;0.002588420187074025
2.66175e-06;0.002555063355665044
2.66200e-06;0.002521706524256007
2.66225e-06;0.00248834969284697
2.66250e-06;0.0024549928614379327
2.66275e-06;0.0024216360300289524
2.66300e-06;0.0023882791986199153
2.66325e-06;0.002354922367210878
2.66350e-06;0.0023215655358018975
2.66375e-06;0.0022882087043928604
2.66400e-06;0.0022552292659140894
2.66425e-06;0.0022236554399326217
2.66450e-06;0.002192081613951207
2.66475e-06;0.0021605077879697392
2.66500e-06;0.002128933961988271
2.66525e-06;0.0020973601360068568
2.66550e-06;0.0020657863100253886
2.66575e-06;0.002034212484043921
2.66600e-06;0.002002638658062506
2.66625e-06;0.0019710648320810384
2.66650e-06;0.0019395983276068217
2.66675e-06;0.001908531545649188
2.66700e-06;0.0018774647636916068
2.66725e-06;0.001846397981733973
2.66750e-06;0.0018153311997763392
2.66775e-06;0.0017842644178187581
2.66800e-06;0.0017531976358611243
2.66825e-06;0.0017221308539034906
2.66850e-06;0.0016920496157717517
2.66875e-06;0.001665639068337444
2.66900e-06;0.0016392285209030917
2.66925e-06;0.0016128179734687393
2.66950e-06;0.0015864074260344317
2.66975e-06;0.0015599968786000793
2.67000e-06;0.001533586331165727
2.67025e-06;0.0015071757837314195
2.67050e-06;0.0014821657883629306
2.67075e-06;0.0014623721956590916
2.67100e-06;0.0014425786029552523
2.67125e-06;0.0014242513065120244
2.67150e-06;0.0014113852791692479
2.67175e-06;0.0013985192518264713
2.67200e-06;0.0013874649080021716
2.67225e-06;0.0013831582395865012
2.67250e-06;0.0013788515711708306
2.67275e-06;0.001376361908642749
2.67300e-06;0.001380639744863704
2.67325e-06;0.0013849175810846661
2.67350e-06;0.001391141244237968
2.67375e-06;0.0014046122043980492
2.67400e-06;0.0014180831645581534
2.67425e-06;0.0014333508678210048
2.67450e-06;0.0014553106004180406
2.67475e-06;0.0014772703330151135
2.67500e-06;0.0015008071952811969
2.67525e-06;0.00153021812935691
2.67550e-06;0.0015596290634325733
2.67575e-06;0.0015909929544186715
2.67600e-06;0.0016296306982516498
2.67625e-06;0.0016682684420845628
2.67650e-06;0.0017069061859175411
2.67675e-06;0.0017455439297505194
2.67700e-06;0.001784181673583498
2.67725e-06;0.0018228194174164107
2.67750e-06;0.0018654410408504693
2.67775e-06;0.0019096767855789555
2.67800e-06;0.0019539125303073665
2.67825e-06;0.0019981482750358525
2.67850e-06;0.002042384019764339
2.67875e-06;0.00208661976449275
2.67900e-06;0.0021287428452246766
2.67925e-06;0.0021629972387649994
2.67950e-06;0.002197251632305322
2.67975e-06;0.002231506025845587
2.68000e-06;0.0022657604193859096
2.68025e-06;0.0023000148129262324
2.68050e-06;0.002334269206466497
2.68075e-06;0.00236852360000682
2.68100e-06;0.0024027779935471426
2.68125e-06;0.0024370323870874654
2.68150e-06;0.00247128678062773
2.68175e-06;0.002505541174168053
2.68200e-06;0.002535391290849562
2.68225e-06;0.002548837532156301
2.68250e-06;0.0025622837734630634
2.68275e-06;0.002575730014769825
2.68300e-06;0.0025891762560765644
2.68325e-06;0.002602622497383326
2.68350e-06;0.002616068738690088
2.68375e-06;0.00262951497999685
2.68400e-06;0.0026429612213035893
2.68425e-06;0.002656407462610351
2.68450e-06;0.0026698537039171128
2.68475e-06;0.002683299945223852
2.68500e-06;0.0026939605330359847
2.68525e-06;0.0026942458619282467
2.68550e-06;0.002694531190820509
2.68575e-06;0.0026948165197127707
2.68600e-06;0.0026951018486050327
2.68625e-06;0.002695387177497295
2.68650e-06;0.0026956725063895567
2.68675e-06;0.002695957835281819
2.68700e-06;0.002696243164174081
2.68725e-06;0.0026965284930663426
2.68750e-06;0.002696813821958605
2.68775e-06;0.002697099150850867
2.68800e-06;0.0026941272752413407
2.68825e-06;0.002689835700325233
2.68850e-06;0.0026855441254091178
2.68875e-06;0.002681252550493003
2.68900e-06;0.0026769609755768952
2.68925e-06;0.0026726694006607805
2.68950e-06;0.0026683778257446653
2.68975e-06;0.0026640862508285506
2.69000e-06;0.002659794675912443
2.69025e-06;0.002655503100996328
2.69050e-06;0.002651211526080213
2.69075e-06;0.002648708118053032
2.69100e-06;0.0026528647969680567
2.69125e-06;0.002657021475883082
2.69150e-06;0.0026611781547981003
2.69175e-06;0.0026653348337131256
2.69200e-06;0.002669491512628151
2.69225e-06;0.0026736481915431757
2.69250e-06;0.002677804870458194
2.69275e-06;0.0026819615493732193
2.69300e-06;0.0026861182282882446
2.69325e-06;0.0026902749072032625
2.69350e-06;0.0026944315861182878
2.69375e-06;0.002698588265033313
2.69400e-06;0.0027166938202517086
2.69425e-06;0.002740450946434031
2.69450e-06;0.0027642080726163537
2.69475e-06;0.002787965198798676
2.69500e-06;0.0028117223249809584
2.69525e-06;0.002835479451163281
2.69550e-06;0.0028592365773456034
2.69575e-06;0.002882993703527886
2.69600e-06;0.0029067508297102086
2.69625e-06;0.002930507955892531
2.69650e-06;0.0029542650820748536
2.69675e-06;0.002978022208257136
2.69700e-06;0.003003610724077579
2.69725e-06;0.0030360203114047474
2.69750e-06;0.003068429898731861
2.69775e-06;0.0031008394860590296
2.69800e-06;0.0031332490733861984
2.69825e-06;0.0031656586607133118
2.69850e-06;0.0031980682480404806
2.69875e-06;0.003230477835367649
