Time(s);Current(A)
2.55000e-06;-0.006614044236482531
2.55025e-06;-0.006645918466166394
2.55050e-06;-0.006677844638641364
2.55075e-06;-0.006709770811116388
2.55100e-06;-0.006741696983591412
2.55125e-06;-0.006773623156066435
2.55150e-06;-0.006805549328541404
2.55175e-06;-0.006837475501016428
2.55200e-06;-0.006867207080353784
2.55225e-06;-0.0068944144276076955
2.55250e-06;-0.006921621774861654
2.55275e-06;-0.006946238198774658
2.55300e-06;-0.006967874529607659
2.55325e-06;-0.006989510860440696
2.55350e-06;-0.007008890862390599
2.55375e-06;-0.007023115235955548
2.55400e-06;-0.007034394638877127
2.55425e-06;-0.007045674041798723
2.55450e-06;-0.007050640140683209
2.55475e-06;-0.00704834464545738
2.55500e-06;-0.0070460491502315455
2.55525e-06;-0.007043753655005712
2.55550e-06;-0.007041458159779878
2.55575e-06;-0.007039162664554048
2.55600e-06;-0.007036867169328214
2.55625e-06;-0.00701744779555531
2.55650e-06;-0.006997408670997731
2.55675e-06;-0.006977369546440118
2.55700e-06;-0.006957330421882505
2.55725e-06;-0.006937291297324926
2.55750e-06;-0.006917252172767313
2.55775e-06;-0.006891123939951216
2.55800e-06;-0.0068579919841388415
2.55825e-06;-0.006824860028326523
2.55850e-06;-0.006791728072514148
2.55875e-06;-0.006758596116701773
2.55900e-06;-0.006725464160889454
2.55925e-06;-0.006689376837265787
2.55950e-06;-0.006649890234696167
2.55975e-06;-0.006610403632126547
2.56000e-06;-0.006570917029556995
2.56025e-06;-0.006531430426987375
2.56050e-06;-0.0064919438244177554
2.56075e-06;-0.006452249390684445
2.56100e-06;-0.006412315908499439
2.56125e-06;-0.0063729760336987944
2.56150e-06;-0.006334318929102364
2.56175e-06;-0.006296688997006422
2.56200e-06;-0.006260240523895627
2.56225e-06;-0.006228386216771549
2.56250e-06;-0.006201816142511359
2.56275e-06;-0.006175246068251124
2.56300e-06;-0.00614867599399089
2.56325e-06;-0.0061221059197307
2.56350e-06;-0.0060955358454704645
2.56375e-06;-0.00606896577121023
2.56400e-06;-0.006042395696949995
2.56425e-06;-0.006015825622689805
2.56450e-06;-0.005989255548429571
2.56475e-06;-0.00596737183229884
2.56500e-06;-0.005950878388899201
2.56525e-06;-0.005934384945499533
2.56550e-06;-0.005917891502099865
2.56575e-06;-0.005901398058700226
2.56600e-06;-0.005884904615300558
2.56625e-06;-0.00586841117190089
2.56650e-06;-0.005851917728501222
2.56675e-06;-0.005835424285101583
2.56700e-06;-0.005818930841701915
2.56725e-06;-0.005805452768355464
2.56750e-06;-0.005795442988836156
2.56775e-06;-0.005785433209316831
2.56800e-06;-0.005775423429797505
2.56825e-06;-0.00576541365027818
2.56850e-06;-0.005755403870758871
2.56875e-06;-0.0057453940912395455
2.56900e-06;-0.00573538431172022
2.56925e-06;-0.005725374532200911
2.56950e-06;-0.005715364752681586
2.56975e-06;-0.00570535497316226
2.57000e-06;-0.005695345193642952
2.57025e-06;-0.005685335414123627
2.57050e-06;-0.005675325634604301
2.57075e-06;-0.005665315855084975
2.57100e-06;-0.005655306075565666
2.57125e-06;-0.005645296296046341
2.57150e-06;-0.005635286516527015
2.57175e-06;-0.005625276737007707
2.57200e-06;-0.005620388305841086
2.57225e-06;-0.0056156852275228
2.57250e-06;-0.005610982149204512
2.57275e-06;-0.005606279070886234
2.57300e-06;-0.005601575992567947
2.57325e-06;-0.00559687291424966
2.57350e-06;-0.0055921698359313815
2.57375e-06;-0.005587466757613095
2.57400e-06;-0.005582763679294807
2.57425e-06;-0.005578060600976529
2.57450e-06;-0.005573357522658242
2.57475e-06;-0.005568654444339955
2.57500e-06;-0.005563951366021668
2.57525e-06;-0.00555924828770339
2.57550e-06;-0.005554545209385102
2.57575e-06;-0.0055498421310668155
2.57600e-06;-0.0055451390527485375
2.57625e-06;-0.00554043597443025
2.57650e-06;-0.005536989181924852
2.57675e-06;-0.005534987375690914
2.57700e-06;-0.00553298556945698
2.57725e-06;-0.005530983763223042
2.57750e-06;-0.005528981956989104
2.57775e-06;-0.0055269801507551695
2.57800e-06;-0.005524978344521232
2.57825e-06;-0.005522976538287294
2.57850e-06;-0.005520974732053359
2.57875e-06;-0.005518972925819421
2.57900e-06;-0.005516971119585483
2.57925e-06;-0.005514969313351545
2.57950e-06;-0.005512967507117611
2.57975e-06;-0.005511352021295713
2.58000e-06;-0.005510180883158134
2.58025e-06;-0.005509009745020558
2.58050e-06;-0.005507838606882979
2.58075e-06;-0.0055066674687454
2.58100e-06;-0.005505496330607821
2.58125e-06;-0.005504325192470244
2.58150e-06;-0.005503154054332665
2.58175e-06;-0.005501982916195086
2.58200e-06;-0.005500811778057509
2.58225e-06;-0.00549964063991993
2.58250e-06;-0.005498469501782351
2.58275e-06;-0.0054972983636447734
2.58300e-06;-0.0054956101912984065
2.58325e-06;-0.005493327323600114
2.58350e-06;-0.005491044455901821
2.58375e-06;-0.005488761588203532
2.58400e-06;-0.005486478720505239
2.58425e-06;-0.0054841958528069465
2.58450e-06;-0.005481912985108658
2.58475e-06;-0.0054796301174103645
2.58500e-06;-0.005477347249712072
2.58525e-06;-0.005475064382013779
2.58550e-06;-0.005469605557333377
2.58575e-06;-0.005464031787792214
2.58600e-06;-0.00545845801825105
2.58625e-06;-0.005452884248709896
2.58650e-06;-0.005447310479168732
2.58675e-06;-0.0054417367096275685
2.58700e-06;-0.0054361629400864146
2.58725e-06;-0.00543058917054525
2.58750e-06;-0.005425015401004087
2.58775e-06;-0.0054182266050616665
2.58800e-06;-0.00541004027963081
2.58825e-06;-0.00540185395419994
2.58850e-06;-0.00539366762876907
2.58875e-06;-0.005385481303338214
2.58900e-06;-0.005377294977907344
2.58925e-06;-0.005369108652476474
2.58950e-06;-0.005360922327045604
2.58975e-06;-0.005352736001614748
2.59000e-06;-0.00534444148943939
2.59025e-06;-0.005336022540325438
2.59050e-06;-0.005327603591211501
2.59075e-06;-0.005319184642097549
2.59100e-06;-0.005310765692983597
2.59125e-06;-0.00530234674386966
2.59150e-06;-0.005293927794755708
2.59175e-06;-0.005285508845641756
2.59200e-06;-0.005277089896527805
2.59225e-06;-0.005269140366233137
2.59250e-06;-0.005261899035605339
2.59275e-06;-0.005255042046660956
2.59300e-06;-0.005248652045600621
2.59325e-06;-0.00524317740063165
2.59350e-06;-0.0052397556706938265
2.59375e-06;-0.005239580428892864
2.59400e-06;-0.00524391812523928
2.59425e-06;-0.005251171731111679
2.59450e-06;-0.005261542587874041
2.59475e-06;-0.00527549892231593
2.59500e-06;-0.005292401420514056
2.59525e-06;-0.005312692611108491
2.59550e-06;-0.005337712447951219
2.59575e-06;-0.005368171197533589
2.59600e-06;-0.00539862994711596
2.59625e-06;-0.005436443271226647
2.59650e-06;-0.005482715864014968
2.59675e-06;-0.005528988456803368
2.59700e-06;-0.005575261049591768
2.59725e-06;-0.00562153364238009
2.59750e-06;-0.00566780623516849
2.59775e-06;-0.005729884107635471
2.59800e-06;-0.005792534007898468
2.59825e-06;-0.005855183908161358
2.59850e-06;-0.005917833808424354
2.59875e-06;-0.00598048370868735
2.59900e-06;-0.006046743120902739
2.59925e-06;-0.0061171542119522505
2.59950e-06;-0.0061875653030017625
2.59975e-06;-0.0062591814394197115
2.60000e-06;-0.006332183625092233
2.60025e-06;-0.006405185810764755
2.60050e-06;-0.006477988322592585
2.60075e-06;-0.006550561168558087
2.60100e-06;-0.006622040897678727
2.60125e-06;-0.0066922633182966654
2.60150e-06;-0.006760832365848019
2.60175e-06;-0.006827499695368006
2.60200e-06;-0.0068910319433981085
2.60225e-06;-0.006950958204902599
2.60250e-06;-0.00701088446640699
2.60275e-06;-0.00706077830832883
2.60300e-06;-0.007099132810698797
2.60325e-06;-0.0071374873130687
2.60350e-06;-0.007175841815438667
2.60375e-06;-0.007214196317808634
2.60400e-06;-0.007252550820178537
2.60425e-06;-0.007290905322548504
2.60450e-06;-0.0073292598249184715
2.60475e-06;-0.007367614327288439
2.60500e-06;-0.0073933296774178914
2.60525e-06;-0.007404507410958429
2.60550e-06;-0.007415685144498966
2.60575e-06;-0.007426862878039484
2.60600e-06;-0.007438040611580021
2.60625e-06;-0.0074492183451205585
2.60650e-06;-0.007460396078661095
2.60675e-06;-0.007471573812201614
2.60700e-06;-0.00748275154574215
2.60725e-06;-0.007484933484669114
2.60750e-06;-0.007476768415306429
2.60775e-06;-0.00746860334594373
2.60800e-06;-0.007460438276581031
2.60825e-06;-0.007452273207218346
2.60850e-06;-0.007444108137855647
2.60875e-06;-0.007435943068492948
2.60900e-06;-0.007427777999130249
2.60925e-06;-0.007419612929767564
2.60950e-06;-0.007402820608143265
2.60975e-06;-0.007385716047305237
2.61000e-06;-0.007368611486467238
2.61025e-06;-0.00735150692562921
2.61050e-06;-0.007334402364791182
2.61075e-06;-0.007317297803953154
2.61100e-06;-0.007300193243115156
2.61125e-06;-0.007283088682277128
2.61150e-06;-0.007265918667552793
2.61175e-06;-0.007248673367438667
2.61200e-06;-0.007231428067324512
2.61225e-06;-0.007214182767210357
2.61250e-06;-0.007198391707732941
2.61275e-06;-0.007184273323163058
2.61300e-06;-0.007170154938593174
2.61325e-06;-0.007156036554023291
2.61350e-06;-0.007140634958199527
2.61375e-06;-0.007123757406326005
2.61400e-06;-0.007106879854452481
2.61425e-06;-0.007090002302578987
2.61450e-06;-0.007073124750705464
2.61475e-06;-0.00705624719883194
2.61500e-06;-0.007039369646958418
2.61525e-06;-0.007022492095084923
2.61550e-06;-0.006997501915304365
2.61575e-06;-0.006972218121696014
2.61600e-06;-0.006946934328087706
2.61625e-06;-0.006921650534479356
2.61650e-06;-0.006896366740871006
2.61675e-06;-0.006871082947262698
2.61700e-06;-0.0068457991536543476
2.61725e-06;-0.006816904754056859
2.61750e-06;-0.006783857417258416
2.61775e-06;-0.006750810080460028
2.61800e-06;-0.006717762743661585
2.61825e-06;-0.006684715406863141
2.61850e-06;-0.006651668070064754
2.61875e-06;-0.00661862073326631
2.61900e-06;-0.006581977532002723
2.61925e-06;-0.00654520418850389
2.61950e-06;-0.006508430845004996
2.61975e-06;-0.0064716575015061
2.62000e-06;-0.0064348841580072055
2.62025e-06;-0.0063981108145083725
2.62050e-06;-0.006361576304427899
2.62075e-06;-0.006325316501748678
2.62100e-06;-0.00628905669906952
2.62125e-06;-0.006253926576793527
2.62150e-06;-0.006220095818609332
2.62175e-06;-0.006186265060425138
2.62200e-06;-0.006153765533394164
2.62225e-06;-0.00612279719514305
2.62250e-06;-0.006093363118662652
2.62275e-06;-0.0060656937578015165
2.62300e-06;-0.006040011714766422
2.62325e-06;-0.006016615494708219
2.62350e-06;-0.005995800308143352
2.62375e-06;-0.005977953839307283
2.62400e-06;-0.005963660424325508
2.62425e-06;-0.005953453749789433
2.62450e-06;-0.005943247075253375
2.62475e-06;-0.005937364501691974
2.62500e-06;-0.0059364555308591485
2.62525e-06;-0.005935546560026325
2.62550e-06;-0.005941268984247513
2.62575e-06;-0.005954618872472913
2.62600e-06;-0.005967968760698314
2.62625e-06;-0.005981318648923691
2.62650e-06;-0.005994668537149092
2.62675e-06;-0.006008018425374492
2.62700e-06;-0.00602890314978404
2.62725e-06;-0.006058454480737885
2.62750e-06;-0.006088005811691729
2.62775e-06;-0.006117557142645524
2.62800e-06;-0.006147108473599369
2.62825e-06;-0.006176659804553213
2.62850e-06;-0.006211375925037527
2.62875e-06;-0.006252032612463174
2.62900e-06;-0.0062926892998888895
2.62925e-06;-0.006333345987314605
2.62950e-06;-0.006374002674740252
2.62975e-06;-0.006414659362165967
2.63000e-06;-0.006455316049591683
2.63025e-06;-0.006496762027244429
2.63050e-06;-0.006539115850493186
2.63075e-06;-0.006581469673742016
2.63100e-06;-0.006623823496990844
2.63125e-06;-0.006666177320239602
2.63150e-06;-0.006708531143488431
2.63175e-06;-0.00675088496673726
2.63200e-06;-0.0067904418814493704
2.63225e-06;-0.0068267817778700085
2.63250e-06;-0.0068631216742906466
2.63275e-06;-0.006896730059947903
2.63300e-06;-0.006927196648161891
2.63325e-06;-0.006953428974193737
2.63350e-06;-0.006974791030528551
2.63375e-06;-0.006996153086863328
2.63400e-06;-0.007011075120292633
2.63425e-06;-0.0070185898069267845
2.63450e-06;-0.007026104493560936
2.63475e-06;-0.007027143279523518
2.63500e-06;-0.007020733451903723
2.63525e-06;-0.007014323624283929
2.63550e-06;-0.006998765832594036
2.63575e-06;-0.00697268600653707
2.63600e-06;-0.006946606180480104
2.63625e-06;-0.006920526354423182
2.63650e-06;-0.0068944465283662165
2.63675e-06;-0.006858250471688701
2.63700e-06;-0.0068104186755790245
2.63725e-06;-0.006762586879469429
2.63750e-06;-0.0067147550833597525
2.63775e-06;-0.006666923287250076
2.63800e-06;-0.006612500016417887
2.63825e-06;-0.006550495198147283
2.63850e-06;-0.00648849037987668
2.63875e-06;-0.006423576394540583
2.63900e-06;-0.006355316270587475
2.63925e-06;-0.006285408837415755
2.63950e-06;-0.006213606660880625
2.63975e-06;-0.006140881913219506
2.64000e-06;-0.0060667230929621445
2.64025e-06;-0.005991964026906632
2.64050e-06;-0.005917038029145588
2.64075e-06;-0.0058423783812419465
2.64100e-06;-0.005768416015062412
2.64125e-06;-0.005695558732692762
2.64150e-06;-0.005624176660434964
2.64175e-06;-0.005554648573426912
2.64200e-06;-0.0054874120604973195
2.64225e-06;-0.005424218524977324
2.64250e-06;-0.005364110034689087
2.64275e-06;-0.00530400154440085
2.64300e-06;-0.005253445968276896
2.64325e-06;-0.005203236133105265
2.64350e-06;-0.005155711817299004
2.64375e-06;-0.005111276399398521
2.64400e-06;-0.005066840981498114
2.64425e-06;-0.0050243021041785985
2.64450e-06;-0.004983944637391499
2.64475e-06;-0.004943587170604467
2.64500e-06;-0.004906207190890662
2.64525e-06;-0.0048722519318113834
2.64550e-06;-0.004838296672732106
2.64575e-06;-0.0048043414136528855
2.64600e-06;-0.004770386154573608
2.64625e-06;-0.00473643089549433
2.64650e-06;-0.004706493650880585
2.64675e-06;-0.004676701827038271
2.64700e-06;-0.004646910003195958
2.64725e-06;-0.004617118179353645
2.64750e-06;-0.004587326355511382
2.64775e-06;-0.004558672347515887
2.64800e-06;-0.004531327061040605
2.64825e-06;-0.004503981774565369
2.64850e-06;-0.0044766364880900866
2.64875e-06;-0.004449291201614804
2.64900e-06;-0.004424404514200458
2.64925e-06;-0.004399606808887883
2.64950e-06;-0.004374809103575309
2.64975e-06;-0.004350011398262734
2.65000e-06;-0.004325821196652196
2.65025e-06;-0.004302329748860739
2.65050e-06;-0.004279227145307981
2.65075e-06;-0.004256924578358948
2.65100e-06;-0.004235444027482567
2.65125e-06;-0.004214845916772853
2.65150e-06;-0.004195023974722058
2.65175e-06;-0.004175834469310421
2.65200e-06;-0.004157277739228282
2.65225e-06;-0.004139464155563721
2.65250e-06;-0.004122522208302757
2.65275e-06;-0.004106580669055928
2.65300e-06;-0.004091800978369347
2.65325e-06;-0.004078708804223987
2.65350e-06;-0.004068508177033611
2.65375e-06;-0.004062435208615772
2.65400e-06;-0.004060959269816415
2.65425e-06;-0.004064010832701046
2.65450e-06;-0.004071433435077141
2.65475e-06;-0.004083070614752161
2.65500e-06;-0.0040987860501708025
2.65525e-06;-0.004119853149404279
2.65550e-06;-0.004144603745316616
2.65575e-06;-0.0041742409362732075
2.65600e-06;-0.004209498713472297
2.65625e-06;-0.004251637189275987
2.65650e-06;-0.004301689879285254
2.65675e-06;-0.004351742569294436
2.65700e-06;-0.004401795259303702
2.65725e-06;-0.004451847949312969
2.65750e-06;-0.0045188240178288
2.65775e-06;-0.004586412580595524
2.65800e-06;-0.004654001143362247
2.65825e-06;-0.004721589706128971
2.65850e-06;-0.004793817798237182
2.65875e-06;-0.004871382300372101
2.65900e-06;-0.004950691241572829
2.65925e-06;-0.005032006645376874
2.65950e-06;-0.005114657178521922
2.65975e-06;-0.005198843384162357
2.66000e-06;-0.005283703976301974
2.66025e-06;-0.00536934025119094
2.66050e-06;-0.005454697480799322
2.66075e-06;-0.005539733751119737
2.66100e-06;-0.005623563965430402
2.66125e-06;-0.005706006968041801
2.66150e-06;-0.005786546463866266
2.66175e-06;-0.00586489653659274
2.66200e-06;-0.0059395829985265484
2.66225e-06;-0.006010055556865985
2.66250e-06;-0.006080528115205422
2.66275e-06;-0.006144708132080407
2.66300e-06;-0.006201650436055831
2.66325e-06;-0.006258592740031254
2.66350e-06;-0.006308983691744067
2.66375e-06;-0.006351839245073058
2.66400e-06;-0.006394694798402049
2.66425e-06;-0.0064375503517310395
2.66450e-06;-0.006480405905059958
2.66475e-06;-0.006515635996556945
2.66500e-06;-0.006542095243430801
2.66525e-06;-0.006568554490304612
2.66550e-06;-0.006595013737178468
2.66575e-06;-0.006621472984052323
2.66600e-06;-0.006639787299467986
2.66625e-06;-0.006648733273678888
2.66650e-06;-0.006657679247889789
2.66675e-06;-0.006666625222100691
2.66700e-06;-0.006675571196311577
2.66725e-06;-0.006684517170522479
2.66750e-06;-0.00669346314473338
2.66775e-06;-0.006702409118944266
2.66800e-06;-0.006711355093155168
2.66825e-06;-0.0067133384707225045
2.66850e-06;-0.0067073134345464564
2.66875e-06;-0.006701288398370419
2.66900e-06;-0.006695263362194371
2.66925e-06;-0.006689238326018323
2.66950e-06;-0.006683213289842285
2.66975e-06;-0.006677188253666237
2.67000e-06;-0.006671163217490189
2.67025e-06;-0.006665138181314151
2.67050e-06;-0.006656847612201221
2.67075e-06;-0.006645951215688434
2.67100e-06;-0.006635054819175648
2.67125e-06;-0.006624158422662879
2.67150e-06;-0.006613262026150093
2.67175e-06;-0.0066023656296373065
2.67200e-06;-0.006592129398456883
2.67225e-06;-0.00658265249276824
2.67250e-06;-0.006573175587079596
2.67275e-06;-0.006563698681390953
2.67300e-06;-0.006554221775702326
2.67325e-06;-0.0065447448700136825
2.67350e-06;-0.0065356858645009746
2.67375e-06;-0.00652710752987642
2.67400e-06;-0.0065185291952518515
2.67425e-06;-0.006509950860627283
2.67450e-06;-0.006501372526002729
2.67475e-06;-0.00649279419137816
2.67500e-06;-0.0064842158567535915
2.67525e-06;-0.006475637522129023
2.67550e-06;-0.006467059187504469
2.67575e-06;-0.0064584808528799
2.67600e-06;-0.006449902518255331
2.67625e-06;-0.006441324183630777
2.67650e-06;-0.006431953813031904
2.67675e-06;-0.006421672438664329
2.67700e-06;-0.0064113910642967535
2.67725e-06;-0.0064011096899291966
2.67750e-06;-0.006390828315561621
2.67775e-06;-0.006380546941194046
2.67800e-06;-0.006370265566826489
2.67825e-06;-0.006359984192458914
2.67850e-06;-0.006349702818091339
2.67875e-06;-0.006339421443723782
2.67900e-06;-0.006329140069356207
2.67925e-06;-0.006318858694988632
2.67950e-06;-0.0063083906443453745
2.67975e-06;-0.006297707877709181
2.68000e-06;-0.006287025111072969
2.68025e-06;-0.006276342344436758
2.68050e-06;-0.006265659577800565
2.68075e-06;-0.006254976811164353
2.68100e-06;-0.006244294044528142
2.68125e-06;-0.00623361127789193
2.68150e-06;-0.006224726457315708
2.68175e-06;-0.006215906708357755
2.68200e-06;-0.006207086959399802
2.68225e-06;-0.006198267210441864
2.68250e-06;-0.006189447461483912
2.68275e-06;-0.0061806277125259585
2.68300e-06;-0.00617180796356802
2.68325e-06;-0.006163238341111974
2.68350e-06;-0.0061549564154188205
2.68375e-06;-0.006146674489725666
2.68400e-06;-0.006138392564032526
2.68425e-06;-0.006130110638339371
2.68450e-06;-0.0061218287126462165
2.68475e-06;-0.006113546786953077
2.68500e-06;-0.006105264861259922
2.68525e-06;-0.006096982935566768
2.68550e-06;-0.006088701009873613
2.68575e-06;-0.006078822126555401
2.68600e-06;-0.00606710641452964
2.68625e-06;-0.006055390702503878
2.68650e-06;-0.006043674990478136
2.68675e-06;-0.006031959278452375
2.68700e-06;-0.006020243566426613
2.68725e-06;-0.006008527854400871
2.68750e-06;-0.00599681214237511
2.68775e-06;-0.005985096430349348
2.68800e-06;-0.005973380718323586
2.68825e-06;-0.00596049414707464
2.68850e-06;-0.005946260847647078
2.68875e-06;-0.005932027548219515
2.68900e-06;-0.005917794248791977
2.68925e-06;-0.005903560949364415
2.68950e-06;-0.005889327649936852
2.68975e-06;-0.00587509435050929
2.69000e-06;-0.005860861051081752
2.69025e-06;-0.0058466277516541895
2.69050e-06;-0.005832964213288704
2.69075e-06;-0.005819956016967927
2.69100e-06;-0.005806947820647129
2.69125e-06;-0.00579393962432633
2.69150e-06;-0.005780931428005553
2.69175e-06;-0.005767923231684755
2.69200e-06;-0.005754915035363956
2.69225e-06;-0.005741906839043158
2.69250e-06;-0.005728898642722381
2.69275e-06;-0.005717430134353167
2.69300e-06;-0.005707732582824554
2.69325e-06;-0.005698035031295958
2.69350e-06;-0.00569145074223253
2.69375e-06;-0.005688447343344716
2.69400e-06;-0.005685443944456906
2.69425e-06;-0.005682440545569092
2.69450e-06;-0.005679437146681277
2.69475e-06;-0.005676433747793463
2.69500e-06;-0.005673430348905654
2.69525e-06;-0.00567042695001784
2.69550e-06;-0.005672356437154342
2.69575e-06;-0.005679959754653493
2.69600e-06;-0.005687563072152657
2.69625e-06;-0.005695166389651821
2.69650e-06;-0.005702769707150985
