Time(s);Current(A)
2.25000e-06;-0.0059030525098108045
2.25025e-06;-0.005919061323986729
2.25050e-06;-0.005935070138162652
2.25075e-06;-0.005949532692318095
2.25100e-06;-0.005959784535999033
2.25125e-06;-0.005970036379679971
2.25150e-06;-0.0059785119150028605
2.25175e-06;-0.005982150281861029
2.25200e-06;-0.005985788648719198
2.25225e-06;-0.005986825700926157
2.25250e-06;-0.005980778962111942
2.25275e-06;-0.005974732223297717
2.25300e-06;-0.005968685484483492
2.25325e-06;-0.005962638745669277
2.25350e-06;-0.005956592006855053
2.25375e-06;-0.005941440300385941
2.25400e-06;-0.005923547223088319
2.25425e-06;-0.005905654145790667
2.25450e-06;-0.005887761068493013
2.25475e-06;-0.005869867991195361
2.25500e-06;-0.005849559792937968
2.25525e-06;-0.005822674838515255
2.25550e-06;-0.005795789884092543
2.25575e-06;-0.005768904929669876
2.25600e-06;-0.0057420199752471635
2.25625e-06;-0.005713751854152448
2.25650e-06;-0.005681717151553399
2.25675e-06;-0.0056496824489544045
2.25700e-06;-0.005617647746355356
2.25725e-06;-0.005585613043756307
2.25750e-06;-0.005553186491877692
2.25775e-06;-0.005519692872465508
2.25800e-06;-0.005486228269661327
2.25825e-06;-0.005452929733491862
2.25850e-06;-0.005420003700282174
2.25875e-06;-0.005387628129661953
2.25900e-06;-0.00535597872786539
2.25925e-06;-0.005325246887342495
2.25950e-06;-0.005295640216009416
2.25975e-06;-0.005267372452397082
2.26000e-06;-0.005240656709678478
2.26025e-06;-0.0052157050234358845
2.26050e-06;-0.005192732758130842
2.26075e-06;-0.005171953202168476
2.26100e-06;-0.005153539920690311
2.26125e-06;-0.005137927531276409
2.26150e-06;-0.005125063871045176
2.26175e-06;-0.005113573872045354
2.26200e-06;-0.005105824569732616
2.26225e-06;-0.005099482885586935
2.26250e-06;-0.005096974368232211
2.26275e-06;-0.005096244285452403
2.26300e-06;-0.005100357161162336
2.26325e-06;-0.00510447003687227
2.26350e-06;-0.0051113467255441344
2.26375e-06;-0.005125749713826253
2.26400e-06;-0.005140152702108373
2.26425e-06;-0.005154555690390468
2.26450e-06;-0.005168958678672586
2.26475e-06;-0.005183361666954706
2.26500e-06;-0.005206041762497295
2.26525e-06;-0.005231213972372407
2.26550e-06;-0.005256386182247561
2.26575e-06;-0.005281558392122714
2.26600e-06;-0.005306730601997826
2.26625e-06;-0.005333402098037592
2.26650e-06;-0.005364156387316974
2.26675e-06;-0.005394910676596303
2.26700e-06;-0.0054262139884486285
2.26725e-06;-0.005459012375558862
2.26750e-06;-0.005491810762669095
2.26775e-06;-0.005524688445164932
2.26800e-06;-0.005557782061531318
2.26825e-06;-0.0055908756778977045
2.26850e-06;-0.0056235664803753775
2.26875e-06;-0.005655160356955775
2.26900e-06;-0.005686754233536172
2.26925e-06;-0.005717430293126424
2.26950e-06;-0.00574560699196008
2.26975e-06;-0.005773783690793784
2.27000e-06;-0.0057993868916553105
2.27025e-06;-0.005817982050709088
2.27050e-06;-0.005836577209762897
2.27075e-06;-0.005855172368816706
2.27100e-06;-0.005873767527870483
2.27125e-06;-0.005892362686924292
2.27150e-06;-0.005910957845978101
2.27175e-06;-0.0059295530050319095
2.27200e-06;-0.005937549438331711
2.27225e-06;-0.005942354752375869
2.27250e-06;-0.0059471600664200265
2.27275e-06;-0.005951965380464177
2.27300e-06;-0.005956770694508335
2.27325e-06;-0.0059615760085524935
2.27350e-06;-0.005966381322596651
2.27375e-06;-0.005968079888218346
2.27400e-06;-0.005961318286757513
2.27425e-06;-0.00595455668529668
2.27450e-06;-0.005947795083835858
2.27475e-06;-0.005941033482375025
2.27500e-06;-0.005934271880914192
2.27525e-06;-0.005927510279453371
2.27550e-06;-0.005918725055462445
2.27575e-06;-0.005904429187419053
2.27600e-06;-0.00589013331937566
2.27625e-06;-0.005875837451332293
2.27650e-06;-0.0058615415832889
2.27675e-06;-0.005847245715245509
2.27700e-06;-0.0058329498472021405
2.27725e-06;-0.005817945674942903
2.27750e-06;-0.0058010126783321035
2.27775e-06;-0.005784079681721303
2.27800e-06;-0.005767077979119175
2.27825e-06;-0.005749889179241214
2.27850e-06;-0.005732700379363253
2.27875e-06;-0.005715728495306328
2.27900e-06;-0.005699347307320988
2.27925e-06;-0.005682966119335647
2.27950e-06;-0.005667110773989264
2.27975e-06;-0.005652687381276194
2.28000e-06;-0.005638263988563124
2.28025e-06;-0.005624617498853024
2.28050e-06;-0.0056130866388363005
2.28075e-06;-0.005601555778819557
2.28100e-06;-0.005591638400631574
2.28125e-06;-0.005586114788529708
2.28150e-06;-0.005580591176427834
2.28175e-06;-0.00557506756432596
2.28200e-06;-0.005569543952224085
2.28225e-06;-0.00556402034012222
2.28250e-06;-0.005558496728020345
2.28275e-06;-0.00555297311591847
2.28300e-06;-0.0055540824342620795
2.28325e-06;-0.0055571888296656255
2.28350e-06;-0.0055602952250691715
2.28375e-06;-0.005563401620472712
2.28400e-06;-0.005566508015876258
2.28425e-06;-0.005569614411279804
2.28450e-06;-0.00557272080668335
2.28475e-06;-0.005577680552457239
2.28500e-06;-0.0055876872642755164
2.28525e-06;-0.005597693976093794
2.28550e-06;-0.005607700687912056
2.28575e-06;-0.0056177073997303335
2.28600e-06;-0.005627714111548611
2.28625e-06;-0.005637720823366889
2.28650e-06;-0.00564772753518515
2.28675e-06;-0.005658540520983871
2.28700e-06;-0.005671549118290778
2.28725e-06;-0.005684557715597663
2.28750e-06;-0.005697566312904571
2.28775e-06;-0.005710574910211478
2.28800e-06;-0.005723583507518363
2.28825e-06;-0.00573659210482527
2.28850e-06;-0.005749600702132178
2.28875e-06;-0.00576198564560845
2.28900e-06;-0.00577267228111384
2.28925e-06;-0.005783358916619248
2.28950e-06;-0.005794045552124656
2.28975e-06;-0.005804732187630046
2.29000e-06;-0.005815418823135454
2.29025e-06;-0.005826105458640862
2.29050e-06;-0.00583679209414627
2.29075e-06;-0.00584719290888966
2.29100e-06;-0.005856815388514267
2.29125e-06;-0.005866437868138874
2.29150e-06;-0.0058760603477634645
2.29175e-06;-0.005885682827388072
2.29200e-06;-0.005895305307012678
2.29225e-06;-0.005904927786637269
2.29250e-06;-0.0059145502662618765
2.29275e-06;-0.005924172745886484
2.29300e-06;-0.005936662653964351
2.29325e-06;-0.005950015902255485
2.29350e-06;-0.0059633691505466425
2.29375e-06;-0.0059767223988378
2.29400e-06;-0.005990075647128935
2.29425e-06;-0.006003428895420091
2.29450e-06;-0.006016782143711249
2.29475e-06;-0.006030135392002406
2.29500e-06;-0.00604386552231245
2.29525e-06;-0.006058621961939309
2.29550e-06;-0.006073378401566167
2.29575e-06;-0.006088134841193002
2.29600e-06;-0.006102425536113833
2.29625e-06;-0.013085839702513006
2.29650e-06;-0.02805219437914377
2.29675e-06;-0.023452339043850853
2.29700e-06;-0.01977496056069033
2.29725e-06;-0.012252244430431335
2.29750e-06;-2.228358424954183e-05
2.29775e-06;-0.0017728857183076565
2.29800e-06;-0.002821831792898158
2.29825e-06;-0.00926033000491657
2.29850e-06;-0.014693074375148047
2.29875e-06;-0.01414253351763588
2.29900e-06;-0.01075821638665328
2.29925e-06;-0.006130857918608127
2.29950e-06;-0.0021847087648443385
2.29975e-06;-0.0019229255144443728
2.30000e-06;-0.003920705587445324
2.30025e-06;-0.007568936565035072
2.30050e-06;-0.010746717083770074
2.30075e-06;-0.010486149792965797
2.30100e-06;-0.008433932846257137
2.30125e-06;-0.005590073588493635
2.30150e-06;-0.0031626342206158434
2.30175e-06;-0.0030347797786231564
2.30200e-06;-0.004315519816357709
2.30225e-06;-0.006624520134104704
2.30250e-06;-0.00863426787012792
2.30275e-06;-0.008486622847465392
2.30300e-06;-0.007213886961751546
2.30325e-06;-0.005443068147465516
2.30350e-06;-0.003931330337030725
2.30375e-06;-0.003858549649568143
2.30400e-06;-0.004666780720320568
2.30425e-06;-0.0061179374623949725
2.30450e-06;-0.007380630874269342
2.30475e-06;-0.007291146876392913
2.30500e-06;-0.006496339572356936
2.30525e-06;-0.0053891194053468355
2.30550e-06;-0.004443871415400812
2.30575e-06;-0.004399699214655142
2.30600e-06;-0.004907109684708186
2.30625e-06;-0.005816984733398161
2.30650e-06;-0.0066085861135890935
2.30675e-06;-0.006553060662208099
2.30700e-06;-0.0060557035098908404
2.30725e-06;-0.005362706399943531
2.30750e-06;-0.004771270445264565
2.30775e-06;-0.004744378949768248
2.30800e-06;-0.005063107488097851
2.30825e-06;-0.005634059255431427
2.30850e-06;-0.006131072864764072
2.30875e-06;-0.006097659463070648
2.30900e-06;-0.005787767930334466
2.30925e-06;-0.005355665696086873
2.30950e-06;-0.004987556527099322
2.30975e-06;-0.004973467633086707
2.31000e-06;-0.00517627328695868
2.31025e-06;-0.005537485559216239
2.31050e-06;-0.005852663688528398
2.31075e-06;-0.005835159606045551
2.31100e-06;-0.005642865598405613
2.31125e-06;-0.005371629612710201
2.31150e-06;-0.005137992158246537
2.31175e-06;-0.0051237531915574435
2.31200e-06;-0.005243140409754258
2.31225e-06;-0.005459645645556285
2.31250e-06;-0.0056453435662602025
2.31275e-06;-0.005620828004196215
2.31300e-06;-0.00548515633434824
2.31325e-06;-0.005298514283212046
2.31350e-06;-0.005134042852185528
2.31375e-06;-0.0051057525151832085
2.31400e-06;-0.005160044689403556
2.31425e-06;-0.0052741832582452715
2.31450e-06;-0.005368172596019794
2.31475e-06;-0.005329779046859583
2.31500e-06;-0.005221200224148735
2.31525e-06;-0.005080279373894179
2.31550e-06;-0.004952971660801121
2.31575e-06;-0.0049108276774663265
2.31600e-06;-0.004920405263907844
2.31625e-06;-0.004967597140153804
2.31650e-06;-0.005002432133972789
2.31675e-06;-0.004954750358315747
2.31700e-06;-0.004863655977067506
2.31725e-06;-0.0047529956410745705
2.31750e-06;-0.004651694936453798
2.31775e-06;-0.004604708610723626
2.31800e-06;-0.004591223356228816
2.31825e-06;-0.004602537983948149
2.31850e-06;-0.004607488175852564
2.31875e-06;-0.004562267231034054
2.31900e-06;-0.004491511955340072
2.31925e-06;-0.004410299747825554
2.31950e-06;-0.004336888237547981
2.31975e-06;-0.004299573880454894
2.32000e-06;-0.004285454683250915
2.32025e-06;-0.004289216489174235
2.32050e-06;-0.004291475033066013
2.32075e-06;-0.004264908107396905
2.32100e-06;-0.004224989495670284
2.32125e-06;-0.00418109712409992
2.32150e-06;-0.004144538592100498
2.32175e-06;-0.004132896417484149
2.32200e-06;-0.004137946551871851
2.32225e-06;-0.004156218854173002
2.32250e-06;-0.004175429558449686
2.32275e-06;-0.00417832435089655
2.32300e-06;-0.004174456364901907
2.32325e-06;-0.004172673250159204
2.32350e-06;-0.004176958730986301
2.32375e-06;-0.004188379980577305
2.32400e-06;-0.0042176754623059216
2.32425e-06;-0.004254235225987687
2.32450e-06;-0.004292041101750953
2.32475e-06;-0.004326168395959865
2.32500e-06;-0.00435261210792043
2.32525e-06;-0.004380710595409544
2.32550e-06;-0.0044128028071775205
2.32575e-06;-0.004449366039568831
2.32600e-06;-0.00449706698330966
2.32625e-06;-0.004549008932473209
2.32650e-06;-0.004601354150610116
2.32675e-06;-0.004651118750457465
2.32700e-06;-0.004695258296428775
2.32725e-06;-0.004739470236105666
2.32750e-06;-0.004785239385543213
2.32775e-06;-0.004833255687581201
2.32800e-06;-0.004886905858489194
2.32825e-06;-0.004942662511216917
2.32850e-06;-0.004996521356351841
2.32875e-06;-0.005045103074709723
2.32900e-06;-0.005089590692598687
2.32925e-06;-0.0051315139454643595
2.32950e-06;-0.0051736351554114955
2.32975e-06;-0.005216150228647193
2.33000e-06;-0.0052572709423016105
2.33025e-06;-0.005295583535155713
2.33050e-06;-0.005333896128009751
2.33075e-06;-0.005369313849842781
2.33100e-06;-0.005397858286249452
2.33125e-06;-0.0054244771928566825
2.33150e-06;-0.005451096099463868
2.33175e-06;-0.005477691848731578
2.33200e-06;-0.005503296124915162
2.33225e-06;-0.005526965377708116
2.33250e-06;-0.00555063463050111
2.33275e-06;-0.005572413582750977
2.33300e-06;-0.005589676704272508
2.33325e-06;-0.00560562571977812
2.33350e-06;-0.005621574735283732
2.33375e-06;-0.005637523750789344
2.33400e-06;-0.00565242408235762
2.33425e-06;-0.005665174819726681
2.33450e-06;-0.005677925557095741
2.33475e-06;-0.00569067629446478
2.33500e-06;-0.005702090929686418
2.33525e-06;-0.005710766820350676
2.33550e-06;-0.005719442711014934
2.33575e-06;-0.005728118601679177
2.33600e-06;-0.005736794492343435
2.33625e-06;-0.005743326911830762
2.33650e-06;-0.005749413725737581
2.33675e-06;-0.005755500539644411
2.33700e-06;-0.005761587353551241
2.33725e-06;-0.005766606442334734
2.33750e-06;-0.005769436906261974
2.33775e-06;-0.005772267370189214
2.33800e-06;-0.005775097834116454
2.33825e-06;-0.0057779282980436894
2.33850e-06;-0.0057807587619709295
2.33875e-06;-0.0057835892258981695
2.33900e-06;-0.005786419689825404
2.33925e-06;-0.005789250153752644
2.33950e-06;-0.0057920806176798845
2.33975e-06;-0.0057949110816071245
2.34000e-06;-0.00579774154553436
2.34025e-06;-0.0058005720094616
2.34050e-06;-0.00580340247338884
2.34075e-06;-0.005806232937316075
2.34100e-06;-0.005809063401243315
2.34125e-06;-0.0058119338783812445
2.34150e-06;-0.005814886374669584
2.34175e-06;-0.0058178388709579296
2.34200e-06;-0.005820791367246274
2.34225e-06;-0.005823743863534619
2.34250e-06;-0.005826696359822959
2.34275e-06;-0.005829648856111304
2.34300e-06;-0.005832601352399648
2.34325e-06;-0.005835553848687988
2.34350e-06;-0.005838506344976333
2.34375e-06;-0.0058414588412646785
2.34400e-06;-0.005844411337553024
2.34425e-06;-0.0058473638338413635
2.34450e-06;-0.005850316330129708
2.34475e-06;-0.005853268826418053
2.34500e-06;-0.005856221322706393
2.34525e-06;-0.005859663825251943
2.34550e-06;-0.005864110743494799
2.34575e-06;-0.005868557661737648
2.34600e-06;-0.005873004579980505
2.34625e-06;-0.0058774514982233616
2.34650e-06;-0.005881898416466218
2.34675e-06;-0.005886345334709067
2.34700e-06;-0.005890792252951923
2.34725e-06;-0.00589523917119478
2.34750e-06;-0.005899686089437629
2.34775e-06;-0.005903791521312564
2.34800e-06;-0.00590782596168882
2.34825e-06;-0.005911860402065076
2.34850e-06;-0.005915894842441326
2.34875e-06;-0.005919929282817582
2.34900e-06;-0.005923963723193838
2.34925e-06;-0.0059279981635700875
2.34950e-06;-0.005932032603946344
2.34975e-06;-0.0059360670443226
2.35000e-06;-0.005939676474524183
2.35025e-06;-0.005942414718113982
2.35050e-06;-0.005945152961703782
2.35075e-06;-0.005946662848394069
2.35100e-06;-0.005945654846927477
2.35125e-06;-0.005944646845460883
2.35150e-06;-0.005941789208757399
2.35175e-06;-0.005935140186456368
2.35200e-06;-0.005928491164155327
2.35225e-06;-0.005919210246598931
2.35250e-06;-0.005904534465468138
2.35275e-06;-0.00588985868433737
2.35300e-06;-0.005875182903206577
2.35325e-06;-0.0058605071220757836
2.35350e-06;-0.005845831340945015
2.35375e-06;-0.005822120527399926
2.35400e-06;-0.005796531423674106
2.35425e-06;-0.00577094231994833
2.35450e-06;-0.00574535321622251
2.35475e-06;-0.005719764112496691
2.35500e-06;-0.005691398446076053
2.35525e-06;-0.005657341376506284
2.35550e-06;-0.005623284306936458
2.35575e-06;-0.005589227237366632
2.35600e-06;-0.005555170167796864
2.35625e-06;-0.00551961549526707
2.35650e-06;-0.005480991033526814
2.35675e-06;-0.00544236657178656
2.35700e-06;-0.005403742110046369
2.35725e-06;-0.005365117648306114
2.35750e-06;-0.00532612214491248
2.35775e-06;-0.005286366079678005
2.35800e-06;-0.005246819651985164
2.35825e-06;-0.005207702939698096
2.35850e-06;-0.005168919769443025
2.35875e-06;-0.005131106427343065
2.35900e-06;-0.00509421428856563
2.35925e-06;-0.005058416473863913
2.35950e-06;-0.00502475369002501
2.35975e-06;-0.004993751824161218
2.36000e-06;-0.004962749958297425
2.36025e-06;-0.0049317480924336845
2.36050e-06;-0.004905774021294358
2.36075e-06;-0.004880845176893537
2.36100e-06;-0.004855916332492717
2.36125e-06;-0.004831579494388805
2.36150e-06;-0.004808456151844965
2.36175e-06;-0.004785332809301124
2.36200e-06;-0.0047631376180146965
2.36225e-06;-0.0047428449528261855
2.36250e-06;-0.004722552287637674
2.36275e-06;-0.0047022596224491975
2.36300e-06;-0.004681966957260686
2.36325e-06;-0.004661674292072175
2.36350e-06;-0.004641823015953909
2.36375e-06;-0.004622876499936822
2.36400e-06;-0.004603929983919703
2.36425e-06;-0.004584983467902584
2.36450e-06;-0.0045660369518854965
2.36475e-06;-0.004547090435868378
2.36500e-06;-0.0045283113282145755
2.36525e-06;-0.004509875374521622
2.36550e-06;-0.0044914394208287
2.36575e-06;-0.0044730034671357465
2.36600e-06;-0.004454567513442793
2.36625e-06;-0.00443613155974987
2.36650e-06;-0.004418497900729569
2.36675e-06;-0.004401031030508341
2.36700e-06;-0.004383564160287143
2.36725e-06;-0.004366097290065916
2.36750e-06;-0.0043486304198446886
2.36775e-06;-0.004331451792567957
2.36800e-06;-0.004314864006191508
2.36825e-06;-0.004298604799559905
2.36850e-06;-0.004283019116273715
2.36875e-06;-0.004267754836501937
2.36900e-06;-0.004253149370225529
2.36925e-06;-0.0042387717110956595
2.36950e-06;-0.004225050494481935
2.36975e-06;-0.004211939227534342
2.37000e-06;-0.004199535241065905
2.37025e-06;-0.00418793584307765
2.37050e-06;-0.0041773249600178435
2.37075e-06;-0.004168195041276808
2.37100e-06;-0.004161266339569805
2.37125e-06;-0.004156996207634923
2.37150e-06;-0.004155442070259055
2.37175e-06;-0.004156528177338136
2.37200e-06;-0.004160179244429378
2.37225e-06;-0.004166734841890468
2.37250e-06;-0.0041757798467351405
2.37275e-06;-0.00418669364887877
2.37300e-06;-0.004201438115049414
2.37325e-06;-0.004218624917110255
2.37350e-06;-0.004240818023622483
2.37375e-06;-0.004263011130134712
2.37400e-06;-0.004288463599101863
2.37425e-06;-0.004320597115026078
2.37450e-06;-0.004352730630950293
2.37475e-06;-0.004384864146874454
2.37500e-06;-0.004416997662798669
2.37525e-06;-0.004452435267925006
2.37550e-06;-0.004494645600974232
2.37575e-06;-0.00453685593402353
2.37600e-06;-0.004579066267072827
2.37625e-06;-0.004621276600122124
2.37650e-06;-0.004665041325052991
2.37675e-06;-0.00471199224522751
2.37700e-06;-0.004758943165402029
2.37725e-06;-0.0048063820692496
2.37750e-06;-0.004854821242898355
2.37775e-06;-0.004903260416547109
2.37800e-06;-0.00495136006797189
2.37825e-06;-0.004998763766138022
2.37850e-06;-0.005046167464304233
2.37875e-06;-0.005092735411542572
2.37900e-06;-0.005137590235042414
2.37925e-06;-0.0051810494598459635
2.37950e-06;-0.005221647983959459
2.37975e-06;-0.005262246508072887
2.38000e-06;-0.005299582174615802
2.38025e-06;-0.005330229629907111
2.38050e-06;-0.005360877085198421
2.38075e-06;-0.005391524540489679
2.38100e-06;-0.005422171995780989
2.38125e-06;-0.005452819451072299
2.38150e-06;-0.005475814475943324
2.38175e-06;-0.005497218639347271
2.38200e-06;-0.00551862280275122
2.38225e-06;-0.005540026966155167
2.38250e-06;-0.005561431129559078
2.38275e-06;-0.005579017269987162
2.38300e-06;-0.005588777220128275
2.38325e-06;-0.005598537170269371
2.38350e-06;-0.0056082971204104845
2.38375e-06;-0.005618057070551598
2.38400e-06;-0.005627817020692694
2.38425e-06;-0.0056375769708338075
2.38450e-06;-0.005647336920974921
2.38475e-06;-0.005657096871116034
2.38500e-06;-0.0056668568212571305
2.38525e-06;-0.005676616771398244
2.38550e-06;-0.005686376721539357
2.38575e-06;-0.0056961366716804535
2.38600e-06;-0.005705896621821567
2.38625e-06;-0.005715656571962679
2.38650e-06;-0.0057226559636526664
2.38675e-06;-0.005723996757719252
2.38700e-06;-0.005725337551785841
2.38725e-06;-0.005726678345852429
2.38750e-06;-0.005728019139919015
2.38775e-06;-0.005729359933985603
2.38800e-06;-0.005730700728052191
2.38825e-06;-0.005732041522118776
2.38850e-06;-0.005733382316185365
2.38875e-06;-0.005734723110251953
2.38900e-06;-0.005736063904318541
2.38925e-06;-0.005737404698385126
2.38950e-06;-0.005738745492451715
2.38975e-06;-0.005740086286518303
2.39000e-06;-0.005741427080584889
2.39025e-06;-0.00574167021975236
2.39050e-06;-0.005739663383955106
2.39075e-06;-0.005737656548157856
2.39100e-06;-0.005735649712360602
2.39125e-06;-0.005733642876563348
2.39150e-06;-0.005731636040766094
2.39175e-06;-0.005729629204968843
2.39200e-06;-0.005727622369171589
2.39225e-06;-0.005725615533374335
2.39250e-06;-0.005718715950219287
2.39275e-06;-0.005710799215281927
2.39300e-06;-0.0057028824803445665
2.39325e-06;-0.005694965745407207
2.39350e-06;-0.00568704901046986
2.39375e-06;-0.0056791322755325
2.39400e-06;-0.00567121554059514
2.39425e-06;-0.005663298805657793
2.39450e-06;-0.005653622627857613
2.39475e-06;-0.005640339940947403
2.39500e-06;-0.005627057254037215
2.39525e-06;-0.005613774567127005
2.39550e-06;-0.005600491880216795
2.39575e-06;-0.005587209193306586
2.39600e-06;-0.005573926506396399
2.39625e-06;-0.005560643819486189
2.39650e-06;-0.005547361132575979
