Time(s);Current(A)
1.22500e-05;0.0008187241931266582
1.22503e-05;0.0007886670117679886
1.22505e-05;0.0007553872278994472
1.22508e-05;0.0007221074440309058
1.22510e-05;0.000688333157046917
1.22513e-05;0.0006529436947162279
1.22515e-05;0.000617554232385539
1.22518e-05;0.000581415046878571
1.22520e-05;0.0005428270711553677
1.22523e-05;0.0005042390954321644
1.22525e-05;0.00046565111970922266
1.22528e-05;0.0004267897118282073
1.22530e-05;0.0003870352036485948
1.22532e-05;0.00034728069546925174
1.22535e-05;0.0003075261872896393
1.22538e-05;0.0002677345067852687
1.22540e-05;0.00022782141183349747
1.22543e-05;0.00018790831688199675
1.22545e-05;0.00014821246752906044
1.22548e-05;0.00010943131664418149
1.22550e-05;7.15600558910285e-05
1.22553e-05;3.4711492515490346e-05
1.22555e-05;-1.1085630049851958e-06
1.22558e-05;-3.582709833055818e-05
1.22560e-05;-6.923968379949392e-05
1.22563e-05;-0.00010109787558783441
1.22565e-05;-0.00013115328983959943
1.22568e-05;-0.00015915798674610339
1.22570e-05;-0.00018489494617703067
1.22573e-05;-0.00020829672646478252
1.22575e-05;-0.00022947529008126712
1.22578e-05;-0.00024852541177062404
1.22580e-05;-0.000265416076572802
1.22583e-05;-0.0002800677864669382
1.22585e-05;-0.00029240109481762946
1.22588e-05;-0.00030233686378969895
1.22590e-05;-0.000309815330883192
1.22593e-05;-0.00031487041616940967
1.22595e-05;-0.00031764848265988094
1.22598e-05;-0.0003182850043822672
1.22600e-05;-0.0003168367351903752
1.22603e-05;-0.00031333002769451195
1.22605e-05;-0.0003077912927125997
1.22608e-05;-0.0003002471357074594
1.22610e-05;-0.0002907362358666721
1.22613e-05;-0.00027935604345408904
1.22615e-05;-0.0002662743840793491
1.22617e-05;-0.00025165226318003896
1.22620e-05;-0.0002356013427304394
1.22623e-05;-0.0002182142825049597
1.22625e-05;-0.00019958372681780538
1.22628e-05;-0.0001798024514150786
1.22630e-05;-0.0001589708299602302
1.22633e-05;-0.0001372259898124009
1.22635e-05;-0.00011474911801245209
1.22638e-05;-9.168127341548428e-05
1.22640e-05;-6.815891008012444e-05
1.22643e-05;-4.455577249071742e-05
1.22645e-05;-2.068880525083462e-05
1.22648e-05;3.1601042081187215e-06
1.22650e-05;2.689145584587485e-05
1.22653e-05;5.032870157742707e-05
1.22655e-05;7.328233000182627e-05
1.22658e-05;9.556550059823729e-05
1.22660e-05;0.00011701077026782354
1.22663e-05;0.00013745817196588863
1.22665e-05;0.00015674773558001134
1.22668e-05;0.00017471949804185013
1.22670e-05;0.00019121283480476577
1.22673e-05;0.00020607052860691837
1.22675e-05;0.0002191663620318897
1.22678e-05;0.0002304310232906748
1.22680e-05;0.00023983272985697712
1.22683e-05;0.0002473472459702004
1.22685e-05;0.00025295032723132244
1.22688e-05;0.00025661775675064435
1.22690e-05;0.0002583249140186353
1.22693e-05;0.00025804927570779665
1.22695e-05;0.0002557877622078566
1.22698e-05;0.0002515730177436686
1.22700e-05;0.00024546107528673376
1.22702e-05;0.00023751275070173862
1.22705e-05;0.000227788867583371
1.22708e-05;0.00021635022815258954
1.22710e-05;0.0002032573897296733
1.22713e-05;0.00018764053898396248
1.22715e-05;0.00016624649553922602
1.22718e-05;0.00015368320425707897
1.22720e-05;0.0001362073863668795
1.22723e-05;0.00011262477799249986
1.22725e-05;9.251990654743282e-05
1.22728e-05;6.934439319152398e-05
1.22730e-05;4.358808614104253e-05
1.22733e-05;1.623339963930604e-05
1.22735e-05;-1.1917383995359244e-05
1.22738e-05;-4.0517459803610956e-05
1.22740e-05;-6.944942319755181e-05
1.22743e-05;-9.751275143914558e-05
1.22745e-05;-0.00012529125894049814
1.22748e-05;-0.00015490364096884714
1.22750e-05;-0.00018507132556793424
1.22753e-05;-0.00021522313802636563
1.22755e-05;-0.00024537014435411765
1.22758e-05;-0.00027434170192763895
1.22760e-05;-0.00030295733018037617
1.22763e-05;-0.00032963886937568087
1.22765e-05;-0.0003548943861783494
1.22768e-05;-0.00037989543510368214
1.22770e-05;-0.00040410264242236426
1.22773e-05;-0.0004280694721803393
1.22775e-05;-0.0004520363019384768
1.22778e-05;-0.00047600313169661424
1.22780e-05;-0.0005011657949074367
1.22783e-05;-0.0005266905599858807
1.22785e-05;-0.0005522153250643247
1.22787e-05;-0.0005777400901425958
1.22790e-05;-0.000604801949010436
1.22793e-05;-0.0006323292443738821
1.22795e-05;-0.0006598565397373282
1.22798e-05;-0.0006896660724749252
1.22800e-05;-0.0007201666733654921
1.22803e-05;-0.000750667274256059
1.22805e-05;-0.0007843574077285324
1.22808e-05;-0.0008190133409969007
1.22810e-05;-0.000853669274265269
1.22813e-05;-0.0008883252075334024
1.22815e-05;-0.0009229811408017707
1.22818e-05;-0.0009576370740701388
1.22820e-05;-0.0009922930073382723
1.22823e-05;-0.0010279706393940854
1.22825e-05;-0.0010664449253691842
1.22828e-05;-0.001104919211344022
1.22830e-05;-0.0011433934973191207
1.22833e-05;-0.0011818677832942193
1.22835e-05;-0.0012203420692690572
1.22838e-05;-0.0012588163552441558
1.22840e-05;-0.0012972906412192543
1.22843e-05;-0.001332262551190185
1.22845e-05;-0.001366173931462257
1.22848e-05;-0.001400085311734329
1.22850e-05;-0.0014339966920061714
1.22853e-05;-0.0014679080722782435
1.22855e-05;-0.0015018194525503155
1.22858e-05;-0.001535730832822158
1.22860e-05;-0.00156964221309423
1.22863e-05;-0.001603553593366302
1.22865e-05;-0.0016374649736381444
1.22868e-05;-0.0016713763539102165
1.22870e-05;-0.0017052877341822885
1.22872e-05;-0.001739199114454131
1.22875e-05;-0.0017634044739521907
1.22878e-05;-0.0017846708219674213
1.22880e-05;-0.0018059371699826517
1.22883e-05;-0.0018272035179977381
1.22885e-05;-0.0018484698660129685
1.22888e-05;-0.001869736214028199
1.22890e-05;-0.0018910025620432853
1.22893e-05;-0.0019122689100585157
1.22895e-05;-0.001933535258073746
1.22898e-05;-0.0019548016060888323
1.22900e-05;-0.001976067954104063
1.22903e-05;-0.0019973343021192935
1.22905e-05;-0.0020186006501343797
1.22908e-05;-0.0020342517606976272
1.22910e-05;-0.0020482025609342286
1.22913e-05;-0.002062153361170735
1.22915e-05;-0.002076104161407336
1.22918e-05;-0.0020900549616439373
1.22920e-05;-0.0021040057618804437
1.22923e-05;-0.002117956562117045
1.22925e-05;-0.002131907362353646
1.22928e-05;-0.0021458581625901523
1.22930e-05;-0.0021598089628267537
1.22933e-05;-0.0021737597630633546
1.22935e-05;-0.0021877105632998614
1.22938e-05;-0.0022016613635364624
1.22940e-05;-0.00221319568725012
1.22943e-05;-0.002223998294803556
1.22945e-05;-0.0022348009023570657
1.22948e-05;-0.0022456035099105757
1.22950e-05;-0.002256406117464012
1.22953e-05;-0.0022672087250175214
1.22955e-05;-0.002278011332571031
1.22957e-05;-0.002288813940124467
1.22960e-05;-0.0022996165476779767
1.22963e-05;-0.0023104191552314863
1.22965e-05;-0.002321221762784923
1.22968e-05;-0.0023320243703384325
1.22970e-05;-0.002342826977891942
1.22973e-05;-0.0023435138795210963
1.22975e-05;-0.002341137715804089
1.22978e-05;-0.0023387615520870653
1.22980e-05;-0.0023363853883700417
1.22983e-05;-0.002334009224653034
1.22985e-05;-0.0023316330609360106
1.22988e-05;-0.002329256897218987
1.22990e-05;-0.0023268807335019796
1.22993e-05;-0.002324504569784956
1.22995e-05;-0.0023221284060679324
1.22998e-05;-0.002319752242350925
1.23000e-05;-0.002297880707079475
1.23003e-05;-0.0022701059162695274
1.23005e-05;-0.0022423311254597686
1.23008e-05;-0.002214556334649821
1.23010e-05;-0.002186781543839874
1.23013e-05;-0.0021590067530301146
1.23015e-05;-0.002131231962220167
1.23018e-05;-0.00210345717141022
1.23020e-05;-0.002075682380600461
1.23023e-05;-0.0020479075897905136
1.23025e-05;-0.002020132798980566
1.23028e-05;-0.0019826064421084146
1.23030e-05;-0.0019421272825048985
1.23033e-05;-0.0019016481229013824
1.23035e-05;-0.0018611689632981403
1.23038e-05;-0.001820689803694624
1.23040e-05;-0.0017802106440911077
1.23042e-05;-0.0017399463745844195
1.23045e-05;-0.0016997471744273434
1.23048e-05;-0.0016595479742702673
1.23050e-05;-0.0016193487741134635
1.23053e-05;-0.0015791495739563874
1.23055e-05;-0.0015389503737993112
1.23058e-05;-0.0015032197528091957
1.23060e-05;-0.0014688422306637203
1.23063e-05;-0.0014344647085180117
1.23065e-05;-0.0014057177268825551
1.23068e-05;-0.0013786756893857744
1.23070e-05;-0.0013516336518888102
1.23073e-05;-0.0013315459875087533
1.23075e-05;-0.0013135641276535214
1.23078e-05;-0.0012955822677981675
1.23080e-05;-0.0012845661592586714
1.23083e-05;-0.0012756593005959474
1.23085e-05;-0.001266752441933163
1.23088e-05;-0.001264095505873916
1.23090e-05;-0.001263331064663142
1.23093e-05;-0.0012687305542742617
1.23095e-05;-0.0012759965001708008
1.23098e-05;-0.0012832624460672906
1.23100e-05;-0.0012972259513843454
1.23103e-05;-0.0013132174972875315
1.23105e-05;-0.001329209043190609
1.23108e-05;-0.0013515012519120899
1.23110e-05;-0.0013757013197675076
1.23113e-05;-0.0013999013876227614
1.23115e-05;-0.0014294372946763115
1.23118e-05;-0.0014605889094490884
1.23120e-05;-0.001491740524221654
1.23123e-05;-0.0015288820642511526
1.23125e-05;-0.0015678373711720203
1.23127e-05;-0.001606792678092624
1.23130e-05;-0.0016457479850134917
1.23133e-05;-0.0016847032919343596
1.23135e-05;-0.001723658598854963
1.23138e-05;-0.0017637214724403442
1.23140e-05;-0.0018068160425440904
1.23143e-05;-0.0018499106126478365
1.23145e-05;-0.0018930051827512908
1.23148e-05;-0.001936099752855037
1.23150e-05;-0.001979194322958783
1.23153e-05;-0.002022288893062237
1.23155e-05;-0.0020618776489581803
1.23158e-05;-0.002100404834055517
1.23160e-05;-0.0021389320191525928
1.23163e-05;-0.0021774592042499295
1.23165e-05;-0.0022159863893472663
1.23168e-05;-0.002254513574444342
1.23170e-05;-0.002281554348481244
1.23173e-05;-0.002305117003644552
1.23175e-05;-0.0023286796588077004
1.23178e-05;-0.0023522423139710085
1.23180e-05;-0.0023758049691343162
1.23183e-05;-0.0023993676242974648
1.23185e-05;-0.0024100700253328233
1.23188e-05;-0.002416878303794151
1.23190e-05;-0.0024236865822554335
1.23193e-05;-0.0024213687110936476
1.23195e-05;-0.0024162874151265343
1.23198e-05;-0.0024112061191594552
1.23200e-05;-0.002396877266398479
1.23203e-05;-0.0023797482263856833
1.23205e-05;-0.0023626191863730037
1.23208e-05;-0.0023374665501799618
1.23210e-05;-0.002309884345589721
1.23212e-05;-0.0022823021409996663
1.23215e-05;-0.0022474714279126116
1.23218e-05;-0.0022104458452464133
1.23220e-05;-0.0021734202625804657
1.23223e-05;-0.0021290576478376617
1.23225e-05;-0.002082473358316683
1.23228e-05;-0.002035889068795704
1.23230e-05;-0.0019893047792750402
1.23233e-05;-0.0019427204897540615
1.23235e-05;-0.0018947184256441043
1.23238e-05;-0.0018428355456665793
1.23240e-05;-0.001790952665688703
1.23243e-05;-0.0017390697857108263
1.23245e-05;-0.0016871869057333013
1.23248e-05;-0.0016353040257554249
1.23250e-05;-0.001587868493977643
1.23253e-05;-0.0015417796322465729
1.23255e-05;-0.0014956907705151903
1.23258e-05;-0.0014496019087838078
1.23260e-05;-0.0014035130470527375
1.23263e-05;-0.001357424185321355
1.23265e-05;-0.0013160532573899529
1.23268e-05;-0.0012875965349323241
1.23270e-05;-0.0012591398124745024
1.23273e-05;-0.001230683090016681
1.23275e-05;-0.0012022263675590522
1.23278e-05;-0.0011737696451012308
1.23280e-05;-0.001145312922643409
1.23283e-05;-0.0011258104452918742
1.23285e-05;-0.0011090193395558272
1.23288e-05;-0.0010968207221689738
1.23290e-05;-0.0010860127236906345
1.23293e-05;-0.0010803408502092805
1.23295e-05;-0.0010762242104039252
1.23297e-05;-0.0010721075705985975
1.23300e-05;-0.0010729338051221195
1.23303e-05;-0.0010752567564538593
1.23305e-05;-0.0010775797077855836
1.23308e-05;-0.0010850364310314089
1.23310e-05;-0.001094047675432765
1.23313e-05;-0.001103058919834121
1.23315e-05;-0.0011160942936717718
1.23318e-05;-0.0011303481856762617
1.23320e-05;-0.0011446020776807516
1.23323e-05;-0.0011635550788161204
1.23325e-05;-0.0011839309839447461
1.23328e-05;-0.0012043068890733718
1.23330e-05;-0.0012246827942018596
1.23333e-05;-0.0012450586993304853
1.23335e-05;-0.001265434604459111
1.23338e-05;-0.0012869233525693424
1.23340e-05;-0.001311458239845359
1.23343e-05;-0.0013359931271213757
1.23345e-05;-0.0013605280143972262
1.23348e-05;-0.001385062901673243
1.23350e-05;-0.0014095977889492597
1.23353e-05;-0.0014341326762251103
1.23355e-05;-0.001457769033627051
1.23358e-05;-0.0014811333135542287
1.23360e-05;-0.0015044975934812483
1.23363e-05;-0.0015278618734084262
1.23365e-05;-0.0015512261533356041
1.23368e-05;-0.0015726550432346698
1.23370e-05;-0.001588786269885363
1.23373e-05;-0.0016049174965360562
1.23375e-05;-0.00162104872318664
1.23378e-05;-0.0016371799498373332
1.23380e-05;-0.0016533111764880264
1.23382e-05;-0.0016615065994320282
1.23385e-05;-0.0016672990377950767
1.23388e-05;-0.0016730914761581253
1.23390e-05;-0.001673060331845143
1.23393e-05;-0.0016712657896591728
1.23395e-05;-0.0016694712474732024
1.23398e-05;-0.0016610685332380988
1.23400e-05;-0.0016506648451724381
1.23403e-05;-0.0016402611571067068
1.23405e-05;-0.0016240630467231484
1.23408e-05;-0.0016061103683085874
1.23410e-05;-0.001588157689893905
1.23413e-05;-0.0015650651036780792
1.23415e-05;-0.0015404161383418638
1.23418e-05;-0.0015157671730054814
1.23420e-05;-0.0014851576249239823
1.23423e-05;-0.0014527431949479077
1.23425e-05;-0.0014203287649716132
1.23428e-05;-0.0013879143349953187
1.23430e-05;-0.001355499905019244
1.23433e-05;-0.0013230854750429495
1.23435e-05;-0.0012873303820045106
1.23438e-05;-0.0012505637264168582
1.23440e-05;-0.0012137970708289564
1.23443e-05;-0.0011770304152410548
1.23445e-05;-0.0011402637596534023
1.23448e-05;-0.0011034971040655005
1.23450e-05;-0.0010695484847552741
1.23453e-05;-0.00103645317507534
1.23455e-05;-0.0010033578653951814
1.23458e-05;-0.000970262555715023
1.23460e-05;-0.0009371672460350888
1.23463e-05;-0.0009067893197141541
1.23465e-05;-0.0008838495747160458
1.23467e-05;-0.000860909829718093
1.23470e-05;-0.0008379700847199848
1.23473e-05;-0.0008150303397218765
1.23475e-05;-0.0007920905947239237
1.23478e-05;-0.000771310822907587
1.23480e-05;-0.0007511850972905756
1.23483e-05;-0.0007310593716735642
1.23485e-05;-0.0007109336460566892
1.23488e-05;-0.0006908511876827795
1.23490e-05;-0.0006708871629477857
1.23493e-05;-0.0006509231382129272
1.23495e-05;-0.0006309591134779335
1.23498e-05;-0.0006109950887429397
1.23500e-05;-0.0005888038063708553
1.23503e-05;-0.0005659381038692537
1.23505e-05;-0.000543072401367652
1.23508e-05;-0.0005202066988662053
1.23510e-05;-0.000496796372840776
1.23513e-05;-0.00047189527131987017
1.23515e-05;-0.000446994169799133
1.23518e-05;-0.00042209306827822716
1.23520e-05;-0.00039719196675732125
1.23523e-05;-0.0003708192054006685
1.23525e-05;-0.0003440008211394876
1.23528e-05;-0.0003171824368783066
1.23530e-05;-0.0002904416820183623
1.23533e-05;-0.0002637244335680185
1.23535e-05;-0.00023700718511767468
1.23538e-05;-0.00021032660306279164
1.23540e-05;-0.00018365712369950414
1.23543e-05;-0.00015698764433621666
1.23545e-05;-0.00013088469950179617
1.23548e-05;-0.00010553659019422817
1.23550e-05;-8.109857135021223e-05
1.23552e-05;-5.7647985720114486e-05
1.23555e-05;-3.514424007159939e-05
1.23558e-05;-1.3628404877117976e-05
1.23560e-05;6.7225067615939385e-06
1.23563e-05;2.5690236712853915e-05
1.23565e-05;4.30535862051124e-05
1.23568e-05;5.8591403888569354e-05
1.23570e-05;7.192580581528706e-05
1.23573e-05;8.187871203135157e-05
1.23575e-05;8.661535561463725e-05
1.23578e-05;8.501298408098435e-05
1.23580e-05;7.694636937218818e-05
1.23583e-05;6.258324451565667e-05
1.23585e-05;4.211197060348019e-05
1.23588e-05;1.572093918848004e-05
1.23590e-05;-1.6499632275612593e-05
1.23593e-05;-5.496074949713096e-05
1.23595e-05;-0.00010048466417346674
1.23598e-05;-0.000153447587314617
1.23600e-05;-0.00021360084674179667
1.23603e-05;-0.00028051228594546594
1.23605e-05;-0.00035373681394970717
1.23608e-05;-0.0004328293760016773
1.23610e-05;-0.0005174064870846401
1.23613e-05;-0.0006073985390368328
1.23615e-05;-0.000702993538114083
1.23618e-05;-0.0008041001164566698
1.23620e-05;-0.0009118819726959848
1.23623e-05;-0.0010213003553305833
1.23625e-05;-0.0011363749613324586
1.23628e-05;-0.0012531622883202914
1.23630e-05;-0.0013747181678814137
1.23633e-05;-0.001497717979115987
1.23635e-05;-0.0016207177903505606
1.23637e-05;-0.0017469335711016885
1.23640e-05;-0.0018741231568337776
1.23643e-05;-0.0020013127425658668
1.23645e-05;-0.002128502328297094
1.23648e-05;-0.002253954994321256
1.23650e-05;-0.0023746532617082753
1.23653e-05;-0.0024953515290952943
1.23655e-05;-0.002616049796481496
1.23658e-05;-0.0027367480638685153
1.23660e-05;-0.002846135487995064
1.23663e-05;-0.002952097955684655
1.23665e-05;-0.003058060423374964
1.23668e-05;-0.0031493786127792032
1.23670e-05;-0.003236262471866638
1.23673e-05;-0.0033231463309546616
1.23675e-05;-0.0033956996164480864
1.23678e-05;-0.003463913562323189
1.23680e-05;-0.0035321275081987547
1.23683e-05;-0.003586184234192684
1.23685e-05;-0.003635954112579798
1.23688e-05;-0.0036857239909672494
1.23690e-05;-0.0037201949574091073
1.23693e-05;-0.003750033368546367
1.23695e-05;-0.0037798717796838285
1.23698e-05;-0.0037967200405578366
1.23700e-05;-0.0038096348459204002
1.23703e-05;-0.003822549651283051
1.23705e-05;-0.0038230598368438552
1.23708e-05;-0.0038198138672304693
1.23710e-05;-0.0038165678976170617
1.23713e-05;-0.0037966296589966248
1.23715e-05;-0.003771636952476553
1.23718e-05;-0.003746644245956312
1.23720e-05;-0.0037216515394360708
1.23723e-05;-0.0036966588329159994
1.23725e-05;-0.003671666126395758
1.23728e-05;-0.003646673419875517
1.23730e-05;-0.0036080116582103573
1.23733e-05;-0.0035652108666487537
1.23735e-05;-0.00352241007508715
1.23738e-05;-0.0034796092835255466
1.23740e-05;-0.003436808491964233
1.23743e-05;-0.0033940077004026297
1.23745e-05;-0.003351206908841026
1.23748e-05;-0.003308173557784844
1.23750e-05;-0.003265069787032806
1.23753e-05;-0.0032219660162807677
1.23755e-05;-0.0031788622455290213
1.23758e-05;-0.003135758474776983
1.23760e-05;-0.003092654704024945
1.23763e-05;-0.0030495509332731986
1.23765e-05;-0.003020425803397997
1.23768e-05;-0.0029955334468851954
1.23770e-05;-0.002970641090372562
1.23773e-05;-0.00294574873385976
1.23775e-05;-0.002920856377346958
1.23778e-05;-0.0028959640208343247
1.23780e-05;-0.0028710716643215225
1.23783e-05;-0.002860806880480276
1.23785e-05;-0.0028549713684481778
1.23788e-05;-0.00284913585641604
1.23790e-05;-0.0028526992133485764
1.23793e-05;-0.0028591085753070515
1.23795e-05;-0.0028655179372655696
1.23798e-05;-0.002880832199464786
1.23800e-05;-0.0028988428915147644
1.23803e-05;-0.002916853583564865
1.23805e-05;-0.0029426779112547985
1.23808e-05;-0.002970868230680965
1.23810e-05;-0.0029990585501073227
1.23813e-05;-0.0030272488695336805
1.23815e-05;-0.0030412122610763413
1.23818e-05;-0.003901549342106259
1.23820e-05;-0.008332544702858869
1.23823e-05;-0.012455242171925542
1.23825e-05;-0.013058411641363132
1.23828e-05;-0.011386022809982129
1.23830e-05;-0.008003773918104041
1.23833e-05;-0.004782004572261094
1.23835e-05;-0.0036361916516313908
1.23838e-05;-0.004409164023968186
1.23840e-05;-0.00694205900096443
1.23843e-05;-0.009482027041984585
1.23845e-05;-0.010100621059217487
1.23848e-05;-0.009049683979462925
1.23850e-05;-0.006913658984240529
1.23853e-05;-0.0048285761258026
1.23855e-05;-0.004014318165189829
1.23858e-05;-0.004541782608412266
1.23860e-05;-0.006092156033020444
1.23863e-05;-0.008006298807381344
1.23865e-05;-0.008373510004175829
1.23868e-05;-0.007564176737894802
1.23870e-05;-0.006212183371179597
1.23873e-05;-0.004845156967390126
1.23875e-05;-0.0039286142925289425
1.23878e-05;-0.003985037442026985
1.23880e-05;-0.004800796437550706
1.23883e-05;-0.005814940969865201
1.23885e-05;-0.006499689379542973
1.23888e-05;-0.006306552840586551
1.23890e-05;-0.005501474019509716
1.23893e-05;-0.004647821748514732
1.23895e-05;-0.004076558566220593
1.23898e-05;-0.004114910319715426
1.23900e-05;-0.00462899624500441
1.23903e-05;-0.005267398094248395
1.23905e-05;-0.005699507866088531
1.23908e-05;-0.005581778163725572
1.23910e-05;-0.00508082903243439
1.23913e-05;-0.004549565806713787
1.23915e-05;-0.004195290384710455
1.23918e-05;-0.004222945886728018
1.23920e-05;-0.004548633347756285
1.23923e-05;-0.004952204242521847
1.23925e-05;-0.005226564883548914
1.23928e-05;-0.005156536439952912
1.23930e-05;-0.004846514376478128
1.23933e-05;-0.00451756852161241
1.23935e-05;-0.0042995461205961785
