Time(s);Current(A)
1.35000e-05;0.009539600231906385
1.35003e-05;0.009559422554802815
1.35005e-05;0.009579244877699379
1.35008e-05;0.009599067200595944
1.35010e-05;0.009618889523492507
1.35013e-05;0.009638711846388938
1.35015e-05;0.0096585341692855
1.35018e-05;0.009678356492182065
1.35020e-05;0.009698178815078494
1.35023e-05;0.009718001137975059
1.35025e-05;0.009737823460871622
1.35028e-05;0.009757645783768053
1.35030e-05;0.009777468106664616
1.35033e-05;0.00979729042956118
1.35035e-05;0.00981711275245761
1.35038e-05;0.009836935075354174
1.35040e-05;0.009856757398250739
1.35043e-05;0.00987411470318183
1.35045e-05;0.00987672235317232
1.35048e-05;0.009879330003162812
1.35050e-05;0.009881937653153287
1.35053e-05;0.009884545303143779
1.35055e-05;0.00988715295313427
1.35058e-05;0.009889760603124744
1.35060e-05;0.009892368253115236
1.35063e-05;0.009894975903105726
1.35065e-05;0.0098975835530962
1.35068e-05;0.009900191203086692
1.35070e-05;0.009902798853077183
1.35073e-05;0.009905406503067657
1.35075e-05;0.00990801415305815
1.35078e-05;0.00991062180304864
1.35080e-05;0.009913229453039114
1.35083e-05;0.009915837103029606
1.35085e-05;0.009918444753020098
1.35088e-05;0.00991794938044672
1.35090e-05;0.009915732625758561
1.35093e-05;0.009913515871070403
1.35095e-05;0.009911299116382258
1.35098e-05;0.0099090823616941
1.35100e-05;0.009906865607005941
1.35103e-05;0.009904648852317783
1.35105e-05;0.00990243209762964
1.35108e-05;0.009900215342941481
1.35110e-05;0.009897998588253323
1.35113e-05;0.009895781833565178
1.35115e-05;0.00989356507887702
1.35118e-05;0.009891348324188861
1.35120e-05;0.009889131569500718
1.35123e-05;0.009886914814812558
1.35125e-05;0.0098846980601244
1.35128e-05;0.009882481305436256
1.35130e-05;0.009880264550748098
1.35133e-05;0.009881816330811229
1.35135e-05;0.009885458681660384
1.35138e-05;0.009889101032509565
1.35140e-05;0.009892743383358747
1.35143e-05;0.009896385734207902
1.35145e-05;0.009900028085057083
1.35148e-05;0.009903670435906264
1.35150e-05;0.009907312786755421
1.35153e-05;0.0099109551376046
1.35155e-05;0.009914597488453782
1.35158e-05;0.009918239839302938
1.35160e-05;0.00992188219015212
1.35163e-05;0.009925524541001299
1.35165e-05;0.009929166891850456
1.35168e-05;0.009932809242699637
1.35170e-05;0.009936451593548818
1.35173e-05;0.009940093944397974
1.35175e-05;0.009943736295247155
1.35178e-05;0.009949424966982989
1.35180e-05;0.009956248822270837
1.35183e-05;0.009963072677558731
1.35185e-05;0.009969896532846625
1.35188e-05;0.009976720388134519
1.35190e-05;0.009983544243422366
1.35193e-05;0.00999036809871026
1.35195e-05;0.009997191953998154
1.35198e-05;0.010004015809286003
1.35200e-05;0.010010839664573896
1.35203e-05;0.01001766351986179
1.35205e-05;0.010024487375149637
1.35208e-05;0.010031311230437531
1.35210e-05;0.010038135085725425
1.35213e-05;0.010044958941013272
1.35215e-05;0.010051782796301166
1.35218e-05;0.01005860665158906
1.35220e-05;0.010059249994544599
1.35223e-05;0.010056464737426008
1.35225e-05;0.010053679480307416
1.35228e-05;0.010050894223188845
1.35230e-05;0.010048108966070253
1.35233e-05;0.010045323708951663
1.35235e-05;0.010042538451833092
1.35238e-05;0.0100397531947145
1.35240e-05;0.01003696793759591
1.35243e-05;0.010034182680477337
1.35245e-05;0.010031397423358747
1.35248e-05;0.010028612166240156
1.35250e-05;0.010025826909121583
1.35253e-05;0.010023041652002993
1.35255e-05;0.010020256394884403
1.35258e-05;0.01001747113776583
1.35260e-05;0.01001468588064724
1.35263e-05;0.010005391272363778
1.35265e-05;0.009992485642746027
1.35268e-05;0.009979580013128191
1.35270e-05;0.009966674383510354
1.35273e-05;0.009953768753892516
1.35275e-05;0.009940863124274765
1.35278e-05;0.00992795749465693
1.35280e-05;0.009915051865039092
1.35283e-05;0.009902146235421341
1.35285e-05;0.009889240605803505
1.35288e-05;0.009876334976185668
1.35290e-05;0.009863429346567917
1.35293e-05;0.00985052371695008
1.35295e-05;0.009837618087332243
1.35298e-05;0.009824712457714492
1.35300e-05;0.009811806828096657
1.35303e-05;0.009798901198478819
1.35305e-05;0.009787047205305176
1.35308e-05;0.009781485772637034
1.35310e-05;0.00977592433996889
1.35313e-05;0.009770362907300784
1.35315e-05;0.009764801474632642
1.35318e-05;0.009759240041964498
1.35320e-05;0.009753678609296393
1.35323e-05;0.009748117176628249
1.35325e-05;0.009742555743960107
1.35328e-05;0.009736994311292001
1.35330e-05;0.009731432878623858
1.35333e-05;0.009725871445955716
1.35335e-05;0.00972031001328761
1.35338e-05;0.009714748580619466
1.35340e-05;0.009709187147951324
1.35343e-05;0.009703625715283219
1.35345e-05;0.009698064282615075
1.35348e-05;0.009692502849946931
1.35350e-05;0.009697247704330197
1.35353e-05;0.009707709906186005
1.35355e-05;0.00971817210804181
1.35358e-05;0.009728634309897616
1.35360e-05;0.00973909651175335
1.35363e-05;0.009749558713609158
1.35365e-05;0.009760020915464964
1.35368e-05;0.009770483117320698
1.35370e-05;0.009780945319176504
1.35373e-05;0.009791407521032311
1.35375e-05;0.009801869722888046
1.35378e-05;0.009812331924743851
1.35380e-05;0.009822794126599657
1.35383e-05;0.009833753351493875
1.35385e-05;0.009847686558091838
1.35388e-05;0.009861619764689801
1.35390e-05;0.009875552971287671
1.35393e-05;0.009889486177885636
1.35395e-05;0.0099034193844836
1.35398e-05;0.00991735259108147
1.35400e-05;0.009931285797679433
1.35403e-05;0.009945219004277398
1.35405e-05;0.009959152210875266
1.35408e-05;0.009973085417473231
1.35410e-05;0.009987018624071194
1.35413e-05;0.010000951830669064
1.35415e-05;0.010014885037267027
1.35418e-05;0.010019107056179862
1.35420e-05;0.010017941855223702
1.35423e-05;0.010016776654267534
1.35425e-05;0.010015611453311367
1.35428e-05;0.010014446252355206
1.35430e-05;0.010013281051399038
1.35433e-05;0.010012115850442871
1.35435e-05;0.01001095064948671
1.35438e-05;0.009991505379369624
1.35440e-05;0.009961919356649833
1.35443e-05;0.009932333333930041
1.35445e-05;0.009902747311210451
1.35448e-05;0.00987316128849066
1.35450e-05;0.009843575265770869
1.35453e-05;0.00981398924305128
1.35455e-05;0.009784403220331488
1.35458e-05;0.009736895267542222
1.35460e-05;0.009679445237543594
1.35463e-05;0.009621995207544577
1.35465e-05;0.009564545177545559
1.35468e-05;0.00950709514754693
1.35470e-05;0.009449645117547912
1.35473e-05;0.009392195087548894
1.35475e-05;0.009334745057550267
1.35478e-05;0.009277295027551249
1.35480e-05;0.009219844997552231
1.35483e-05;0.009156388773570888
1.35485e-05;0.009089600651512974
1.35488e-05;0.009022812529455058
1.35490e-05;0.008956024407397596
1.35493e-05;0.00888923628533968
1.35495e-05;0.008822448163281767
1.35498e-05;0.008755660041224305
1.35500e-05;0.00868887191916639
1.35503e-05;0.008622083797108476
1.35505e-05;0.008555295675051013
1.35508e-05;0.008495505339035859
1.35510e-05;0.008439596980513034
1.35513e-05;0.00838368862199059
1.35515e-05;0.008329691370237811
1.35518e-05;0.008287129396393556
1.35520e-05;0.008244567422549589
1.35523e-05;0.008202005448705333
1.35525e-05;0.008166045017721328
1.35528e-05;0.008150345595443774
1.35530e-05;0.008143854277098739
1.35533e-05;0.008137362958753658
1.35535e-05;0.00813087164040858
1.35538e-05;0.008124380322063545
1.35540e-05;0.008117889003718466
1.35543e-05;0.008111397685373386
1.35545e-05;0.00810490636702835
1.35548e-05;0.008098415048683272
1.35550e-05;0.008097907999686616
1.35553e-05;0.008133208360384876
1.35555e-05;0.008168508721083375
1.35558e-05;0.008203809081781874
1.35560e-05;0.008239109442480136
1.35563e-05;0.008274409803178635
1.35565e-05;0.008309710163877134
1.35568e-05;0.008345010524575393
1.35570e-05;0.008380310885273893
1.35573e-05;0.008415611245972392
1.35575e-05;0.008465277241610369
1.35578e-05;0.00852291248225929
1.35580e-05;0.008580547722908213
1.35583e-05;0.008638182963556744
1.35585e-05;0.008695818204205667
1.35588e-05;0.008753453444854589
1.35590e-05;0.008811088685503121
1.35593e-05;0.008868723926152042
1.35595e-05;0.008926359166800965
1.35598e-05;0.008982797884871252
1.35600e-05;0.009032077103312813
1.35603e-05;0.009081356321754375
1.35605e-05;0.009130635540195603
1.35608e-05;0.009179914758637164
1.35610e-05;0.009229193977078725
1.35613e-05;0.009278473195520288
1.35615e-05;0.009327752413961516
1.35618e-05;0.009377031632403077
1.35620e-05;0.009426310850844638
1.35623e-05;0.009452448034474183
1.35625e-05;0.009465747320839709
1.35628e-05;0.009479046607205234
1.35630e-05;0.00949234589357067
1.35633e-05;0.009505645179936194
1.35635e-05;0.00951894446630172
1.35638e-05;0.009532243752667155
1.35640e-05;0.00954554303903268
1.35643e-05;0.009558842325398206
1.35645e-05;0.00957214161176364
1.35648e-05;0.009585440898129167
1.35650e-05;0.009574959797842342
1.35653e-05;0.009551286678649698
1.35655e-05;0.009527613559456896
1.35658e-05;0.009503940440264093
1.35660e-05;0.009480267321071451
1.35663e-05;0.009456594201878648
1.35665e-05;0.009432921082685845
1.35668e-05;0.009409247963493203
1.35670e-05;0.0093855748443004
1.35673e-05;0.009361901725107596
1.35675e-05;0.009338228605914954
1.35678e-05;0.009303413826227147
1.35680e-05;0.009262418280933993
1.35683e-05;0.009221422735641114
1.35685e-05;0.00918042719034796
1.35688e-05;0.009139431645054803
1.35690e-05;0.009098436099761926
1.35693e-05;0.009057440554468771
1.35695e-05;0.009016445009175615
1.35698e-05;0.00897544946388246
1.35700e-05;0.008935452073569753
1.35703e-05;0.008901427232662707
1.35705e-05;0.008867402391755659
1.35708e-05;0.008833377550848844
1.35710e-05;0.008799352709941798
1.35713e-05;0.00876532786903475
1.35715e-05;0.008731303028127935
1.35718e-05;0.008697278187220887
1.35720e-05;0.008663253346313841
1.35723e-05;0.008629228505407024
1.35725e-05;0.008609071530920102
1.35728e-05;0.008596607667513231
1.35730e-05;0.008584143804106444
1.35733e-05;0.00857167994069957
1.35735e-05;0.0085592160772927
1.35738e-05;0.008546752213885912
1.35740e-05;0.00853428835047904
1.35743e-05;0.008521824487072166
1.35745e-05;0.008509360623665379
1.35748e-05;0.008496896760258507
1.35750e-05;0.008484432896851635
1.35753e-05;0.008471969033444847
1.35755e-05;0.008459505170037974
1.35758e-05;0.008447041306631103
1.35760e-05;0.008434577443224315
1.35763e-05;0.008422113579817442
1.35765e-05;0.008409649716410571
1.35768e-05;0.008399227994247
1.35770e-05;0.008401025606471307
1.35773e-05;0.008402823218695614
1.35775e-05;0.00840462083091991
1.35778e-05;0.008406418443144218
1.35780e-05;0.008408216055368525
1.35783e-05;0.008410013667592833
1.35785e-05;0.00841181127981713
1.35788e-05;0.008413608892041437
1.35790e-05;0.008415406504265744
1.35793e-05;0.008417204116490041
1.35795e-05;0.008419001728714348
1.35798e-05;0.008420799340938655
1.35800e-05;0.00842259695316295
1.35803e-05;0.00842439456538726
1.35805e-05;0.008426192177611567
1.35808e-05;0.008427989789835862
1.35810e-05;0.008429787402060171
1.35813e-05;0.008429048318556183
1.35815e-05;0.008426902019159953
1.35818e-05;0.00842475571976371
1.35820e-05;0.008422609420367466
1.35823e-05;0.008420463120971236
1.35825e-05;0.00841831682157499
1.35828e-05;0.008416170522178747
1.35830e-05;0.008414024222782517
1.35833e-05;0.008411877923386274
1.35835e-05;0.00840973162399003
1.35838e-05;0.0084075853245938
1.35840e-05;0.008405439025197557
1.35843e-05;0.008403292725801313
1.35845e-05;0.008401146426405083
1.35848e-05;0.008399000127008838
1.35850e-05;0.008396853827612594
1.35853e-05;0.008394707528216364
1.35855e-05;0.00839129544112399
1.35858e-05;0.008380309400378523
1.35860e-05;0.00836932335963313
1.35863e-05;0.008358337318887663
1.35865e-05;0.008347351278142196
1.35868e-05;0.008336365237396729
1.35870e-05;0.008325379196651337
1.35873e-05;0.00831439315590587
1.35875e-05;0.008303407115160403
1.35878e-05;0.00829242107441501
1.35880e-05;0.008281435033669543
1.35883e-05;0.008270448992924076
1.35885e-05;0.008259462952178684
1.35888e-05;0.008248476911433216
1.35890e-05;0.00823749087068775
1.35893e-05;0.008226504829942357
1.35895e-05;0.00821551878919689
1.35898e-05;0.008204532748451423
1.35900e-05;0.008194687743849618
1.35903e-05;0.008185475721823227
1.35905e-05;0.008176263699796835
1.35908e-05;0.008167051677770506
1.35910e-05;0.008157839655744114
1.35913e-05;0.008148627633717723
1.35915e-05;0.008139415611691393
1.35918e-05;0.008130203589665002
1.35920e-05;0.008120991567638609
1.35923e-05;0.00811177954561228
1.35925e-05;0.00810535178709387
1.35928e-05;0.008115583917780325
1.35930e-05;0.00812581604846671
1.35933e-05;0.008136048179153166
1.35935e-05;0.008146280309839622
1.35938e-05;0.008156512440526007
1.35940e-05;0.008166744571212463
1.35943e-05;0.008176976701898918
1.35945e-05;0.008187208832585304
1.35948e-05;0.00819744096327176
1.35950e-05;0.008207673093958215
1.35953e-05;0.008234745830253784
1.35955e-05;0.008271160785874717
1.35958e-05;0.008307575741495899
1.35960e-05;0.008343990697117078
1.35963e-05;0.008380405652738012
1.35965e-05;0.008416820608359193
1.35968e-05;0.008453235563980373
1.35970e-05;0.008489650519601306
1.35973e-05;0.008526065475222487
1.35975e-05;0.008562480430843667
1.35978e-05;0.0085988953864646
1.35980e-05;0.008636516797903684
1.35983e-05;0.00868135714541141
1.35985e-05;0.00872619749291883
1.35988e-05;0.008771037840426557
1.35990e-05;0.008815878187934282
1.35993e-05;0.008860718535441705
1.35995e-05;0.00890555888294943
1.35998e-05;0.008950399230457155
1.36000e-05;0.008995239577964578
1.36003e-05;0.009040079925472302
1.36005e-05;0.009084920272980027
1.36008e-05;0.00912976062048745
1.36010e-05;0.00915974106175213
1.36013e-05;0.009181478064120636
1.36015e-05;0.009203215066488994
1.36018e-05;0.0092249520688575
1.36020e-05;0.009246689071226005
1.36023e-05;0.009268426073594363
1.36025e-05;0.009290163075962869
1.36028e-05;0.009311900078331372
1.36030e-05;0.00933363708069973
1.36033e-05;0.009355374083068236
1.36035e-05;0.009377111085436741
1.36038e-05;0.009398848087805247
1.36040e-05;0.009420585090173605
1.36043e-05;0.00944232209254211
1.36045e-05;0.009444859604915532
1.36048e-05;0.00943674632178378
1.36050e-05;0.009428633038651971
1.36053e-05;0.009420519755520164
1.36055e-05;0.009412406472388411
1.36058e-05;0.009404293189256603
1.36060e-05;0.009396179906124796
1.36063e-05;0.009388066622993043
1.36065e-05;0.009379953339861235
1.36068e-05;0.009371840056729428
1.36070e-05;0.009363726773597675
1.36073e-05;0.009355613490465866
1.36075e-05;0.00934750020733406
1.36078e-05;0.009339386924202307
1.36080e-05;0.009323557353084695
1.36083e-05;0.009303447220065333
1.36085e-05;0.009283337087046109
1.36088e-05;0.00926322695402675
1.36090e-05;0.009243116821007388
1.36093e-05;0.009223006687988164
1.36095e-05;0.009202896554968804
1.36098e-05;0.009182786421949442
1.36100e-05;0.009162676288930218
1.36103e-05;0.009142566155910858
1.36105e-05;0.009122456022891497
1.36108e-05;0.009105820968345247
1.36110e-05;0.009091113691578296
1.36113e-05;0.009076406414811347
1.36115e-05;0.009061699138044495
1.36118e-05;0.009046991861277545
1.36120e-05;0.009032284584510594
1.36123e-05;0.009017577307743644
1.36125e-05;0.009002870030976794
1.36128e-05;0.008988162754209843
1.36130e-05;0.008973455477442892
1.36133e-05;0.008958748200676043
1.36135e-05;0.008950693998804554
1.36138e-05;0.008946330548105813
1.36140e-05;0.008941967097407104
1.36143e-05;0.008937603646708365
1.36145e-05;0.008933240196009625
1.36148e-05;0.008928876745310916
1.36150e-05;0.008924513294612177
1.36153e-05;0.008920149843913438
1.36155e-05;0.008915786393214728
1.36158e-05;0.00891142294251599
1.36160e-05;0.00890705949181725
1.36163e-05;0.00890269604111854
1.36165e-05;0.008898332590419802
1.36168e-05;0.008893969139721063
1.36170e-05;0.008889605689022353
1.36173e-05;0.008885242238323614
1.36175e-05;0.008880878787624875
1.36178e-05;0.008876515336926166
1.36180e-05;0.008872151886227427
1.36183e-05;0.008867788435528687
1.36185e-05;0.00886406935468342
1.36188e-05;0.008864205918374118
1.36190e-05;0.008864342482064814
1.36193e-05;0.008864479045755512
1.36195e-05;0.008864615609446208
1.36198e-05;0.008864752173136906
1.36200e-05;0.008864888736827602
1.36203e-05;0.0088650253005183
1.36205e-05;0.008865161864208998
1.36208e-05;0.008865298427899695
1.36210e-05;0.008865434991590392
1.36213e-05;0.00886557155528109
1.36215e-05;0.008865708118971785
1.36218e-05;0.008865844682662483
1.36220e-05;0.00886598124635318
1.36223e-05;0.008866117810043877
1.36225e-05;0.008866254373734573
1.36228e-05;0.008866390937425271
1.36230e-05;0.008866527501115969
1.36233e-05;0.008866664064806665
1.36235e-05;0.008866800628497363
1.36238e-05;0.008869123720295198
1.36240e-05;0.008872659774716216
1.36243e-05;0.008876195829137257
1.36245e-05;0.008879731883558298
1.36248e-05;0.008883267937979316
1.36250e-05;0.008886803992400357
1.36253e-05;0.008890340046821398
1.36255e-05;0.008893876101242416
1.36258e-05;0.008897412155663456
1.36260e-05;0.008900948210084497
1.36263e-05;0.008904484264505514
1.36265e-05;0.008908020318926556
1.36268e-05;0.008911556373347597
1.36270e-05;0.008915092427768613
1.36273e-05;0.008918628482189656
1.36275e-05;0.008922164536610697
1.36278e-05;0.008925700591031713
1.36280e-05;0.008929236645452754
1.36283e-05;0.008932772699873796
1.36285e-05;0.008936308754294813
1.36288e-05;0.008939844808715854
1.36290e-05;0.008942116503035159
1.36293e-05;0.00894368680159335
1.36295e-05;0.00894525710015153
1.36298e-05;0.00894682739870972
1.36300e-05;0.008948397697267912
1.36303e-05;0.008949967995826091
1.36305e-05;0.008951538294384283
1.36308e-05;0.008953108592942472
1.36310e-05;0.008954678891500653
1.36313e-05;0.008956249190058843
1.36315e-05;0.008957819488617035
1.36318e-05;0.008959389787175216
1.36320e-05;0.008960960085733405
1.36323e-05;0.008962530384291597
1.36325e-05;0.008964100682849776
1.36328e-05;0.008965670981407967
1.36330e-05;0.008967241279966159
1.36333e-05;0.008968811578524338
1.36335e-05;0.00897038187708253
1.36338e-05;0.008971952175640719
1.36340e-05;0.0089735224741989
1.36343e-05;0.008966520013217679
1.36345e-05;0.008954761868159886
1.36348e-05;0.008943003723102172
1.36350e-05;0.008931245578044377
1.36353e-05;0.008919487432986584
1.36355e-05;0.00890772928792887
1.36358e-05;0.008895971142871077
1.36360e-05;0.008884212997813282
1.36363e-05;0.008872454852755568
1.36365e-05;0.008860696707697775
1.36368e-05;0.00884893856263998
1.36370e-05;0.008837180417582266
1.36373e-05;0.008825422272524473
1.36375e-05;0.008813664127466678
1.36378e-05;0.008801905982408886
1.36380e-05;0.008790147837351171
1.36383e-05;0.008778009644168503
1.36385e-05;0.008763597399104433
1.36388e-05;0.008749185154040459
1.36390e-05;0.008734772908976389
1.36393e-05;0.008720360663912317
1.36395e-05;0.008705948418848345
1.36398e-05;0.008691536173784275
1.36400e-05;0.008677123928720203
1.36403e-05;0.00866271168365623
1.36405e-05;0.008648299438592159
1.36408e-05;0.00863388719352809
1.36410e-05;0.008619474948464117
1.36413e-05;0.008605062703400045
1.36415e-05;0.008590650458335975
1.36418e-05;0.008576238213272
1.36420e-05;0.00856182596820793
1.36423e-05;0.00854741372314386
1.36425e-05;0.008539585659150955
1.36428e-05;0.008535410127920967
1.36430e-05;0.008531234596690978
1.36433e-05;0.008527059065461017
1.36435e-05;0.008522883534231028
1.36438e-05;0.008518708003001038
1.36440e-05;0.008514532471771079
1.36443e-05;0.00851035694054109
1.36445e-05;0.0085061814093111
1.36448e-05;0.008502005878081139
1.36450e-05;0.00849783034685115
1.36453e-05;0.00849365481562116
1.36455e-05;0.008489479284391201
1.36458e-05;0.008485303753161212
1.36460e-05;0.008481128221931223
1.36463e-05;0.008476952690701233
1.36465e-05;0.008472777159471272
1.36468e-05;0.008468601628241285
1.36470e-05;0.008464426097011295
1.36473e-05;0.00846381089280705
1.36475e-05;0.008465269605011228
1.36478e-05;0.008466728317215406
1.36480e-05;0.008468187029419575
1.36483e-05;0.008469645741623753
1.36485e-05;0.008471104453827932
1.36488e-05;0.0084725631660321
1.36490e-05;0.008474021878236277
1.36493e-05;0.008475480590440456
1.36495e-05;0.008476939302644624
1.36498e-05;0.008478398014848803
1.36500e-05;0.008479856727052981
1.36503e-05;0.00848131543925715
1.36505e-05;0.008482774151461328
1.36508e-05;0.008484232863665507
1.36510e-05;0.008485691575869675
1.36513e-05;0.008487150288073852
1.36515e-05;0.00848860900027803
1.36518e-05;0.008490067712482199
1.36520e-05;0.008490382647284144
