Time(s);Current(A)
1.27500e-05;-0.008100036967341713
1.27503e-05;-0.00810818874917158
1.27505e-05;-0.0081163405310015
1.27508e-05;-0.008124492312831421
1.27510e-05;-0.008132644094661285
1.27513e-05;-0.008140795876491207
1.27515e-05;-0.008148947658321127
1.27518e-05;-0.008157099440150993
1.27520e-05;-0.00816421179479535
1.27523e-05;-0.008171096574753848
1.27525e-05;-0.008177981354712299
1.27528e-05;-0.008184866134670798
1.27530e-05;-0.008191750914629295
1.27533e-05;-0.008198635694587746
1.27535e-05;-0.008205520474546243
1.27538e-05;-0.008212405254504743
1.27540e-05;-0.008219290034463193
1.27543e-05;-0.00822617481442169
1.27545e-05;-0.008234603328317382
1.27548e-05;-0.008246306505184698
1.27550e-05;-0.008258009682052092
1.27553e-05;-0.008269712858919486
1.27555e-05;-0.0082814160357868
1.27558e-05;-0.008293119212654194
1.27560e-05;-0.008304822389521588
1.27563e-05;-0.008316525566388904
1.27565e-05;-0.008328228743256299
1.27568e-05;-0.008339931920123693
1.27570e-05;-0.008351635096991007
1.27573e-05;-0.008365772704100037
1.27575e-05;-0.008380443311216531
1.27577e-05;-0.008395113918332926
1.27580e-05;-0.008409784525449422
1.27583e-05;-0.008424455132565916
1.27585e-05;-0.008439125739682411
1.27588e-05;-0.008453796346798806
1.27590e-05;-0.0084684669539153
1.27593e-05;-0.008483137561031796
1.27595e-05;-0.00849780816814819
1.27598e-05;-0.008512478775264684
1.27600e-05;-0.00852714938238118
1.27603e-05;-0.008541819989497575
1.27605e-05;-0.008554306564013644
1.27608e-05;-0.008562160234818234
1.27610e-05;-0.008570013905622769
1.27613e-05;-0.008577867576427358
1.27615e-05;-0.008585721247231948
1.27618e-05;-0.008593574918036483
1.27620e-05;-0.008601428588841071
1.27623e-05;-0.00860928225964566
1.27625e-05;-0.008617135930450196
1.27628e-05;-0.008624989601254785
1.27630e-05;-0.008632843272059374
1.27633e-05;-0.00864069694286391
1.27635e-05;-0.008648550613668498
1.27638e-05;-0.008656404284473087
1.27640e-05;-0.008654602771533104
1.27643e-05;-0.008650687329460274
1.27645e-05;-0.008646771887387444
1.27648e-05;-0.008642856445314642
1.27650e-05;-0.008638941003241814
1.27653e-05;-0.008635025561168984
1.27655e-05;-0.008631110119096182
1.27658e-05;-0.008627194677023352
1.27660e-05;-0.008623279234950524
1.27662e-05;-0.00861936379287772
1.27665e-05;-0.008615448350804892
1.27668e-05;-0.008609322923300284
1.27670e-05;-0.008598509539347847
1.27673e-05;-0.008587696155395482
1.27675e-05;-0.008576882771443044
1.27678e-05;-0.008566069387490608
1.27680e-05;-0.008555256003538243
1.27683e-05;-0.008544442619585806
1.27685e-05;-0.008533629235633368
1.27688e-05;-0.008522815851681005
1.27690e-05;-0.008512002467728567
1.27693e-05;-0.00850118908377613
1.27695e-05;-0.008490375699823765
1.27698e-05;-0.00847937725173387
1.27700e-05;-0.008468338285256952
1.27703e-05;-0.00845729931878011
1.27705e-05;-0.008446260352303192
1.27708e-05;-0.008435221385826275
1.27710e-05;-0.008424182419349432
1.27713e-05;-0.008413143452872515
1.27715e-05;-0.008402104486395598
1.27718e-05;-0.008392488419860579
1.27720e-05;-0.008383183886458452
1.27723e-05;-0.008373879353056328
1.27725e-05;-0.0083597015083268
1.27728e-05;-0.008344456689102919
1.27730e-05;-0.008329211869879038
1.27733e-05;-0.00830818096442334
1.27735e-05;-0.008285883239341896
1.27738e-05;-0.008263585514260452
1.27740e-05;-0.008235069813650246
1.27743e-05;-0.008205192734533514
1.27745e-05;-0.008175333976051965
1.27747e-05;-0.008147521600065724
1.27750e-05;-0.008119709224079296
1.27753e-05;-0.008092822186075162
1.27755e-05;-0.009946865471444216
1.27758e-05;-0.016181469790604343
1.27760e-05;-0.01966380517964745
1.27763e-05;-0.018350723673336046
1.27765e-05;-0.015846186865390487
1.27768e-05;-0.011442655309680015
1.27770e-05;-0.007888133980301564
1.27773e-05;-0.007387982099312542
1.27775e-05;-0.008775050788972663
1.27778e-05;-0.011677724328336012
1.27780e-05;-0.014209092814992899
1.27783e-05;-0.014142191057622487
1.27785e-05;-0.012259598876337137
1.27788e-05;-0.009737342874979616
1.27790e-05;-0.007453363123520546
1.27793e-05;-0.006730392543912384
1.27795e-05;-0.007424660251118806
1.27798e-05;-0.009032985135642154
1.27800e-05;-0.010168436830413366
1.27803e-05;-0.010073702573756192
1.27805e-05;-0.00888521144495817
1.27808e-05;-0.007432662063130755
1.27810e-05;-0.006382667770351017
1.27813e-05;-0.006097945593368825
1.27815e-05;-0.006666314392532535
1.27818e-05;-0.007564108075902179
1.27820e-05;-0.008189282017766992
1.27823e-05;-0.008135625226725672
1.27825e-05;-0.007399621180246521
1.27828e-05;-0.0065008947384624805
1.27830e-05;-0.005856873878223593
1.27832e-05;-0.005694595263517696
1.27835e-05;-0.006068884690292143
1.27838e-05;-0.006651544238457115
1.27840e-05;-0.007065311063942987
1.27843e-05;-0.007055617794652225
1.27845e-05;-0.006620156515914418
1.27848e-05;-0.006084296665515716
1.27850e-05;-0.005709364685828466
1.27853e-05;-0.005637406573994928
1.27855e-05;-0.005902586017681795
1.27858e-05;-0.006299148957279723
1.27860e-05;-0.006590626033973604
1.27863e-05;-0.006617421848248554
1.27865e-05;-0.006377962482690882
1.27868e-05;-0.006075921458274017
1.27870e-05;-0.005874838278458383
1.27873e-05;-0.005863523315781375
1.27875e-05;-0.0060632046088185025
1.27878e-05;-0.006344829182254153
1.27880e-05;-0.006560118860560883
1.27883e-05;-0.006608958505085111
1.27885e-05;-0.006490221802954683
1.27888e-05;-0.00633134470952886
1.27890e-05;-0.006234610960739127
1.27893e-05;-0.00625548733904986
1.27895e-05;-0.006407103384814668
1.27898e-05;-0.006608457032925143
1.27900e-05;-0.006766509979697384
1.27903e-05;-0.0068184010421265895
1.27905e-05;-0.006763277890561489
1.27908e-05;-0.006680815989799489
1.27910e-05;-0.006634929013749503
1.27913e-05;-0.006660199525763908
1.27915e-05;-0.00676468881321061
1.27917e-05;-0.006897503756640822
1.27920e-05;-0.007000516383533084
1.27923e-05;-0.007035357699219021
1.27925e-05;-0.0070028260771517565
1.27928e-05;-0.006953385043965942
1.27930e-05;-0.006927071818283857
1.27933e-05;-0.0069455330417742215
1.27935e-05;-0.007013799665734445
1.27938e-05;-0.007099976528199591
1.27940e-05;-0.007167638268396541
1.27943e-05;-0.007192741234183658
1.27945e-05;-0.007175774454906924
1.27948e-05;-0.007148338304500254
1.27950e-05;-0.007135497736535898
1.27953e-05;-0.007150797137224536
1.27955e-05;-0.0071973715189579054
1.27958e-05;-0.007255225771335691
1.27960e-05;-0.007301530741052023
1.27963e-05;-0.007321212795284185
1.27965e-05;-0.007314567603823935
1.27968e-05;-0.00730164175907004
1.27970e-05;-0.007305834806131617
1.27973e-05;-0.007310892670744884
1.27975e-05;-0.007344015809162082
1.27978e-05;-0.007383907388032063
1.27980e-05;-0.00740889081458797
1.27983e-05;-0.007433111401202213
1.27985e-05;-0.0074326388113605405
1.27988e-05;-0.0074281336573654684
1.27990e-05;-0.007434185857116628
1.27993e-05;-0.007440773758483133
1.27995e-05;-0.0074647433308987435
1.27998e-05;-0.0074926342987562565
1.28000e-05;-0.007505720312252208
1.28002e-05;-0.007518806325748071
1.28005e-05;-0.007531477119636599
1.28008e-05;-0.007531084503893538
1.28010e-05;-0.0075404638535425126
1.28013e-05;-0.0075498432031914225
1.28015e-05;-0.007559516364518617
1.28018e-05;-0.007578302830136526
1.28020e-05;-0.007585975531167461
1.28023e-05;-0.007593648232198448
1.28025e-05;-0.0076009401550901036
1.28028e-05;-0.007596038635838801
1.28030e-05;-0.00759322185071187
1.28033e-05;-0.007590405065584939
1.28035e-05;-0.007587659492227066
1.28038e-05;-0.007586894948170494
1.28040e-05;-0.007576103868718854
1.28043e-05;-0.0075653127892672855
1.28045e-05;-0.007554200592810371
1.28048e-05;-0.0075327278833028435
1.28050e-05;-0.007510516239036661
1.28053e-05;-0.007488304594770328
1.28055e-05;-0.0074660929505039955
1.28058e-05;-0.007440207821489885
1.28060e-05;-0.007411066738130166
1.28063e-05;-0.007381925654770448
1.28065e-05;-0.007352516671501424
1.28068e-05;-0.007314483320199277
1.28070e-05;-0.007276439419005428
1.28073e-05;-0.0072380558904154855
1.28075e-05;-0.007199672361825283
1.28078e-05;-0.007161288833235081
1.28080e-05;-0.007120316380597901
1.28083e-05;-0.007077049262518579
1.28085e-05;-0.007033782144439257
1.28087e-05;-0.00699049388114924
1.28090e-05;-0.006946524900638211
1.28093e-05;-0.006902555920127181
1.28095e-05;-0.0068586631130141225
1.28098e-05;-0.006817222518073026
1.28100e-05;-0.006775788292348175
1.28103e-05;-0.006734559107631235
1.28105e-05;-0.006693394807554293
1.28108e-05;-0.006654319306291151
1.28110e-05;-0.006615442424509289
1.28113e-05;-0.006582959600531641
1.28115e-05;-0.006550476776553773
1.28118e-05;-0.006518342870018185
1.28120e-05;-0.006497441488514536
1.28123e-05;-0.006476540107010745
1.28125e-05;-0.0064556387255069545
1.28128e-05;-0.006434737344003305
1.28130e-05;-0.006413835962499515
1.28133e-05;-0.006392934580995724
1.28135e-05;-0.006372033199492075
1.28138e-05;-0.0063515797026267445
1.28140e-05;-0.006345544732343231
1.28143e-05;-0.006339509762059759
1.28145e-05;-0.006333474791776246
1.28148e-05;-0.006327439821492732
1.28150e-05;-0.006321404851209259
1.28153e-05;-0.006315369880925746
1.28155e-05;-0.006309334910642232
1.28158e-05;-0.006303646649212789
1.28160e-05;-0.006309119812849085
1.28163e-05;-0.006314592976485381
1.28165e-05;-0.00632006614012164
1.28168e-05;-0.006325539303757936
1.28170e-05;-0.006331012467394232
1.28172e-05;-0.006336485631030491
1.28175e-05;-0.006341958794666787
1.28178e-05;-0.006347431958303083
1.28180e-05;-0.006356030889198531
1.28183e-05;-0.006367400310838326
1.28185e-05;-0.006378769732478198
1.28188e-05;-0.006390139154118071
1.28190e-05;-0.006401508575757866
1.28193e-05;-0.006412877997397738
1.28195e-05;-0.00642424741903761
1.28198e-05;-0.006435616840677406
1.28200e-05;-0.006446950893644077
1.28203e-05;-0.006457146340569115
1.28205e-05;-0.006467341787494084
1.28208e-05;-0.006477537234419123
1.28210e-05;-0.006487732681344162
1.28213e-05;-0.0064979281282691315
1.28215e-05;-0.006508123575194169
1.28218e-05;-0.006518319022119208
1.28220e-05;-0.006528514469044178
1.28223e-05;-0.0065385095444083115
1.28225e-05;-0.006542054158127301
1.28228e-05;-0.006545598771846265
1.28230e-05;-0.0065491433855652545
1.28233e-05;-0.006552687999284244
1.28235e-05;-0.006556232613003209
1.28238e-05;-0.0065597772267221984
1.28240e-05;-0.0065633218404411876
1.28243e-05;-0.006566866454160152
1.28245e-05;-0.006570186203377042
1.28248e-05;-0.00656626700191515
1.28250e-05;-0.006562347800453284
1.28253e-05;-0.006558428598991392
1.28255e-05;-0.006554509397529499
1.28257e-05;-0.006550590196067634
1.28260e-05;-0.006546670994605741
1.28263e-05;-0.006542751793143849
1.28265e-05;-0.0065388325916819565
1.28268e-05;-0.0065349133902200904
1.28270e-05;-0.006528425626001147
1.28273e-05;-0.006519661243353307
1.28275e-05;-0.006510896860705525
1.28278e-05;-0.0065021324780576845
1.28280e-05;-0.0064933680954098435
1.28283e-05;-0.006484603712762062
1.28285e-05;-0.006475839330114222
1.28288e-05;-0.006467074947466381
1.28290e-05;-0.0064583105648186
1.28293e-05;-0.006449524333810203
1.28295e-05;-0.006440034749434692
1.28298e-05;-0.006430545165059245
1.28300e-05;-0.006421055580683733
1.28303e-05;-0.006411565996308222
1.28305e-05;-0.006402076411932775
1.28308e-05;-0.006393556313140057
1.28310e-05;-0.006385895507638336
1.28313e-05;-0.0063782347021366665
1.28315e-05;-0.006370573896634945
1.28318e-05;-0.006362913091133225
1.28320e-05;-0.006355369888695022
1.28323e-05;-0.006351612622988156
1.28325e-05;-0.006347855357281291
1.28328e-05;-0.006344334828149882
1.28330e-05;-0.0063484354414459175
1.28333e-05;-0.006352536054741954
1.28335e-05;-0.0063566366680379615
1.28338e-05;-0.006360737281333998
1.28340e-05;-0.006364837894630033
1.28342e-05;-0.006368938507926042
1.28345e-05;-0.006373377198752447
1.28348e-05;-0.006388699450796118
1.28350e-05;-0.006404021702839788
1.28353e-05;-0.006419343954883356
1.28355e-05;-0.006434666206927026
1.28358e-05;-0.006449988458970697
1.28360e-05;-0.006465310711014264
1.28363e-05;-0.0064809089696541405
1.28365e-05;-0.006505392570906378
1.28368e-05;-0.00652987617215845
1.28370e-05;-0.006554359773410688
1.28373e-05;-0.006578843374662927
1.28375e-05;-0.006603326975914999
1.28378e-05;-0.006627810577167236
1.28380e-05;-0.006652294178419474
1.28383e-05;-0.006678625969284202
1.28385e-05;-0.006706595883462256
1.28388e-05;-0.0067345657976403085
1.28390e-05;-0.006762535711818173
1.28393e-05;-0.006790505625996227
1.28395e-05;-0.0068184755401742795
1.28398e-05;-0.006846445454352144
1.28400e-05;-0.00687435669036971
1.28403e-05;-0.0069003789296474705
1.28405e-05;-0.006926401168925054
1.28408e-05;-0.006952326864535958
1.28410e-05;-0.006975144578054895
1.28413e-05;-0.0069979622915736775
1.28415e-05;-0.007020489977185173
1.28418e-05;-0.007033680939093743
1.28420e-05;-0.007046871901002226
1.28423e-05;-0.007060062862910797
1.28425e-05;-0.007073253824819369
1.28427e-05;-0.00708644478672785
1.28430e-05;-0.007099635748636422
1.28433e-05;-0.0071128267105449935
1.28435e-05;-0.007125539034252558
1.28438e-05;-0.007122842797191401
1.28440e-05;-0.007120146560130227
1.28443e-05;-0.0071174503230690515
1.28445e-05;-0.007114754086007895
1.28448e-05;-0.00711205784894672
1.28450e-05;-0.007109361611885545
1.28453e-05;-0.007106665374824388
1.28455e-05;-0.007103574256111905
1.28458e-05;-0.007087770909435419
1.28460e-05;-0.00707196756275904
1.28463e-05;-0.007056164216082554
1.28465e-05;-0.007040360869406068
1.28468e-05;-0.007024557522729689
1.28470e-05;-0.007008754176053203
1.28473e-05;-0.006992727349643988
1.28475e-05;-0.0069695061517069294
1.28478e-05;-0.006946284953769713
1.28480e-05;-0.006923063755832497
1.28483e-05;-0.006899842557895439
1.28485e-05;-0.006876621359958222
1.28488e-05;-0.006853400162021007
1.28490e-05;-0.006830126417714044
1.28493e-05;-0.006805161074338043
1.28495e-05;-0.006780195730962043
1.28498e-05;-0.0067552547888868955
1.28500e-05;-0.006731099385709953
1.28503e-05;-0.006706943982533009
1.28505e-05;-0.006682840842471675
1.28508e-05;-0.006660420182810382
1.28510e-05;-0.00663806424645343
1.28512e-05;-0.006617791915141269
1.28515e-05;-0.006597605378858256
1.28518e-05;-0.0065801807991484875
1.28520e-05;-0.006562890330726833
1.28523e-05;-0.006549917240093171
1.28525e-05;-0.006537166466445705
1.28528e-05;-0.006531572632621693
1.28530e-05;-0.00652597879879772
1.28533e-05;-0.006520647823753044
1.28535e-05;-0.006523778930248908
1.28538e-05;-0.006526910036744752
1.28540e-05;-0.006530461941753332
1.28543e-05;-0.006547560403341575
1.28545e-05;-0.006564658864929703
1.28548e-05;-0.006581757326517945
1.28550e-05;-0.006598855788106189
1.28553e-05;-0.006615954249694316
1.28555e-05;-0.006633549500813917
1.28558e-05;-0.006667137649467424
1.28560e-05;-0.006700725798120704
1.28563e-05;-0.0067343139467742116
1.28565e-05;-0.006767902095427719
1.28568e-05;-0.006801490244080998
1.28570e-05;-0.006835430647682093
1.28573e-05;-0.0068807110190755695
1.28575e-05;-0.006925991390468738
1.28578e-05;-0.006971271761862215
1.28580e-05;-0.007016552133255691
1.28583e-05;-0.0070618325046488606
1.28585e-05;-0.007107112876042336
1.28588e-05;-0.007152457364482035
1.28590e-05;-0.007199865941004269
1.28593e-05;-0.007247274517526823
1.28595e-05;-0.007294683094049378
1.28597e-05;-0.0073420916705716115
1.28600e-05;-0.0073895002470941665
1.28603e-05;-0.007436908823616721
1.28605e-05;-0.007484139307922029
1.28608e-05;-0.007525636558319748
1.28610e-05;-0.0075671338087177475
1.28613e-05;-0.007608211887980681
1.28615e-05;-0.00763579579999548
1.28618e-05;-0.007663379712010466
1.28620e-05;-0.007690963624025452
1.28623e-05;-0.007718547536040251
1.28625e-05;-0.007746131448055238
1.28628e-05;-0.007773715360070224
1.28630e-05;-0.007801299272085023
1.28633e-05;-0.007817289267601045
1.28635e-05;-0.007823003117860836
1.28638e-05;-0.007828716968120588
1.28640e-05;-0.00783443081838038
1.28643e-05;-0.007840144668640171
1.28645e-05;-0.007845858518899924
1.28648e-05;-0.007851572369159714
1.28650e-05;-0.007856695889387828
1.28653e-05;-0.007842815209383167
1.28655e-05;-0.00782893452937841
1.28658e-05;-0.007815053849373655
1.28660e-05;-0.0078011731693689934
1.28663e-05;-0.007787292489364238
1.28665e-05;-0.007773411809359482
1.28668e-05;-0.00775953112935482
1.28670e-05;-0.007738775767240748
1.28673e-05;-0.007711927103354336
1.28675e-05;-0.007685078439468106
1.28678e-05;-0.007658229775581693
1.28680e-05;-0.007631381111695281
1.28682e-05;-0.00760453244780905
1.28685e-05;-0.007577683783922638
1.28688e-05;-0.007550719172706357
1.28690e-05;-0.0075200219269346705
1.28693e-05;-0.007489324681163192
1.28695e-05;-0.007458627435391506
1.28698e-05;-0.00742793018961982
1.28700e-05;-0.007397232943848342
1.28703e-05;-0.0073666611417117795
1.28705e-05;-0.007340127683950769
1.28708e-05;-0.00731359422618994
1.28710e-05;-0.0072870607684289304
1.28713e-05;-0.00726052731066792
1.28715e-05;-0.007233993852907091
1.28718e-05;-0.007207737363562549
1.28720e-05;-0.007190397180304492
1.28723e-05;-0.007173056997046553
1.28725e-05;-0.007155716813788496
1.28728e-05;-0.00713837663053044
1.28730e-05;-0.0071210364472725
1.28733e-05;-0.007103696264014444
1.28735e-05;-0.007086356080756387
1.28738e-05;-0.007069015897498448
1.28740e-05;-0.007051675714240391
1.28743e-05;-0.0070343355309823346
1.28745e-05;-0.007016995347724396
1.28748e-05;-0.006999655164466339
1.28750e-05;-0.006984805302414091
1.28753e-05;-0.00697216271022248
1.28755e-05;-0.006959520118030784
1.28758e-05;-0.006946877525839088
1.28760e-05;-0.006934234933647478
1.28763e-05;-0.006921592341455782
1.28765e-05;-0.006908949749264086
1.28767e-05;-0.006896307157072475
1.28770e-05;-0.006883664564880779
1.28773e-05;-0.006871021972689083
1.28775e-05;-0.006858379380497387
1.28778e-05;-0.006845736788305776
1.28780e-05;-0.006833158614425139
1.28783e-05;-0.006822654227106051
1.28785e-05;-0.006812149839787034
1.28788e-05;-0.006801645452467946
1.28790e-05;-0.006791141065148858
1.28793e-05;-0.006780636677829841
1.28795e-05;-0.006770132290510753
1.28798e-05;-0.006759627903191665
1.28800e-05;-0.006749195949926707
1.28803e-05;-0.00674109583004165
1.28805e-05;-0.006732995710156593
1.28808e-05;-0.00672489559027159
1.28810e-05;-0.006716795470386533
1.28813e-05;-0.006708695350501476
1.28815e-05;-0.006700595230616473
1.28818e-05;-0.006692495110731416
1.28820e-05;-0.0066844011523027195
1.28823e-05;-0.006676505546566116
1.28825e-05;-0.006668609940829459
1.28828e-05;-0.0066607143350928015
1.28830e-05;-0.006652818729356198
1.28833e-05;-0.0066449231236195404
1.28835e-05;-0.0066370275178828835
1.28838e-05;-0.00662913191214628
1.28840e-05;-0.0066212363064096225
1.28843e-05;-0.0066133407006729655
1.28845e-05;-0.006603617579179713
1.28848e-05;-0.006592274658424628
1.28850e-05;-0.006580931737669543
1.28853e-05;-0.006569588816914534
1.28855e-05;-0.006558245896159449
1.28858e-05;-0.0065469029754043635
1.28860e-05;-0.006535560054649278
1.28863e-05;-0.00652421713389427
1.28865e-05;-0.006512874213139185
1.28868e-05;-0.00650144978177222
1.28870e-05;-0.006487401319920995
1.28873e-05;-0.006473352858069674
1.28875e-05;-0.006459304396218353
1.28878e-05;-0.0064452559343671275
1.28880e-05;-0.006431207472515807
1.28883e-05;-0.006417159010664486
1.28885e-05;-0.0064031105488132605
1.28888e-05;-0.00638906208696194
1.28890e-05;-0.006375013625110619
1.28893e-05;-0.006361604867832099
1.28895e-05;-0.006348763105935613
1.28898e-05;-0.006335921344039128
1.28900e-05;-0.006323079582142731
1.28903e-05;-0.006310237820246246
1.28905e-05;-0.006297396058349761
1.28908e-05;-0.006284554296453364
1.28910e-05;-0.006271712534556878
1.28913e-05;-0.006258870772660394
1.28915e-05;-0.006246120482536818
1.28918e-05;-0.006236314897589549
1.28920e-05;-0.006226509312642282
1.28923e-05;-0.006216637949869912
1.28925e-05;-0.0062046490343668865
1.28928e-05;-0.0061926601188638615
1.28930e-05;-0.006180575805406052
1.28933e-05;-0.006165420393149335
1.28935e-05;-0.006150264980892617
1.28938e-05;-0.006134963872492079
1.28940e-05;-0.006114972440768138
1.28943e-05;-0.006094981009044196
1.28945e-05;-0.006074989577320254
1.28948e-05;-0.006054998145596449
1.28950e-05;-0.006035006713872507
1.28953e-05;-0.006011238238135128
1.28955e-05;-0.005984122019384185
1.28958e-05;-0.005957005800633058
1.28960e-05;-0.0059298895818819305
1.28963e-05;-0.005902773363130987
1.28965e-05;-0.005875491727642244
