Time(s);Current(A)
0.00000e+00;-4.398736067332812e-21
2.50000e-10;-3.677617574258411e-16
5.00000e-10;-4.656612791361613e-15
7.50000e-10;-8.359437339399177e-08
1.00000e-09;-4.923025215502678e-07
1.25000e-09;-1.2508643108732872e-06
1.50000e-09;-1.895571235504082e-06
1.75000e-09;-1.891786496568495e-06
2.00000e-09;-9.238092929870421e-07
2.25000e-09;1.1390875722075714e-06
2.50000e-09;4.289299548958221e-06
2.75000e-09;8.416916073521153e-06
3.00000e-09;1.3309053051785823e-05
3.25000e-09;1.8888627075600104e-05
3.50000e-09;2.53845076689061e-05
3.75000e-09;3.306997046121428e-05
4.00000e-09;4.208112201693279e-05
4.25000e-09;5.2438198150922775e-05
4.50000e-09;6.407478082528234e-05
4.75000e-09;7.686037608350794e-05
5.00000e-09;9.060000038345726e-05
5.25000e-09;0.00010518373278575525
5.50000e-09;0.00012069331696768831
5.75000e-09;0.00013723829880522544
6.00000e-09;0.00015484227906249043
6.25000e-09;0.00017375602423962307
6.50000e-09;0.00019311219607297432
6.75000e-09;0.00021343993214690358
7.00000e-09;0.0002342056388690626
7.25000e-09;0.00025574621477687386
7.50000e-09;0.00027763609333021226
7.75000e-09;0.00029952597188355056
8.00000e-09;0.00032215731021685806
8.25000e-09;0.00034512289059706935
8.50000e-09;0.0003680884709772805
8.75000e-09;0.0003910540513574918
9.00000e-09;0.0004138473148480774
9.25000e-09;0.0004359025144765661
9.50000e-09;0.000457957714105055
9.75000e-09;0.0004800129137335439
1.00000e-08;0.0005020681133620326
1.02500e-08;0.0005224941532372735
1.05000e-08;0.0005421857855217459
1.07500e-08;0.0005618774178062181
1.10000e-08;0.0005792699212803944
1.12500e-08;0.0005956260023613279
1.15000e-08;0.0006119820834422612
1.17500e-08;0.0006277348058692445
1.20000e-08;0.0006432155407428076
1.22500e-08;0.0006611135685713408
1.25000e-08;0.0006801012859111098
1.27500e-08;0.0007012734116680997
1.30000e-08;0.0007234302451063024
1.32500e-08;0.0007471787738466999
1.35000e-08;0.0007716448216086615
1.37500e-08;0.0007982960601547124
1.40000e-08;0.0008259323590644957
1.42500e-08;0.0008570034290716078
1.45000e-08;0.0008896228567283627
1.47500e-08;0.0009257302296818947
1.50000e-08;0.0009634099306388853
1.52500e-08;0.0010010896315958756
1.55000e-08;0.001041990584364156
1.57500e-08;0.0010843436425980136
1.60000e-08;0.0011266967008318708
1.62500e-08;0.0011733226144802068
1.65000e-08;0.0012218746851210627
1.67500e-08;0.0012704267557619182
1.70000e-08;0.0013189788264027734
1.72500e-08;0.0013682202625358865
1.75000e-08;0.0014204143735850618
1.77500e-08;0.001472608484634237
1.80000e-08;0.0015248025956834132
1.82500e-08;0.0015769967067325885
1.85000e-08;0.0016298372534217355
1.87500e-08;0.0016829692063035492
1.90000e-08;0.0017357137471608111
1.92500e-08;0.0017877255585029047
1.95000e-08;0.0018387267734214037
1.97500e-08;0.001888517926391247
2.00000e-08;0.0019370041928694576
2.02500e-08;0.001984029424478959
2.05000e-08;0.00202930848798164
2.07500e-08;0.002072506802911031
2.10000e-08;0.0021132836386819134
2.12500e-08;0.0021513008029357857
2.15000e-08;0.0021862219435329474
2.17500e-08;0.0022177163095313513
2.20000e-08;0.0022455121006234617
2.22500e-08;0.0022694522119326385
2.25000e-08;0.0022894618096797586
2.27500e-08;0.0023040907163871874
2.30000e-08;0.0023168470416916956
2.32500e-08;0.002323945851505114
2.35000e-08;0.002328494314544214
2.37500e-08;0.0023258460455522615
2.40000e-08;0.0023199535676226694
2.42500e-08;0.0023140610896930773
2.45000e-08;0.0022999475809558382
2.47500e-08;0.002282128120474433
2.50000e-08;0.0022643086599930273
2.52500e-08;0.0022390513914948415
2.55000e-08;0.0022104412396128682
2.57500e-08;0.002181831087730895
2.60000e-08;0.002146720416713964
2.62500e-08;0.0021086793820005766
2.65000e-08;0.0020706383472871887
2.67500e-08;0.0020259157900979555
2.70000e-08;0.001978181274864482
2.72500e-08;0.0019304467596310082
2.75000e-08;0.001882712244397535
2.77500e-08;0.0018349777291640616
2.80000e-08;0.0017861399928555343
2.82500e-08;0.0017325769646202073
2.85000e-08;0.00167901393638488
2.87500e-08;0.0016254509081495524
2.90000e-08;0.0015718878799142251
2.92500e-08;0.0015183248516788981
2.95000e-08;0.0014657470099557542
2.97500e-08;0.0014136132796535002
3.00000e-08;0.0013614795493512453
3.02500e-08;0.00131262499275611
3.05000e-08;0.0012652486521905278
3.07500e-08;0.0012178723116249457
3.10000e-08;0.00117484610470552
3.12500e-08;0.0011337808909693723
3.15000e-08;0.00109697583200265
3.17500e-08;0.0010620912047150633
3.20000e-08;0.0010272065774274768
3.22500e-08;0.0009926664322901387
3.25000e-08;0.0009582815759791553
3.27500e-08;0.0009238967196681718
3.30000e-08;0.0008895118633571876
3.32500e-08;0.0008552552243661175
3.35000e-08;0.0008215477629427732
3.37500e-08;0.000787840301519429
3.40000e-08;0.0007541328400960848
3.42500e-08;0.0007204253786727406
3.45000e-08;0.0006847395945184825
3.47500e-08;0.0006481620038807454
3.50000e-08;0.0006115844132430085
3.52500e-08;0.0005750068226052715
3.55000e-08;0.0005380619975260567
3.57500e-08;0.000499544242069788
3.60000e-08;0.0004610264866135184
3.62500e-08;0.0004225087311572497
3.65000e-08;0.000383990975700981
3.67500e-08;0.0003441211431848492
3.70000e-08;0.0003036418089583502
3.72500e-08;0.0002631624747318512
3.75000e-08;0.00022287884589962314
3.77500e-08;0.0001826834389417832
3.80000e-08;0.0001424880319839433
3.82500e-08;0.00010220727515334086
3.85000e-08;6.196026952639782e-05
3.87500e-08;2.1991919609134895e-05
3.90000e-08;-1.7445575264241875e-05
3.92500e-08;-5.610004062816249e-05
3.95000e-08;-9.374154819068707e-05
3.97500e-08;-0.00013027099531939676
4.00000e-08;-0.00016573271090893286
4.02500e-08;-0.00020010423405129006
4.05000e-08;-0.0002332061160516419
4.07500e-08;-0.00026479832784093794
4.10000e-08;-0.00029463572078650634
4.12500e-08;-0.0003224731824282405
4.15000e-08;-0.0003480430320309914
4.17500e-08;-0.0003709631198036589
4.20000e-08;-0.000390774069264805
4.22500e-08;-0.00040717839592926497
4.25000e-08;-0.0004200945275949133
4.27500e-08;-0.00042951553650745326
4.30000e-08;-0.0004354403658858467
4.32500e-08;-0.0004378680081135751
4.35000e-08;-0.0004367832907533318
4.37500e-08;-0.00043209939044566985
4.40000e-08;-0.00042368110914070957
4.42500e-08;-0.0004114946957772098
4.45000e-08;-0.0003956416018592781
4.47500e-08;-0.00037627005978015424
4.50000e-08;-0.00035353197147413283
4.52500e-08;-0.0003275792699537466
4.55000e-08;-0.0002985549993719261
4.57500e-08;-0.0002665573050427308
4.60000e-08;-0.00023165408661200378
4.62500e-08;-0.00019397670541755654
4.65000e-08;-0.00015374125425445166
4.67500e-08;-0.00011119311880507093
4.70000e-08;-6.65799500983251e-05
4.72500e-08;-2.0149401527522297e-05
4.75000e-08;2.7856431286162246e-05
4.77500e-08;7.722361730687892e-05
4.80000e-08;0.0001277571938760152
4.82500e-08;0.00017953068524474147
4.85000e-08;0.00023170808099395775
4.87500e-08;0.000283885476743174
4.90000e-08;0.0003361270132017851
4.92500e-08;0.0003883974635982484
4.95000e-08;0.0004397451824861526
4.97500e-08;0.0004906769439930989
5.00000e-08;0.0005399042891867688
5.02500e-08;0.0005883633019466183
5.05000e-08;0.000634229550905454
5.07500e-08;0.0006789270099940924
5.10000e-08;0.0007200819119037961
5.12500e-08;0.00075963986736442
5.15000e-08;0.0007950441568793354
5.17500e-08;0.0008285760187247393
5.20000e-08;0.0008621078805701433
5.22500e-08;0.0008954354711071034
5.25000e-08;0.0009286709783482433
5.27500e-08;0.0009619064855893839
5.30000e-08;0.0009943795038761453
5.32500e-08;0.0010265088003916963
5.35000e-08;0.0010586380969072472
5.37500e-08;0.0010907673934227981
5.40000e-08;0.0011232361944372026
5.42500e-08;0.0011571591535562847
5.45000e-08;0.0011910821126753662
5.47500e-08;0.0012250050717944475
5.50000e-08;0.001258928030913529
5.52500e-08;0.0012944448652630032
5.55000e-08;0.001330680201322087
5.57500e-08;0.0013669155373811715
5.60000e-08;0.001403150873440255
5.62500e-08;0.0014393862094993384
5.65000e-08;0.001475621545558422
5.67500e-08;0.0015131838426948332
5.70000e-08;0.001551344319528415
5.72500e-08;0.0015895047963619979
5.75000e-08;0.0016276652731955798
5.77500e-08;0.0016658257500291617
5.80000e-08;0.0017039862268627437
5.82500e-08;0.001742022969367026
5.85000e-08;0.0017800039337743509
5.87500e-08;0.0018179848981816767
5.90000e-08;0.001855090735095265
5.92500e-08;0.0018918020740027453
5.95000e-08;0.0019271389748691048
5.97500e-08;0.0019618562939366724
6.00000e-08;0.0019951488627552917
6.02500e-08;0.0020277991695761594
6.05000e-08;0.0020586794014488966
6.07500e-08;0.002088761702685584
6.10000e-08;0.0021164343139684037
6.12500e-08;0.00214302066309063
6.15000e-08;0.0021666592143392174
6.17500e-08;0.0021889689301988094
6.20000e-08;0.0022084324355134874
6.22500e-08;0.002226612899907878
6.25000e-08;0.0022412402418271657
6.27500e-08;0.0022542658745761664
6.30000e-08;0.0022672915073251674
6.32500e-08;0.0022756861166616594
6.35000e-08;0.00228199311074717
6.37500e-08;0.002288300104832681
6.40000e-08;0.0022882427517396647
6.42500e-08;0.002285316419794901
6.45000e-08;0.0022823900878501378
6.47500e-08;0.002279463755905374
6.50000e-08;0.0022765374239606105
6.52500e-08;0.002273611092015847
6.55000e-08;0.002263558293946442
6.57500e-08;0.002250292962049799
6.60000e-08;0.002237027630153156
6.62500e-08;0.002223762298256514
6.65000e-08;0.0022104969663598708
6.67500e-08;0.0021972316344632285
6.70000e-08;0.0021790610438048256
6.72500e-08;0.0021586792155669685
6.75000e-08;0.0021382973873291123
6.77500e-08;0.0021179155590912552
6.80000e-08;0.0020975337308533995
6.82500e-08;0.002077151902615542
6.85000e-08;0.002056770074377686
6.87500e-08;0.002035232177295114
6.90000e-08;0.0020131731368849357
6.92500e-08;0.001991114096474759
6.95000e-08;0.001969055056064581
6.97500e-08;0.001946996015654404
7.00000e-08;0.001924936975244226
7.02500e-08;0.001902877934834048
7.05000e-08;0.0018828514739945863
7.07500e-08;0.0018637412780349784
7.10000e-08;0.0018446310820753717
7.12500e-08;0.0018275399409610586
7.15000e-08;0.0018113589679267074
7.17500e-08;0.0017949842755062874
7.20000e-08;0.0017785222564824913
7.22500e-08;0.0017620602374586963
7.25000e-08;0.0017425564027991635
7.27500e-08;0.0017216813505606604
7.30000e-08;0.0017008062983221563
7.32500e-08;0.0016755084341046477
7.35000e-08;0.001648216814097721
7.37500e-08;0.0016209251940907928
7.40000e-08;0.001593633574083866
7.42500e-08;0.0015663419540769379
7.45000e-08;0.001539050334070011
7.47500e-08;0.0015096873744723644
7.50000e-08;0.0014714524992931104
7.52500e-08;0.0014332176241138586
7.55000e-08;0.0013949827489346046
7.57500e-08;0.0013567478737553527
7.60000e-08;0.0013185129985760987
7.62500e-08;0.0012802781233968448
7.65000e-08;0.0012367728139040053
7.67500e-08;0.0011908916496437966
7.70000e-08;0.0011450104853835904
7.72500e-08;0.001099129321123382
7.75000e-08;0.0010532481568631758
7.77500e-08;0.00100566218711233
7.80000e-08;0.0009573077094907152
7.82500e-08;0.0009089532318691028
7.85000e-08;0.0008605987542474879
7.87500e-08;0.0008122442766258755
7.90000e-08;0.0007646253148020999
7.92500e-08;0.0007173379155423935
7.95000e-08;0.0006700505162826897
7.97500e-08;0.0006246143708923011
8.00000e-08;0.0005800127507173591
8.02500e-08;0.0005373539480828897
8.05000e-08;0.0004955709465761909
8.07500e-08;0.0004557283753879824
8.10000e-08;0.0004183356142454615
8.12500e-08;0.0003834390079025912
8.15000e-08;0.00035129622190994806
8.17500e-08;0.0003218686854594468
8.20000e-08;0.00029476300543847565
8.22500e-08;0.0002696723908700998
8.25000e-08;0.0002465966875532864
8.27500e-08;0.00022565949125184545
8.30000e-08;0.00020699532891329037
8.32500e-08;0.00019073864822957896
8.35000e-08;0.00017699349335864248
8.37500e-08;0.00016567835722009825
8.40000e-08;0.00015648944202671606
8.42500e-08;0.00014917727941028404
8.45000e-08;0.00014368446866825537
8.47500e-08;0.0001400311107551279
8.50000e-08;0.00013824416033947468
8.52500e-08;0.0001383505174165767
8.55000e-08;0.00014035802178006935
8.57500e-08;0.00014415828562549585
8.60000e-08;0.00014950372133700033
8.62500e-08;0.00015618077291146312
8.65000e-08;0.00016409619324826634
8.67500e-08;0.00017320529624728387
8.70000e-08;0.00018346769031341216
8.72500e-08;0.00019484295926928765
8.75000e-08;0.00020758444662304825
8.77500e-08;0.00022078769034804935
8.80000e-08;0.0002350533983103258
8.82500e-08;0.0002497980536558916
8.85000e-08;0.00026454270900145817
8.87500e-08;0.0002799635951252234
8.90000e-08;0.0002956893187676128
8.92500e-08;0.000311415042410003
8.95000e-08;0.00032714076605239243
8.97500e-08;0.000342464022123193
9.00000e-08;0.000357605850167045
9.02500e-08;0.0003727476782108962
9.05000e-08;0.0003878895062547482
9.07500e-08;0.0004014467287782199
9.10000e-08;0.0004142896282770601
9.12500e-08;0.0004271325277758996
9.15000e-08;0.0004381117758996676
9.17500e-08;0.00044825091014652355
9.20000e-08;0.000458390044393379
9.22500e-08;0.00046719193311638905
9.25000e-08;0.0004753910060249987
9.27500e-08;0.0004835900789336088
9.30000e-08;0.0004903137416668394
9.32500e-08;0.000496372305455571
9.35000e-08;0.0005024308692443028
9.37500e-08;0.0005070583569801829
9.40000e-08;0.000511040731114346
9.42500e-08;0.0005150231052485089
9.45000e-08;0.0005169468388979278
9.47500e-08;0.000517942559689394
9.50000e-08;0.0005189382804808599
9.52500e-08;0.0005199340012723261
9.55000e-08;0.0005209297220637922
9.57500e-08;0.0005219254428552582
9.60000e-08;0.0005229211636467243
9.62500e-08;0.0005239168844381904
9.65000e-08;0.0005243149136528575
9.67500e-08;0.0005221529236234489
9.70000e-08;0.0005199909335940402
9.72500e-08;0.0005178289435646317
9.75000e-08;0.000515666953535223
9.77500e-08;0.0005135049635058143
9.80000e-08;0.0005113429734764057
9.82500e-08;0.000509180983446997
9.85000e-08;0.0005070189934175885
9.87500e-08;0.0005041403274880106
9.90000e-08;0.0005009385918164011
9.92500e-08;0.0004977368561447915
9.95000e-08;0.0004945351204731818
9.97500e-08;0.0004913333848015724
1.00000e-07;0.00048825697226582477
1.00250e-07;0.0004852370540438446
1.00500e-07;0.0004822171358218643
1.00750e-07;0.00047919721759988397
1.01000e-07;0.0004761772993779038
1.01250e-07;0.00047379456748091863
1.01500e-07;0.0004716990722854802
1.01750e-07;0.00046960357709004163
1.02000e-07;0.00046964182035503653
1.02250e-07;0.00047064192983293655
1.02500e-07;0.00047415771991463925
1.02750e-07;0.0004788075515952201
1.03000e-07;0.0004857464783981782
1.03250e-07;0.0004937173045164309
1.03500e-07;0.0005038883970264941
1.03750e-07;0.0005150513458211571
1.04000e-07;0.0005290428918758427
1.04250e-07;0.000544309538972566
1.04500e-07;0.0005624624176885976
1.04750e-07;0.0005819163783922835
1.05000e-07;0.0006038357175222869
1.05250e-07;0.0006268664225737835
1.05500e-07;0.0006525882489840892
1.05750e-07;0.0006795232037875247
1.06000e-07;0.0007064581585909617
1.06250e-07;0.0007366022218019786
1.06500e-07;0.0007681929163635793
1.06750e-07;0.00079978361092518
1.07000e-07;0.0008341446720379445
1.07250e-07;0.0008697545844191981
1.07500e-07;0.0009053644968004498
1.07750e-07;0.0009409744091817035
1.08000e-07;0.0009765843215629553
1.08250e-07;0.001012453801351296
1.08500e-07;0.0010494350544740373
1.08750e-07;0.0010864163075967768
1.09000e-07;0.001123397560719518
1.09250e-07;0.0011603788138422576
1.09500e-07;0.0011973600669649988
1.09750e-07;0.0012328973480514093
1.10000e-07;0.0012677837021662678
1.10250e-07;0.0013011525454065904
1.10500e-07;0.001333837311162719
1.10750e-07;0.0013636877423017953
1.11000e-07;0.001392260486060353
1.11250e-07;0.0014208332298189122
1.11500e-07;0.0014451668825314402
1.11750e-07;0.0014675895988634177
1.12000e-07;0.0014900123151953962
1.12250e-07;0.0015090574267066046
1.12500e-07;0.0015265799505071367
1.12750e-07;0.0015441024743076677
1.13000e-07;0.001555065146142325
1.13250e-07;0.0015630707076822283
1.13500e-07;0.0015710762692221314
1.13750e-07;0.0015790818307620347
1.14000e-07;0.0015870873923019377
1.14250e-07;0.001595092953841841
1.14500e-07;0.0016030985153817445
1.14750e-07;0.0016111040769216474
1.15000e-07;0.0016114035555083437
1.15250e-07;0.001608229215272343
1.15500e-07;0.0016050548750363423
1.15750e-07;0.0016018805348003418
1.16000e-07;0.0015987061945643409
1.16250e-07;0.0015955318543283401
1.16500e-07;0.0015923575140923396
1.16750e-07;0.001589183173856339
1.17000e-07;0.0015812980021004087
1.17250e-07;0.0015712892384620834
1.17500e-07;0.0015612804748237584
1.17750e-07;0.0015512717111854336
1.18000e-07;0.0015412629475471083
1.18250e-07;0.0015312541839087837
1.18500e-07;0.0015212454202704585
1.18750e-07;0.0015112366566321337
1.19000e-07;0.0015002953016566472
1.19250e-07;0.001488933544596134
1.19500e-07;0.0014775717875356216
1.19750e-07;0.001466210030475109
1.20000e-07;0.0014548482734145953
1.20250e-07;0.0014434865163540829
1.20500e-07;0.0014321247592935702
1.20750e-07;0.0014207630022330566
1.21000e-07;0.001411006561682512
1.21250e-07;0.0014019737804466382
1.21500e-07;0.0013929409992107645
1.21750e-07;0.001383664279997543
1.22000e-07;0.0013742775961833155
1.22250e-07;0.001364890912369088
1.22500e-07;0.0013516071244914813
1.22750e-07;0.001336566564265126
1.23000e-07;0.0013215260040387706
1.23250e-07;0.0013064854438124152
1.23500e-07;0.0012914448835860584
1.23750e-07;0.0012764043233597032
1.24000e-07;0.001261363763133348
1.24250e-07;0.0012401648694510617
1.24500e-07;0.001216189865674256
1.24750e-07;0.0011922148618974504
1.25000e-07;0.001168239858120642
1.25250e-07;0.0011442648543438362
1.25500e-07;0.0011202898505670304
1.25750e-07;0.0010963148467902247
1.26000e-07;0.0010671796826301966
1.26250e-07;0.0010357183739975297
1.26500e-07;0.0010042570653648628
1.26750e-07;0.0009727957567321926
1.27000e-07;0.0009413344480995257
1.27250e-07;0.0009098731394668589
1.27500e-07;0.0008761823928572353
1.27750e-07;0.0008414866397280325
1.28000e-07;0.0008067908865988333
1.28250e-07;0.0007720951334696342
1.28500e-07;0.0007373993803404314
1.28750e-07;0.0007027036272112322
1.29000e-07;0.0006686151813482514
1.29250e-07;0.0006348005030303842
1.29500e-07;0.0006009858247125134
1.29750e-07;0.0005671711463946462
1.30000e-07;0.0005358963569169438
1.30250e-07;0.0005057665218491581
1.30500e-07;0.00047563668678137557
1.30750e-07;0.000445506851713593
1.31000e-07;0.000418483589857118
1.31250e-07;0.00039286073759407444
1.31500e-07;0.00036934567194689313
1.31750e-07;0.00034848773772261864
1.32000e-07;0.0003303664355672835
1.32250e-07;0.00031521945928147504
1.32500e-07;0.0003031158705283941
1.32750e-07;0.0002940672489721346
1.33000e-07;0.0002880807250511604
1.33250e-07;0.0002851633690218655
1.33500e-07;0.0002853327959942846
1.33750e-07;0.000288658810282662
1.34000e-07;0.00029524190234747995
1.34250e-07;0.0003050992338811047
1.34500e-07;0.0003181423511973281
1.34750e-07;0.0003342467374549151
1.35000e-07;0.0003532851436383744
1.35250e-07;0.00037513025660133496
1.35500e-07;0.00039966139819113327
1.35750e-07;0.00042679057138015025
1.36000e-07;0.0004564490116682636
1.36250e-07;0.0004892592384821514
1.36500e-07;0.0005231388619976828
1.36750e-07;0.0005597009205937223
1.37000e-07;0.0005974721919026064
1.37250e-07;0.0006377582377408508
1.37500e-07;0.0006791779167294069
1.37750e-07;0.0007205975957179629
1.38000e-07;0.0007639620381338235
1.38250e-07;0.0008082031588621772
1.38500e-07;0.0008524442795905308
1.38750e-07;0.0008972132906610963
1.39000e-07;0.0009422202689866421
1.39250e-07;0.0009868024020421003
1.39500e-07;0.0010311930194462334
1.39750e-07;0.0010744646115006674
1.40000e-07;0.001117231759034263
1.40250e-07;0.0011581662422702798
1.40500e-07;0.001198274580268674
1.40750e-07;0.001236505237783534
1.41000e-07;0.0012723649251355073
1.41250e-07;0.0013058082990037951
1.41500e-07;0.001336506840601804
1.41750e-07;0.0013625741170365999
1.42000e-07;0.0013869530570340047
1.42250e-07;0.0014054451878658973
1.42500e-07;0.0014212836088157736
1.42750e-07;0.0014311223190428563
1.43000e-07;0.0014382564245873936
1.43250e-07;0.0014393982418640398
1.43500e-07;0.001437838800420507
1.43750e-07;0.0014300314574107798
1.44000e-07;0.0014194076279714961
1.44250e-07;0.0014023400645207164
1.44500e-07;0.0013823677354927657
1.44750e-07;0.0013564109418656037
1.45000e-07;0.001327756416343458
1.45250e-07;0.0012936521238247534
1.45500e-07;0.0012570911353054126
1.45750e-07;0.0012154501384078007
1.46000e-07;0.0011715191286942404
1.46250e-07;0.001122915382709001
1.46500e-07;0.0010722052177671484
