Time(s);Current(A)
1.23000e-05;-0.0014799398133417017
1.23003e-05;-0.0014808379963547045
1.23005e-05;-0.0014817361793677012
1.23008e-05;-0.0014826343623807043
1.23010e-05;-0.001483532545393707
1.23013e-05;-0.001484430728406704
1.23015e-05;-0.0014854769859450865
1.23018e-05;-0.0014865917790669013
1.23020e-05;-0.0014877065721887084
1.23023e-05;-0.0014888374407606092
1.23025e-05;-0.001489975749777433
1.23028e-05;-0.001491114058794249
1.23030e-05;-0.001492217431560639
1.23033e-05;-0.0014933046342511806
1.23035e-05;-0.001494391836941715
1.23038e-05;-0.0014954020843835796
1.23040e-05;-0.0014963767134579147
1.23042e-05;-0.0014973211713112371
1.23045e-05;-0.0014981314685172814
1.23048e-05;-0.0014989417657233254
1.23050e-05;-0.0014996476202526715
1.23053e-05;-0.00150030513399035
1.23055e-05;-0.0015010275065984221
1.23058e-05;-0.0015017798988233896
1.23060e-05;-0.0015026788535264382
1.23063e-05;-0.0015036456439691038
1.23065e-05;-0.0015046124344117692
1.23068e-05;-0.001505698729644251
1.23070e-05;-0.0015068403370951933
1.23073e-05;-0.0015079819445461356
1.23075e-05;-0.0015093941554068307
1.23078e-05;-0.0015109316137570919
1.23080e-05;-0.0015124690721073529
1.23083e-05;-0.0015140065304576034
1.23085e-05;-0.0015156209486475848
1.23088e-05;-0.0015175775797666375
1.23090e-05;-0.0015195342108856769
1.23093e-05;-0.0015214908420047293
1.23095e-05;-0.001523447473123782
1.23098e-05;-0.0015256282055667691
1.23100e-05;-0.0015279126622320862
1.23103e-05;-0.0015301971188974035
1.23105e-05;-0.001532593095681771
1.23108e-05;-0.001535040689018075
1.23110e-05;-0.001537488282354379
1.23113e-05;-0.0015399883729113203
1.23115e-05;-0.0015425127615549229
1.23118e-05;-0.0015450371501985255
1.23120e-05;-0.0015475739800732814
1.23123e-05;-0.0015501165683121962
1.23125e-05;-0.001552659156551111
1.23127e-05;-0.0015551134093959842
1.23130e-05;-0.0015575267766276713
1.23133e-05;-0.0015599401438593581
1.23135e-05;-0.0015622318178117247
1.23138e-05;-0.0015644671666137846
1.23140e-05;-0.0015666074553904743
1.23143e-05;-0.0015686240054916829
1.23145e-05;-0.0015705115723178194
1.23148e-05;-0.0015722521114940346
1.23150e-05;-0.001573783331366971
1.23153e-05;-0.0015747893666165985
1.23155e-05;-0.001574694862835787
1.23158e-05;-0.001573095349234808
1.23160e-05;-0.0015699256869339717
1.23163e-05;-0.0015652495525767774
1.23165e-05;-0.001558685768666364
1.23168e-05;-0.001551465457576063
1.23170e-05;-0.0015429009364492726
1.23173e-05;-0.0015327033311757106
1.23175e-05;-0.0015195391536491365
1.23178e-05;-0.0015052184780550253
1.23180e-05;-0.0014908978024609138
1.23183e-05;-0.0014736850711627794
1.23185e-05;-0.0014551337657607091
1.23188e-05;-0.0014346795488503978
1.23190e-05;-0.0014133445784806074
1.23193e-05;-0.0013901963450901657
1.23195e-05;-0.001366208851612404
1.23198e-05;-0.0013403613808113525
1.23200e-05;-0.0013136530284318516
1.23203e-05;-0.001285484038375017
1.23205e-05;-0.0012566389991789
1.23208e-05;-0.0012267902789110856
1.23210e-05;-0.0011964770096758919
1.23212e-05;-0.0011654511682624908
1.23215e-05;-0.0011340955162356587
1.23218e-05;-0.0011022330498333271
1.23220e-05;-0.0010701360068296577
1.23223e-05;-0.0010379570347373557
1.23225e-05;-0.001005860389709522
1.23228e-05;-0.0009740707586488634
1.23230e-05;-0.0009427731713762368
1.23233e-05;-0.000912113556022475
1.23235e-05;-0.0008821977948604823
1.23238e-05;-0.0008531582249035151
1.23240e-05;-0.0008251793760901501
1.23243e-05;-0.0007984655296000403
1.23245e-05;-0.0007738181320236212
1.23248e-05;-0.0007499323855371362
1.23250e-05;-0.0007279144153547256
1.23253e-05;-0.0007077895265325877
1.23255e-05;-0.0006886770547722422
1.23258e-05;-0.0006703176299293151
1.23260e-05;-0.0006521918516324756
1.23263e-05;-0.0006350123364008373
1.23265e-05;-0.0006182707944880581
1.23268e-05;-0.0006024741428609353
1.23270e-05;-0.0005878329720469242
1.23273e-05;-0.0005740955849290091
1.23275e-05;-0.0005608914912020501
1.23278e-05;-0.0005480393655621821
1.23280e-05;-0.0005352925572102333
1.23283e-05;-0.0005230399097854937
1.23285e-05;-0.0005110159823744292
1.23288e-05;-0.0004997339131101784
1.23290e-05;-0.0004887952093292588
1.23293e-05;-0.0004783979179530344
1.23295e-05;-0.0004684830772241752
1.23297e-05;-0.0004586755520216097
1.23300e-05;-0.00044886802681897776
1.23303e-05;-0.00043940772536948383
1.23305e-05;-0.000430108134767961
1.23308e-05;-0.0004212930458966838
1.23310e-05;-0.0004127022063262956
1.23313e-05;-0.00040454054944048665
1.23315e-05;-0.00039657753770076505
1.23318e-05;-0.0003888711827240116
1.23320e-05;-0.00038128362009840476
1.23323e-05;-0.0003736960574728493
1.23325e-05;-0.00036663424960444927
1.23328e-05;-0.0003598157848024921
1.23330e-05;-0.00035299732000058107
1.23333e-05;-0.000346764534777164
1.23335e-05;-0.0003408028285361921
1.23338e-05;-0.0003348411222952606
1.23340e-05;-0.00032936048583514886
1.23343e-05;-0.0003241025102146208
1.23345e-05;-0.0003188445345941284
1.23348e-05;-0.00031428159007703267
1.23350e-05;-0.000310040337370957
1.23353e-05;-0.00030579908466491
1.23355e-05;-0.00030224706688100167
1.23358e-05;-0.00029901405817343857
1.23360e-05;-0.0002957810494658974
1.23363e-05;-0.0002935945499057956
1.23365e-05;-0.0002918924220828065
1.23368e-05;-0.0002901902942598289
1.23370e-05;-0.00028848816643683984
1.23373e-05;-0.00028678603861385075
1.23375e-05;-0.00028508391079087316
1.23378e-05;-0.0002846860729661418
1.23380e-05;-0.0002848919195083243
1.23382e-05;-0.00028509776605050547
1.23385e-05;-0.000285303612592688
1.23388e-05;-0.0002855094591348705
1.23390e-05;-0.0002857153056770517
1.23393e-05;-0.0002866796163589606
1.23395e-05;-0.0002879949785283679
1.23398e-05;-0.0002896015689629539
1.23400e-05;-0.00029134295300257507
1.23403e-05;-0.0002933409274873489
1.23405e-05;-0.0002954576636283824
1.23408e-05;-0.0002978020126241434
1.23410e-05;-0.0003002517111375171
1.23413e-05;-0.00030287897573004567
1.23415e-05;-0.00030558842593022737
1.23418e-05;-0.0003084030728411862
1.23420e-05;-0.0003112664095449263
1.23423e-05;-0.00031418567210282
1.23425e-05;-0.0003171308196739739
1.23428e-05;-0.0003200861138782222
1.23430e-05;-0.000323046104402889
1.23433e-05;-0.0003259573015596079
1.23435e-05;-0.0003288459149400996
1.23438e-05;-0.0003315701263373011
1.23440e-05;-0.000334218245065452
1.23443e-05;-0.00033686636379360295
1.23445e-05;-0.00033932500575433046
1.23448e-05;-0.000341577870346776
1.23450e-05;-0.0003436780781226999
1.23453e-05;-0.0003458358237650414
1.23455e-05;-0.00034846838877034545
1.23458e-05;-0.00035187271886805285
1.23460e-05;-0.0003560915743660352
1.23463e-05;-0.00036107023457412955
1.23465e-05;-0.0003669556148407324
1.23467e-05;-0.00037315231511004675
1.23470e-05;-0.00037995689817851424
1.23473e-05;-0.0003875324019827399
1.23475e-05;-0.0003959929554455686
1.23478e-05;-0.00040580737465535193
1.23480e-05;-0.0004161073657731423
1.23483e-05;-0.0004273451644284536
1.23485e-05;-0.0004400268183805891
1.23488e-05;-0.00045317585137072684
1.23490e-05;-0.0004663248843608646
1.23493e-05;-0.00048091126419414404
1.23495e-05;-0.0004961629131169053
1.23498e-05;-0.0005114145620396666
1.23500e-05;-0.0005278576511682198
1.23503e-05;-0.0005448521926791594
1.23505e-05;-0.0005624862705053655
1.23508e-05;-0.0005804163546462152
1.23510e-05;-0.000598734358497093
1.23513e-05;-0.0006172319091243097
1.23515e-05;-0.000636054669289716
1.23518e-05;-0.0006550279511295785
1.23520e-05;-0.0006741289810696197
1.23523e-05;-0.0006932891386047151
1.23525e-05;-0.0007122601708572292
1.23528e-05;-0.0007311436673801327
1.23530e-05;-0.0007495433286672464
1.23533e-05;-0.0007677190491372725
1.23535e-05;-0.0007852347410722817
1.23538e-05;-0.000802444941966789
1.23540e-05;-0.0008190063552042406
1.23543e-05;-0.0008347236206538937
1.23545e-05;-0.0008492049200224976
1.23548e-05;-0.0008632306671000372
1.23550e-05;-0.0008761476259248471
1.23552e-05;-0.0008879965456551815
1.23555e-05;-0.0008994094421398406
1.23558e-05;-0.0009107290829176996
1.23560e-05;-0.0009219899577029304
1.23563e-05;-0.0009331056727283277
1.23565e-05;-0.0009438531528101111
1.23568e-05;-0.0009544559401799733
1.23570e-05;-0.0009646412234410478
1.23573e-05;-0.0009744524579061398
1.23575e-05;-0.0009842209902222265
1.23578e-05;-0.0009941881470812495
1.23580e-05;-0.0010042384564375516
1.23583e-05;-0.001014363970250891
1.23585e-05;-0.0010245242920862505
1.23588e-05;-0.001034548768410397
1.23590e-05;-0.001044510369291467
1.23593e-05;-0.0010543983971348717
1.23595e-05;-0.0010642523720509126
1.23598e-05;-0.0010742958303661097
1.23600e-05;-0.0010844269901633518
1.23603e-05;-0.0010946155281760302
1.23605e-05;-0.0011048306234203783
1.23608e-05;-0.0011148720719712719
1.23610e-05;-0.0011248331489833935
1.23613e-05;-0.0011347942259955152
1.23615e-05;-0.0011446319252546016
1.23618e-05;-0.0011544125197127842
1.23620e-05;-0.0011641931141709667
1.23623e-05;-0.0011737964675075081
1.23625e-05;-0.0011833177856414286
1.23628e-05;-0.0011923951587345465
1.23630e-05;-0.0012012670539955953
1.23633e-05;-0.0012101389492567042
1.23635e-05;-0.001218423772264346
1.23637e-05;-0.001226436871696283
1.23640e-05;-0.0012344499711282747
1.23643e-05;-0.0012418374411010571
1.23645e-05;-0.0012489353414804581
1.23648e-05;-0.001255349876068878
1.23650e-05;-0.0012614481180797993
1.23653e-05;-0.0012669049337164693
1.23655e-05;-0.0012720648682334303
1.23658e-05;-0.0012766832643419474
1.23660e-05;-0.001281051011996465
1.23663e-05;-0.001285418759650953
1.23665e-05;-0.0012890184933936858
1.23668e-05;-0.0012922627555823588
1.23670e-05;-0.0012955070177710097
1.23673e-05;-0.0012981012985810796
1.23675e-05;-0.0013003947386287312
1.23678e-05;-0.0013022403871995219
1.23680e-05;-0.0013038787776338068
1.23683e-05;-0.0013055171680680917
1.23685e-05;-0.0013065786726727494
1.23688e-05;-0.0013073731684391128
1.23690e-05;-0.0013081676642054763
1.23693e-05;-0.001308503837218294
1.23695e-05;-0.001308627877743701
1.23698e-05;-0.0013085072849348188
1.23700e-05;-0.001308273464760931
1.23703e-05;-0.0013077460554060366
1.23705e-05;-0.0013070827597073725
1.23708e-05;-0.0013064194640087128
1.23710e-05;-0.0013054692507060979
1.23713e-05;-0.001304386238967142
1.23715e-05;-0.0013031607366670234
1.23718e-05;-0.0013018692832943363
1.23720e-05;-0.0013004887385040399
1.23723e-05;-0.001299066958178577
1.23725e-05;-0.0012975706896290033
1.23728e-05;-0.001296039944562301
1.23730e-05;-0.0012944575511436417
1.23733e-05;-0.0012928512525330737
1.23735e-05;-0.0012912638545135569
1.23738e-05;-0.0012896852045419227
1.23740e-05;-0.0012881552186184157
1.23743e-05;-0.0012866892185442371
1.23745e-05;-0.0012852902373676105
1.23748e-05;-0.0012839677474771629
1.23750e-05;-0.0012826964382602966
1.23753e-05;-0.0012812507144195388
1.23755e-05;-0.0012791958387497692
1.23758e-05;-0.0012762238751285134
1.23760e-05;-0.0012722886326701805
1.23763e-05;-0.001267444001359679
1.23765e-05;-0.0012614911537457683
1.23768e-05;-0.0012551556573089638
1.23770e-05;-0.001248057094273106
1.23773e-05;-0.0012400091254044438
1.23775e-05;-0.0012301098560103879
1.23778e-05;-0.0012194814475685188
1.23780e-05;-0.0012088530391265778
1.23783e-05;-0.001196409882145232
1.23785e-05;-0.0011831267775095468
1.23788e-05;-0.0011684189264250728
1.23790e-05;-0.00115305163828263
1.23793e-05;-0.0011376843501402917
1.23795e-05;-0.0011208630693714345
1.23798e-05;-0.0011033688150915528
1.23800e-05;-0.0010848041109161818
1.23803e-05;-0.001065743954142406
1.23805e-05;-0.001045928410378138
1.23808e-05;-0.0010257632393697175
1.23810e-05;-0.0010051214551409736
1.23813e-05;-0.000984259072769995
1.23815e-05;-0.0009630077162353668
1.23818e-05;-0.0009415763248751286
1.23820e-05;-0.0009199849350378197
1.23823e-05;-0.0008983194906730485
1.23825e-05;-0.0008768459171506094
1.23828e-05;-0.0008554611501267629
1.23830e-05;-0.0008345974027643791
1.23833e-05;-0.0008139748068526733
1.23835e-05;-0.0007938714997060526
1.23838e-05;-0.0007744307223909104
1.23840e-05;-0.0007556987684745534
1.23843e-05;-0.0007378119332641774
1.23845e-05;-0.0007209077798795941
1.23848e-05;-0.0007051239326050827
1.23850e-05;-0.0006906099897738845
1.23853e-05;-0.0006775769409705136
1.23855e-05;-0.0006662766740587023
1.23858e-05;-0.0006568727795274906
1.23860e-05;-0.0006494111448765256
1.23863e-05;-0.0006438964239317441
1.23865e-05;-0.0006409965494725422
1.23868e-05;-0.0006390217672645548
1.23870e-05;-0.0006397477203545046
1.23873e-05;-0.0006417236958195408
1.23875e-05;-0.0006465457421800107
1.23878e-05;-0.000652685078799516
1.23880e-05;-0.0006615786493373367
1.23883e-05;-0.0006717470038299713
1.23885e-05;-0.0006844423275549623
1.23888e-05;-0.0006983072468653979
1.23890e-05;-0.000714490094871266
1.23893e-05;-0.0007317457850527769
1.23895e-05;-0.0007511785646834681
1.23898e-05;-0.000771618999720485
1.23900e-05;-0.0007939472456865783
1.23903e-05;-0.0008171492558841433
1.23905e-05;-0.0008418648850988946
1.23908e-05;-0.0008672810856137774
1.23910e-05;-0.0008938482525418527
1.23913e-05;-0.000920948138752488
1.23915e-05;-0.0009488790740038081
1.23918e-05;-0.0009771946563162598
1.23920e-05;-0.0010059283992843086
1.23923e-05;-0.0010348556859054918
1.23925e-05;-0.001063735183874168
1.23928e-05;-0.001092592563094594
1.23930e-05;-0.0011211242950789554
1.23933e-05;-0.0011491436051757095
1.23935e-05;-0.0011765299538609884
1.23938e-05;-0.0012031168557368303
1.23940e-05;-0.001228719545495967
1.23943e-05;-0.0012531469619409743
1.23945e-05;-0.0012750731419701301
1.23948e-05;-0.001296022622404247
1.23950e-05;-0.0013169721028385057
1.23953e-05;-0.0013357520606920572
1.23955e-05;-0.0013529086422742554
1.23958e-05;-0.0013690832765939187
1.23960e-05;-0.0013849360748360406
1.23963e-05;-0.0013996311621380707
1.23965e-05;-0.0014137904084859153
1.23968e-05;-0.001426491086275036
1.23970e-05;-0.001438516672604355
1.23973e-05;-0.0014494808017406046
1.23975e-05;-0.0014595311426638402
1.23978e-05;-0.0014689046637529602
1.23980e-05;-0.0014780554319175055
1.23983e-05;-0.0014864300025461913
1.23985e-05;-0.0014944453138692434
1.23988e-05;-0.0015015078762407716
1.23990e-05;-0.0015081294633309658
1.23993e-05;-0.001514064421791506
1.23995e-05;-0.0015193054358277737
1.23998e-05;-0.0015243723545026301
1.24000e-05;-0.0015288664062105748
1.24003e-05;-0.0015330953091912314
1.24005e-05;-0.0015373242121719166
1.24008e-05;-0.0015408384738574963
1.24010e-05;-0.0015440219672481542
1.24013e-05;-0.0015467100661998596
1.24015e-05;-0.0015491688742121663
1.24018e-05;-0.0015513160147940172
1.24020e-05;-0.0015533189016009423
1.24023e-05;-0.0015553217884078676
1.24025e-05;-0.0015568941927004277
1.24028e-05;-0.0015582673502264836
1.24030e-05;-0.0015596405077525396
1.24033e-05;-0.0015606919705872203
1.24035e-05;-0.0015615945385773445
1.24038e-05;-0.0015624219021104701
1.24040e-05;-0.0015632144576214625
1.24043e-05;-0.0015639352306772093
1.24045e-05;-0.0015646227795679192
1.24048e-05;-0.0015652221522275632
1.24050e-05;-0.0015657807129416889
1.24053e-05;-0.0015663980047555647
1.24055e-05;-0.0015670424799771943
1.24058e-05;-0.001567989881934867
1.24060e-05;-0.0015690774920790352
1.24063e-05;-0.001570600815006346
1.24065e-05;-0.0015723258055050345
1.24068e-05;-0.0015740507960037228
1.24070e-05;-0.0015757757865023996
1.24073e-05;-0.0015776927609984048
1.24075e-05;-0.0015804634197878144
1.24078e-05;-0.001583234078577224
1.24080e-05;-0.0015860047373666146
1.24083e-05;-0.0015887753961560242
1.24085e-05;-0.0015923059161808643
1.24088e-05;-0.0015961881343331227
1.24090e-05;-0.0016000703524854073
1.24093e-05;-0.001603952570637692
1.24095e-05;-0.00160783478878995
1.24098e-05;-0.0016123635583606382
1.24100e-05;-0.0016171915811535736
1.24103e-05;-0.0016220196039464763
1.24105e-05;-0.0016268476267394117
1.24108e-05;-0.0016316756495323471
1.24110e-05;-0.0016367911151665426
1.24113e-05;-0.0016420396223408953
1.24115e-05;-0.0016472881295152481
1.24118e-05;-0.0016526352115615853
1.24120e-05;-0.0016580279185145744
1.24123e-05;-0.0016634206254675635
1.24125e-05;-0.0016687253949337715
1.24128e-05;-0.0016739894629561418
1.24130e-05;-0.0016792535309785122
1.24133e-05;-0.0016842594102954242
1.24135e-05;-0.0016891457882086806
1.24138e-05;-0.001694032166121937
1.24140e-05;-0.0016985948332807947
1.24143e-05;-0.0017030076724699665
1.24145e-05;-0.0017070482297016876
1.24148e-05;-0.0017109164780153268
1.24150e-05;-0.0017141674131302073
1.24153e-05;-0.0017171326277924611
1.24155e-05;-0.0017200978424546948
1.24158e-05;-0.0017219344774040077
1.24160e-05;-0.0017232487546472949
1.24163e-05;-0.001724563031890582
1.24165e-05;-0.00172587730913386
1.24168e-05;-0.0017268072336547033
1.24170e-05;-0.001726028078840749
1.24173e-05;-0.0017252489240268001
1.24175e-05;-0.0017244697692128457
1.24178e-05;-0.0017236906143988915
1.24180e-05;-0.0017217331945288015
1.24183e-05;-0.0017192304203299514
1.24185e-05;-0.0017167276461311015
1.24188e-05;-0.0017135169685322164
1.24190e-05;-0.0017099786412406086
1.24193e-05;-0.0017059218011029722
1.24195e-05;-0.00170162496978203
1.24198e-05;-0.0016968641786893888
1.24200e-05;-0.0016918886460421665
1.24203e-05;-0.001686612414939191
1.24205e-05;-0.001681022803235122
1.24208e-05;-0.001675197855843385
1.24210e-05;-0.0016691660149364329
1.24213e-05;-0.001662954730875478
1.24215e-05;-0.0016565921261553283
1.24218e-05;-0.0016501100222026353
1.24220e-05;-0.001643543703335253
1.24223e-05;-0.0016369297726254927
1.24225e-05;-0.0016303048581522246
1.24228e-05;-0.0016237054347449766
1.24230e-05;-0.0016171680199809613
1.24233e-05;-0.001610728372456916
1.24235e-05;-0.0016044227578263842
1.24238e-05;-0.0015982896772888122
1.24240e-05;-0.0015923699912703006
1.24243e-05;-0.0015867051804592247
1.24245e-05;-0.0015813366887101957
1.24248e-05;-0.0015763060394592202
1.24250e-05;-0.0015716554296277088
1.24253e-05;-0.0015675896969374191
1.24255e-05;-0.0015637370482768785
1.24258e-05;-0.0015607201108025009
1.24260e-05;-0.0015580899782415723
1.24263e-05;-0.0015554598456806437
1.24265e-05;-0.001554229014729878
1.24268e-05;-0.0015536458438167166
1.24270e-05;-0.0015530626729035552
1.24273e-05;-0.0015524795019903977
1.24275e-05;-0.0015518963310772362
1.24278e-05;-0.0015530407776409977
1.24280e-05;-0.0015549848436663064
1.24283e-05;-0.0015569289096916284
1.24285e-05;-0.0015588729757169504
1.24288e-05;-0.001560817041742259
1.24290e-05;-0.001563982518341227
1.24293e-05;-0.001567713318964922
1.24295e-05;-0.0015714441195885918
1.24298e-05;-0.0015759347637628034
1.24300e-05;-0.001580777097879302
1.24303e-05;-0.0015856194319957679
1.24305e-05;-0.0015910380683443151
1.24308e-05;-0.0015967234434163772
1.24310e-05;-0.0016024088184884006
1.24313e-05;-0.0016084797125633756
1.24315e-05;-0.0016147290422594744
1.24318e-05;-0.0016209783719555312
1.24320e-05;-0.0016273924617512014
1.24323e-05;-0.0016338828099685893
1.24325e-05;-0.0016403731581859332
1.24328e-05;-0.0016467856492318133
1.24330e-05;-0.0016531621044593471
1.24333e-05;-0.0016595385596868812
1.24335e-05;-0.0016656680471914646
1.24338e-05;-0.0016716832268702624
1.24340e-05;-0.0016772529361977408
1.24343e-05;-0.0016826164617100223
1.24345e-05;-0.0016879799872223402
1.24348e-05;-0.0016925697689600403
1.24350e-05;-0.0016968014271033134
1.24353e-05;-0.0017010330852466153
1.24355e-05;-0.0017040393272174238
1.24358e-05;-0.0017064783911911355
1.24360e-05;-0.0017089174551648636
1.24363e-05;-0.0017113565191385917
1.24365e-05;-0.0017137955831123034
1.24368e-05;-0.0017146068883950962
1.24370e-05;-0.001714664793376173
1.24373e-05;-0.0017147226983572493
1.24375e-05;-0.001714780603338326
1.24378e-05;-0.001714838508319403
1.24380e-05;-0.001713647165140653
1.24383e-05;-0.0017118776134437722
1.24385e-05;-0.0017101080617468916
1.24388e-05;-0.0017074905433228354
1.24390e-05;-0.0017044805475667853
1.24393e-05;-0.0017014705518107354
1.24395e-05;-0.0016978385608149012
1.24398e-05;-0.0016939186823060055
1.24400e-05;-0.0016895838263993538
1.24403e-05;-0.0016850569001948222
1.24405e-05;-0.0016801798554628058
1.24408e-05;-0.001675140760049866
1.24410e-05;-0.0016698189515857572
1.24413e-05;-0.0016643662907420273
1.24415e-05;-0.0016587543078635306
1.24417e-05;-0.0016529940953214956
1.24420e-05;-0.0016471470416773851
1.24423e-05;-0.001641245271646398
1.24425e-05;-0.0016353207994420364
1.24428e-05;-0.0016294055596964068
1.24430e-05;-0.0016235319276962253
