Time(s);Current(A)
3.00000e-06;-0.0031772607581486627
3.00025e-06;-0.0031544923659210726
3.00050e-06;-0.0031317239736934825
3.00075e-06;-0.003108955581465931
3.00100e-06;-0.003086187189238341
3.00125e-06;-0.003063418797010751
3.00150e-06;-0.00303830434591054
3.00175e-06;-0.003011472903730761
3.00200e-06;-0.002984641461550982
3.00225e-06;-0.0029578100193712025
3.00250e-06;-0.002930978577191469
3.00275e-06;-0.00290414713501169
3.00300e-06;-0.002876693125921605
3.00325e-06;-0.002848783483836219
3.00350e-06;-0.002820873841750786
3.00375e-06;-0.0027932785192125095
3.00400e-06;-0.0027659132351719393
3.00425e-06;-0.0027391947395580046
3.00450e-06;-0.002712949603744053
3.00475e-06;-0.002687534094074454
3.00500e-06;-0.0026627257561625327
3.00525e-06;-0.0026390743373536653
3.00550e-06;-0.0026162696235456652
3.00575e-06;-0.002594583379144267
3.00600e-06;-0.0025745950686348845
3.00625e-06;-0.002556871204418818
3.00650e-06;-0.002540333593046049
3.00675e-06;-0.002526531220487079
3.00700e-06;-0.00251473066497477
3.00725e-06;-0.0025058479171149936
3.00750e-06;-0.002499100601477232
3.00775e-06;-0.002496000382957405
3.00800e-06;-0.002495569335825787
3.00825e-06;-0.002495138288694169
3.00850e-06;-0.002499292166214437
3.00875e-06;-0.002506801575353999
3.00900e-06;-0.0025143109844935614
3.00925e-06;-0.002526299738465625
3.00950e-06;-0.0025415667542108677
3.00975e-06;-0.0025568337699561103
3.01000e-06;-0.002576035785004996
3.01025e-06;-0.0025981176760797725
3.01050e-06;-0.002620199567154549
3.01075e-06;-0.0026452659478730456
3.01100e-06;-0.00267251656282157
3.01125e-06;-0.002701784576882442
3.01150e-06;-0.0027325290484696827
3.01175e-06;-0.0027648720729120456
3.01200e-06;-0.0027983850172676526
3.01225e-06;-0.002833102068990264
3.01250e-06;-0.002868700361005757
3.01275e-06;-0.002905151133880248
3.01300e-06;-0.00294222580500715
3.01325e-06;-0.0029796499516100217
3.01350e-06;-0.0030173900948903
3.01375e-06;-0.0030551046777435907
3.01400e-06;-0.0030925690546470563
3.01425e-06;-0.0031295637511215913
3.01450e-06;-0.0031658839571995197
3.01475e-06;-0.0032013291666809366
3.01500e-06;-0.0032347942534458178
3.01525e-06;-0.003267107343884407
3.01550e-06;-0.003299420434323051
3.01575e-06;-0.0033296754352945893
3.01600e-06;-0.003357153073562787
3.01625e-06;-0.003382576240466984
3.01650e-06;-0.0034069416603710457
3.01675e-06;-0.0034319444183331968
3.01700e-06;-0.003458641222679012
3.01725e-06;-0.003487075335986708
3.01750e-06;-0.003517235335658065
3.01775e-06;-0.003548159785332798
3.01800e-06;-0.0035799818203183227
3.01825e-06;-0.003612460763785463
3.01850e-06;-0.0036467521533495605
3.01875e-06;-0.0036823700031391204
3.01900e-06;-0.003720940950949448
3.01925e-06;-0.0037616731586575087
3.01950e-06;-0.0038047286153364886
3.01975e-06;-0.003849484369397532
3.02000e-06;-0.0038958394157309483
3.02025e-06;-0.003943364923128818
3.02050e-06;-0.003992722504790528
3.02075e-06;-0.0040434209117848705
3.02100e-06;-0.004095853857186922
3.02125e-06;-0.004150499472666015
3.02150e-06;-0.004206570784476627
3.02175e-06;-0.00426370837420157
3.02200e-06;-0.004321553216988233
3.02225e-06;-0.004379818078676415
3.02250e-06;-0.004438450028178985
3.02275e-06;-0.004497568415570776
3.02300e-06;-0.004557135525754635
3.02325e-06;-0.0046168644690126855
3.02350e-06;-0.004676383897008827
3.02375e-06;-0.004735321280713112
3.02400e-06;-0.004793304359974893
3.02425e-06;-0.004850006243096955
3.02450e-06;-0.0049052465647435204
3.02475e-06;-0.004958952469694428
3.02500e-06;-0.005010953391949104
3.02525e-06;-0.005060922627308979
3.02550e-06;-0.005108480320849118
3.02575e-06;-0.005153245758418956
3.02600e-06;-0.0051938062059355755
3.02625e-06;-0.005232202540211114
3.02650e-06;-0.005264432478265152
3.02675e-06;-0.005292149465928002
3.02700e-06;-0.005319866453590806
3.02725e-06;-0.005347583441253656
3.02750e-06;-0.005374130747978566
3.02775e-06;-0.005386738165151423
3.02800e-06;-0.005399345582324261
3.02825e-06;-0.005411952999497118
3.02850e-06;-0.0054245604166699764
3.02875e-06;-0.005430084156924064
3.02900e-06;-0.005430423624002511
3.02925e-06;-0.005430763091080959
3.02950e-06;-0.005426021372506226
3.02975e-06;-0.005417560927797565
3.03000e-06;-0.005409100483088891
3.03025e-06;-0.005395911263465366
3.03050e-06;-0.005379261233696847
3.03075e-06;-0.005362611203928301
3.03100e-06;-0.005342264715339549
3.03125e-06;-0.005319212929413565
3.03150e-06;-0.00529616114348754
3.03175e-06;-0.005270121215644941
3.03200e-06;-0.005241894380612637
3.03225e-06;-0.005213667545580381
3.03250e-06;-0.005183390328945639
3.03275e-06;-0.005151612516156755
3.03300e-06;-0.005119834703367926
3.03325e-06;-0.0050871728164379225
3.03350e-06;-0.0050538639093363705
3.03375e-06;-0.0050205550022348186
3.03400e-06;-0.004987338141376524
3.03425e-06;-0.004954188645655661
3.03450e-06;-0.0049210391499347975
3.03475e-06;-0.004889224548806219
3.03500e-06;-0.0048583869061564105
3.03525e-06;-0.004827549263506601
3.03550e-06;-0.004799266150578047
3.03575e-06;-0.00477285260059852
3.03600e-06;-0.004746439050618992
3.03625e-06;-0.0047223184110968906
3.03650e-06;-0.004699875865355132
3.03675e-06;-0.004677073021757775
3.03700e-06;-0.004654006489890986
3.03725e-06;-0.004630102041444228
3.03750e-06;-0.004605584353785759
3.03775e-06;-0.00458106666612729
3.03800e-06;-0.004556211087196318
3.03825e-06;-0.004531108218520175
3.03850e-06;-0.004506005349843989
3.03875e-06;-0.0044787444583404045
3.03900e-06;-0.004449904192172341
3.03925e-06;-0.004421063926004229
3.03950e-06;-0.004392223659836117
3.03975e-06;-0.004363103402104694
3.04000e-06;-0.004330646292977909
3.04025e-06;-0.004298189183851123
3.04050e-06;-0.004265732074724337
3.04075e-06;-0.004233274965597606
3.04100e-06;-0.004198973914187011
3.04125e-06;-0.0041633233516920175
3.04150e-06;-0.004127672789197085
3.04175e-06;-0.00409116983891661
3.04200e-06;-0.0040540430585006585
3.04225e-06;-0.004016916278084707
3.04250e-06;-0.003979789497668818
3.04275e-06;-0.003942662717252865
3.04300e-06;-0.0039055359368369135
3.04325e-06;-0.003868545552297077
3.04350e-06;-0.003833180690911892
3.04375e-06;-0.0037978158295267073
3.04400e-06;-0.003762450968141582
3.04425e-06;-0.0037270861067563972
3.04450e-06;-0.0036917212453712123
3.04475e-06;-0.003656356383986027
3.04500e-06;-0.0036233403047349006
3.04525e-06;-0.0035920432096149474
3.04550e-06;-0.0035625227324655555
3.04575e-06;-0.0035343024943015364
3.04600e-06;-0.0035084205623320875
3.04625e-06;-0.003484249947553092
3.04650e-06;-0.0034635193034378577
3.04675e-06;-0.0034453062427533864
3.04700e-06;-0.0034314101688000453
3.04725e-06;-0.0034206735329139035
3.04750e-06;-0.0034153176362895585
3.04775e-06;-0.0034138996976697056
3.04800e-06;-0.0034124817590498527
3.04825e-06;-0.0034176695948072325
3.04850e-06;-0.0034276919450837535
3.04875e-06;-0.0034377142953602746
3.04900e-06;-0.0034547097535366817
3.04925e-06;-0.003476808563638193
3.04950e-06;-0.0034989073737397417
3.04975e-06;-0.0035262164986323524
3.05000e-06;-0.0035573388543541904
3.05025e-06;-0.0035912853133979413
3.05050e-06;-0.0036291372206150325
3.05075e-06;-0.0036701497928025247
3.05100e-06;-0.0037141887147068577
3.05125e-06;-0.003761000507146684
3.05150e-06;-0.0038102939252811605
3.05175e-06;-0.003861776963434703
3.05200e-06;-0.003915157822468196
3.05225e-06;-0.00397016274442948
3.05250e-06;-0.004026571559726064
3.05275e-06;-0.004084189510827683
3.05300e-06;-0.00414276034494486
3.05325e-06;-0.004201953110930537
3.05350e-06;-0.004261413171665977
3.05375e-06;-0.004320785693250452
3.05400e-06;-0.004379715841782935
3.05425e-06;-0.004437859807401261
3.05450e-06;-0.004494907929580158
3.05475e-06;-0.0045505661402492886
3.05500e-06;-0.004604502052262081
3.05525e-06;-0.004656336402744478
3.05550e-06;-0.004705675045465303
3.05575e-06;-0.004752123762096407
3.05600e-06;-0.004795288675285364
3.05625e-06;-0.004834983875829977
3.05650e-06;-0.004871720388182452
3.05675e-06;-0.004906560300010247
3.05700e-06;-0.00494017723170268
3.05725e-06;-0.004972100580675237
3.05750e-06;-0.0050031224699743915
3.05775e-06;-0.005031408156977037
3.05800e-06;-0.005057691321796118
3.05825e-06;-0.005083974486615199
3.05850e-06;-0.005107903839884219
3.05875e-06;-0.005130110528183994
3.05900e-06;-0.005151221937890833
3.05925e-06;-0.00517153175493676
3.05950e-06;-0.005191841571982653
3.05975e-06;-0.00521023885272527
3.06000e-06;-0.005227236421034577
3.06025e-06;-0.005244233989343855
3.06050e-06;-0.005259365214761486
3.06075e-06;-0.005273130534943332
3.06100e-06;-0.005286895855125155
3.06125e-06;-0.005300661175307002
3.06150e-06;-0.0053144264954888484
3.06175e-06;-0.005326375484272405
3.06200e-06;-0.005336995169326212
3.06225e-06;-0.005347614854380037
3.06250e-06;-0.005358234539433863
3.06275e-06;-0.00536885422448767
3.06300e-06;-0.005378142044319408
3.06325e-06;-0.005386455122752684
3.06350e-06;-0.005394768201185959
3.06375e-06;-0.00540308127961922
3.06400e-06;-0.005411394358052495
3.06425e-06;-0.005418458009564065
3.06450e-06;-0.005424607253127468
3.06475e-06;-0.005430756496690882
3.06500e-06;-0.005436905740254295
3.06525e-06;-0.0054430549838176984
3.06550e-06;-0.005448655068918326
3.06575e-06;-0.005453627925269338
3.06600e-06;-0.005458181249650954
3.06625e-06;-0.00546201879845889
3.06650e-06;-0.005464056192688082
3.06675e-06;-0.005462682533552718
3.06700e-06;-0.005456908295634789
3.06725e-06;-0.005445437048120652
3.06750e-06;-0.005431221573172352
3.06775e-06;-0.005411326880869657
3.06800e-06;-0.005387275785821111
3.06825e-06;-0.005363224690772525
3.06850e-06;-0.005332052425123597
3.06875e-06;-0.005295668446101144
3.06900e-06;-0.005258296439399978
3.06925e-06;-0.005209149429550447
3.06950e-06;-0.005160002419700998
3.06975e-06;-0.005104183374727191
3.07000e-06;-0.0050434813215180455
3.07025e-06;-0.004982779268308899
3.07050e-06;-0.0049153896566948695
3.07075e-06;-0.004843105675947806
3.07100e-06;-0.004770821695200742
3.07125e-06;-0.004692696138998663
3.07150e-06;-0.00461029535634398
3.07175e-06;-0.004527894573689298
3.07200e-06;-0.004442419518213118
3.07225e-06;-0.004354694519619937
3.07250e-06;-0.004265292388284934
3.07275e-06;-0.004174662827412022
3.07300e-06;-0.004083076729508645
3.07325e-06;-0.003990542403292218
3.07350e-06;-0.0038978962211211566
3.07375e-06;-0.0038056892307863524
3.07400e-06;-0.00371447237193317
3.07425e-06;-0.003624758377095478
3.07450e-06;-0.003536938797052669
3.07475e-06;-0.003451324028985936
3.07500e-06;-0.0033683201201654277
3.07525e-06;-0.003288471803515461
3.07550e-06;-0.0032123701474031673
3.07575e-06;-0.003140606469566462
3.07600e-06;-0.003073772231937064
3.07625e-06;-0.003013680941732552
3.07650e-06;-0.00295692265157583
3.07675e-06;-0.0029049474498906366
3.07700e-06;-0.002856472808373832
3.07725e-06;-0.00281263606067043
3.07750e-06;-0.0027721936106983964
3.07775e-06;-0.002738385615529353
3.07800e-06;-0.0027094331249910434
3.07825e-06;-0.0026804806344526847
3.07850e-06;-0.002658945619168723
3.07875e-06;-0.002642839171342894
3.07900e-06;-0.0026267327235170923
3.07925e-06;-0.0026167766586739005
3.07950e-06;-0.002611321824744157
3.07975e-06;-0.0026058669908144223
3.08000e-06;-0.0026056573587251034
3.08025e-06;-0.0026092864899677393
3.08050e-06;-0.0026165713672686463
3.08075e-06;-0.0026265317457888457
3.08100e-06;-0.00263932086579336
3.08125e-06;-0.0026541802338866717
3.08150e-06;-0.0026716363008901568
3.08175e-06;-0.002690992792865643
3.08200e-06;-0.002712186333366027
3.08225e-06;-0.00273584502732974
3.08250e-06;-0.0027612333930871168
3.08275e-06;-0.0027879412886624923
3.08300e-06;-0.002815623974957062
3.08325e-06;-0.002844073813661457
3.08350e-06;-0.0028731325617887093
3.08375e-06;-0.002902642789775307
3.08400e-06;-0.0029324464679569527
3.08425e-06;-0.0029623577113989043
3.08450e-06;-0.0029920938344674326
3.08475e-06;-0.0030212879707208215
3.08500e-06;-0.0030496143976978633
3.08525e-06;-0.003076833692959392
3.08550e-06;-0.003102271515532053
3.08575e-06;-0.0031267753109620756
3.08600e-06;-0.0031491880344351824
3.08625e-06;-0.0031700703820338543
3.08650e-06;-0.0031868749107692913
3.08675e-06;-0.003200695039284659
3.08700e-06;-0.0032145151678000263
3.08725e-06;-0.003228335296315394
3.08750e-06;-0.003242155424830738
3.08775e-06;-0.0032498256453831133
3.08800e-06;-0.003252994982670659
3.08825e-06;-0.0032561643199582003
3.08850e-06;-0.0032593336572457467
3.08875e-06;-0.003262502994533293
3.08900e-06;-0.0032589650563125054
3.08925e-06;-0.0032505183187617323
3.08950e-06;-0.0032420715812109587
3.08975e-06;-0.0032336248436601856
3.09000e-06;-0.003225178106109427
3.09025e-06;-0.0032167313685586532
3.09050e-06;-0.003207489642814519
3.09075e-06;-0.0031887734977942787
3.09100e-06;-0.003170057352774006
3.09125e-06;-0.003151341207753734
3.09150e-06;-0.003132625062733462
3.09175e-06;-0.0031139089177132217
3.09200e-06;-0.003095192772692949
3.09225e-06;-0.003073685918777795
3.09250e-06;-0.003050136651376537
3.09275e-06;-0.0030265873839752395
3.09300e-06;-0.0030022577849125025
3.09325e-06;-0.0029773570908452653
3.09350e-06;-0.0029524563967779855
3.09375e-06;-0.0029275147882900495
3.09400e-06;-0.0029025432360968847
3.09425e-06;-0.0028775716839037624
3.09450e-06;-0.0028531441411405625
3.09475e-06;-0.002829114738146943
3.09500e-06;-0.00280597949225671
3.09525e-06;-0.0027834986458740323
3.09550e-06;-0.002762291412078717
3.09575e-06;-0.0027420162867986945
3.09600e-06;-0.0027234096229126377
3.09625e-06;-0.0027060240423356814
3.09650e-06;-0.0026909512916681163
3.09675e-06;-0.0026775712130692824
3.09700e-06;-0.002667684500021157
3.09725e-06;-0.002660354448087427
3.09750e-06;-0.00265302439615371
3.09775e-06;-0.0026499077677237296
3.09800e-06;-0.0026498747833825454
3.09825e-06;-0.0026498417990413613
3.09850e-06;-0.002655341761879957
3.09875e-06;-0.0026648910778987785
3.09900e-06;-0.0026744403939176
3.09925e-06;-0.0026839897099364056
3.09950e-06;-0.00269435768405163
3.09975e-06;-0.00271448216790522
3.10000e-06;-0.0027346066517588102
3.10025e-06;-0.002754731135612366
3.10050e-06;-0.0027748556194659556
3.10075e-06;-0.002798798453950884
3.10100e-06;-0.0028255357937454744
3.10125e-06;-0.002854229093801193
3.10150e-06;-0.002884353886630349
3.10175e-06;-0.002915688231625851
3.10200e-06;-0.0029485770415786042
3.10225e-06;-0.0029825303715081465
3.10250e-06;-0.003017403497441253
3.10275e-06;-0.0030530612664921818
3.10300e-06;-0.0030893343217346125
3.10325e-06;-0.0031260149829056647
3.10350e-06;-0.003162883484172107
3.10375e-06;-0.003199719836624164
3.10400e-06;-0.003236304248134164
3.10425e-06;-0.0032724223041544313
3.10450e-06;-0.0033078753564588946
3.10475e-06;-0.0033424707264524873
3.10500e-06;-0.0033759941395502986
3.10525e-06;-0.003408207410855827
3.10550e-06;-0.0034388649663829192
3.10575e-06;-0.0034677209369718205
3.10600e-06;-0.0034945295879022877
3.10625e-06;-0.003519014630639741
3.10650e-06;-0.0035398974811848235
3.10675e-06;-0.0035589017003964615
3.10700e-06;-0.0035741147257554724
3.10725e-06;-0.0035865531208160713
3.10750e-06;-0.003594173226663504
3.10775e-06;-0.003598267010260653
3.10800e-06;-0.003602360793857809
3.10825e-06;-0.0035984874687187253
3.10850e-06;-0.0035887833203218722
3.10875e-06;-0.0035790791719250356
3.10900e-06;-0.003569375023528183
3.10925e-06;-0.00355967087513133
3.10950e-06;-0.0035406451490153476
3.10975e-06;-0.0035147973154117185
3.11000e-06;-0.003488949481808089
3.11025e-06;-0.0034631016482045036
3.11050e-06;-0.0034372538146008745
3.11075e-06;-0.0034051315013954066
3.11100e-06;-0.003368417135689559
3.11125e-06;-0.003331702769983773
3.11150e-06;-0.003291444579102248
3.11175e-06;-0.0032485927976296843
3.11200e-06;-0.003205741016157193
3.11225e-06;-0.003160788214204913
3.11250e-06;-0.0031142977554333264
3.11275e-06;-0.0030666865417840108
3.11300e-06;-0.003018255090351686
3.11325e-06;-0.002969313777121909
3.11350e-06;-0.0029199993154734446
3.11375e-06;-0.002870713354998707
3.11400e-06;-0.0028216863457982177
3.11425e-06;-0.00277323139379164
3.11450e-06;-0.0027256156910188335
3.11475e-06;-0.0026791055919166643
3.11500e-06;-0.0026339907000535487
3.11525e-06;-0.0025905842078415447
3.11550e-06;-0.002549206759125385
3.11575e-06;-0.0025101787912133883
3.11600e-06;-0.0024738207151196474
3.11625e-06;-0.0024404581129019664
3.11650e-06;-0.0024104098552489863
3.11675e-06;-0.00238392754559408
3.11700e-06;-0.0023611506719973872
3.11725e-06;-0.002343251686024533
3.11750e-06;-0.002327764955761896
3.11775e-06;-0.0023167629927235717
3.11800e-06;-0.0023090432599025905
3.11825e-06;-0.0023060564366170146
3.11850e-06;-0.0023065334494495804
3.11875e-06;-0.002307091671578197
3.11900e-06;-0.0023118982185493142
3.11925e-06;-0.0042756576563743095
3.11950e-06;-0.02224484899285555
3.11975e-06;-0.020513285035895588
3.12000e-06;-0.016849139149154913
3.12025e-06;-0.012361994437131452
3.12050e-06;0.0008989973886019517
3.12075e-06;0.001808914613674265
3.12100e-06;0.0009123867308836906
3.12125e-06;-0.0019082251966987041
3.12150e-06;-0.008167201475435678
3.12175e-06;-0.01056572631587488
3.12200e-06;-0.008692869636859049
3.12225e-06;-0.004910674738779807
3.12250e-06;-0.0008096385374568027
3.12275e-06;0.001212869214401965
3.12300e-06;0.00036014106498052326
3.12325e-06;-0.002342851841405538
3.12350e-06;-0.00567268430535302
3.12375e-06;-0.007135648155043219
3.12400e-06;-0.006057292930542307
3.12425e-06;-0.0037686692596262668
3.12450e-06;-0.0012685395081858243
3.12475e-06;-6.045578950008476e-05
3.12500e-06;-0.0006448106092139217
3.12525e-06;-0.0023805753952348785
3.12550e-06;-0.0045022108589219244
3.12575e-06;-0.005448370658526943
3.12600e-06;-0.0047972125171704795
3.12625e-06;-0.0033830725102567557
3.12650e-06;-0.0018322652904725384
3.12675e-06;-0.0010874223060253988
3.12700e-06;-0.0014625855093415292
3.12725e-06;-0.0025565193229163674
3.12750e-06;-0.003889899418808488
3.12775e-06;-0.0044849411972285496
3.12800e-06;-0.004077673356554388
3.12825e-06;-0.003190959692269203
3.12850e-06;-0.00221730029297267
3.12875e-06;-0.0017472769041726596
3.12900e-06;-0.001977676924382232
3.12925e-06;-0.0026572324448482947
3.12950e-06;-0.003485778891660055
3.12975e-06;-0.0038509529046982446
3.13000e-06;-0.0035875541825400713
3.13025e-06;-0.003023243733519868
3.13050e-06;-0.0024039940513502817
3.13075e-06;-0.002099824865466129
3.13100e-06;-0.002234059438721915
3.13125e-06;-0.002649360208105736
3.13150e-06;-0.0031577751065164
3.13175e-06;-0.0033758163321576614
3.13200e-06;-0.003200120011359668
3.13225e-06;-0.0028360445688128144
3.13250e-06;-0.002437762169725221
3.13275e-06;-0.0022371299066832316
3.13300e-06;-0.002311459674016514
3.13325e-06;-0.0025622587894513476
3.13350e-06;-0.0028718676556868383
3.13375e-06;-0.0030001592643800635
3.13400e-06;-0.00288248943595542
3.13425e-06;-0.002647594453270395
3.13450e-06;-0.0023921370793838935
3.13475e-06;-0.0022614306840887588
3.13500e-06;-0.0023039728849406815
3.13525e-06;-0.002458138020394186
3.13550e-06;-0.0026503003214219476
3.13575e-06;-0.002730130822567863
3.13600e-06;-0.0026572316608743196
3.13625e-06;-0.002512315773889743
3.13650e-06;-0.0023559223572777524
3.13675e-06;-0.0022789689251483474
3.13700e-06;-0.002311707274590165
3.13725e-06;-0.0024154450944674968
3.13750e-06;-0.0025439943155735533
3.13775e-06;-0.0026031265677406543
3.13800e-06;-0.0025674796465488627
3.13825e-06;-0.0024875536746894545
3.13850e-06;-0.0024012081093402167
3.13875e-06;-0.0023653268266149927
3.13900e-06;-0.002398789426554108
3.13925e-06;-0.0024772891215076136
3.13950e-06;-0.002571826186949401
3.13975e-06;-0.002623312485926194
3.14000e-06;-0.0026158011291420057
3.14025e-06;-0.002580864499038159
3.14050e-06;-0.002542154273123274
3.14075e-06;-0.0025352362260715063
3.14100e-06;-0.0025718681649154885
3.14125e-06;-0.002636756184959927
3.14150e-06;-0.0027116683721111444
3.14175e-06;-0.0027595277372249706
3.14200e-06;-0.0027702831587692227
3.14225e-06;-0.0027636490132067516
3.14250e-06;-0.0027543763467918723
3.14275e-06;-0.0027646780515047467
3.14300e-06;-0.0028018519982349207
3.14325e-06;-0.002856250804597097
3.14350e-06;-0.002916387924584539
3.14375e-06;-0.002958974064929055
3.14400e-06;-0.0029776497172607766
3.14425e-06;-0.0029847004511358577
3.14450e-06;-0.0029893020740819343
3.14475e-06;-0.0030053028169267104
3.14500e-06;-0.003037207473481925
