Time(s);Current(A)
1.02500e-05;-0.008880910139313148
1.02503e-05;-0.008861721168985771
1.02505e-05;-0.008842532198658394
1.02508e-05;-0.008814510793403493
1.02510e-05;-0.008779590667203772
1.02513e-05;-0.008744670541004048
1.02515e-05;-0.008709750414804563
1.02518e-05;-0.008674830288604841
1.02520e-05;-0.008630389066115468
1.02522e-05;-0.008578511232212984
1.02525e-05;-0.008526633398310147
1.02528e-05;-0.008474755564407311
1.02530e-05;-0.008422877730504827
1.02533e-05;-0.00836472790148149
1.02535e-05;-0.008301679225825172
1.02537e-05;-0.00823863055016928
1.02540e-05;-0.008173097569174132
1.02543e-05;-0.008105624179965815
1.02545e-05;-0.008036786540572957
1.02548e-05;-0.007966883330767468
1.02550e-05;-0.007896214070168179
1.02553e-05;-0.007824725023977791
1.02555e-05;-0.007753076606931335
1.02558e-05;-0.007681686925623563
1.02560e-05;-0.007610974724032806
1.02563e-05;-0.007541335770958156
1.02565e-05;-0.007473088164164458
1.02568e-05;-0.007406494437615795
1.02570e-05;-0.007341877228000019
1.02573e-05;-0.00727965473624221
1.02575e-05;-0.007226727568042547
1.02578e-05;-0.007180172560399303
1.02580e-05;-0.007133617552755743
1.02583e-05;-0.0070870625451121836
1.02585e-05;-0.00704050753746894
1.02588e-05;-0.006993952529825381
1.02590e-05;-0.006947397522181821
1.02593e-05;-0.0069008425145385775
1.02595e-05;-0.006855274463977436
1.02598e-05;-0.006824777648867481
1.02600e-05;-0.0067942808337577345
1.02603e-05;-0.00676378401864778
1.02605e-05;-0.006733287203537826
1.02607e-05;-0.006702790388428078
1.02610e-05;-0.006672293573318124
1.02613e-05;-0.00664179675820817
1.02615e-05;-0.0066112999430984224
1.02618e-05;-0.006585663344246856
1.02620e-05;-0.0065638228985495485
1.02622e-05;-0.006541982452852389
1.02625e-05;-0.006520142007155082
1.02628e-05;-0.006498301561457774
1.02630e-05;-0.006476461115760615
1.02633e-05;-0.006454620670063307
1.02635e-05;-0.006432780224366
1.02638e-05;-0.006413885675364253
1.02640e-05;-0.006397292068221798
1.02643e-05;-0.00638069846107923
1.02645e-05;-0.0063641048539366625
1.02648e-05;-0.006347511246794207
1.02650e-05;-0.006330917639651639
1.02653e-05;-0.0063143240325090715
1.02655e-05;-0.006297730425366617
1.02658e-05;-0.006282960110620759
1.02660e-05;-0.0062696139088805536
1.02663e-05;-0.0062562677071404385
1.02665e-05;-0.006242921505400233
1.02668e-05;-0.006230706731922679
1.02670e-05;-0.006219375679403375
1.02673e-05;-0.006208044626883994
1.02675e-05;-0.006196713574364613
1.02678e-05;-0.006186083536756726
1.02680e-05;-0.006176370729970837
1.02683e-05;-0.00616738408399795
1.02685e-05;-0.006159306953299403
1.02688e-05;-0.00615274453167374
1.02690e-05;-0.006147018760485004
1.02692e-05;-0.006142766003006635
1.02695e-05;-0.00613966376751058
1.02698e-05;-0.006138004086708685
1.02700e-05;-0.006137471137365363
1.02703e-05;-0.00613880254997913
1.02705e-05;-0.006141590153665389
1.02707e-05;-0.00614437775735163
1.02710e-05;-0.0061504155349465135
1.02713e-05;-0.006158991915204781
1.02715e-05;-0.00616756829546299
1.02718e-05;-0.006176144675721257
1.02720e-05;-0.006184721055979525
1.02723e-05;-0.0061936774960748
1.02725e-05;-0.0062084376042313375
1.02728e-05;-0.006223197712387976
1.02730e-05;-0.006237957820544613
1.02733e-05;-0.00625271792870115
1.02735e-05;-0.0062674780368577885
1.02738e-05;-0.006284554488031553
1.02740e-05;-0.006303440157640336
1.02743e-05;-0.006322325827249247
1.02745e-05;-0.006341211496858158
1.02748e-05;-0.00636009716646694
1.02750e-05;-0.006378982836075852
1.02753e-05;-0.00639834678631676
1.02755e-05;-0.006418084305640452
1.02758e-05;-0.006437821824964278
1.02760e-05;-0.006457559344288104
1.02763e-05;-0.006477296863611795
1.02765e-05;-0.006497034382935621
1.02768e-05;-0.006515685661407211
1.02770e-05;-0.006533488513302582
1.02773e-05;-0.006551291365198073
1.02775e-05;-0.006566475608076936
1.02777e-05;-0.006579614542608479
1.02780e-05;-0.006592753477140112
1.02783e-05;-0.006605892411671744
1.02785e-05;-0.0066190313462032874
1.02788e-05;-0.00663217028073492
1.02790e-05;-0.006645309215266553
1.02792e-05;-0.006658448149798097
1.02795e-05;-0.006671480041642328
1.02798e-05;-0.006682877348175749
1.02800e-05;-0.0066942746547090926
1.02803e-05;-0.006705671961242513
1.02805e-05;-0.006717069267775934
1.02808e-05;-0.006728466574309355
1.02810e-05;-0.006739863880842698
1.02813e-05;-0.006751261187376119
1.02815e-05;-0.0067626584939095395
1.02818e-05;-0.006774601774612794
1.02820e-05;-0.00678697149756855
1.02823e-05;-0.006799341220524307
1.02825e-05;-0.00681171094347998
1.02828e-05;-0.006824080666435736
1.02830e-05;-0.006836450389391493
1.02833e-05;-0.0068488201123471665
1.02835e-05;-0.006861189835302923
1.02838e-05;-0.006873559558258679
1.02840e-05;-0.0068860121611124874
1.02843e-05;-0.006898529498696321
1.02845e-05;-0.006911046836280154
1.02848e-05;-0.0069235641738639025
1.02850e-05;-0.006936081511447736
1.02853e-05;-0.006948598849031569
1.02855e-05;-0.006961116186615318
1.02858e-05;-0.006973633524199151
1.02860e-05;-0.0069861508617829835
1.02862e-05;-0.006996876617816132
1.02865e-05;-0.007006203029129278
1.02868e-05;-0.007015529440442423
1.02870e-05;-0.0070248558517555055
1.02873e-05;-0.007034182263068652
1.02875e-05;-0.007043508674381797
1.02877e-05;-0.0070528350856948795
1.02880e-05;-0.007062161497008025
1.02883e-05;-0.0070714879083211704
1.02885e-05;-0.0070803536739765804
1.02888e-05;-0.007082185193345029
1.02890e-05;-0.007084016712713478
1.02893e-05;-0.007085848232081927
1.02895e-05;-0.007087679751450364
1.02898e-05;-0.007089511270818813
1.02900e-05;-0.0070913427901872625
1.02903e-05;-0.007093174309555699
1.02905e-05;-0.007095005828924148
1.02908e-05;-0.007096837348292597
1.02910e-05;-0.0070942257644587845
1.02913e-05;-0.007088143820592919
1.02915e-05;-0.0070820618767270535
1.02918e-05;-0.007075979932861229
1.02920e-05;-0.007069897988995363
1.02923e-05;-0.007063816045129498
1.02925e-05;-0.007057734101263674
1.02928e-05;-0.007051652157397809
1.02930e-05;-0.0070427204326814815
1.02933e-05;-0.0070315628389916885
1.02935e-05;-0.00702040524530182
1.02938e-05;-0.007009247651611952
1.02940e-05;-0.0069980900579221595
1.02943e-05;-0.006986932464232291
1.02945e-05;-0.0069757748705424226
1.02947e-05;-0.00696461727685263
1.02950e-05;-0.006952533177007274
1.02953e-05;-0.006939725414040567
1.02955e-05;-0.0069269176510739485
1.02958e-05;-0.006914109888107242
1.02960e-05;-0.006901302125140536
1.02962e-05;-0.006888494362173916
1.02965e-05;-0.006875787328887434
1.02968e-05;-0.006864618478731457
1.02970e-05;-0.0068534496285755555
1.02973e-05;-0.006842280778419578
1.02975e-05;-0.006831111928263601
1.02978e-05;-0.006819943078107624
1.02980e-05;-0.006808774227951723
1.02983e-05;-0.00679951659427989
1.02985e-05;-0.006791751748193388
1.02988e-05;-0.006783986902106938
1.02990e-05;-0.006776222056020437
1.02993e-05;-0.006768457209933934
1.02995e-05;-0.006760692363847485
1.02998e-05;-0.006752927517760983
1.03000e-05;-0.006745162671674481
1.03003e-05;-0.006737397825588031
1.03005e-05;-0.0067296329795015295
1.03008e-05;-0.006721868133415027
1.03010e-05;-0.0067141032873285775
1.03013e-05;-0.006706419598797974
1.03015e-05;-0.006699975219110665
1.03018e-05;-0.0066935308394233985
1.03020e-05;-0.0066870864597360895
1.03023e-05;-0.006680642080048781
1.03025e-05;-0.006674197700361515
1.03028e-05;-0.006667753320674205
1.03030e-05;-0.006661308940986896
1.03032e-05;-0.006654864561299631
1.03035e-05;-0.006648420181612321
1.03038e-05;-0.006641975801925012
1.03040e-05;-0.006635531422237747
1.03043e-05;-0.006629087042550438
1.03045e-05;-0.006622897322986678
1.03047e-05;-0.006616906509969733
1.03050e-05;-0.006610915696952747
1.03053e-05;-0.00660492488393576
1.03055e-05;-0.006598934070918815
1.03058e-05;-0.006592943257901829
1.03060e-05;-0.006587903403337414
1.03063e-05;-0.006583403238114306
1.03065e-05;-0.006578903072891229
1.03068e-05;-0.006574402907668121
1.03070e-05;-0.006569902742445014
1.03073e-05;-0.006565402577221937
1.03075e-05;-0.0065591874399358934
1.03078e-05;-0.007350996361545582
1.03080e-05;-0.03603144460753285
1.03083e-05;-0.028038320090561886
1.03085e-05;-0.022133943906341585
1.03088e-05;-0.016786844865560823
1.03090e-05;0.00258781442264472
1.03093e-05;0.0022160427389255077
1.03095e-05;-0.0009647220113936012
1.03098e-05;-0.006508355310291005
1.03100e-05;-0.01288958431442388
1.03103e-05;-0.015201644613631974
1.03105e-05;-0.012986456172706677
1.03108e-05;-0.008110706864900164
1.03110e-05;-0.003073203177477294
1.03113e-05;-0.0008502415454144642
1.03115e-05;-0.0019037719253381376
1.03117e-05;-0.005525788784528356
1.03120e-05;-0.009627467712769214
1.03123e-05;-0.011151996116811965
1.03125e-05;-0.00982028582913875
1.03128e-05;-0.006807364163352146
1.03130e-05;-0.003682584332839668
1.03132e-05;-0.002313148127143835
1.03135e-05;-0.002990381669394426
1.03138e-05;-0.005272183556026848
1.03140e-05;-0.007851171687003815
1.03143e-05;-0.008813461023243567
1.03145e-05;-0.007985005086134584
1.03148e-05;-0.006102427819588983
1.03150e-05;-0.004149163308619124
1.03153e-05;-0.003295035158940567
1.03155e-05;-0.003722618259929297
1.03158e-05;-0.005155029060507207
1.03160e-05;-0.006773391288154739
1.03163e-05;-0.007378984611813401
1.03165e-05;-0.006862964372801342
1.03168e-05;-0.005686899802302644
1.03170e-05;-0.004466903897623421
1.03173e-05;-0.003935775597792796
1.03175e-05;-0.0042078586446442565
1.03178e-05;-0.005109692628337808
1.03180e-05;-0.006128341801354145
1.03183e-05;-0.006513165134599702
1.03185e-05;-0.006196826645202167
1.03188e-05;-0.005469707546274318
1.03190e-05;-0.004718530321643673
1.03193e-05;-0.004402360096366749
1.03195e-05;-0.004592581063547011
1.03198e-05;-0.005180296591105071
1.03200e-05;-0.005843982398988981
1.03202e-05;-0.006113251847157445
1.03205e-05;-0.005945763011648516
1.03208e-05;-0.0055232407657513005
1.03210e-05;-0.005087738991222049
1.03213e-05;-0.0049266028220379555
1.03215e-05;-0.00508431897422152
1.03217e-05;-0.005492447268393021
1.03220e-05;-0.005949370288775537
1.03223e-05;-0.00616024672183942
1.03225e-05;-0.006098375808898431
1.03228e-05;-0.005877407867669497
1.03230e-05;-0.0056487717765235585
1.03232e-05;-0.005592250926406837
1.03235e-05;-0.005735493013928052
1.03238e-05;-0.006035409703697285
1.03240e-05;-0.006365498170287639
1.03243e-05;-0.006540873760848931
1.03245e-05;-0.006544624497385231
1.03248e-05;-0.006447751627874887
1.03250e-05;-0.006344913072041162
1.03253e-05;-0.00634851874350775
1.03255e-05;-0.0064756747491323315
1.03258e-05;-0.006699178420872679
1.03260e-05;-0.0069395815325716086
1.03263e-05;-0.007080874587013675
1.03265e-05;-0.007112271613682348
1.03268e-05;-0.007078053730819843
1.03270e-05;-0.00703731532978003
1.03273e-05;-0.007060265489377047
1.03275e-05;-0.007157411115886922
1.03278e-05;-0.007311504458957691
1.03280e-05;-0.007472574233009784
1.03283e-05;-0.007567774064483185
1.03285e-05;-0.007590277297801827
1.03287e-05;-0.007567919601316113
1.03290e-05;-0.0075379165259848125
1.03293e-05;-0.007544446369744837
1.03295e-05;-0.007594275538521686
1.03298e-05;-0.0076767859496936095
1.03300e-05;-0.007760862936279112
1.03302e-05;-0.007801066267328029
1.03305e-05;-0.007793313181245744
1.03308e-05;-0.0077552327673960355
1.03310e-05;-0.00771032709522447
1.03313e-05;-0.007686457206905775
1.03315e-05;-0.007688048649343909
1.03317e-05;-0.007708637175213067
1.03320e-05;-0.007728920928012449
1.03323e-05;-0.00772062627800734
1.03325e-05;-0.00768138700577439
1.03328e-05;-0.0076224372407890165
1.03330e-05;-0.007558688892675202
1.03333e-05;-0.007507782490996982
1.03335e-05;-0.007472677718506488
1.03338e-05;-0.007449512869773676
1.03340e-05;-0.007426385296157874
1.03343e-05;-0.007385774558319762
1.03345e-05;-0.0073263891645171325
1.03348e-05;-0.007256725266965899
1.03350e-05;-0.007183717260527781
1.03353e-05;-0.007118774530040711
1.03355e-05;-0.0070663072707886024
1.03358e-05;-0.007022871603993867
1.03360e-05;-0.006981200202795872
1.03363e-05;-0.006930507373227249
1.03365e-05;-0.006870173595373056
1.03368e-05;-0.006804915065243829
1.03370e-05;-0.00674089091713794
1.03373e-05;-0.006685329372547831
1.03375e-05;-0.006639696964693532
1.03378e-05;-0.006602784138900428
1.03380e-05;-0.006570227025059329
1.03383e-05;-0.006535399280958708
1.03385e-05;-0.006497817822746878
1.03387e-05;-0.006460086153032314
1.03390e-05;-0.006425705871294459
1.03393e-05;-0.006400967057335859
1.03395e-05;-0.006382631178486953
1.03398e-05;-0.00637059673930917
1.03400e-05;-0.006364581559630373
1.03402e-05;-0.006358764055365068
1.03405e-05;-0.0063531353745547164
1.03408e-05;-0.006350032056692163
1.03410e-05;-0.006349341015341799
1.03413e-05;-0.006355058944324282
1.03415e-05;-0.006366898848215409
1.03418e-05;-0.0063836538440889155
1.03420e-05;-0.006405103832796743
1.03423e-05;-0.006427367505902388
1.03425e-05;-0.006450408426398375
1.03428e-05;-0.006476559916392295
1.03430e-05;-0.006505682683741379
1.03433e-05;-0.006534805451090463
1.03435e-05;-0.0065691799540323345
1.03438e-05;-0.006608571018427842
1.03440e-05;-0.006647962082823349
1.03443e-05;-0.006688218314550254
1.03445e-05;-0.0067293009711821205
1.03448e-05;-0.006770383627813988
1.03450e-05;-0.006813140730156645
1.03453e-05;-0.0068574972960791436
1.03455e-05;-0.006901853862001642
1.03458e-05;-0.00694684791128529
1.03460e-05;-0.006992450897253482
1.03463e-05;-0.007038053883221675
1.03465e-05;-0.007081430043748907
1.03468e-05;-0.007122679096680772
1.03470e-05;-0.007163928149612637
1.03472e-05;-0.007203314528558009
1.03475e-05;-0.00724092164456184
1.03478e-05;-0.007278528760565671
1.03480e-05;-0.007311944919641108
1.03483e-05;-0.007341357793972185
1.03485e-05;-0.007370770668303261
1.03487e-05;-0.007395024928832793
1.03490e-05;-0.007414351579680784
1.03493e-05;-0.007433678230528775
1.03495e-05;-0.007448301476740358
1.03498e-05;-0.007458431938045692
1.03500e-05;-0.0074685623993510945
1.03503e-05;-0.007470802753702428
1.03505e-05;-0.007465506322220619
1.03508e-05;-0.007460209890738775
1.03510e-05;-0.00745491345925693
1.03513e-05;-0.007449617027775121
1.03515e-05;-0.007444124843910478
1.03518e-05;-0.007421734325234272
1.03520e-05;-0.007399343806558218
1.03523e-05;-0.007376953287882012
1.03525e-05;-0.007354562769205805
1.03528e-05;-0.007332172250529751
1.03530e-05;-0.007303307045813424
1.03533e-05;-0.0072682570932468
1.03535e-05;-0.007233207140680414
1.03538e-05;-0.00719815718811379
1.03540e-05;-0.007163107235547166
1.03543e-05;-0.007124416673456911
1.03545e-05;-0.007082248529320243
1.03548e-05;-0.007040080385183577
1.03550e-05;-0.006997912241047195
1.03553e-05;-0.006955744096910527
1.03555e-05;-0.006912795349237646
1.03557e-05;-0.0068691009536659955
1.03560e-05;-0.006825548265167529
1.03563e-05;-0.006782336711022014
1.03565e-05;-0.006739691344475329
1.03568e-05;-0.006697922537640318
1.03570e-05;-0.006657366832181178
1.03572e-05;-0.006618377270409859
1.03575e-05;-0.006581253382650369
1.03578e-05;-0.006546269905529562
1.03580e-05;-0.006513672775663893
1.03583e-05;-0.006483724661680014
1.03585e-05;-0.00645685373759654
1.03588e-05;-0.006433547600441155
1.03590e-05;-0.006414122931619459
1.03593e-05;-0.006399722885385424
1.03595e-05;-0.006388265755072466
1.03598e-05;-0.0063809066980591925
1.03600e-05;-0.006377462201516965
1.03603e-05;-0.006379230064259441
1.03605e-05;-0.006385976875430783
1.03608e-05;-0.006392723686602171
1.03610e-05;-0.006407781423132976
1.03613e-05;-0.006430777919541998
1.03615e-05;-0.006453774415951175
1.03618e-05;-0.006476770912360354
1.03620e-05;-0.006499767408769375
1.03623e-05;-0.006531534310761785
1.03625e-05;-0.0065716788772083815
1.03628e-05;-0.006611823443654707
1.03630e-05;-0.006651968010101304
1.03633e-05;-0.006692112576547901
1.03635e-05;-0.0067388725690202345
1.03638e-05;-0.006791951746956153
1.03640e-05;-0.006845030924892071
1.03642e-05;-0.006898110102827629
1.03645e-05;-0.006951189280763548
1.03648e-05;-0.007004268458699466
1.03650e-05;-0.0070597167248626835
1.03653e-05;-0.007117427990843881
1.03655e-05;-0.007175139256825078
1.03657e-05;-0.007232850522805884
1.03660e-05;-0.007290561788787082
1.03663e-05;-0.007348273054768279
1.03665e-05;-0.007404047260473553
1.03668e-05;-0.007457971147984282
1.03670e-05;-0.007511895035495376
1.03673e-05;-0.007559798219675416
1.03675e-05;-0.007601950309243415
1.03678e-05;-0.0076441023988117005
1.03680e-05;-0.007686254488379985
1.03683e-05;-0.007728406577947984
1.03685e-05;-0.007770558667516269
1.03688e-05;-0.0078125730800089
1.03690e-05;-0.007842702511540676
1.03693e-05;-0.007872831943072655
1.03695e-05;-0.007902961374604634
1.03698e-05;-0.00793309080613641
1.03700e-05;-0.007963220237668388
1.03703e-05;-0.007993349669200369
1.03705e-05;-0.008019354900569335
1.03708e-05;-0.00804142061457099
1.03710e-05;-0.008063486328572646
1.03713e-05;-0.008085552042574152
1.03715e-05;-0.008107617756575808
1.03718e-05;-0.008129683470577463
1.03720e-05;-0.00815174918457897
1.03723e-05;-0.008173814898580625
1.03725e-05;-0.008195880612582281
1.03727e-05;-0.008217946326583786
1.03730e-05;-0.008240012040585443
1.03733e-05;-0.008262077754587097
1.03735e-05;-0.008284075428384486
1.03738e-05;-0.008300199527877514
1.03740e-05;-0.00831632362737054
1.03742e-05;-0.008332447726863458
1.03745e-05;-0.008348571826356484
1.03748e-05;-0.008364695925849512
1.03750e-05;-0.008380820025342538
1.03753e-05;-0.008396944124835456
1.03755e-05;-0.008413068224328482
1.03758e-05;-0.008429192323821508
1.03760e-05;-0.008445316423314427
1.03763e-05;-0.008461440522807452
1.03765e-05;-0.00847756462230048
1.03768e-05;-0.008489431429208256
1.03770e-05;-0.008497231586239967
1.03773e-05;-0.00850503174327168
1.03775e-05;-0.008512831900303339
1.03778e-05;-0.008520632057335052
1.03780e-05;-0.008528432214366763
1.03783e-05;-0.008536232371398422
1.03785e-05;-0.008544032528430135
1.03788e-05;-0.008551832685461848
1.03790e-05;-0.008559632842493507
1.03793e-05;-0.008567432999525218
1.03795e-05;-0.00857523315655693
1.03798e-05;-0.00858303331358859
1.03800e-05;-0.008590833470620302
1.03803e-05;-0.008598633627652013
1.03805e-05;-0.008606335607418593
1.03808e-05;-0.008605562429425678
1.03810e-05;-0.008604789251432765
1.03812e-05;-0.008604016073439857
1.03815e-05;-0.008603242895446943
1.03818e-05;-0.00860246971745403
1.03820e-05;-0.008601696539461122
1.03823e-05;-0.00860092336146821
1.03825e-05;-0.008600150183475295
1.03827e-05;-0.008599377005482387
1.03830e-05;-0.008598603827489474
1.03833e-05;-0.00859783064949656
1.03835e-05;-0.008597057471503647
1.03838e-05;-0.00859628429351074
1.03840e-05;-0.008595511115517826
1.03843e-05;-0.008594737937524912
1.03845e-05;-0.008592305835250148
1.03848e-05;-0.008588289095769511
1.03850e-05;-0.008584272356288876
1.03853e-05;-0.008580255616808268
1.03855e-05;-0.008576238877327632
1.03858e-05;-0.008572222137846997
1.03860e-05;-0.008568205398366387
1.03863e-05;-0.008564188658885752
1.03865e-05;-0.008560173110122105
1.03868e-05;-0.008556260350067768
1.03870e-05;-0.008552347590013403
1.03873e-05;-0.00854843482995904
1.03875e-05;-0.008544522069904702
1.03878e-05;-0.008540609309850337
1.03880e-05;-0.008536696549795974
1.03883e-05;-0.008532783789741637
1.03885e-05;-0.008528871029687272
1.03888e-05;-0.008523522502454792
1.03890e-05;-0.008516802502084855
1.03893e-05;-0.008510082501714873
1.03895e-05;-0.00850336250134489
1.03897e-05;-0.008496642500974953
1.03900e-05;-0.008489922500604971
1.03903e-05;-0.00848320250023499
1.03905e-05;-0.008476482499865053
1.03908e-05;-0.008469762499495069
1.03910e-05;-0.008463042499125087
1.03912e-05;-0.00845632249875515
1.03915e-05;-0.008446763333839698
1.03918e-05;-0.008434492142930875
1.03920e-05;-0.008422220952022054
1.03923e-05;-0.008409949761113315
1.03925e-05;-0.008397678570204492
1.03928e-05;-0.00838540737929567
1.03930e-05;-0.00837313618838693
1.03933e-05;-0.00836086499747811
1.03935e-05;-0.008348593806569287
1.03938e-05;-0.008336322615660547
1.03940e-05;-0.008324051424751726
1.03943e-05;-0.008310551083112192
1.03945e-05;-0.008295876632442321
1.03948e-05;-0.008281202181772352
1.03950e-05;-0.008266527731102381
1.03953e-05;-0.00825185328043251
1.03955e-05;-0.008237178829762541
1.03958e-05;-0.008222504379092572
1.03960e-05;-0.008208457794528935
1.03963e-05;-0.00819501096005839
1.03965e-05;-0.008181564125587844
