Time(s);Current(A)
7.50000e-07;0.00037986950808744036
7.50250e-07;0.0003556742860197937
7.50500e-07;0.000331479063952147
7.50750e-07;0.0003072838418845003
7.51000e-07;0.00028323849322379655
7.51250e-07;0.00025926070587350226
7.51500e-07;0.00023528291852319784
7.51750e-07;0.0002113051311728934
7.52000e-07;0.0001884222060722773
7.52250e-07;0.00016603283302872525
7.52500e-07;0.00014456199880958279
7.52750e-07;0.00012426543677688783
7.53000e-07;0.00010518262704229618
7.53250e-07;8.747440238808394e-05
7.53500e-07;7.126105520499954e-05
7.53750e-07;5.65486514196334e-05
7.54000e-07;4.3266048389036785e-05
7.54250e-07;3.138461674345325e-05
7.54500e-07;2.093813415339966e-05
7.54750e-07;1.197676232446128e-05
7.55000e-07;4.55064973569605e-06
7.55250e-07;-1.2900741163021386e-06
7.55500e-07;-5.52068200712897e-06
7.55750e-07;-8.187997264029277e-06
7.56000e-07;-9.387199118845219e-06
7.56250e-07;-9.186836383153463e-06
7.56500e-07;-7.616359599423216e-06
7.56750e-07;-4.694958193894922e-06
7.57000e-07;-4.4183132112457796e-07
7.57250e-07;5.123809555300139e-06
7.57500e-07;1.1966842112045144e-05
7.57750e-07;2.0007326894362558e-05
7.58000e-07;2.9135041425159697e-05
7.58250e-07;3.9256452037652974e-05
7.58500e-07;5.030251859515565e-05
7.58750e-07;6.221063148239368e-05
7.59000e-07;7.491818860685538e-05
7.59250e-07;8.836257120651817e-05
7.59500e-07;0.00010265352545337338
7.59750e-07;0.0001172256241881558
7.60000e-07;0.0001324478480578305
7.60250e-07;0.00014796314130474173
7.60500e-07;0.00016347843455165296
7.60750e-07;0.0001792190084993052
7.61000e-07;0.00019506113654957922
7.61250e-07;0.00021090326459985995
7.61500e-07;0.00022674539265014068
7.61750e-07;0.00024180741818269477
7.62000e-07;0.0002565177819400257
7.62250e-07;0.0002712281456973566
7.62500e-07;0.0002859385094546813
7.62750e-07;0.0002992867474189834
7.63000e-07;0.00031202095381234447
7.63250e-07;0.00032343426414358525
7.63500e-07;0.0003342521288205227
7.63750e-07;0.0003432092642964279
7.64000e-07;0.0003513276031793476
7.64250e-07;0.00035721714937122915
7.64500e-07;0.000362101979930833
7.64750e-07;0.0003647510366796502
7.65000e-07;0.0003663922307829359
7.65250e-07;0.0003658021647304432
7.65500e-07;0.0003642062707392634
7.65750e-07;0.0003602415203269848
7.66000e-07;0.0003552089150682369
7.66250e-07;0.0003477775429012062
7.66500e-07;0.0003392648325636791
7.66750e-07;0.0003285495889769167
7.67000e-07;0.0003168414672301382
7.67250e-07;0.0003031342376501418
7.67500e-07;0.0002885258318868584
7.67750e-07;0.0002720327243992836
7.68000e-07;0.00025469001376459007
7.68250e-07;0.0002356444264748369
7.68500e-07;0.0002158312008120355
7.68750e-07;0.00019463858211821834
7.69000e-07;0.00017282414796938146
7.69250e-07;0.00014995826290169315
7.69500e-07;0.00012661839513522215
7.69750e-07;0.0001024991996951271
7.70000e-07;7.802869177114779e-05
7.70250e-07;5.3093200900008016e-05
7.70500e-07;2.7948100746840277e-05
7.70750e-07;2.7054442096483217e-06
7.71000e-07;-2.2510000918286168e-05
7.71250e-07;-4.752001273411349e-05
7.71500e-07;-7.218217592222927e-05
7.71750e-07;-9.636664124423494e-05
7.72000e-07;-0.00011994343500715813
7.72250e-07;-0.00014276461277545048
7.72500e-07;-0.0001646679190642836
7.72750e-07;-0.00018548789181514492
7.73000e-07;-0.00020505909581257687
7.73250e-07;-0.00022321612494495226
7.73500e-07;-0.00023976479505518142
7.73750e-07;-0.0002557937151273055
7.74000e-07;-0.0002717328836771963
7.74250e-07;-0.00028763159321186374
7.74500e-07;-0.00030346916278186704
7.74750e-07;-0.00031927917111725996
7.75000e-07;-0.0003350891794526529
7.75250e-07;-0.00035089918778803914
7.75500e-07;-0.0003666243293789447
7.75750e-07;-0.0003823112139595904
7.76000e-07;-0.00039799809854023613
7.76250e-07;-0.00041368498312088184
7.76500e-07;-0.0004305334287327619
7.76750e-07;-0.0004479054934908546
7.77000e-07;-0.00046527755824894723
7.77250e-07;-0.00048264962300703987
7.77500e-07;-0.0005000216877651325
7.77750e-07;-0.0005173937525232252
7.78000e-07;-0.0005347658172813105
7.78250e-07;-0.0005523721966267345
7.78500e-07;-0.0005709821869925372
7.78750e-07;-0.0005895921773583399
7.79000e-07;-0.0006082021677241426
7.79250e-07;-0.0006268121580899454
7.79500e-07;-0.0006454221484557402
7.79750e-07;-0.0006640321388215429
7.80000e-07;-0.0006826421291873456
7.80250e-07;-0.0007009492206579268
7.80500e-07;-0.0007191197685835393
7.80750e-07;-0.000737290316509144
7.81000e-07;-0.0007554608644347564
7.81250e-07;-0.0007736314123603689
7.81500e-07;-0.0007913109743041609
7.81750e-07;-0.000806887556028827
7.82000e-07;-0.0008224641377534929
7.82250e-07;-0.0008380407194781523
7.82500e-07;-0.0008536173012028183
7.82750e-07;-0.0008691938829274843
7.83000e-07;-0.0008827584322641823
7.83250e-07;-0.0008954159791681204
7.83500e-07;-0.0009057472083418374
7.83750e-07;-0.0009150297586506869
7.84000e-07;-0.0009192944285358874
7.84250e-07;-0.0009212970922134457
7.84500e-07;-0.000917793939330687
7.84750e-07;-0.0009118088239087511
7.85000e-07;-0.0009019325567171936
7.85250e-07;-0.0008865687657720809
7.85500e-07;-0.0008695219828854714
7.85750e-07;-0.0008482959767363097
7.86000e-07;-0.000821929289472032
7.86250e-07;-0.0007908623242393275
7.86500e-07;-0.0007553106485063265
7.86750e-07;-0.0007155711072061867
7.87000e-07;-0.0006719405774958637
7.87250e-07;-0.0006247158783246385
7.87500e-07;-0.0005740927849260946
7.87750e-07;-0.0005200249365216318
7.88000e-07;-0.0004623998175171401
7.88250e-07;-0.0004013458789845262
7.88500e-07;-0.0003372083925577428
7.88750e-07;-0.00027038346136930595
7.89000e-07;-0.00020126716849104293
7.89250e-07;-0.00013025557290615298
7.89500e-07;-5.768142531149389e-05
7.89750e-07;1.627422182873816e-05
7.90000e-07;9.147178754321421e-05
7.90250e-07;0.00016777908817513403
7.90500e-07;0.00024441904892794064
7.90750e-07;0.00032091494092579816
7.91000e-07;0.00039679376084218905
7.91250e-07;0.00047267258075858
7.91500e-07;0.0005465396265227926
7.91750e-07;0.0006194997862641347
7.92000e-07;0.0006896826038061899
7.92250e-07;0.0007586134255322884
7.92500e-07;0.0008235308857718591
7.92750e-07;0.0008866391660729532
7.93000e-07;0.0009443645416547787
7.93250e-07;0.000999663362025587
7.93500e-07;0.0010492455881775697
7.93750e-07;0.0010962508355022748
7.94000e-07;0.001139877581962785
7.94250e-07;0.0011819813367849497
7.94500e-07;0.0012199861177871639
7.94750e-07;0.0012561431257372114
7.95000e-07;0.0012923001336872437
7.95250e-07;0.0013224045375659374
7.95500e-07;0.0013497804930110084
7.95750e-07;0.0013771564484560796
7.96000e-07;0.0014004504014240309
7.96250e-07;0.001421904231837542
7.96500e-07;0.0014433580622510624
7.96750e-07;0.0014610367117376389
7.97000e-07;0.0014770135505051674
7.97250e-07;0.001492990389272696
7.97500e-07;0.001503051080118373
7.97750e-07;0.0015104448354863267
7.98000e-07;0.0015178385908542838
7.98250e-07;0.0015252323462222408
7.98500e-07;0.0015326261015901979
7.98750e-07;0.001540019856958155
7.99000e-07;0.001547413612326112
7.99250e-07;0.001554807367694066
7.99500e-07;0.0015571059187129525
7.99750e-07;0.001557107606735119
8.00000e-07;0.0015571092947572855
8.00250e-07;0.001557110982779452
8.00500e-07;0.0015571126708016185
8.00750e-07;0.001557114358823785
8.01000e-07;0.0015571160468459515
8.01250e-07;0.001557117734868118
8.01500e-07;0.0015554530471146607
8.01750e-07;0.0015530371751896858
8.02000e-07;0.001550621303264712
8.02250e-07;0.0015482054313397373
8.02500e-07;0.0015457895594147624
8.02750e-07;0.0015432054475379804
8.03000e-07;0.001539900734047646
8.03250e-07;0.0015365960205573118
8.03500e-07;0.0015332913070669788
8.03750e-07;0.0015299865935766445
8.04000e-07;0.0015266818800863103
8.04250e-07;0.0015179792315575336
8.04500e-07;0.0015068432523124274
8.04750e-07;0.0014957072730673257
8.05000e-07;0.0014800231076821456
8.05250e-07;0.0014622886691907813
8.05500e-07;0.001444554230699417
8.05750e-07;0.001421401373382525
8.06000e-07;0.0013958059514796897
8.06250e-07;0.0013702105295768652
8.06500e-07;0.0013386446721845315
8.06750e-07;0.0013043874070662704
8.07000e-07;0.0012701301419480093
8.07250e-07;0.0012311981211163695
8.07500e-07;0.0011901587709842393
8.07750e-07;0.001149119420852092
8.08000e-07;0.0011033939472828462
8.08250e-07;0.0010555560199662203
8.08500e-07;0.0010077180926495943
8.08750e-07;0.0009564309839748242
8.09000e-07;0.0009035890216597045
8.09250e-07;0.0008507470593445624
8.09500e-07;0.0007958528541629069
8.09750e-07;0.0007400335200997566
8.10000e-07;0.0006842141860366065
8.10250e-07;0.0006281981257951677
8.10500e-07;0.0005713394523695379
8.10750e-07;0.0005144807789438839
8.11000e-07;0.00045762210551823
8.11250e-07;0.0004020098256218214
8.11500e-07;0.00034695940644396137
8.11750e-07;0.0002931938944522899
8.12000e-07;0.00024102331752053036
8.12250e-07;0.00019053424474279186
8.12500e-07;0.00014207213531444956
8.12750e-07;9.600212843957856e-05
8.13000e-07;5.268932665608639e-05
8.13250e-07;1.2498767551458858e-05
8.13500e-07;-2.4555611690015556e-05
8.13750e-07;-5.935131121377823e-05
8.14000e-07;-9.314359319590482e-05
8.14250e-07;-0.00012650819301472148
8.14500e-07;-0.00015933889323463857
8.14750e-07;-0.0001913644501837552
8.15000e-07;-0.00022231366405317892
8.15250e-07;-0.0002519153498722708
8.15500e-07;-0.0002798306534451
8.15750e-07;-0.0003071863041177891
8.16000e-07;-0.0003345419547904666
8.16250e-07;-0.0003618746092267544
8.16500e-07;-0.00038919689720846325
8.16750e-07;-0.0004165191851901721
8.17000e-07;-0.00044268106222782267
8.17250e-07;-0.00046831983856609777
8.17500e-07;-0.000493958614904362
8.17750e-07;-0.0005195973912426371
8.18000e-07;-0.0005452361675809122
8.18250e-07;-0.0005708749439191872
8.18500e-07;-0.0005965137202574624
8.18750e-07;-0.0006221524965957376
8.19000e-07;-0.0006474223639696322
8.19250e-07;-0.0006711121286858022
8.19500e-07;-0.0006948018934019722
8.19750e-07;-0.0007184916581181423
8.20000e-07;-0.0007421814228343122
8.20250e-07;-0.0007658711875504722
8.20500e-07;-0.0007895609522666422
8.20750e-07;-0.0008132507169828123
8.21000e-07;-0.0008369404816989822
8.21250e-07;-0.0008584126375936626
8.21500e-07;-0.0008788851194233843
8.21750e-07;-0.0008993576012530974
8.22000e-07;-0.0009198300830828191
8.22250e-07;-0.0009382537952631523
8.22500e-07;-0.0009556966233393214
8.22750e-07;-0.0009731394514154904
8.23000e-07;-0.0009905822794916595
8.23250e-07;-0.000996427169563457
8.23500e-07;-0.0010124047384661614
8.23750e-07;-0.04963872048176142
8.24000e-07;-0.02709606303648932
8.24250e-07;-0.01181854713025637
8.24500e-07;0.006588892609976081
8.24750e-07;0.018200218789254742
8.25000e-07;0.016773772277438648
8.25250e-07;0.00656583246932532
8.25500e-07;-0.008411968815167474
8.25750e-07;-0.017835287771465133
8.26000e-07;-0.015530822259798276
8.26250e-07;-0.006446870424107888
8.26500e-07;0.004949123610987204
8.26750e-07;0.011976466112779157
8.27000e-07;0.010945545980743971
8.27250e-07;0.0044716590466410576
8.27500e-07;-0.004958642342529483
8.27750e-07;-0.010892336541488266
8.28000e-07;-0.009470435286844351
8.28250e-07;-0.003797041047910074
8.28500e-07;0.0033270660484471058
8.28750e-07;0.007716019776366506
8.29000e-07;0.007058374331836642
8.29250e-07;0.0029923700188145136
8.29500e-07;-0.0029244005192277907
8.29750e-07;-0.006649933317434364
8.30000e-07;-0.005767379423443497
8.30250e-07;-0.002221559504531693
8.30500e-07;0.0022328859716125773
8.30750e-07;0.0049739074263635726
8.31000e-07;0.004553778480044445
8.31250e-07;0.001998873705447523
8.31500e-07;-0.0017150408986765257
8.31750e-07;-0.004056126457507616
8.32000e-07;-0.0035107230971758
8.32250e-07;-0.0012973282618295929
8.32500e-07;0.0014847960973550375
8.32750e-07;0.0031931700041574872
8.33000e-07;0.0029210248049675266
8.33250e-07;0.0013113787031659638
8.33500e-07;-0.0010243949699168693
8.33750e-07;-0.002500030024885659
8.34000e-07;-0.002167053588103026
8.34250e-07;-0.0007886276897559211
8.34500e-07;0.0009466288001493751
8.34750e-07;0.0020098487301334067
8.35000e-07;0.0018330870060652667
8.35250e-07;0.0008191907475545794
8.35500e-07;-0.0006488508061478373
8.35750e-07;-0.0015774394635637628
8.36000e-07;-0.0013725621173253234
8.36250e-07;-0.0005123764966084587
8.36500e-07;0.0005716953404856592
8.36750e-07;0.0012351494877225686
8.37000e-07;0.0011222492303988231
8.37250e-07;0.00048536557682551517
8.37500e-07;-0.000435591702849472
8.37750e-07;-0.001018267209968754
8.38000e-07;-0.0008906503709203942
8.38250e-07;-0.0003523400779883618
8.38500e-07;0.00032636611924403487
8.38750e-07;0.0007417276255867745
8.39000e-07;0.0006709158786074778
8.39250e-07;0.00027202347978647317
8.39500e-07;-0.0003046765702723995
8.39750e-07;-0.000669372438631557
8.40000e-07;-0.0005890961885310012
8.40250e-07;-0.0002515771223843699
8.40500e-07;0.00017382638418902226
8.40750e-07;0.0004341867731607861
8.41000e-07;0.0003899176478285963
8.41250e-07;0.00014004310969983945
8.41500e-07;-0.00022131961827897575
8.41750e-07;-0.00045002179140813216
8.42000e-07;-0.0004001791663817407
8.42250e-07;-0.00018943286234800462
8.42500e-07;7.609381568890247e-05
8.42750e-07;0.0002379422314236733
8.43000e-07;0.00020866180764799965
8.43250e-07;5.02689640791583e-05
8.43500e-07;-0.0001782586553435573
8.43750e-07;-0.00032387470567028965
8.44000e-07;-0.0002950518687697874
8.44250e-07;-0.0001654027183298516
8.44500e-07;-1.3911953775240288e-06
8.44750e-07;9.772416422729369e-05
8.45000e-07;7.717131240068208e-05
8.45250e-07;-2.4195060448813755e-05
8.45500e-07;-0.0001694271415613864
8.45750e-07;-0.0002626585730378044
8.46000e-07;-0.0002465654106465349
8.46250e-07;-0.00016726751056512823
8.46500e-07;-6.640274134372647e-05
8.46750e-07;-6.146685808487485e-06
8.47000e-07;-2.0804155152315538e-05
8.47250e-07;-8.603178903084254e-05
8.47500e-07;-0.00017868277778461153
8.47750e-07;-0.00023870759045367898
8.48000e-07;-0.0002302038944444916
8.48250e-07;-0.00018206670972898914
8.48500e-07;-0.00012038097503277233
8.48750e-07;-8.40933960513183e-05
8.49000e-07;-9.468965266007769e-05
8.49250e-07;-0.00013691794423135922
8.49500e-07;-0.00019627732347864114
8.49750e-07;-0.00023515334437839
8.50000e-07;-0.0002310600317235308
8.50250e-07;-0.00020210055270064136
8.50500e-07;-0.0001646162458695101
8.50750e-07;-0.00014300310622083118
8.51000e-07;-0.00015071780706714413
8.51250e-07;-0.0001782045204549168
8.51500e-07;-0.00021637853528638513
8.51750e-07;-0.00024167834932465663
8.52000e-07;-0.0002400206148407235
8.52250e-07;-0.0002227470385332241
8.52500e-07;-0.00020009468581439735
8.52750e-07;-0.000187344884810702
8.53000e-07;-0.00019292547545103357
8.53250e-07;-0.00021085114090663404
8.53500e-07;-0.0002356130218111557
8.53750e-07;-0.00025305568733350714
8.54000e-07;-0.0002550923392231946
8.54250e-07;-0.0002491807453061698
8.54500e-07;-0.00024172207388305342
8.54750e-07;-0.00024218270072760633
8.55000e-07;-0.0002557353075814803
8.55250e-07;-0.000278524086320406
8.55500e-07;-0.000306992018221847
8.55750e-07;-0.0003321663957620922
8.56000e-07;-0.0003488765372736886
8.56250e-07;-0.00036168888503364585
8.56500e-07;-0.0003745075785412141
8.56750e-07;-0.00039315634691642715
8.57000e-07;-0.00042076893998860233
8.57250e-07;-0.00045482358940276664
8.57500e-07;-0.0004929858771077584
8.57750e-07;-0.0005295294262017008
8.58000e-07;-0.0005611098117071663
8.58250e-07;-0.0005906416340228234
8.58500e-07;-0.0006201112414207249
8.58750e-07;-0.0006531623766315252
8.59000e-07;-0.0006926749293466614
8.59250e-07;-0.0007350547922083692
8.59500e-07;-0.000779246877729929
8.59750e-07;-0.0008217172669765608
8.60000e-07;-0.0008617076762539403
8.60250e-07;-0.0009006384116932809
8.60500e-07;-0.0009387345884641071
8.60750e-07;-0.0009768307652349333
8.61000e-07;-0.001016724468078804
8.61250e-07;-0.0010580338338486348
8.61500e-07;-0.001099343199618483
8.61750e-07;-0.0011406525653883312
8.62000e-07;-0.0011775412325803515
8.62250e-07;-0.0012109483263045874
8.62500e-07;-0.0012443554200288233
8.62750e-07;-0.001277762513753045
8.63000e-07;-0.0013090634747897117
8.63250e-07;-0.001338705726109895
8.63500e-07;-0.0013683479774300783
8.63750e-07;-0.001392754479610741
8.64000e-07;-0.0014130375056105968
8.64250e-07;-0.0014333205316104615
8.64500e-07;-0.001453603557610326
8.64750e-07;-0.0014738865836101903
8.65000e-07;-0.001494169609610055
8.65250e-07;-0.0015144526356099194
8.65500e-07;-0.0015343006876726672
8.65750e-07;-0.001547263533758096
8.66000e-07;-0.0015602263798435248
8.66250e-07;-0.0015731892259289537
8.66500e-07;-0.0015861520720143825
8.66750e-07;-0.0015991149180998058
8.67000e-07;-0.0016120777641852346
8.67250e-07;-0.0016250406102706636
8.67500e-07;-0.001634868937062006
8.67750e-07;-0.0016422286360976903
8.68000e-07;-0.0016495883351333744
8.68250e-07;-0.0016569480341690557
8.68500e-07;-0.0016643077332047398
8.68750e-07;-0.0016716674322404242
8.69000e-07;-0.0016790271312761085
8.69250e-07;-0.0016863868303117926
8.69500e-07;-0.001693746529347477
8.69750e-07;-0.0016991440712315557
8.70000e-07;-0.0017029962930359163
8.70250e-07;-0.001706848514840277
8.70500e-07;-0.0017107007366446373
8.70750e-07;-0.001714552958448998
8.71000e-07;-0.0017184051802533568
8.71250e-07;-0.0017222574020577175
8.71500e-07;-0.0017261096238620779
8.71750e-07;-0.0017299618456664385
8.72000e-07;-0.0017330120940492718
8.72250e-07;-0.0017354307387755482
8.72500e-07;-0.0017378493835018237
8.72750e-07;-0.0017402680282281003
8.73000e-07;-0.0017424690763812663
8.73250e-07;-0.0017412257866142261
8.73500e-07;-0.0017399824968471862
8.73750e-07;-0.001738739207080146
8.74000e-07;-0.0017374959173131065
8.74250e-07;-0.0017292605762233562
8.74500e-07;-0.0017155185623889393
8.74750e-07;-0.0016970992241260204
8.75000e-07;-0.0016749962036703321
8.75250e-07;-0.0016486162159533172
8.75500e-07;-0.0016188678520672886
8.75750e-07;-0.0015835622246126045
8.76000e-07;-0.00154387990848444
8.76250e-07;-0.0014979984222535591
8.76500e-07;-0.0014472347062636714
8.76750e-07;-0.00139122570897588
8.77000e-07;-0.0013310857283430682
8.77250e-07;-0.0012665399953658714
8.77500e-07;-0.0011985244600038066
8.77750e-07;-0.0011258898221420703
8.78000e-07;-0.0010496173554564473
8.78250e-07;-0.0009689124676570643
8.78500e-07;-0.0008847167741679002
8.78750e-07;-0.0007972748173956232
8.79000e-07;-0.0007072762275670128
8.79250e-07;-0.0006151457317529402
8.79500e-07;-0.000521336228156704
8.79750e-07;-0.00042584956342480096
8.80000e-07;-0.0003290420305974311
8.80250e-07;-0.00023126262626941896
8.80500e-07;-0.0001327178130425105
8.80750e-07;-3.4275425473943397e-05
8.81000e-07;6.357241884305245e-05
8.81250e-07;0.0001601773300958898
8.81500e-07;0.0002550216006505917
8.81750e-07;0.00034775368556858835
8.82000e-07;0.00043806007640089076
8.82250e-07;0.0005254641425553974
8.82500e-07;0.0006093569438510105
8.82750e-07;0.0006890909026671985
8.83000e-07;0.000764024682462612
8.83250e-07;0.000833532989895334
8.83500e-07;0.000897281709582255
8.83750e-07;0.0009556781645651204
8.84000e-07;0.0010095069051515118
8.84250e-07;0.0010591181224631344
8.84500e-07;0.001103036120254553
8.84750e-07;0.0011439297960139877
8.85000e-07;0.0011791896860947613
8.85250e-07;0.0012100126216089
8.85500e-07;0.0012351298732235665
8.85750e-07;0.001255753545977139
8.86000e-07;0.0012717643356876635
8.86250e-07;0.0012841421947809124
8.86500e-07;0.001292138886292804
8.86750e-07;0.0012966851374407895
8.87000e-07;0.0012967428295525803
8.87250e-07;0.0012932655038896098
8.87500e-07;0.001285533744284538
8.87750e-07;0.0012744513548925793
8.88000e-07;0.001260078286831112
8.88250e-07;0.001243113605850221
8.88500e-07;0.0012226094028105173
8.88750e-07;0.0011993176072959933
8.89000e-07;0.0011760258117814693
8.89250e-07;0.0011490538563386768
8.89500e-07;0.001119183547403047
8.89750e-07;0.0010893132384674049
8.90000e-07;0.0010570712289417502
8.90250e-07;0.0010229613585559562
8.90500e-07;0.000988851488170162
8.90750e-07;0.0009547416177843824
8.91000e-07;0.0009205842800138142
8.91250e-07;0.0008856755806246827
8.91500e-07;0.0008507668812355512
8.91750e-07;0.0008158581818464196
8.92000e-07;0.0007809494824572881
8.92250e-07;0.0007481098721801248
8.92500e-07;0.0007168997975132373
8.92750e-07;0.0006856897228463498
8.93000e-07;0.0006570433830849796
8.93250e-07;0.0006304161430809616
8.93500e-07;0.0006060293564895328
8.93750e-07;0.000583407065490845
8.94000e-07;0.0005622160961383147
8.94250e-07;0.0005421523810827298
