Time(s);Current(A)
5.80000e-06;0.0021663035649694784
5.80025e-06;0.002163611534734708
5.80050e-06;0.002149679830037432
5.80075e-06;0.0021317014732249438
5.80100e-06;0.0021137231164124557
5.80125e-06;0.002095744759599907
5.80150e-06;0.002077766402787419
5.80175e-06;0.0020597880459749312
5.80200e-06;0.0020418096891623824
5.80225e-06;0.0020238313323498944
5.80250e-06;0.0020058529755373456
5.80275e-06;0.0019878746187248575
5.80300e-06;0.0019698962619123695
5.80325e-06;0.0019476377117954365
5.80350e-06;0.0019238381514522162
5.80375e-06;0.0019000385911089957
5.80400e-06;0.0018762390307656947
5.80425e-06;0.0018524394704224742
5.80450e-06;0.0018286399100792537
5.80475e-06;0.0018048403497359527
5.80500e-06;0.001781838284613751
5.80525e-06;0.0017614283348690054
5.80550e-06;0.0017410183851241906
5.80575e-06;0.0017206084353794447
5.80600e-06;0.001700198485634699
5.80625e-06;0.001679788535889884
5.80650e-06;0.0016593785861451385
5.80675e-06;0.0016389686364003235
5.80700e-06;0.0016226522196167664
5.80725e-06;0.0016078096092026729
5.80750e-06;0.001592966998788529
5.80775e-06;0.0015781243883744355
5.80800e-06;0.001563281777960342
5.80825e-06;0.001548439167546198
5.80850e-06;0.0015335965571321045
5.80875e-06;0.001518753946718011
5.80900e-06;0.001503911336303867
5.80925e-06;0.001489062408943319
5.80950e-06;0.0014741929494797442
5.80975e-06;0.0014593234900161188
5.81000e-06;0.001444454030552544
5.81025e-06;0.001429584571088969
5.81050e-06;0.001414715111625344
5.81075e-06;0.001399845652161769
5.81100e-06;0.0013849761926981437
5.81125e-06;0.0013701067332345688
5.81150e-06;0.001355237273770994
5.81175e-06;0.001339645597226588
5.81200e-06;0.001323793898802904
5.81225e-06;0.00130794220037922
5.81250e-06;0.0012920905019554825
5.81275e-06;0.0012762388035317985
5.81300e-06;0.0012603871051081145
5.81325e-06;0.0012445354066843769
5.81350e-06;0.0012286837082606929
5.81375e-06;0.0012128320098370089
5.81400e-06;0.0011974608116321064
5.81425e-06;0.0011836513933263493
5.81450e-06;0.0011698419750205923
5.81475e-06;0.0011560325567147882
5.81500e-06;0.0011422231384090311
5.81525e-06;0.0011284137201032272
5.81550e-06;0.0011146043017974702
5.81575e-06;0.001100794883491713
5.81600e-06;0.001086985465185909
5.81625e-06;0.001073176046880152
5.81650e-06;0.0010618462639355693
5.81675e-06;0.001051409231195498
5.81700e-06;0.001040972198455462
5.81725e-06;0.0010294917405971797
5.81750e-06;0.0010146198162798276
5.81775e-06;0.000999747891962526
5.81800e-06;0.0009848759676452244
5.81825e-06;0.0009657047716150535
5.81850e-06;0.0009449856965052439
5.81875e-06;0.0009218080063182057
5.81900e-06;0.0008977451339194795
5.81925e-06;0.0008700652135797637
5.81950e-06;0.000841083037134241
5.81975e-06;0.0008077686461923398
5.82000e-06;0.0007728945156862713
5.82025e-06;0.0007344407433173412
5.82050e-06;0.0006946981822601312
5.82075e-06;0.0006521149419820331
5.82100e-06;0.0006085089638468658
5.82125e-06;0.0005617830876634525
5.82150e-06;0.0005139339456708239
5.82175e-06;0.00046296334347646693
5.82200e-06;0.000410868913046606
5.82225e-06;0.0003565708408939654
5.82250e-06;0.00030147938531497476
5.82275e-06;0.00024509348790060435
5.82300e-06;0.0001882415488934301
5.82325e-06;0.00013061856960605703
5.82350e-06;7.221362633228487e-05
5.82375e-06;1.3322173259939516e-05
5.82400e-06;-4.572074461895251e-05
5.82425e-06;-0.00010455714727346338
5.82450e-06;-0.00016282909827484494
5.82475e-06;-0.00022017995146925216
5.82500e-06;-0.0002763228963475475
5.82525e-06;-0.0003310996089954569
5.82550e-06;-0.000384353081107826
5.82575e-06;-0.0004358019237083841
5.82600e-06;-0.00048508473837831215
5.82625e-06;-0.0005318257869616026
5.82650e-06;-0.0005756493390072318
5.82675e-06;-0.0006161770961411377
5.82700e-06;-0.0006528936499357694
5.82725e-06;-0.0006850788589721784
5.82750e-06;-0.0007121371346764842
5.82775e-06;-0.0007338345949231694
5.82800e-06;-0.0007501379871755383
5.82825e-06;-0.0007610480920947203
5.82850e-06;-0.0007665656116008308
5.82875e-06;-0.0007666896880230526
5.82900e-06;-0.0007613335837364889
5.82925e-06;-0.0007502822974061565
5.82950e-06;-0.0007333989133186199
5.82975e-06;-0.0007107731472446213
5.83000e-06;-0.0006826203130401811
5.83025e-06;-0.0006491770214186783
5.83050e-06;-0.0006106799447296062
5.83075e-06;-0.0005673646425555054
5.83100e-06;-0.000519412903846621
5.83125e-06;-0.00046692618603280753
5.83150e-06;-0.00041005486004457167
5.83175e-06;-0.00034909119914359094
5.83200e-06;-0.0002844062446059829
5.83225e-06;-0.00021638424831442373
5.83250e-06;-0.0001454094925374562
5.83275e-06;-7.186558867481762e-05
5.83300e-06;3.897606388324882e-06
5.83325e-06;8.158054504644275e-05
5.83350e-06;0.0001608530565437156
5.83375e-06;0.0002414425250218624
5.83400e-06;0.00032236337401730957
5.83425e-06;0.00040328422301275676
5.83450e-06;0.0004842050720084781
5.83475e-06;0.0005651259210039252
5.83500e-06;0.0006439059456651582
5.83525e-06;0.000721915183433551
5.83550e-06;0.0007967138968704615
5.83575e-06;0.0008703567160589967
5.83600e-06;0.0009392695494781653
5.83625e-06;0.0010064794326055267
5.83650e-06;0.001067391056588732
5.83675e-06;0.0011260351003360676
5.83700e-06;0.001177717547629432
5.83725e-06;0.0012268935914604108
5.83750e-06;0.0012703685466404354
5.83775e-06;0.0013117909225839471
5.83800e-06;0.001347399050069923
5.83825e-06;0.0013809138570706793
5.83850e-06;0.0014079707229151157
5.83875e-06;0.0014327025177530617
5.83900e-06;0.0014508996333355932
5.83925e-06;0.0014667440496745436
5.83950e-06;0.0014771820893256407
5.83975e-06;0.001485673655730341
5.84000e-06;0.0014877281810186335
5.84025e-06;0.0014874651600015182
5.84050e-06;0.0014872021389844038
5.84075e-06;0.0014793230292716667
5.84100e-06;0.0014687018773847503
5.84125e-06;0.00145808072549787
5.84150e-06;0.0014415379717055059
5.84175e-06;0.0014228632466597455
5.84200e-06;0.0014041885216139849
5.84225e-06;0.0013806952317210886
5.84250e-06;0.0013554671001586173
5.84275e-06;0.0013302389685961459
5.84300e-06;0.0013006368595487303
5.84325e-06;0.0012694599748900956
5.84350e-06;0.001238283090231461
5.84375e-06;0.0012071062055727206
5.84400e-06;0.0011759293209140861
5.84425e-06;0.001143175235068336
5.84450e-06;0.0011098533049726698
5.84475e-06;0.0010765313748771165
5.84500e-06;0.001043209444781563
5.84525e-06;0.0010098875146858967
5.84550e-06;0.0009784253914101218
5.84575e-06;0.0009476328596974158
5.84600e-06;0.0009168403279848142
5.84625e-06;0.0008895482034447597
5.84650e-06;0.000863516340500307
5.84675e-06;0.0008374844775559425
5.84700e-06;0.0008149352460504852
5.84725e-06;0.0007936398762924528
5.84750e-06;0.0007723445065344926
5.84775e-06;0.0007534413929927301
5.84800e-06;0.0007353995702915449
5.84825e-06;0.0007173577475904207
5.84850e-06;0.0006993159248892965
5.84875e-06;0.0006812741021881112
5.84900e-06;0.0006632322794869871
5.84925e-06;0.0006460092592841094
5.84950e-06;0.0006314476099437874
5.84975e-06;0.0006168859606035147
5.85000e-06;0.0006023243112631925
5.85025e-06;0.0005877626619229198
5.85050e-06;0.000573201012582647
5.85075e-06;0.000558639363242325
5.85100e-06;0.0005458932677581391
5.85125e-06;0.0005338008313160781
5.85150e-06;0.0005217083948739761
5.85175e-06;0.000509615958431915
5.85200e-06;0.000497523521989854
5.85225e-06;0.0004854310855477521
5.85250e-06;0.0004733386491056911
5.85275e-06;0.00046124621266363004
5.85300e-06;0.00044915377622152807
5.85325e-06;0.000437061339779467
5.85350e-06;0.0004256127540656599
5.85375e-06;0.00041625688982195613
5.85400e-06;0.00040690102557828405
5.85425e-06;0.00039754516133458026
5.85450e-06;0.00038818929709090813
5.85475e-06;0.00037883343284723605
5.85500e-06;0.00036947756860353226
5.85525e-06;0.0003601217043598602
5.85550e-06;0.00035076584011618805
5.85575e-06;0.00034140997587248426
5.85600e-06;0.0003320541116288122
5.85625e-06;0.0003243179337374996
5.85650e-06;0.00031716489615122597
5.85675e-06;0.0003108707967095114
5.85700e-06;0.0003048859432220496
5.85725e-06;0.00030010298469546585
5.85750e-06;0.00029692971255404434
5.85775e-06;0.00029539937202173856
5.85800e-06;0.00029549401641598477
5.85825e-06;0.00029716847830597393
5.85850e-06;0.00030037762364109027
5.85875e-06;0.0003050777324423982
5.85900e-06;0.0003113039285725425
5.85925e-06;0.0003192303050453697
5.85950e-06;0.0003290155800791252
5.85975e-06;0.0003406623292305877
5.86000e-06;0.0003546752462555367
5.86025e-06;0.0003693638185198131
5.86050e-06;0.0003862836162803121
5.86075e-06;0.0004040067285310504
5.86100e-06;0.0004237713930653528
5.86125e-06;0.0004442710835011796
5.86150e-06;0.0004668174727663891
5.86175e-06;0.0004901007408585893
5.86200e-06;0.0005154185814770458
5.86225e-06;0.0005414689350551154
5.86250e-06;0.0005675192886330969
5.86275e-06;0.000595530145851745
5.86300e-06;0.0006242468487972755
5.86325e-06;0.0006529635517428059
5.86350e-06;0.0006816802546884336
5.86375e-06;0.000710396957633964
5.86400e-06;0.0007395127072540031
5.86425e-06;0.0007687721267884576
5.86450e-06;0.000798031546322813
5.86475e-06;0.0008272909658571684
5.86500e-06;0.0008565503853916229
5.86525e-06;0.0008830872890702003
5.86550e-06;0.0009086439975869149
5.86575e-06;0.000934200706103716
5.86600e-06;0.0009597574146204305
5.86625e-06;0.000985314123137145
5.86650e-06;0.0010087444515709532
5.86675e-06;0.0010252633624097574
5.86700e-06;0.0010417822732486175
5.86725e-06;0.0010583011840874215
5.86750e-06;0.0010748200949262257
5.86775e-06;0.0010913390057650859
5.86800e-06;0.0011007036805308948
5.86825e-06;0.0011074925952436617
5.86850e-06;0.0011142815099564516
5.86875e-06;0.0011157109981724807
5.86900e-06;0.0011152109167550195
5.86925e-06;0.0011147108353375564
5.86950e-06;0.0011088209118020166
5.86975e-06;0.0011009904680099715
5.87000e-06;0.0010931600242179
5.87025e-06;0.0010803835039347055
5.87050e-06;0.0010658262336015346
5.87075e-06;0.0010512689632683142
5.87100e-06;0.0010322937811402088
5.87125e-06;0.0010117280056066219
5.87150e-06;0.0009911622300731047
5.87175e-06;0.00096690081388723
5.87200e-06;0.0009413088456388555
5.87225e-06;0.0009157168773905675
5.87250e-06;0.000886753948114342
5.87275e-06;0.0008565773621084031
5.87300e-06;0.0008264007761025664
5.87325e-06;0.0007962241900967296
5.87350e-06;0.0007660476040907907
5.87375e-06;0.0007342406266524497
5.87400e-06;0.000701846654728711
5.87425e-06;0.0006694526828048625
5.87450e-06;0.0006370587108811238
5.87475e-06;0.0006046647389573851
5.87500e-06;0.0005733072891799636
5.87525e-06;0.0005423230214323131
5.87550e-06;0.0005113387536845575
5.87575e-06;0.0004822032906336204
5.87600e-06;0.0004537334580195562
5.87625e-06;0.0004274719856874705
5.87650e-06;0.0004020055956169651
5.87675e-06;0.00037858732743330047
5.87700e-06;0.00035740310014661795
5.87725e-06;0.0003381954960235379
5.87750e-06;0.000320870455246044
5.87775e-06;0.0003054140487175656
5.87800e-06;0.00029187973243963134
5.87825e-06;0.0002803342046871188
5.87850e-06;0.0002708441928387629
5.87875e-06;0.00026347553320481856
5.87900e-06;0.00025824569694813727
5.87925e-06;0.00025506842668336497
5.87950e-06;0.0002538174445292252
5.87975e-06;0.00025441672314113295
5.88000e-06;0.00025683250665543784
5.88025e-06;0.00026103924362305437
5.88050e-06;0.0002670114373744662
5.88075e-06;0.0002747230228759525
5.88100e-06;0.0002841176532701611
5.88125e-06;0.0002955798866712849
5.88150e-06;0.000307627810190561
5.88175e-06;0.0003215552607520735
5.88200e-06;0.0003361594028042444
5.88225e-06;0.00035239103025609783
5.88250e-06;0.00036920860592594526
5.88275e-06;0.0003876659609269548
5.88300e-06;0.0004067136903651256
5.88325e-06;0.0004257614198032964
5.88350e-06;0.0004461158497000355
5.88375e-06;0.00046694073469585363
5.88400e-06;0.0004877656196917423
5.88425e-06;0.0005085905046875605
5.88450e-06;0.0005294153896833785
5.88475e-06;0.0005497921806753903
5.88500e-06;0.0005700076431029767
5.88525e-06;0.000590223105530563
5.88550e-06;0.0006104385679582177
5.88575e-06;0.000630654030385804
5.88600e-06;0.0006486642033391047
5.88625e-06;0.0006658803996228612
5.88650e-06;0.0006830965959065592
5.88675e-06;0.0006973664714691502
5.88700e-06;0.0007105755747653954
5.88725e-06;0.0007237846780615959
5.88750e-06;0.0007333502124770232
5.88775e-06;0.000741603942379259
5.88800e-06;0.0007466767218623792
5.88825e-06;0.0007506042546786983
5.88850e-06;0.0007513735417950999
5.88875e-06;0.0007510057566896182
5.88900e-06;0.0007473871308606808
5.88925e-06;0.0007425980955590252
5.88950e-06;0.000734362394005749
5.88975e-06;0.0007248857793553781
5.89000e-06;0.000712160100128312
5.89025e-06;0.0006982646508997272
5.89050e-06;0.0006814189149354945
5.89075e-06;0.0006635109788095008
5.89100e-06;0.0006428792467565753
5.89125e-06;0.0006212668586746534
5.89150e-06;0.0005970925822110607
5.89175e-06;0.0005719959417545929
5.89200e-06;0.0005443055136061185
5.89225e-06;0.0005156812366650972
5.89250e-06;0.00048705695972397887
5.89275e-06;0.00045623299280733606
5.89300e-06;0.0004246170652247294
5.89325e-06;0.0003930011376420156
5.89350e-06;0.0003600802450887822
5.89375e-06;0.0003266895222691782
5.89400e-06;0.0002932987994494611
5.89425e-06;0.0002599080766298572
5.89450e-06;0.00022651735381025318
5.89475e-06;0.00019312663099053606
5.89500e-06;0.00016059292572326956
5.89525e-06;0.0001283677749336697
5.89550e-06;9.706270560533168e-05
5.89575e-06;6.690141342076416e-05
5.89600e-06;3.8006946987440906e-05
5.89625e-06;1.0599312431956172e-05
5.89650e-06;-1.5101511216181329e-05
5.89675e-06;-3.888196671556118e-05
5.89700e-06;-6.089387609915444e-05
5.89725e-06;-8.197907258153152e-05
5.89750e-06;-0.00010303182187083328
5.89775e-06;-0.00012433732014991436
5.89800e-06;-0.0001456497567602483
5.89825e-06;-0.00016693845203982923
5.89850e-06;-0.00018822714731933806
5.89875e-06;-0.00020885733298424593
5.89900e-06;-0.0002292504335514909
5.89925e-06;-0.0002498524496080296
5.89950e-06;-0.0002711335080424122
5.89975e-06;-0.00029241456647686683
5.90000e-06;-0.0003147212262519807
5.90025e-06;-0.0003373971362076561
5.90050e-06;-0.00036007304616340836
5.90075e-06;-0.0003834675588930202
5.90100e-06;-0.00040712079223225643
5.90125e-06;-0.00043077402557141253
5.90150e-06;-0.00045442725891056863
5.90175e-06;-0.0004780804922498049
5.90200e-06;-0.0005020316316940297
5.90225e-06;-0.0005269510615726569
5.90250e-06;-0.0005518704914513686
5.90275e-06;-0.0005767899213299959
5.90300e-06;-0.0006017093512086231
5.90325e-06;-0.0006266287810873347
5.90350e-06;-0.000651222730616378
5.90375e-06;-0.0006756994965253638
5.90400e-06;-0.0007001762624344324
5.90425e-06;-0.0007246530283434181
5.90450e-06;-0.0007491297942524039
5.90475e-06;-0.0007728941272801452
5.90500e-06;-0.0007943428248362875
5.90525e-06;-0.0008157915223925025
5.90550e-06;-0.0008372402199486447
5.90575e-06;-0.000858688917504787
5.90600e-06;-0.0008801376150610019
5.90625e-06;-0.0008990212007136322
5.90650e-06;-0.0009169812617999739
5.90675e-06;-0.0009326584179390791
5.90700e-06;-0.0009475136532884661
5.90725e-06;-0.0009586563995565093
5.90750e-06;-0.0009645945937549537
5.90775e-06;-0.0009651223894924811
5.90800e-06;-0.0009603209829937247
5.90825e-06;-0.0009503742368505273
5.90850e-06;-0.0009354660290637745
5.90875e-06;-0.0009157748449959689
5.90900e-06;-0.0008911779798555137
5.90925e-06;-0.0008610170451448789
5.90950e-06;-0.0008246775223975018
5.90975e-06;-0.0007821273473863977
5.91000e-06;-0.0007336969709626811
5.91025e-06;-0.000679781056476102
5.91050e-06;-0.0006207742946667285
5.91075e-06;-0.0005570679677857107
5.91100e-06;-0.0004888647953856634
5.91125e-06;-0.00041603174691610365
5.91150e-06;-0.00033846345922840433
5.91175e-06;-0.0002564193471471367
5.91200e-06;-0.0001703858827771049
5.91225e-06;-8.08897750443652e-05
5.91250e-06;1.1542303504862917e-05
5.91275e-06;0.00010638586198888255
5.91300e-06;0.00020323459911039465
5.91325e-06;0.000302455630685048
5.91350e-06;0.00040234883892893215
5.91375e-06;0.0005037020647613907
5.91400e-06;0.0006055809448964847
5.91425e-06;0.0007074598250315789
5.91450e-06;0.0008075847638253717
5.91475e-06;0.0009070782261072942
5.91500e-06;0.0010065716883892167
5.91525e-06;0.0011020904481190271
5.91550e-06;0.0011961781843344696
5.91575e-06;0.0012853628995662908
5.91600e-06;0.0013727823661477824
5.91625e-06;0.001453378005340429
5.91650e-06;0.0015315168424655814
5.91675e-06;0.0016012277135022714
5.91700e-06;0.0016679042398326828
5.91725e-06;0.001728391001762232
5.91750e-06;0.0017866492451332307
5.91775e-06;0.0018395013115407289
5.91800e-06;0.0018904069766132034
5.91825e-06;0.0019413126416855055
5.91850e-06;0.0019838569497384073
5.91875e-06;0.0020233908945390374
5.91900e-06;0.0020629248393395335
5.91925e-06;0.002095654758290942
5.91950e-06;0.0021259350043799467
5.91975e-06;0.0021562152504688487
5.92000e-06;0.0021770605123308012
5.92025e-06;0.002194508869870112
5.92050e-06;0.0022119572274093635
5.92075e-06;0.002229405584948615
5.92100e-06;0.0022468539424879254
5.92125e-06;0.002264302300027177
5.92150e-06;0.0022817506575664283
5.92175e-06;0.0022991990151057387
5.92200e-06;0.002306564294584217
5.92225e-06;0.0023102993346658944
5.92250e-06;0.0023140343747475593
5.92275e-06;0.0023177694148292243
5.92300e-06;0.002321504454910902
5.92325e-06;0.002325239494992567
5.92350e-06;0.002328974535074232
5.92375e-06;0.0023327095751559095
5.92400e-06;0.0023320023124524716
5.92425e-06;0.002329695674787835
5.92450e-06;0.002327389037123191
5.92475e-06;0.0023250823994585544
5.92500e-06;0.0023227757617939175
5.92525e-06;0.002320469124129273
5.92550e-06;0.0023181624864646367
5.92575e-06;0.0023153638992707624
5.92600e-06;0.0023109663182497575
5.92625e-06;0.0023065687372287678
5.92650e-06;0.002302171156207763
5.92675e-06;0.0022977735751867727
5.92700e-06;0.0022933759941657825
5.92725e-06;0.0022889784131447776
5.92750e-06;0.002284580832123788
5.92775e-06;0.0022721052158808878
5.92800e-06;0.0022567212415422646
5.92825e-06;0.0022413372672036936
5.92850e-06;0.002219548436379958
5.92875e-06;0.002195453646780497
5.92900e-06;0.002171358857181118
5.92925e-06;0.002139417236733813
5.92950e-06;0.0021046504993620123
5.92975e-06;0.002069883761990329
5.93000e-06;0.0020267442831399893
5.93025e-06;0.001980590342258541
5.93050e-06;0.001934436401377249
5.93075e-06;0.0018817044118703086
5.93100e-06;0.0018266041087270457
5.93125e-06;0.0017715038055837829
5.93150e-06;0.0017097704146651462
5.93175e-06;0.0016456488942079776
5.93200e-06;0.0015815273737508093
5.93225e-06;0.0015119375753916585
5.93250e-06;0.0014403790173199784
5.93275e-06;0.0013688204592482984
5.93300e-06;0.0012972619011763762
5.93325e-06;0.0012247720178013403
5.93350e-06;0.0011492550283467417
5.93375e-06;0.0010737380388918874
5.93400e-06;0.0009982210494372886
5.93425e-06;0.0009227040599826901
5.93450e-06;0.0008485534908894001
5.93475e-06;0.0007748948780222037
5.93500e-06;0.0007012362651547578
5.93525e-06;0.0006306608433055868
5.93550e-06;0.0005611954715254893
5.93575e-06;0.000494264896539978
5.93600e-06;0.00043039838037454964
5.93625e-06;0.0003698148892115114
5.93650e-06;0.00031299984755291994
5.93675e-06;0.0002604271790274521
5.93700e-06;0.00021191065893667467
5.93725e-06;0.00016600711419238848
5.93750e-06;0.00012115089788769653
5.93775e-06;7.685117384049407e-05
5.93800e-06;3.333727698134593e-05
5.93825e-06;-9.030088266944921e-06
5.93850e-06;-4.9890298693774045e-05
5.93875e-06;-8.889000494643474e-05
5.93900e-06;-0.0001260893442298213
5.93925e-06;-0.00016233578035111234
5.93950e-06;-0.00019855341542467876
5.93975e-06;-0.00023499302405514716
5.94000e-06;-0.00027113812042938053
5.94025e-06;-0.00030715531357791405
5.94050e-06;-0.00034317250672644757
5.94075e-06;-0.00037774133164336204
5.94100e-06;-0.00041178869640862175
5.94125e-06;-0.00044583606117388146
5.94150e-06;-0.0004798834259392565
5.94175e-06;-0.0005139307907045162
5.94200e-06;-0.0005476945069860379
5.94225e-06;-0.0005805362746785898
5.94250e-06;-0.0006133780423710303
5.94275e-06;-0.0006462198100634709
5.94300e-06;-0.0006790615777560227
5.94325e-06;-0.0007119033454484633
5.94350e-06;-0.0007426546042657886
5.94375e-06;-0.0007726532112014643
5.94400e-06;-0.00080265181813714
5.94425e-06;-0.0008326504250729173
5.94450e-06;-0.0008626490320085929
5.94475e-06;-0.0008926476389442686
5.94500e-06;-0.0009226462458800459
5.94525e-06;-0.0009477634512971846
5.94550e-06;-0.0009711231917827549
5.94575e-06;-0.0009944829322684043
