Time(s);Current(A)
1.23000e-05;0.0007530103229409193
1.23003e-05;0.0007438734081996714
1.23005e-05;0.0007369514979145537
1.23008e-05;0.0007315897283333219
1.23010e-05;0.0007287489572348917
1.23013e-05;0.0007276838540529483
1.23015e-05;0.0007266187508709976
1.23018e-05;0.0007276597572509193
1.23020e-05;0.000730184204102177
1.23023e-05;0.0007327086509534519
1.23025e-05;0.0007372089956891915
1.23028e-05;0.0007431010661651174
1.23030e-05;0.0007489931366410831
1.23033e-05;0.000756691009462945
1.23035e-05;0.0007656608010546247
1.23038e-05;0.0007746305926463653
1.23040e-05;0.0007836003842381059
1.23042e-05;0.0007925701758297857
1.23045e-05;0.0008015399674215262
1.23048e-05;0.0008105628271368703
1.23050e-05;0.000820144470794994
1.23053e-05;0.0008297261144531826
1.23055e-05;0.0008393077581113714
1.23058e-05;0.00084888940176956
1.23060e-05;0.0008584710454276837
1.23063e-05;0.0008680526890858725
1.23065e-05;0.0008765604489461828
1.23068e-05;0.0008843118176308244
1.23070e-05;0.0008920631863155186
1.23073e-05;0.0008998145550002128
1.23075e-05;0.0009100551462149838
1.23078e-05;0.0009220490239211017
1.23080e-05;0.0009340429016272197
1.23083e-05;0.0009460367793332563
1.23085e-05;0.000960988996792985
1.23088e-05;0.0009780249239508341
1.23090e-05;0.0009950608511085676
1.23093e-05;0.0010152321839298917
1.23095e-05;0.0010376119430081162
1.23098e-05;0.001059991702086189
1.23100e-05;0.001085910172396599
1.23103e-05;0.001114321137662926
1.23105e-05;0.0011427321029290605
1.23108e-05;0.0011737871461979287
1.23110e-05;0.0012067045485721765
1.23113e-05;0.0012396219509462011
1.23115e-05;0.0012764589109844702
1.23118e-05;0.0013160566155612284
1.23120e-05;0.0013556543201377184
1.23123e-05;0.0013952520247144766
1.23125e-05;0.0014348497292912348
1.23127e-05;0.0014744474338677248
1.23130e-05;0.0015143644916547397
1.23133e-05;0.0015576441979402898
1.23135e-05;0.0016009239042255466
1.23138e-05;0.0016442036105110967
1.23140e-05;0.0016874833167966467
1.23143e-05;0.0017307630230821967
1.23145e-05;0.0017740427293674536
1.23148e-05;0.0018148643568185593
1.23150e-05;0.001853954633872548
1.23153e-05;0.001893044910926272
1.23155e-05;0.001932135187980261
1.23158e-05;0.00197122546503425
1.23160e-05;0.002010315742087974
1.23163e-05;0.002048214762681459
1.23165e-05;0.0020735703779763554
1.23168e-05;0.00209892599327108
1.23170e-05;0.0021242816085659767
1.23173e-05;0.0021496372238608732
1.23175e-05;0.002174992839155598
1.23178e-05;0.002200348454450495
1.23180e-05;0.0022167078469390216
1.23183e-05;0.002226730740486988
1.23185e-05;0.0022367536340350226
1.23188e-05;0.002240634334156095
1.23190e-05;0.0022401887739143572
1.23193e-05;0.0022397432136726163
1.23195e-05;0.0022331295497242725
1.23198e-05;0.0022221713754807526
1.23200e-05;0.0022112132012371585
1.23203e-05;0.002194588462512294
1.23205e-05;0.0021739724731701018
1.23208e-05;0.00215335648382777
1.23210e-05;0.0021252331267136
1.23212e-05;0.0020918219472595458
1.23215e-05;0.0020584107678052648
1.23218e-05;0.0020249995883509842
1.23220e-05;0.0019915884088969296
1.23223e-05;0.001958177229442649
1.23225e-05;0.0019238216820505714
1.23228e-05;0.0018795223566463125
1.23230e-05;0.0018352230312423537
1.23233e-05;0.0017909237058380948
1.23235e-05;0.001746624380433836
1.23238e-05;0.0017023250550298773
1.23240e-05;0.0016580257296256184
1.23243e-05;0.0016129523954805218
1.23245e-05;0.001567333887469728
1.23248e-05;0.0015217153794586254
1.23250e-05;0.0014760968714475227
1.23253e-05;0.0014304783634367293
1.23255e-05;0.0013855232709767346
1.23258e-05;0.0013475536517716824
1.23260e-05;0.0013095840325668875
1.23263e-05;0.0012716144133618353
1.23265e-05;0.0012336447941567832
1.23268e-05;0.0011956751749519882
1.23270e-05;0.0011635321955824009
1.23273e-05;0.0011354932160744181
1.23275e-05;0.0011112108628118728
1.23278e-05;0.0010895744931737278
1.23280e-05;0.0010718285246908508
1.23283e-05;0.0010568227643304434
1.23285e-05;0.001045853987181256
1.23288e-05;0.0010377286633789957
1.23290e-05;0.0010337334222021615
1.23293e-05;0.0010326472090418516
1.23295e-05;0.00103555723529216
1.23297e-05;0.001041282016950641
1.23300e-05;0.0010507847359455245
1.23303e-05;0.0010629484490543139
1.23305e-05;0.0010786797549318682
1.23308e-05;0.0010969238985072982
1.23310e-05;0.0011192448811327632
1.23313e-05;0.0011444373896067556
1.23315e-05;0.001169629898080577
1.23318e-05;0.0011988998148110507
1.23320e-05;0.0012310416583112874
1.23323e-05;0.0012631835018113062
1.23325e-05;0.0012994286069268955
1.23328e-05;0.001338563848652688
1.23330e-05;0.0013776990903782151
1.23333e-05;0.0014168343321040078
1.23335e-05;0.0014559695738298002
1.23338e-05;0.0014951048155553274
1.23340e-05;0.0015356980227926131
1.23343e-05;0.0015773181495628015
1.23345e-05;0.001618938276332708
1.23348e-05;0.0016605584031028962
1.23350e-05;0.0017021785298730848
1.23353e-05;0.001743798656642991
1.23355e-05;0.0017807946262994305
1.23358e-05;0.0018145335660562241
1.23360e-05;0.0018482725058127892
1.23363e-05;0.0018820114455695828
1.23365e-05;0.0019157503853263764
1.23368e-05;0.0019494893250829415
1.23370e-05;0.0019832282648397353
1.23373e-05;0.0020112470013491203
1.23375e-05;0.0020352367067178346
1.23378e-05;0.002059226412086711
1.23380e-05;0.0020832161174555875
1.23382e-05;0.0021072058228243013
1.23385e-05;0.002131195528193178
1.23388e-05;0.0021551852335620542
1.23390e-05;0.0021759740734867907
1.23393e-05;0.0021945083804880056
1.23395e-05;0.0022130426874892206
1.23398e-05;0.0022315769944904356
1.23400e-05;0.0022501113014915253
1.23403e-05;0.0022686456084927403
1.23405e-05;0.0022871799154939552
1.23408e-05;0.0023057142224950445
1.23410e-05;0.00232424852949626
1.23413e-05;0.002342782836497475
1.23415e-05;0.002361317143498564
1.23418e-05;0.002379851450499779
1.23420e-05;0.002398385757500994
1.23423e-05;0.0024169200645020837
1.23425e-05;0.0024354543715032987
1.23428e-05;0.0024539886785045137
1.23430e-05;0.002472067733981207
1.23433e-05;0.0024853531916175777
1.23435e-05;0.0024986386492539484
1.23438e-05;0.0025119241068902293
1.23440e-05;0.0025252095645266
1.23443e-05;0.002538495022162971
1.23445e-05;0.0025517804797992516
1.23448e-05;0.0025650659374356227
1.23450e-05;0.0025783513950719933
1.23453e-05;0.0025916368527082742
1.23455e-05;0.002604922310344645
1.23458e-05;0.0026182077679810156
1.23460e-05;0.0026314932256172965
1.23463e-05;0.002644778683253667
1.23465e-05;0.0026580641408900383
1.23467e-05;0.0026713495985263187
1.23470e-05;0.00268463505616269
1.23473e-05;0.00269187548537149
1.23475e-05;0.002694858092482807
1.23478e-05;0.0026978406995941447
1.23480e-05;0.002700823306705482
1.23483e-05;0.0027038059138168196
1.23485e-05;0.002706788520928137
1.23488e-05;0.0027097711280394746
1.23490e-05;0.002712753735150812
1.23493e-05;0.002715736342262129
1.23495e-05;0.0027187189493734667
1.23498e-05;0.002721701556484804
1.23500e-05;0.0027246841635961212
1.23503e-05;0.002727666770707459
1.23505e-05;0.0027306493778187966
1.23508e-05;0.002733631984930114
1.23510e-05;0.0027320968957332396
1.23513e-05;0.002727379762414851
1.23515e-05;0.0027226626290964943
1.23518e-05;0.0027179454957781055
1.23520e-05;0.0027132283624597166
1.23523e-05;0.00270851122914136
1.23525e-05;0.0027037940958229713
1.23528e-05;0.0026990769625045825
1.23530e-05;0.0026943598291862257
1.23533e-05;0.0026896426958678368
1.23535e-05;0.0026849255625494483
1.23538e-05;0.0026802084292310915
1.23540e-05;0.0026754912959127027
1.23543e-05;0.0026707741625943138
1.23545e-05;0.002666057029275957
1.23548e-05;0.002660805079945119
1.23550e-05;0.002655176432396307
1.23552e-05;0.0026495477848475337
1.23555e-05;0.0026439191372987217
1.23558e-05;0.00263829048974991
1.23560e-05;0.002632661842201136
1.23563e-05;0.0026270331946523246
1.23565e-05;0.0026203125293256784
1.23568e-05;0.0026128227001345388
1.23570e-05;0.00260533287094345
1.23573e-05;0.00259784304175231
1.23575e-05;0.00259035321256117
1.23578e-05;0.0025828633833700813
1.23580e-05;0.0025753735541789416
1.23583e-05;0.002558736613965521
1.23585e-05;0.002535656896531911
1.23588e-05;0.0025125771790981445
1.23590e-05;0.0024894974616643784
1.23593e-05;0.0024664177442307684
1.23595e-05;0.0024433380267970023
1.23598e-05;0.0024202583093632358
1.23600e-05;0.002397178591929626
1.23603e-05;0.0023740988744958597
1.23605e-05;0.0023493468415167343
1.23608e-05;0.00230698606310919
1.23610e-05;0.0022646252847013594
1.23613e-05;0.0022222645062935286
1.23615e-05;0.0021799037278859845
1.23618e-05;0.0021375429494781537
1.23620e-05;0.002095182171070323
1.23623e-05;0.002052821392662779
1.23625e-05;0.002010460614254948
1.23628e-05;0.001968099835847117
1.23630e-05;0.0019210432734367454
1.23633e-05;0.001870679230649243
1.23635e-05;0.0018203151878617408
1.23637e-05;0.00176995114507458
1.23640e-05;0.0017195871022870777
1.23643e-05;0.0016692230594995755
1.23645e-05;0.0016204543772865552
1.23648e-05;0.0015728093889633037
1.23650e-05;0.0015251644006400525
1.23653e-05;0.001477519412316801
1.23655e-05;0.0014298744239938724
1.23658e-05;0.0013822294356706211
1.23660e-05;0.0013390656506880182
1.23663e-05;0.0012990582059688159
1.23665e-05;0.0012590507612493423
1.23668e-05;0.0012238931152269926
1.23670e-05;0.0011921514299931975
1.23673e-05;0.0011604097447591873
1.23675e-05;0.0011323318595737018
1.23678e-05;0.0011068345757873391
1.23680e-05;0.0010841983742847909
1.23683e-05;0.0010635773790836204
1.23685e-05;0.0010461227543769223
1.23688e-05;0.0010308983660420221
1.23690e-05;0.001019578950546574
1.23693e-05;0.0010110100067580046
1.23695e-05;0.0010024410629693775
1.23698e-05;0.0009977880549372747
1.23700e-05;0.0009958932403541208
1.23703e-05;0.0009939984257709541
1.23705e-05;0.0009959389700731891
1.23708e-05;0.001000580953420813
1.23710e-05;0.0010052229367684684
1.23713e-05;0.0010131385177296064
1.23715e-05;0.0010233598605961566
1.23718e-05;0.001033581203462776
1.23720e-05;0.001047499617810896
1.23723e-05;0.0010640220683266414
1.23725e-05;0.0010805445188424984
1.23728e-05;0.0010970669693583556
1.23730e-05;0.0011135894198741007
1.23733e-05;0.0011301118703899579
1.23735e-05;0.0011469924377281024
1.23738e-05;0.0011676438173282696
1.23740e-05;0.001188295196928297
1.23743e-05;0.0012089465765284643
1.23745e-05;0.0012295979561286316
1.23748e-05;0.001250249335728659
1.23750e-05;0.0012709007153288263
1.23753e-05;0.0012902176086963125
1.23755e-05;0.0013085945552887672
1.23758e-05;0.0013269715018813465
1.23760e-05;0.0013453484484739259
1.23763e-05;0.0013637253950663807
1.23765e-05;0.00138210234165896
1.23768e-05;0.0013996707467523143
1.23770e-05;0.001408725566304051
1.23773e-05;0.0014177803858558488
1.23775e-05;0.0014268352054076468
1.23778e-05;0.0014358900249593835
1.23780e-05;0.0014449448445111816
1.23783e-05;0.0014539996640629796
1.23785e-05;0.0014574013313939278
1.23788e-05;0.0014568211950401542
1.23790e-05;0.0014562410586863807
1.23793e-05;0.001451867639191475
1.23795e-05;0.0014448224167451366
1.23798e-05;0.0014377771942987983
1.23800e-05;0.0014270822653571352
1.23803e-05;0.0014138166618247415
1.23805e-05;0.0014005510582923478
1.23808e-05;0.0013840732859115928
1.23810e-05;0.0013653330190396438
1.23813e-05;0.0013465927521676946
1.23815e-05;0.0013237589886392939
1.23818e-05;0.001298041966455298
1.23820e-05;0.001272324944271302
1.23823e-05;0.001246607922087306
1.23825e-05;0.0012208908999034843
1.23828e-05;0.0011951738777194883
1.23830e-05;0.001169037649594786
1.23833e-05;0.0011384873677195845
1.23835e-05;0.001107937085844176
1.23838e-05;0.0010773868039687673
1.23840e-05;0.0010468365220935659
1.23843e-05;0.0010162862402181571
1.23845e-05;0.0009857359583427486
1.23848e-05;0.0009565935985942896
1.23850e-05;0.0009284429102696339
1.23853e-05;0.000900292221944978
1.23855e-05;0.000872141533620513
1.23858e-05;0.0008439908452958572
1.23860e-05;0.0008158401569712014
1.23863e-05;0.0007876894686467363
1.23865e-05;0.00076481967650016
1.23868e-05;0.0007456694891057112
1.23870e-05;0.0007265193017113923
1.23873e-05;0.0007073691143169436
1.23875e-05;0.0006882189269224949
1.23878e-05;0.000669068739528176
1.23880e-05;0.0006499185521337274
1.23883e-05;0.0006343058594925634
1.23885e-05;0.0006211848049848603
1.23888e-05;0.0006080637504770683
1.23890e-05;0.0005970621591132469
1.23893e-05;0.0005875534138341481
1.23895e-05;0.000578044668554985
1.23898e-05;0.0005699571180468743
1.23900e-05;0.000562870587563905
1.23903e-05;0.0005557840570808876
1.23905e-05;0.0005502629013735135
1.23908e-05;0.0005458443190284649
1.23910e-05;0.0005414257366834462
1.23913e-05;0.0005382780330588201
1.23915e-05;0.0005360254741916835
1.23918e-05;0.0005337729153245621
1.23920e-05;0.0005330043688569646
1.23923e-05;0.0005332810880769478
1.23925e-05;0.0005335578072969291
1.23928e-05;0.0005338345265169122
1.23930e-05;0.0005341112457368953
1.23933e-05;0.0005343879649568767
1.23935e-05;0.0005346646841768598
1.23938e-05;0.0005361605168525016
1.23940e-05;0.0005385150333672002
1.23943e-05;0.0005408695498819149
1.23945e-05;0.0005432240663966294
1.23948e-05;0.000545578582911328
1.23950e-05;0.0005479330994260426
1.23953e-05;0.0005502876159407572
1.23955e-05;0.0005524481560984651
1.23958e-05;0.0005544720688060188
1.23960e-05;0.0005564959815135725
1.23963e-05;0.0005585198942211125
1.23965e-05;0.0005605438069286662
1.23968e-05;0.0005625677196362199
1.23970e-05;0.00056459163234376
1.23973e-05;0.0005666155450513136
1.23975e-05;0.0005686394577588673
1.23978e-05;0.000568908761094981
1.23980e-05;0.0005679422034829578
1.23983e-05;0.0005669756458709346
1.23985e-05;0.000566009088258918
1.23988e-05;0.0005650425306468947
1.23990e-05;0.0005640759730348715
1.23993e-05;0.0005631094154228483
1.23995e-05;0.0005621428578108317
1.23998e-05;0.0005611763001988084
1.24000e-05;0.0005581206744000179
1.24003e-05;0.0005535936112362841
1.24005e-05;0.0005490665480725198
1.24008e-05;0.0005445394849087555
1.24010e-05;0.0005400124217450218
1.24013e-05;0.0005354853585812575
1.24015e-05;0.0005309582954174932
1.24018e-05;0.0005264312322537595
1.24020e-05;0.0005217161372880107
1.24023e-05;0.0005150211503374046
1.24025e-05;0.0005083261633868439
1.24028e-05;0.0005016311764362378
1.24030e-05;0.0004949361894856317
1.24033e-05;0.0004882412025350709
1.24035e-05;0.0004815462155844648
1.24038e-05;0.0004748512286338587
1.24040e-05;0.00046815624168329795
1.24043e-05;0.00046191075836484824
1.24045e-05;0.00045598188340047083
1.24048e-05;0.00045005300843613364
1.24050e-05;0.0004441241334717562
1.24053e-05;0.0004381952585073788
1.24055e-05;0.0004322663835430416
1.24058e-05;0.0004263375085786642
1.24060e-05;0.00042040863361428684
1.24063e-05;0.0004144797586499496
1.24065e-05;0.0004085508836855722
1.24068e-05;0.0004026220087211948
1.24070e-05;0.0003966931337568576
1.24073e-05;0.0003907642587924802
1.24075e-05;0.00038513393915878764
1.24078e-05;0.00038264727554697495
1.24080e-05;0.00038016061193517906
1.24083e-05;0.00037767394832336637
1.24085e-05;0.0003751872847115536
1.24088e-05;0.00037270062109975773
1.24090e-05;0.00037021395748794504
1.24093e-05;0.0003677272938761323
1.24095e-05;0.00036524063026433645
1.24098e-05;0.0003627539666525237
1.24100e-05;0.00036026730304071096
1.24103e-05;0.0003577806394289151
1.24105e-05;0.0003552939758171024
1.24108e-05;0.0003528073122052897
1.24110e-05;0.0003515433262179111
1.24113e-05;0.00035114053449599494
1.24115e-05;0.0003507377427740788
1.24118e-05;0.0003503349510521654
1.24120e-05;0.00034993215933024925
1.24123e-05;0.00034952936760833305
1.24125e-05;0.00034912657588641966
1.24128e-05;0.0003487237841645035
1.24130e-05;0.00034832099244258737
1.24133e-05;0.0003479182007206739
1.24135e-05;0.0003475154089987578
1.24138e-05;0.0003475245959996702
1.24140e-05;0.00034782396064554925
1.24143e-05;0.00034812332529143034
1.24145e-05;0.00034842268993731147
1.24148e-05;0.00034872205458319055
1.24150e-05;0.00034902141922907163
1.24153e-05;0.0003493207838749527
1.24155e-05;0.0003496201485208318
1.24158e-05;0.0003499195131667129
1.24160e-05;0.000350218877812594
1.24163e-05;0.0003505182424584751
1.24165e-05;0.0003508491282075317
1.24168e-05;0.0003512022158786328
1.24170e-05;0.0003515553035497339
1.24173e-05;0.0003530007724769259
1.24175e-05;0.0003552156612861747
1.24178e-05;0.00035926724852946613
1.24180e-05;0.00036461251623877455
1.24183e-05;0.0003716315925601626
1.24185e-05;0.00037982961773087626
1.24188e-05;0.00038953584657661284
1.24190e-05;0.00040030438026092614
1.24193e-05;0.0004130092861281519
1.24195e-05;0.0004270780777708417
1.24198e-05;0.00044334845197759265
1.24200e-05;0.00046116951316967303
1.24203e-05;0.0004808771352843376
1.24205e-05;0.0005019135585614474
1.24208e-05;0.0005245198988815229
1.24210e-05;0.0005482320119153424
1.24213e-05;0.000573980085500103
1.24215e-05;0.0006011621900317785
1.24218e-05;0.0006283442945632699
1.24220e-05;0.000657588008090256
1.24223e-05;0.000688283818072973
1.24225e-05;0.000718979628055482
1.24228e-05;0.0007511711947195802
1.24230e-05;0.0007844162991692967
1.24233e-05;0.0008176614036187878
1.24235e-05;0.0008509065080685044
1.24238e-05;0.0008841516125182208
1.24240e-05;0.0009173781621361613
1.24243e-05;0.0009504093375572041
1.24245e-05;0.000983440512978247
1.24248e-05;0.00101647168839929
1.24250e-05;0.0010495028638201089
1.24253e-05;0.0010825340392411518
1.24255e-05;0.001112799867392454
1.24258e-05;0.0011411179202967354
1.24260e-05;0.0011694359732012088
1.24263e-05;0.0011977540261056822
1.24265e-05;0.0012255617055865295
1.24268e-05;0.0012479953778937957
1.24270e-05;0.0012704290502010618
1.24273e-05;0.0012928627225081758
1.24275e-05;0.001315296394815442
1.24278e-05;0.001340609686562917
1.24280e-05;0.001367951241280203
1.24283e-05;0.0013952927959976743
1.24285e-05;0.0014226343507151454
1.24288e-05;0.0014499759054324313
1.24290e-05;0.0014773174601499025
1.24293e-05;0.0015046590148673736
1.24295e-05;0.0015320005695846595
1.24298e-05;0.0015593421243021309
1.24300e-05;0.001586683679019602
1.24303e-05;0.001614025233736888
1.24305e-05;0.001641366788454359
1.24308e-05;0.001674921641865729
1.24310e-05;0.0017128528387227158
1.24313e-05;0.0017507840355799596
1.24315e-05;0.0017887152324372033
1.24318e-05;0.00182664642929419
1.24320e-05;0.0018645776261514337
1.24323e-05;0.0019025088230086775
1.24325e-05;0.0019404400198656643
1.24328e-05;0.0019783712167229083
1.24330e-05;0.002016302413580152
1.24333e-05;0.002054233610437396
1.24335e-05;0.0020921648072943825
1.24338e-05;0.002130929561523279
1.24340e-05;0.0021702814327604378
1.24343e-05;0.00220963330399733
1.24345e-05;0.0022489851752344886
1.24348e-05;0.0022883370464716474
1.24350e-05;0.00232768891770854
1.24353e-05;0.0023670407889456986
1.24355e-05;0.002401211742688826
1.24358e-05;0.002431733511765205
1.24360e-05;0.002462255280841791
1.24363e-05;0.0024927770499183766
1.24365e-05;0.0025232988189947555
1.24368e-05;0.0025538205880713412
1.24370e-05;0.002584342357147927
1.24373e-05;0.002606414050930268
1.24375e-05;0.002622533925323251
1.24378e-05;0.002638653799716234
1.24380e-05;0.0026472458499422822
1.24383e-05;0.0026505356693269045
1.24385e-05;0.0026538254887115264
1.24388e-05;0.0026495954072836628
1.24390e-05;0.0026400686758372345
1.24393e-05;0.0026305419443908057
1.24395e-05;0.0026128794307071594
1.24398e-05;0.002589486470277968
1.24400e-05;0.0025660935098487762
1.24403e-05;0.002535266894775038
1.24405e-05;0.0024992043772612063
1.24408e-05;0.002463141859747375
1.24410e-05;0.002420551226813792
1.24413e-05;0.0023733625089418877
1.24415e-05;0.0023261737910699833
1.24417e-05;0.002271556767025052
1.24420e-05;0.0022117076077409806
1.24423e-05;0.002151858448456909
1.24425e-05;0.0020920092891728377
1.24428e-05;0.0020321601298891718
1.24430e-05;0.001971565873045876
1.24433e-05;0.001903126067335018
1.24435e-05;0.0018346862616246242
1.24438e-05;0.0017662464559137668
1.24440e-05;0.0016978066502029091
1.24443e-05;0.0016293668444925153
1.24445e-05;0.001561568474473147
1.24448e-05;0.001494221900355407
1.24450e-05;0.0014268753262381233
1.24453e-05;0.0013595287521203834
1.24455e-05;0.0012930013796378283
1.24458e-05;0.001235099839281015
1.24460e-05;0.0011771982989238095
1.24463e-05;0.001119296758566604
1.24465e-05;0.0010613952182097906
1.24468e-05;0.0010104544433321785
1.24470e-05;0.0009644164909165334
1.24473e-05;0.0009233233946780087
1.24475e-05;0.0008857132130707027
