Time(s);Current(A)
4.30000e-06;-0.0019341279077896953
4.30025e-06;-0.0019366215239832282
4.30050e-06;-0.0019391151401767697
4.30075e-06;-0.0019413721177673662
4.30100e-06;-0.0019434277948114597
4.30125e-06;-0.001945306370743865
4.30150e-06;-0.0019468687332269692
4.30175e-06;-0.001947693607680181
4.30200e-06;-0.0019472896258407298
4.30225e-06;-0.0019454430482879253
4.30250e-06;-0.0019421718651558032
4.30275e-06;-0.0019370653866230617
4.30300e-06;-0.0019314556815101872
4.30325e-06;-0.0019244661779524775
4.30350e-06;-0.0019160776501900446
4.30375e-06;-0.001906266615276342
4.30400e-06;-0.0018941670548204555
4.30425e-06;-0.0018814163756590559
4.30450e-06;-0.0018668449686926737
4.30475e-06;-0.0018505583302836752
4.30500e-06;-0.001832892589101817
4.30525e-06;-0.0018139671576917744
4.30550e-06;-0.0017933913374496384
4.30575e-06;-0.0017723598036160453
4.30600e-06;-0.0017498902452153149
4.30625e-06;-0.0017260160739948876
4.30650e-06;-0.001701029661767485
4.30675e-06;-0.0016750840946812317
4.30700e-06;-0.0016483325457240928
4.30725e-06;-0.0016209279569402108
4.30750e-06;-0.001592994263975481
4.30775e-06;-0.001564585981705438
4.30800e-06;-0.00153574046246936
4.30825e-06;-0.001506563163690865
4.30850e-06;-0.0014772167636371034
4.30875e-06;-0.0014478753051006571
4.30900e-06;-0.0014187128862519452
4.30925e-06;-0.0013899036644126196
4.30950e-06;-0.0013616035605346322
4.30975e-06;-0.0013339249435844135
4.31000e-06;-0.0013069692018747219
4.31025e-06;-0.0012808807799161318
4.31050e-06;-0.0012558397735473012
4.31075e-06;-0.0012320333213415129
4.31100e-06;-0.0012096486764005636
4.31125e-06;-0.00118887306413735
4.31150e-06;-0.0011696561733880184
4.31175e-06;-0.0011513607014139056
4.31200e-06;-0.0011331425042296725
4.31225e-06;-0.001114643722953565
4.31250e-06;-0.0010959410624055794
4.31275e-06;-0.0010772017226769047
4.31300e-06;-0.0010587193879928708
4.31325e-06;-0.0010403240791219861
4.31350e-06;-0.0010222848570737033
4.31375e-06;-0.0010042549726578453
4.31400e-06;-0.0009857123856605505
4.31425e-06;-0.0009664829612944779
4.31450e-06;-0.0009466644764490113
4.31475e-06;-0.0009264114705772584
4.31500e-06;-0.0009058463838484595
4.31525e-06;-0.0008852092069175551
4.31550e-06;-0.0008644976082314485
4.31575e-06;-0.0008435418703568374
4.31600e-06;-0.0008219011546259671
4.31625e-06;-0.0008000525307523011
4.31650e-06;-0.0007777082901201973
4.31675e-06;-0.0007550106767906487
4.31700e-06;-0.0007321750843309754
4.31725e-06;-0.0007093907406529791
4.31750e-06;-0.0006866325638698023
4.31775e-06;-0.0006638938609240288
4.31800e-06;-0.0006411617902768487
4.31825e-06;-0.0006183653712975565
4.31850e-06;-0.0005956233257089038
4.31875e-06;-0.0005730893653429387
4.31900e-06;-0.0005509051685895239
4.31925e-06;-0.0005292124415276677
4.31950e-06;-0.0005081163168130311
4.31975e-06;-0.00048763143543263204
4.32000e-06;-0.000467740762974683
4.32025e-06;-0.00044850209850993224
4.32050e-06;-0.0004300401557193721
4.32075e-06;-0.0004124935127274741
4.32100e-06;-0.00039645857429282085
4.32125e-06;-0.00038085624361560957
4.32150e-06;-0.0003666116106404517
4.32175e-06;-0.00035345499133264055
4.32200e-06;-0.00034083385575585796
4.32225e-06;-0.00032858232963023777
4.32250e-06;-0.00031674678071008075
4.32275e-06;-0.0003054181067085772
4.32300e-06;-0.00029495265054558834
4.32325e-06;-0.00028473532885817576
4.32350e-06;-0.0002753074357213045
4.32375e-06;-0.00026650368562281917
4.32400e-06;-0.00025798934034327356
4.32425e-06;-0.00024966462809722075
4.32450e-06;-0.00024167438220649957
4.32475e-06;-0.00023378270395514673
4.32500e-06;-0.00022658549125532807
4.32525e-06;-0.0002196247960339052
4.32550e-06;-0.00021266410081250596
4.32575e-06;-0.00020627567842179567
4.32600e-06;-0.00020008215774589572
4.32625e-06;-0.0001941329447176249
4.32650e-06;-0.00018826693672183316
4.32675e-06;-0.00018240092872602156
4.32700e-06;-0.0001770404263771103
4.32725e-06;-0.00017185208652158838
4.32750e-06;-0.0001666637466660489
4.32775e-06;-0.00016189778500687766
4.32800e-06;-0.00015727567472480672
4.32825e-06;-0.00015265356444272015
4.32850e-06;-0.0001483116501872154
4.32875e-06;-0.0001440651636422959
4.32900e-06;-0.000139818677097362
4.32925e-06;-0.0001360098525631546
4.32950e-06;-0.00013235008468831522
4.32975e-06;-0.00012869031681348822
4.33000e-06;-0.00012534921321152336
4.33025e-06;-0.00012211663863608696
4.33050e-06;-0.00011888406406066153
4.33075e-06;-0.00011586865786921692
4.33100e-06;-0.00011306482779209842
4.33125e-06;-0.00011046288015610398
4.33150e-06;-0.00010817877266842422
4.33175e-06;-0.00010654741665084884
4.33200e-06;-0.00010595621110408614
4.33225e-06;-0.00010657404174447361
4.33250e-06;-0.00010838812860518734
4.33275e-06;-0.00011134863727568762
4.33300e-06;-0.00011540570019095671
4.33325e-06;-0.00012050943708254341
4.33350e-06;-0.0001266679947176523
4.33375e-06;-0.0001340266585878094
4.33400e-06;-0.00014276356825768666
4.33425e-06;-0.00015291998829925743
4.33450e-06;-0.0001644233866060216
4.33475e-06;-0.00017717799379848878
4.33500e-06;-0.00019108806889365522
4.33525e-06;-0.00020605784597327323
4.33550e-06;-0.00022241574073703096
4.33575e-06;-0.00023915680971256525
4.33600e-06;-0.00025747509668704873
4.33625e-06;-0.0002763305443933495
4.33650e-06;-0.000296519108695573
4.33675e-06;-0.0003171616989390123
4.33700e-06;-0.0003387659645839778
4.33725e-06;-0.00036069775265317383
4.33750e-06;-0.00038328836213214173
4.33775e-06;-0.00040610334959229305
4.33800e-06;-0.0004294260571157238
4.33825e-06;-0.0004529216813068515
4.33850e-06;-0.00047657973944546507
4.33875e-06;-0.0005002931184961505
4.33900e-06;-0.0005237439481022313
4.33925e-06;-0.0005471053599792078
4.33950e-06;-0.0005698222247476092
4.33975e-06;-0.0005923195730021557
4.34000e-06;-0.000613885498689334
4.34025e-06;-0.0006351342053058672
4.34050e-06;-0.0006550430163902423
4.34075e-06;-0.0006744954927985748
4.34100e-06;-0.0006921497329238273
4.34125e-06;-0.0007091915390554286
4.34150e-06;-0.000724352328812762
4.34175e-06;-0.0007388724917621497
4.34200e-06;-0.0007522022033320053
4.34225e-06;-0.0007651264771408463
4.34250e-06;-0.0007780507509496436
4.34275e-06;-0.0007895931189994764
4.34300e-06;-0.0008006648447479857
4.34325e-06;-0.0008112403974906185
4.34350e-06;-0.0008202947388441008
4.34375e-06;-0.0008293490801976136
4.34400e-06;-0.0008374727269911429
4.34425e-06;-0.0008452794026549816
4.34450e-06;-0.0008530860783188469
4.34475e-06;-0.0008601064335751903
4.34500e-06;-0.0008668589879024398
4.34525e-06;-0.0008726362004059912
4.34550e-06;-0.0008780812360461415
4.34575e-06;-0.0008835262716862918
4.34600e-06;-0.0008881901719819261
4.34625e-06;-0.0008925880372503279
4.34650e-06;-0.0008969859025187445
4.34675e-06;-0.0009013837677871463
4.34700e-06;-0.0009049081001060198
4.34725e-06;-0.0009081349291002602
4.34750e-06;-0.0009113617580944896
4.34775e-06;-0.000914588587088719
4.34800e-06;-0.0009170259828801921
4.34825e-06;-0.0009191945176029035
4.34850e-06;-0.0009213630523256149
4.34875e-06;-0.0009235315870483336
4.34900e-06;-0.0009257001217710449
4.34925e-06;-0.0009278686564937563
4.34950e-06;-0.0009300371912164749
4.34975e-06;-0.0009315447133738281
4.35000e-06;-0.0009328271112975531
4.35025e-06;-0.0009341095092212825
4.35050e-06;-0.0009353919071450074
4.35075e-06;-0.0009366743050687367
4.35100e-06;-0.0009379567029924618
4.35125e-06;-0.0009392391009161867
4.35150e-06;-0.000940334123245687
4.35175e-06;-0.00094136533016643
4.35200e-06;-0.000942396537087173
4.35225e-06;-0.0009439386476822554
4.35250e-06;-0.0009456547592028268
4.35275e-06;-0.0009473708707233981
4.35300e-06;-0.0009490869822439753
4.35325e-06;-0.0009508030937645468
4.35350e-06;-0.0009525192052851181
4.35375e-06;-0.0009542353168056953
4.35400e-06;-0.0009567886885788283
4.35425e-06;-0.0009596272101094139
4.35450e-06;-0.0009624657316400092
4.35475e-06;-0.0009653042531705948
4.35500e-06;-0.0009681427747011901
4.35525e-06;-0.0009709812962317756
4.35550e-06;-0.0009738198177623613
4.35575e-06;-0.0009775075893218074
4.35600e-06;-0.0009814845940545487
4.35625e-06;-0.00098546159878729
4.35650e-06;-0.0009894386035200447
4.35675e-06;-0.000993415608252786
4.35700e-06;-0.000997392612985527
4.35725e-06;-0.001001369617718282
4.35750e-06;-0.001005346622451023
4.35775e-06;-0.0010093236271837645
4.35800e-06;-0.0010133397555483735
4.35825e-06;-0.0010174758326277065
4.35850e-06;-0.0010216119097070395
4.35875e-06;-0.0010257479867863866
4.35900e-06;-0.0010298840638657196
4.35925e-06;-0.0010340201409450667
4.35950e-06;-0.0010381562180243997
4.35975e-06;-0.0010422922951037327
4.36000e-06;-0.0010464283721830798
4.36025e-06;-0.0010505644492624128
4.36050e-06;-0.0010542008818136097
4.36075e-06;-0.0010576671480210184
4.36100e-06;-0.0010608910441950025
4.36125e-06;-0.0010638420422785064
4.36150e-06;-0.0010664153269421257
4.36175e-06;-0.001068241520430834
4.36200e-06;-0.0010688946742330994
4.36225e-06;-0.0010681891350883903
4.36250e-06;-0.001066138257211315
4.36275e-06;-0.0010623396547258005
4.36300e-06;-0.0010580610424026807
4.36325e-06;-0.0010520057734999754
4.36350e-06;-0.0010453454201075903
4.36375e-06;-0.0010365951787810743
4.36400e-06;-0.0010271331742536247
4.36425e-06;-0.001015337174961475
4.36450e-06;-0.001002746275829283
4.36475e-06;-0.0009885744571491214
4.36500e-06;-0.0009729156219343068
4.36525e-06;-0.0009560640613791464
4.36550e-06;-0.0009380859980375593
4.36575e-06;-0.0009189537109252355
4.36600e-06;-0.0008986173746185312
4.36625e-06;-0.0008771214088220598
4.36650e-06;-0.0008545883059074206
4.36675e-06;-0.0008311564689046834
4.36700e-06;-0.0008069643156314269
4.36725e-06;-0.0007821502639052184
4.36750e-06;-0.0007568278519256137
4.36775e-06;-0.0007310517774048824
4.36800e-06;-0.000704862884198952
4.36825e-06;-0.0006783609753742362
4.36850e-06;-0.0006516948597093347
4.36875e-06;-0.0006250232408635465
4.36900e-06;-0.0005985048797602857
4.36925e-06;-0.0005722984800585816
4.36950e-06;-0.0005465471280884113
4.36975e-06;-0.0005213570785159465
4.37000e-06;-0.0004968258908492406
4.37025e-06;-0.00047308805354930115
4.37050e-06;-0.00045030874035992415
4.37075e-06;-0.00042865937284242747
4.37100e-06;-0.00040831128571849613
4.37125e-06;-0.00038943584926401294
4.37150e-06;-0.00037220562827451403
4.37175e-06;-0.00035677895429906976
4.37200e-06;-0.00034326480025468817
4.37225e-06;-0.0003317177309606038
4.37250e-06;-0.0003221679865152169
4.37275e-06;-0.00031464205879808615
4.37300e-06;-0.00030916638887505454
4.37325e-06;-0.0003057674464440733
4.37350e-06;-0.00030447241070969013
4.37375e-06;-0.00030529955758553946
4.37400e-06;-0.0003082362397039307
4.37425e-06;-0.0003132357407649966
4.37450e-06;-0.0003202360851591963
4.37475e-06;-0.00032917295342123223
4.37500e-06;-0.00033998198266590605
4.37525e-06;-0.0003532432880540688
4.37550e-06;-0.00036717920615890367
4.37575e-06;-0.000383577598593105
4.37600e-06;-0.00040081464777132534
4.37625e-06;-0.0004202071815388935
4.37650e-06;-0.00044033381907592585
4.37675e-06;-0.00046225655446509973
4.37700e-06;-0.0004847909955516397
4.37725e-06;-0.0005087601721464174
4.37750e-06;-0.0005332179835243599
4.37775e-06;-0.0005587374121215887
4.37800e-06;-0.0005846184008088656
4.37825e-06;-0.0006111275455824497
4.37850e-06;-0.0006378506245002522
4.37875e-06;-0.0006647356380363297
4.37900e-06;-0.0006916758024254184
4.37925e-06;-0.0007183104424970938
4.37950e-06;-0.0007448410286801649
4.37975e-06;-0.000770591402191987
4.38000e-06;-0.0007960760549161904
4.38025e-06;-0.0008202680529886374
4.38050e-06;-0.0008440198054397801
4.38075e-06;-0.0008659459453431603
4.38100e-06;-0.0008872503275872853
4.38125e-06;-0.0009068520190976014
4.38150e-06;-0.0009247838031712409
4.38175e-06;-0.0009418188880183308
4.38200e-06;-0.0009588494078491414
4.38225e-06;-0.0009759393226124877
4.38250e-06;-0.0009932021138158492
4.38275e-06;-0.0010105237823811813
4.38300e-06;-0.0010275489796837572
4.38325e-06;-0.0010444732063403133
4.38350e-06;-0.0010610596693834918
4.38375e-06;-0.001077531098645802
4.38400e-06;-0.0010948882510023994
4.38425e-06;-0.0011125470583397432
4.38450e-06;-0.0011302058656770273
4.38475e-06;-0.001148690242141568
4.38500e-06;-0.0011674557866603965
4.38525e-06;-0.0011862213311792248
4.38550e-06;-0.0012049868756981168
4.38575e-06;-0.0012237524202169453
4.38600e-06;-0.0012434063538136007
4.38625e-06;-0.0012633628503578506
4.38650e-06;-0.001283319346902033
4.38675e-06;-0.0013037474417484974
4.38700e-06;-0.0013243361511004843
4.38725e-06;-0.0013449248604524013
4.38750e-06;-0.0013654168302065874
4.38775e-06;-0.0013858758528900587
4.38800e-06;-0.0014063348755734605
4.38825e-06;-0.0014267404049065908
4.38850e-06;-0.0014471277157518164
4.38875e-06;-0.0014675150265969729
4.38900e-06;-0.001487105929138066
4.38925e-06;-0.0015064255950667477
4.38950e-06;-0.0015257452609954293
4.38975e-06;-0.0015438159961390836
4.39000e-06;-0.0015614613769092502
4.39025e-06;-0.001579106757679417
4.39050e-06;-0.0015954326792295128
4.39075e-06;-0.0016113092261972875
4.39100e-06;-0.0016261179468961867
4.39125e-06;-0.0016397249882647937
4.39150e-06;-0.0016520267791227355
4.39175e-06;-0.0016626137685042228
4.39200e-06;-0.0016710575475329375
4.39225e-06;-0.0016771669945333627
4.39250e-06;-0.0016800766664528414
4.39275e-06;-0.0016821010706917579
4.39300e-06;-0.0016807350733375312
4.39325e-06;-0.001678214390581665
4.39350e-06;-0.00167223266201115
4.39375e-06;-0.0016650721883962188
4.39400e-06;-0.0016540766497139454
4.39425e-06;-0.0016417749844488323
4.39450e-06;-0.0016266828507242646
4.39475e-06;-0.0016089082459804854
4.39500e-06;-0.001588907579266647
4.39525e-06;-0.001566809663193023
4.39550e-06;-0.001542709154618182
4.39575e-06;-0.0015166239277759907
4.39600e-06;-0.001488564438074703
4.39625e-06;-0.0014586343112041754
4.39650e-06;-0.0014270095698029842
4.39675e-06;-0.0013938806693375415
4.39700e-06;-0.0013594381521140927
4.39725e-06;-0.001323872416334992
4.39750e-06;-0.0012873524384470196
4.39775e-06;-0.0012499991046008992
4.39800e-06;-0.001211928952861246
4.39825e-06;-0.001173316483702324
4.39850e-06;-0.0011343815768184438
4.39875e-06;-0.0010953533948272177
4.39900e-06;-0.0010564608989776284
4.39925e-06;-0.0010179330486325068
4.39950e-06;-0.0009799853725523308
4.39975e-06;-0.0009428032409630213
4.40000e-06;-0.0009065691323859459
4.40025e-06;-0.0008715021125803671
4.40050e-06;-0.0008378495327016805
4.40075e-06;-0.0008058644066643745
4.40100e-06;-0.0007766344244303511
4.40125e-06;-0.0007481929389470554
4.40150e-06;-0.0007222094989610064
4.40175e-06;-0.0006981346374926023
4.40200e-06;-0.0006748922239178693
4.40225e-06;-0.0006521500647680719
4.40250e-06;-0.0006299960230873665
4.40275e-06;-0.0006086057400210744
4.40300e-06;-0.000588587587573995
4.40325e-06;-0.0005689668037140647
4.40350e-06;-0.0005506280149139436
4.40375e-06;-0.0005332424082199561
4.40400e-06;-0.0005161838325407843
4.40425e-06;-0.0004992615172928564
4.40450e-06;-0.00048254784098742
4.40475e-06;-0.00046617019061869207
4.40500e-06;-0.00045048839877170096
4.40525e-06;-0.0004350117238824866
4.40550e-06;-0.0004202353147236918
4.40575e-06;-0.00040596961967118866
4.40600e-06;-0.00039186681377261493
4.40625e-06;-0.00037778790854874614
4.40650e-06;-0.00036382294806876285
4.40675e-06;-0.00035006936679955156
4.40700e-06;-0.0003369420288796798
4.40725e-06;-0.00032400795678129554
4.40750e-06;-0.0003110738846828674
4.40775e-06;-0.0002987400243294465
4.40800e-06;-0.0002866105809810611
4.40825e-06;-0.00027470353449962116
4.40850e-06;-0.00026287223079043455
4.40875e-06;-0.00025146494980755906
4.40900e-06;-0.00024020208028694237
4.40925e-06;-0.00022957844978920797
4.40950e-06;-0.00021917252800451273
4.40975e-06;-0.00020935283493903991
4.41000e-06;-0.00019973279661221024
4.41025e-06;-0.00019061505085788845
4.41050e-06;-0.000181668373304421
4.41075e-06;-0.00017320719566665916
4.41100e-06;-0.00016530099579017282
4.41125e-06;-0.0001579665559460104
4.41150e-06;-0.00015131253425999837
4.41175e-06;-0.00014554216771361814
4.41200e-06;-0.00014086640536080288
4.41225e-06;-0.0001373795334569898
4.41250e-06;-0.0001350855894546756
4.41275e-06;-0.00013397054577923465
4.41300e-06;-0.00013402041041043634
4.41325e-06;-0.0001352211266698121
4.41350e-06;-0.00013758522471877334
4.41375e-06;-0.00014118442790544432
4.41400e-06;-0.00014609532016204822
4.41425e-06;-0.00015232136467130877
4.41450e-06;-0.00015980949543333066
4.41475e-06;-0.00016849539298275558
4.41500e-06;-0.00017831468357938746
4.41525e-06;-0.00018920300756332392
4.41550e-06;-0.00020148958544026003
4.41575e-06;-0.00021416129135771528
4.41600e-06;-0.00022830401013304192
4.41625e-06;-0.0002429477188426693
4.41650e-06;-0.0002588394030992016
4.41675e-06;-0.00027515611639885917
4.41700e-06;-0.0002926191447225425
4.41725e-06;-0.0003104725790753675
4.41750e-06;-0.0003283260134282531
4.41775e-06;-0.000346985553202425
4.41800e-06;-0.00036591963218266226
4.41825e-06;-0.0003852222920697876
4.41850e-06;-0.000404650481331604
4.41875e-06;-0.0004241089342827288
4.41900e-06;-0.0004435776942842019
4.41925e-06;-0.0004627351876827234
4.41950e-06;-0.0004817866715150876
4.41975e-06;-0.0005002281596454537
4.42000e-06;-0.0005184618986014953
4.42025e-06;-0.0005357679165385401
4.42050e-06;-0.0005527579760595893
4.42075e-06;-0.0005684429194095339
4.42100e-06;-0.0005836833730588978
4.42125e-06;-0.0005977066358896345
4.42150e-06;-0.0006105843797065212
4.42175e-06;-0.000623033239847785
4.42200e-06;-0.0006358128581428967
4.42225e-06;-0.0006494550371731881
4.42250e-06;-0.0006633455096468118
4.42275e-06;-0.0006779277701101552
4.42300e-06;-0.0006927456361412858
4.42325e-06;-0.0007075635021723663
4.42350e-06;-0.0007228598775109164
4.42375e-06;-0.0007383192210691461
4.42400e-06;-0.0007554732082018315
4.42425e-06;-0.0007732043482590774
4.42450e-06;-0.0007909354883163834
4.42475e-06;-0.0008105014604196963
4.42500e-06;-0.0008306923301105467
4.42525e-06;-0.0008508831998014655
4.42550e-06;-0.0008710740694923159
4.42575e-06;-0.000893075137657222
4.42600e-06;-0.000915692713835462
4.42625e-06;-0.0009383102900136252
4.42650e-06;-0.0009609278661917885
4.42675e-06;-0.0009848733105830285
4.42700e-06;-0.0010092709934472475
4.42725e-06;-0.001033668676311549
4.42750e-06;-0.001058397378227276
4.42775e-06;-0.0010832388168957455
4.42800e-06;-0.0011080802555642993
4.42825e-06;-0.0011330824926964248
4.42850e-06;-0.0011581394937358106
4.42875e-06;-0.0011831964947752811
4.42900e-06;-0.0012077041034760589
4.42925e-06;-0.0012320246029819066
4.42950e-06;-0.001255459335973361
4.42975e-06;-0.0012785923991965739
4.43000e-06;-0.0013007099137429697
4.43025e-06;-0.0013224815579851515
4.43050e-06;-0.0013428716669842342
4.43075e-06;-0.0013627912598713973
4.43100e-06;-0.0013803309197100066
4.43125e-06;-0.0013970600342871808
4.43150e-06;-0.0014137891488644116
4.43175e-06;-0.0014283400593746354
4.43200e-06;-0.0014421491284344245
4.43225e-06;-0.0014545224162888586
4.43250e-06;-0.0014664067132226684
4.43275e-06;-0.0014782910101564784
4.43300e-06;-0.0014880276127588576
4.43325e-06;-0.0014970327647583512
4.43350e-06;-0.0015060379167578446
4.43375e-06;-0.0015131648384939754
4.43400e-06;-0.0015196520823027814
4.43425e-06;-0.0015261393261115873
4.43450e-06;-0.00153108388471904
4.43475e-06;-0.0015355030435971087
4.43500e-06;-0.0015399222024751775
4.43525e-06;-0.001543771801580531
4.43550e-06;-0.0015458751936153012
4.43575e-06;-0.0015479785856500783
4.43600e-06;-0.0015500819776848485
4.43625e-06;-0.0015511105528421558
4.43650e-06;-0.001551773072438675
4.43675e-06;-0.0015524355920351922
4.43700e-06;-0.0015521572018096722
4.43725e-06;-0.0015515583613941923
4.43750e-06;-0.0015509595209787146
4.43775e-06;-0.0015496642828244683
4.43800e-06;-0.0015481318691381479
4.43825e-06;-0.0015465994554518328
4.43850e-06;-0.0015446975671318123
4.43875e-06;-0.0015426698450562238
4.43900e-06;-0.0015406421229806422
4.43925e-06;-0.0015383176401760758
4.43950e-06;-0.001535892088140696
4.43975e-06;-0.0015334665361053245
4.44000e-06;-0.0015310718990580992
4.44025e-06;-0.0015286877908772983
4.44050e-06;-0.0015263036826964971
4.44075e-06;-0.001524060023506817
4.44100e-06;-0.0015219535559166605
4.44125e-06;-0.001519978429393295
4.44150e-06;-0.0015179567348188414
4.44175e-06;-0.0015152471456561147
4.44200e-06;-0.0015110800597459373
