Time(s);Current(A)
1.37500e-05;0.0005787724065888796
1.37503e-05;0.0005677132664904394
1.37505e-05;0.0005534570828881517
1.37508e-05;0.0005362887915095017
1.37510e-05;0.0005176456401976892
1.37513e-05;0.0004953484826409393
1.37515e-05;0.0004717418137663019
1.37518e-05;0.00044489079440990215
1.37520e-05;0.0004169260382698441
1.37523e-05;0.0003862019684679618
1.37525e-05;0.0003545599447857304
1.37528e-05;0.0003206436649957387
1.37530e-05;0.0002860123405311938
1.37533e-05;0.00024960947312272446
1.37535e-05;0.00021273005990847882
1.37538e-05;0.00017466999129023053
1.37540e-05;0.0001363897598373605
1.37543e-05;9.756406887762504e-05
1.37545e-05;5.873837791815267e-05
1.37548e-05;1.99940333662363e-05
1.37550e-05;-1.839957626202139e-05
1.37553e-05;-5.620483430351631e-05
1.37555e-05;-9.317622440831156e-05
1.37558e-05;-0.00012905786668528582
1.37560e-05;-0.00016359181538946484
1.37563e-05;-0.00019652072208681604
1.37565e-05;-0.0002275872839965922
1.37568e-05;-0.00025653429658116836
1.37570e-05;-0.0002831230930118297
1.37573e-05;-0.0003072019390396575
1.37575e-05;-0.0003287411258625482
1.37578e-05;-0.00034774451084104425
1.37580e-05;-0.0003641724856826749
1.37583e-05;-0.0003779621319023429
1.37585e-05;-0.00038905050228734
1.37588e-05;-0.00039737476604049686
1.37590e-05;-0.0004028836744679522
1.37593e-05;-0.0004055804795852309
1.37595e-05;-0.000405544827998951
1.37598e-05;-0.00040287740551435533
1.37600e-05;-0.00039765172351661533
1.37603e-05;-0.00038992659685055533
1.37605e-05;-0.000379760885826942
1.37608e-05;-0.00036721346787112284
1.37610e-05;-0.0003523505546212561
1.37613e-05;-0.0003352724383964837
1.37615e-05;-0.00031612723526760046
1.37618e-05;-0.0002950762913686448
1.37620e-05;-0.000272263883790333
1.37623e-05;-0.0002478250834099877
1.37625e-05;-0.0002218949736580954
1.37628e-05;-0.00019460868162138738
1.37630e-05;-0.0001661058638882844
1.37633e-05;-0.00013654753227681731
1.37635e-05;-0.00010612467957024693
1.37638e-05;-7.503653100886755e-05
1.37640e-05;-4.347162130556299e-05
1.37643e-05;-1.1612709010035393e-05
1.37645e-05;2.0357450876358725e-05
1.37648e-05;5.225610325887695e-05
1.37650e-05;8.389765582675574e-05
1.37653e-05;0.00011508314303517319
1.37655e-05;0.00014559484992491672
1.37658e-05;0.00017520991399660695
1.37660e-05;0.0002037121853214525
1.37663e-05;0.0002308891477292813
1.37665e-05;0.00025652830178869474
1.37668e-05;0.00028041688406445594
1.37670e-05;0.00030229160735896694
1.37673e-05;0.0003216925804099091
1.37675e-05;0.0003380212385178269
1.37678e-05;0.00035089353577806153
1.37680e-05;0.0003602346873413208
1.37683e-05;0.00036607240842317164
1.37685e-05;0.0003684344433431852
1.37688e-05;0.0003673483814042045
1.37690e-05;0.00036281019315566326
1.37693e-05;0.0003546926786315708
1.37695e-05;0.00034278179392573186
1.37698e-05;0.00032699789686171894
1.37700e-05;0.00030745508282749886
1.37703e-05;0.000284331641888173
1.37705e-05;0.0002578058682938025
1.37708e-05;0.0002280559578633955
1.37710e-05;0.00019524029079478892
1.37713e-05;0.00015944007344790605
1.37715e-05;0.0001206821375586478
1.37718e-05;7.907749462712865e-05
1.37720e-05;3.4858511918425473e-05
1.37723e-05;-1.1702255332000537e-05
1.37725e-05;-6.03322573936398e-05
1.37728e-05;-0.00011075903477190282
1.37730e-05;-0.00016272256455708995
1.37733e-05;-0.0002161552727721408
1.37735e-05;-0.00027080424826459587
1.37738e-05;-0.00032587633973405275
1.37740e-05;-0.0003819967127322705
1.37743e-05;-0.00043811708573048827
1.37745e-05;-0.0004939914178918899
1.37748e-05;-0.0005492561770794125
1.37750e-05;-0.0006045209362673096
1.37753e-05;-0.0006589947164009978
1.37755e-05;-0.000711508824065689
1.37758e-05;-0.0007629708836980131
1.37760e-05;-0.0008118264652516659
1.37763e-05;-0.0008592096599464399
1.37765e-05;-0.0009029449755040092
1.37768e-05;-0.0009447848872602217
1.37770e-05;-0.0009819288837110201
1.37773e-05;-0.0010168111099607589
1.37775e-05;-0.0010460897380232157
1.37778e-05;-0.0010729460929872173
1.37780e-05;-0.0010938011994005817
1.37783e-05;-0.0011121633471662146
1.37785e-05;-0.0011243491209784078
1.37788e-05;-0.0011339744810720267
1.37790e-05;-0.001137256345409661
1.37793e-05;-0.001137945826007418
1.37795e-05;-0.001132212604238066
1.37798e-05;-0.001123983980039178
1.37800e-05;-0.0011095729273502704
1.37803e-05;-0.0010928197609511962
1.37805e-05;-0.0010702639431012621
1.37808e-05;-0.001045521225157458
1.37810e-05;-0.0010153604017861966
1.37813e-05;-0.0009831902039988316
1.37815e-05;-0.0009460417255581429
1.37818e-05;-0.0009075433422640524
1.37820e-05;-0.0008648980513772495
1.37823e-05;-0.0008195357420817315
1.37825e-05;-0.0007717125033536949
1.37828e-05;-0.0007216844401561985
1.37830e-05;-0.0006697077928624365
1.37833e-05;-0.000616043766329923
1.37835e-05;-0.0005609733723825325
1.37838e-05;-0.0005048074158578017
1.37840e-05;-0.00044787442944570834
1.37843e-05;-0.00039050630923152173
1.37845e-05;-0.00033303499676758515
1.37848e-05;-0.0002757923879522551
1.37850e-05;-0.00021911048966754285
1.37853e-05;-0.0001633243001206242
1.37855e-05;-0.00010878130026477793
1.37858e-05;-5.584752648353019e-05
1.37860e-05;-4.900139771160914e-06
1.37863e-05;4.368159549173227e-05
1.37865e-05;8.951846267178814e-05
1.37868e-05;0.00013223191556898146
1.37870e-05;0.0001715614009335026
1.37873e-05;0.00020774413876678883
1.37875e-05;0.0002415269680440379
1.37878e-05;0.00027344890733802896
1.37880e-05;0.00030350968586485974
1.37883e-05;0.0003315066911257861
1.37885e-05;0.0003572373648332981
1.37888e-05;0.0003804996249876796
1.37890e-05;0.00040087044865383295
1.37893e-05;0.00041868752262102
1.37895e-05;0.00043576051526792565
1.37898e-05;0.0004503399966765134
1.37900e-05;0.00046330901277391156
1.37903e-05;0.00047532319648463053
1.37905e-05;0.0004849717565653078
1.37908e-05;0.0004935831405318268
1.37910e-05;0.0004996248920078315
1.37913e-05;0.0005048471648019841
1.37915e-05;0.0005080391565111677
1.37918e-05;0.0005106445234388702
1.37920e-05;0.0005117965112560126
1.37923e-05;0.000512197270528136
1.37925e-05;0.0005107368403158237
1.37928e-05;0.0005092764101035014
1.37930e-05;0.000507026543544223
1.37933e-05;0.000502820826615154
1.37935e-05;0.0004986151096860565
1.37938e-05;0.0004939053756089494
1.37940e-05;0.00048794692511651834
1.37943e-05;0.00048198847462404686
1.37945e-05;0.0004760300241315754
1.37948e-05;0.0004700715736391443
1.37950e-05;0.00046391394656702874
1.37953e-05;0.0004572628540135175
1.37955e-05;0.0004506117614600513
1.37958e-05;0.00044396066890654005
1.37960e-05;0.00043730957635302876
1.37963e-05;0.00043091965292839385
1.37965e-05;0.00042517678323926455
1.37968e-05;0.00041963176780952197
1.37970e-05;0.0004145769417762546
1.37973e-05;0.0004091623232833292
1.37975e-05;0.00040285630902677736
1.37978e-05;0.000395743064289034
1.37980e-05;0.00038662988372152357
1.37983e-05;0.00037681309069170164
1.37985e-05;0.0003652530783381958
1.37988e-05;0.00035309802187305115
1.37990e-05;0.0003394687271739932
1.37993e-05;0.0003252605742328445
1.37995e-05;0.00030909411792397917
1.37998e-05;0.00029110945425418375
1.38000e-05;0.00027136542783593376
1.38003e-05;0.00025002706975367
1.38005e-05;0.00022725938636018823
1.38008e-05;0.00020322722043482062
1.38010e-05;0.00017805902417374203
1.38013e-05;0.00015173407949697917
1.38015e-05;0.00012409543447960842
1.38018e-05;9.508311627961747e-05
1.38020e-05;6.482394158532712e-05
1.38023e-05;3.3511255464752554e-05
1.38025e-05;1.3383921146078357e-06
1.38028e-05;-3.150147145443766e-05
1.38030e-05;-6.489999535820877e-05
1.38033e-05;-9.874781202480042e-05
1.38035e-05;-0.00013283488252431277
1.38038e-05;-0.0001675147110076137
1.38040e-05;-0.00020219453949067958
1.38043e-05;-0.00023674072296354557
1.38045e-05;-0.0002709557972289213
1.38048e-05;-0.0003051708714940652
1.38050e-05;-0.0003389104460936737
1.38053e-05;-0.00037147195712781966
1.38055e-05;-0.0004034945347851224
1.38058e-05;-0.00043418189010509175
1.38060e-05;-0.00046410869368567007
1.38063e-05;-0.0004921512093088632
1.38065e-05;-0.0005191782624886864
1.38068e-05;-0.0005436894793955171
1.38070e-05;-0.0005673169930283772
1.38073e-05;-0.0005887551073734509
1.38075e-05;-0.0006102630759358224
1.38078e-05;-0.0006319441102522947
1.38080e-05;-0.0006536251445689139
1.38083e-05;-0.000675263053763311
1.38085e-05;-0.0006967941192751998
1.38088e-05;-0.0007183251847872344
1.38090e-05;-0.000739856250299269
1.38093e-05;-0.0007613873158113036
1.38095e-05;-0.0007840576686082852
1.38098e-05;-0.0008070353367794128
1.38100e-05;-0.0008300130049505405
1.38103e-05;-0.0008529906731215124
1.38105e-05;-0.0008764376781010936
1.38108e-05;-0.0009010474779970613
1.38110e-05;-0.0009256572778928623
1.38113e-05;-0.0009502670777888301
1.38115e-05;-0.0009760819214049173
1.38118e-05;-0.00100222181776776
1.38120e-05;-0.0010283617141307799
1.38123e-05;-0.001054791750989599
1.38125e-05;-0.0010819424780062299
1.38128e-05;-0.001109097810894396
1.38130e-05;-0.001136253143782562
1.38133e-05;-0.001163408476670544
1.38135e-05;-0.0011905638095587102
1.38138e-05;-0.0012177191424468763
1.38140e-05;-0.0012448744753348585
1.38143e-05;-0.0012720298082230246
1.38145e-05;-0.001296928379212666
1.38148e-05;-0.0013212182032810477
1.38150e-05;-0.001345508027349594
1.38153e-05;-0.0013697978514181403
1.38155e-05;-0.0013940876754865218
1.38158e-05;-0.001418377499555068
1.38160e-05;-0.0014426673236236144
1.38163e-05;-0.0014650853648841596
1.38165e-05;-0.0014828660124972678
1.38168e-05;-0.001500646660110376
1.38170e-05;-0.0015184273077233636
1.38173e-05;-0.0015362079553364718
1.38175e-05;-0.001552700783544105
1.38178e-05;-0.001566003003575724
1.38180e-05;-0.001579305223607253
1.38183e-05;-0.001592607443638872
1.38185e-05;-0.0016059096636704912
1.38188e-05;-0.0016176112430196605
1.38190e-05;-0.0016253471908319027
1.38193e-05;-0.0016330831386441448
1.38195e-05;-0.0016408190864563347
1.38198e-05;-0.0016485550342685768
1.38200e-05;-0.001656290982080819
1.38203e-05;-0.0016640269298930086
1.38205e-05;-0.0016717628777052507
1.38208e-05;-0.001679498825517493
1.38210e-05;-0.0016872347733296828
1.38213e-05;-0.001694970721141925
1.38215e-05;-0.001702706668954167
1.38218e-05;-0.001710442616766357
1.38220e-05;-0.001718178564578599
1.38223e-05;-0.001724661976219972
1.38225e-05;-0.0017280421948737555
1.38228e-05;-0.0017314224135275623
1.38230e-05;-0.0017348026321813688
1.38233e-05;-0.0017381828508351526
1.38235e-05;-0.001741563069488959
1.38238e-05;-0.0017449432881427658
1.38240e-05;-0.0017483235067965496
1.38243e-05;-0.001751703725450356
1.38245e-05;-0.0017550839441041629
1.38248e-05;-0.0017584641627579464
1.38250e-05;-0.0017618443814117531
1.38253e-05;-0.0017652246000655597
1.38255e-05;-0.0017686048187193434
1.38258e-05;-0.001771581974394865
1.38260e-05;-0.0017735605303995283
1.38263e-05;-0.0017755390864041918
1.38265e-05;-0.0017774423650047534
1.38268e-05;-0.001779112107326711
1.38270e-05;-0.0017804454136720119
1.38273e-05;-0.001780042701701357
1.38275e-05;-0.0017766887762795118
1.38278e-05;-0.0017711702126135612
1.38280e-05;-0.0017602886978594517
1.38283e-05;-0.0017469610412926802
1.38285e-05;-0.0017275730007649788
1.38288e-05;-0.0017081849602374089
1.38290e-05;-0.001686392255233516
1.38293e-05;-0.0016586419275160032
1.38295e-05;-0.001628341229021932
1.38298e-05;-0.001591721916426356
1.38300e-05;-0.0015526880303219097
1.38303e-05;-0.0015076719716015663
1.38305e-05;-0.0014606321603270614
1.38308e-05;-0.0014085784461560094
1.38310e-05;-0.001355185037454834
1.38313e-05;-0.0012981642807344854
1.38315e-05;-0.0012403799059311808
1.38318e-05;-0.0011921263971003903
1.38320e-05;-0.0023194208489368414
1.38323e-05;-0.008039902061118407
1.38325e-05;-0.012555719845644946
1.38328e-05;-0.011916548561670917
1.38330e-05;-0.00970712005342142
1.38333e-05;-0.005370217097077894
1.38335e-05;-0.0011609204253060007
1.38338e-05;-0.00015955071462651189
1.38340e-05;-0.001224847681945475
1.38343e-05;-0.00395352287553642
1.38345e-05;-0.006948915662290162
1.38348e-05;-0.007351297251196879
1.38350e-05;-0.005567236251123058
1.38353e-05;-0.0030856593203894456
1.38355e-05;-0.0005422245586867494
1.38358e-05;0.0006469018760890383
1.38360e-05;2.3919272005091586e-06
1.38363e-05;-0.0014834055708627999
1.38365e-05;-0.002792385373073639
1.38368e-05;-0.0031331073537845147
1.38370e-05;-0.002234385197187735
1.38373e-05;-0.0008387563865043938
1.38375e-05;0.0003679723194113687
1.38378e-05;0.0009349840229838364
1.38380e-05;0.0005813227604199158
1.38383e-05;-0.00025512867226072785
1.38385e-05;-0.0010364750566803141
1.38388e-05;-0.0012711626332474679
1.38390e-05;-0.00073134990019627
1.38393e-05;0.00011791272823242824
1.38395e-05;0.0008471564088700641
1.38398e-05;0.0011741461552666052
1.38400e-05;0.0009230723053489652
1.38403e-05;0.00036840348983549205
1.38405e-05;-0.00015276897017624475
1.38408e-05;-0.0003324090536447543
1.38410e-05;-2.7688086928677117e-05
1.38413e-05;0.00047020483295114697
1.38415e-05;0.0008923962206744859
1.38418e-05;0.0010622615646081355
1.38420e-05;0.0008698555251629065
1.38423e-05;0.0004872849163484547
1.38425e-05;0.00012586683806100398
1.38428e-05;-2.129932459827066e-05
1.38430e-05;0.00013538814167298808
1.38433e-05;0.0004136677574439762
1.38435e-05;0.0006452731748995509
1.38438e-05;0.0007197360609051377
1.38440e-05;0.0005683645549680658
1.38443e-05;0.00029914250214738993
1.38445e-05;4.460450210258731e-05
1.38448e-05;-7.413763604321995e-05
1.38450e-05;-8.10693524208528e-07
1.38453e-05;0.00015056675703549528
1.38455e-05;0.0002747529545710331
1.38458e-05;0.0003027189331664359
1.38460e-05;0.00019160974336651174
1.38463e-05;9.238949743811864e-06
1.38465e-05;-0.00016120810784686296
1.38468e-05;-0.00024370832661746908
1.38470e-05;-0.00020285717061941958
1.38473e-05;-0.00010992976319179959
1.38475e-05;-3.077574676289977e-05
1.38478e-05;-8.694992042971718e-06
1.38480e-05;-7.067939496462191e-05
1.38483e-05;-0.00017441740783134718
1.38485e-05;-0.00026797288264106993
1.38488e-05;-0.00030390061816630153
1.38490e-05;-0.00026020192637029633
1.38493e-05;-0.00018170101035240802
1.38495e-05;-0.00010981964944800162
1.38498e-05;-7.185128182852855e-05
1.38500e-05;-8.487201140630098e-05
1.38503e-05;-0.00012254675810087715
1.38505e-05;-0.00015251428722734458
1.38508e-05;-0.00014522926083503657
1.38510e-05;-8.708800200478594e-05
1.38513e-05;-6.3439372088523885e-06
1.38515e-05;7.088330665957742e-05
1.38518e-05;0.00012732604278305274
1.38520e-05;0.0001521180117314173
1.38523e-05;0.00016158538652487646
1.38525e-05;0.00017582749113262595
1.38528e-05;0.0002131780022396771
1.38530e-05;0.00028198352244895267
1.38533e-05;0.00036437189385287843
1.38535e-05;0.0004438090741242789
1.38538e-05;0.0005093072247517812
1.38540e-05;0.0005538890677032392
1.38543e-05;0.000587610513802336
1.38545e-05;0.0006228899376372213
1.38548e-05;0.000671038664730971
1.38550e-05;0.0007371113399367433
1.38553e-05;0.0008097394773647083
1.38555e-05;0.0008783938333995905
1.38558e-05;0.0009360201001243988
1.38560e-05;0.0009780765934453777
1.38563e-05;0.0010106912323746768
1.38565e-05;0.0010414711284338044
1.38568e-05;0.0010773298944964276
1.38570e-05;0.0011213212467564896
1.38573e-05;0.0011664916547800312
1.38575e-05;0.0012067408738654145
1.38578e-05;0.0012380995564921014
1.38580e-05;0.001257922178028043
1.38583e-05;0.001270149519351957
1.38585e-05;0.0012796483256588237
1.38588e-05;0.0012908505904338403
1.38590e-05;0.0013057703039288124
1.38593e-05;0.0013194115341623373
1.38595e-05;0.0013280571762454463
1.38598e-05;0.0013329589097713513
1.38600e-05;0.0013266405263868339
1.38603e-05;0.0013187138264108011
1.38605e-05;0.001305900231091181
1.38608e-05;0.0012934885547364009
1.38610e-05;0.0012828416433637282
1.38613e-05;0.0012708956753356515
1.38615e-05;0.0012554238462342082
1.38618e-05;0.0012375152726656104
1.38620e-05;0.0012123040213249745
1.38623e-05;0.001186074583556702
1.38625e-05;0.0011567937436031304
1.38628e-05;0.0011279682659212748
1.38630e-05;0.0011005074631091456
1.38633e-05;0.0010725101081616216
1.38635e-05;0.001042904760498658
1.38638e-05;0.001012087870744824
1.38640e-05;0.0009776401113549466
1.38643e-05;0.0009429710859210425
1.38645e-05;0.0009076389484350765
1.38648e-05;0.0008731099862284729
1.38650e-05;0.0008409880594497631
1.38653e-05;0.0008091493797125128
1.38655e-05;0.0007781595628345219
1.38658e-05;0.0007471317287119645
1.38660e-05;0.000715989960735159
1.38663e-05;0.0006855319351993613
1.38665e-05;0.0006571230169026356
1.38668e-05;0.0006297970694472617
1.38670e-05;0.0006063743071583957
1.38673e-05;0.0005853914055916854
1.38675e-05;0.000566163430458179
1.38678e-05;0.0005482214098138794
1.38680e-05;0.0005313405824943914
1.38683e-05;0.0005159781226892924
1.38685e-05;0.0005026802719966897
1.38688e-05;0.0004919509841263282
1.38690e-05;0.000484042207566855
1.38693e-05;0.00047851306661214957
1.38695e-05;0.0004748675053696366
1.38698e-05;0.00047274465544306163
1.38700e-05;0.0004719367768944048
1.38703e-05;0.0004726631832521011
1.38705e-05;0.000475199046085295
1.38708e-05;0.00047979297242497473
1.38710e-05;0.0004865356811370699
1.38713e-05;0.0004950839638900499
1.38715e-05;0.0005050599866508542
1.38718e-05;0.0005161707421582542
1.38720e-05;0.0005283554585396075
1.38723e-05;0.0005416841397738779
1.38725e-05;0.0005556026890342788
1.38728e-05;0.000571289013366082
1.38730e-05;0.0005875269821672752
1.38733e-05;0.0006054181738894795
1.38735e-05;0.0006233093656115626
1.38738e-05;0.0006413869323677224
1.38740e-05;0.0006600230463317436
1.38743e-05;0.000678729755428377
1.38745e-05;0.0006976480310286762
1.38748e-05;0.0007165971369324323
1.38750e-05;0.0007356386381507562
1.38753e-05;0.0007544915240290058
1.38755e-05;0.000772779148727138
1.38758e-05;0.0007907818734598682
1.38760e-05;0.0008077009451976448
1.38763e-05;0.0008236849272100516
1.38765e-05;0.0008386663991980769
1.38768e-05;0.0008525703876626355
1.38770e-05;0.0008651981108696907
1.38773e-05;0.0008758770269405028
1.38775e-05;0.0008836194445534103
1.38778e-05;0.0008877809640095662
1.38780e-05;0.0008882551688110323
1.38783e-05;0.0008851703511712516
1.38785e-05;0.0008786634874215103
1.38788e-05;0.0008688667077329306
1.38790e-05;0.0008558347291595325
1.38793e-05;0.0008393253756813047
1.38795e-05;0.0008188992246826323
1.38798e-05;0.0007943318002594513
1.38800e-05;0.0007657357862781273
1.38803e-05;0.0007333707904418048
1.38805e-05;0.0006975017735716596
1.38808e-05;0.0006583908439063184
1.38810e-05;0.0006162513409458928
1.38813e-05;0.0005711108749468742
1.38815e-05;0.0005228734224595153
1.38818e-05;0.0004715775419378054
1.38820e-05;0.00041747305504015377
1.38823e-05;0.0003609018090476169
1.38825e-05;0.0003022089750736806
1.38828e-05;0.0002417378468429077
1.38830e-05;0.00017980125388730077
1.38833e-05;0.00011659558845214775
1.38835e-05;5.223980084202159e-05
1.38838e-05;-1.3062803487483753e-05
1.38840e-05;-7.892411696065152e-05
1.38843e-05;-0.0001448656648575386
1.38845e-05;-0.00021080721275487248
1.38848e-05;-0.0002762981799663513
1.38850e-05;-0.0003404388022371415
1.38853e-05;-0.0004038585313335883
1.38855e-05;-0.0004651178161819356
1.38858e-05;-0.0005253249532110834
1.38860e-05;-0.0005823789091810288
1.38863e-05;-0.0006379607509289435
1.38865e-05;-0.0006891308145996681
1.38868e-05;-0.0007389305681271418
1.38870e-05;-0.0007835818904605835
1.38873e-05;-0.0008240095020371125
1.38875e-05;-0.0008600061795640838
1.38878e-05;-0.000891471507895085
1.38880e-05;-0.0009183315173079261
1.38883e-05;-0.0009405029561035461
1.38885e-05;-0.0009579018743171679
1.38888e-05;-0.0009704446568017675
1.38890e-05;-0.0009780567752176656
1.38893e-05;-0.0009801066687890841
1.38895e-05;-0.0009766495702882693
1.38898e-05;-0.0009708488808582296
1.38900e-05;-0.0009580246854210528
1.38903e-05;-0.0009429888125588919
1.38905e-05;-0.0009213247651781294
1.38908e-05;-0.0008975826723346943
1.38910e-05;-0.0008676128865065509
1.38913e-05;-0.0008357469714823127
1.38915e-05;-0.0007981985482032359
1.38918e-05;-0.0007593863446205836
1.38920e-05;-0.0007160331020407055
1.38923e-05;-0.0006697339483134145
1.38925e-05;-0.0006207536264891941
1.38928e-05;-0.0005693571415304949
1.38930e-05;-0.0005158129643058502
1.38933e-05;-0.0004604076137173767
1.38935e-05;-0.00040345968827969236
1.38938e-05;-0.0003453140266124555
1.38940e-05;-0.00028632198775172066
