Time(s);Current(A)
1.05000e-05;0.004077884440137985
1.05002e-05;0.004069768051211751
1.05005e-05;0.004061651662285461
1.05008e-05;0.004053535273359172
1.05010e-05;0.004045418884432937
1.05013e-05;0.004037302495506647
1.05015e-05;0.004029186106580359
1.05017e-05;0.004021069717654124
1.05020e-05;0.0040129533287278345
1.05023e-05;0.004004836939801545
1.05025e-05;0.003996720550875311
1.05028e-05;0.0040045033106373504
1.05030e-05;0.0040142163648063285
1.05033e-05;0.004023929418975306
1.05035e-05;0.004033642473144218
1.05038e-05;0.004043355527313195
1.05040e-05;0.004053068581482173
1.05043e-05;0.004062781635651084
1.05045e-05;0.0040724946898200625
1.05048e-05;0.00408220774398904
1.05050e-05;0.004091920798157952
1.05053e-05;0.004101633852326929
1.05055e-05;0.004111346906495907
1.05058e-05;0.004121059960664818
1.05060e-05;0.004130773014833796
1.05063e-05;0.004140486069002774
1.05065e-05;0.004150199123171686
1.05068e-05;0.004161716061066504
1.05070e-05;0.004173452006075209
1.05073e-05;0.004185187951083835
1.05075e-05;0.0041969238960925396
1.05078e-05;0.004208659841101245
1.05080e-05;0.00422039578610987
1.05083e-05;0.0042321317311185755
1.05085e-05;0.00424386767612728
1.05087e-05;0.004255603621135906
1.05090e-05;0.0042673395661446106
1.05093e-05;0.004279075511153316
1.05095e-05;0.004290811456161942
1.05098e-05;0.0043025474011706465
1.05100e-05;0.004314283346179352
1.05102e-05;0.004326019291187977
1.05105e-05;0.0043377552361966824
1.05108e-05;0.004337623144016446
1.05110e-05;0.0043360501692917604
1.05113e-05;0.004334477194567064
1.05115e-05;0.004332904219842368
1.05118e-05;0.004331331245117671
1.05120e-05;0.004329758270392985
1.05123e-05;0.004328185295668289
1.05125e-05;0.0043266123209435925
1.05128e-05;0.004325039346218907
1.05130e-05;0.00432346637149421
1.05133e-05;0.004321893396769514
1.05135e-05;0.004320320422044828
1.05138e-05;0.004318747447320132
1.05140e-05;0.004317174472595435
1.05143e-05;0.0043156014978707495
1.05145e-05;0.0043140285231460535
1.05148e-05;0.0043046888139632354
1.05150e-05;0.004294406155922781
1.05153e-05;0.004284123497882258
1.05155e-05;0.0042738408398417345
1.05158e-05;0.00426355818180128
1.05160e-05;0.004253275523760757
1.05163e-05;0.0042429928657202335
1.05165e-05;0.004232710207679779
1.05168e-05;0.004222427549639256
1.05170e-05;0.0042121448915987325
1.05172e-05;0.004201862233558278
1.05175e-05;0.004191579575517755
1.05178e-05;0.0041816393927450735
1.05180e-05;0.004172230985831857
1.05183e-05;0.004162822578918576
1.05185e-05;0.0041534141720052965
1.05187e-05;0.004144005765092079
1.05190e-05;0.0041345973581787985
1.05193e-05;0.004125188951265519
1.05195e-05;0.004115780544352301
1.05198e-05;0.004106372137439022
1.05200e-05;0.004096963730525741
1.05203e-05;0.00408755532361246
1.05205e-05;0.004078146916699244
1.05208e-05;0.004068738509785963
1.05210e-05;0.0040553278836490195
1.05213e-05;0.004041431353421112
1.05215e-05;0.00402753482319311
1.05218e-05;0.004013638292965108
1.05220e-05;0.003999741762737201
1.05223e-05;0.0039858452325091985
1.05225e-05;0.003971948702281197
1.05228e-05;0.003958052172053289
1.05230e-05;0.003944155641825288
1.05233e-05;0.003930259111597286
1.05235e-05;0.0039163625813693785
1.05238e-05;0.0039024660511413766
1.05240e-05;0.003888569520913375
1.05243e-05;0.0038746729906854673
1.05245e-05;0.0038556887091496703
1.05248e-05;0.0038360867305219717
1.05250e-05;0.0038164847518944054
1.05253e-05;0.003796882773266707
1.05255e-05;0.0037772807946390083
1.05257e-05;0.003757678816011442
1.05260e-05;0.0037380768373837434
1.05263e-05;0.003718474858756045
1.05265e-05;0.0036988728801284785
1.05268e-05;0.00367927090150078
1.05270e-05;0.0036596689228730814
1.05272e-05;0.003640066944245515
1.05275e-05;0.0036204649656178165
1.05278e-05;0.003600862986990118
1.05280e-05;0.003583137141791336
1.05283e-05;0.00356563907544663
1.05285e-05;0.003548141009101924
1.05288e-05;0.003530642942757218
1.05290e-05;0.0035131448764126306
1.05293e-05;0.0035019082097817646
1.05295e-05;0.003491159788904912
1.05298e-05;0.003480411368028133
1.05300e-05;0.0034696629471512802
1.05303e-05;0.003458914526274428
1.05305e-05;0.0026445688193342254
1.05308e-05;-0.0015642921987232155
1.05310e-05;-0.0054933939183566425
1.05313e-05;-0.006163944787417394
1.05315e-05;-0.004507997914449405
1.05318e-05;-0.0012135826528878505
1.05320e-05;0.0019051300964125356
1.05323e-05;0.0030543800532562373
1.05325e-05;0.002328836462224403
1.05328e-05;-7.759838566041453e-05
1.05330e-05;-0.0023601180444197036
1.05333e-05;-0.0028516720415172722
1.05335e-05;-0.001822829418512424
1.05338e-05;0.00026940038420953175
1.05340e-05;0.002211682327945199
1.05342e-05;0.0029814945108349806
1.05345e-05;0.0025439304977636014
1.05348e-05;0.0010387979778566953
1.05350e-05;-0.000528807917383951
1.05353e-05;-0.0010644294232999311
1.05355e-05;-0.00027791574391196946
1.05357e-05;0.0012283704229001358
1.05360e-05;0.0027353701197780998
1.05363e-05;0.0036056399523215887
1.05365e-05;0.0035686889298125572
1.05368e-05;0.002641456157980713
1.05370e-05;0.0015794923011772744
1.05373e-05;0.001014482298640058
1.05375e-05;0.0012236336578146992
1.05378e-05;0.002127119458828671
1.05380e-05;0.003070473792122272
1.05383e-05;0.0036135768659579454
1.05385e-05;0.0035884451835811937
1.05388e-05;0.003005783088949932
1.05390e-05;0.0023389354235937793
1.05393e-05;0.00198361692493827
1.05395e-05;0.002113487579147238
1.05398e-05;0.002678782270401432
1.05400e-05;0.003270096828751702
1.05403e-05;0.00361218677846737
1.05405e-05;0.0035999383736144983
1.05408e-05;0.0032400211410376963
1.05410e-05;0.002828868125842646
1.05413e-05;0.002614259228631156
1.05415e-05;0.0027048628723851517
1.05418e-05;0.0030693898548062107
1.05420e-05;0.003451286096953945
1.05423e-05;0.003678053922643679
1.05425e-05;0.0036837755647558335
1.05427e-05;0.0034725568676824345
1.05430e-05;0.0032300018531495065
1.05433e-05;0.0031112222937420366
1.05435e-05;0.0031841802297438823
1.05438e-05;0.0034291661367863227
1.05440e-05;0.0036853723377574385
1.05442e-05;0.003844656263093544
1.05445e-05;0.003865643755286648
1.05448e-05;0.003750824631669453
1.05450e-05;0.0036163731072023806
1.05453e-05;0.003559353630282099
1.05455e-05;0.00362223342074261
1.05458e-05;0.003792560440580864
1.05460e-05;0.003969504942837468
1.05463e-05;0.004085233122897386
1.05465e-05;0.0041137397435850025
1.05468e-05;0.004056496585711116
1.05470e-05;0.003986183631078611
1.05473e-05;0.003963504271954245
1.05475e-05;0.004014959006486994
1.05478e-05;0.004132645331595478
1.05480e-05;0.004253304531382559
1.05483e-05;0.004334350693150438
1.05485e-05;0.0043594028353459
1.05488e-05;0.004329291667245743
1.05490e-05;0.004289450158532432
1.05493e-05;0.004277806281466214
1.05495e-05;0.004310871688103816
1.05498e-05;0.004383770031200662
1.05500e-05;0.004457199708804995
1.05503e-05;0.004504808452293021
1.05505e-05;0.00451648189901805
1.05508e-05;0.004492803418542207
1.05510e-05;0.004462281862513784
1.05512e-05;0.004448722236046628
1.05515e-05;0.004462513895565782
1.05518e-05;0.004500647344368363
1.05520e-05;0.004538551023209076
1.05523e-05;0.004559766038292005
1.05525e-05;0.0045495040175584315
1.05527e-05;0.0045311297216532615
1.05530e-05;0.004504718436156245
1.05533e-05;0.004486054963866176
1.05535e-05;0.004489686955590686
1.05538e-05;0.004499107981924884
1.05540e-05;0.004510370426877814
1.05543e-05;0.0045126848336758014
1.05545e-05;0.004495193267102851
1.05548e-05;0.00447260170974904
1.05550e-05;0.0044449889801952145
1.05553e-05;0.004426660932884769
1.05555e-05;0.004411581889079119
1.05558e-05;0.00440676836481385
1.05560e-05;0.0044050442538975994
1.05563e-05;0.004393012744545359
1.05565e-05;0.004377879218369094
1.05568e-05;0.004353080078883469
1.05570e-05;0.004325372068135346
1.05573e-05;0.004307794633819678
1.05575e-05;0.004293266001655743
1.05578e-05;0.004278737369491708
1.05580e-05;0.004265138305634185
1.05583e-05;0.004251818995833382
1.05585e-05;0.004238499686032488
1.05588e-05;0.004218589461325227
1.05590e-05;0.004196695697410671
1.05593e-05;0.004182533123630798
1.05595e-05;0.004170697255470868
1.05597e-05;0.004158861387311018
1.05600e-05;0.00414467815336211
1.05603e-05;0.004129788478480016
1.05605e-05;0.004114898803598023
1.05608e-05;0.004091183669396699
1.05610e-05;0.004064812508705265
1.05612e-05;0.0040384413480140085
1.05615e-05;0.004012070187322574
1.05618e-05;0.003985699026631139
1.05620e-05;0.0039560303549021555
1.05623e-05;0.003917385674995463
1.05625e-05;0.003878740995088769
1.05628e-05;0.003840096315182076
1.05630e-05;0.0038014516352756446
1.05633e-05;0.003762806955368951
1.05635e-05;0.00371456235051886
1.05638e-05;0.0036634286433534884
1.05640e-05;0.0036122949361877704
1.05643e-05;0.003561161229022052
1.05645e-05;0.0035100275218566805
1.05648e-05;0.0034588938146909625
1.05650e-05;0.0034077601075252445
1.05653e-05;0.0033542110613948416
1.05655e-05;0.003294087328460446
1.05658e-05;0.0032339635955260506
1.05660e-05;0.003173839862592063
1.05663e-05;0.0031137161296576673
1.05665e-05;0.003053592396723272
1.05668e-05;0.0029934686637892835
1.05670e-05;0.002933344930854888
1.05673e-05;0.0028779933950150256
1.05675e-05;0.002824078054329174
1.05678e-05;0.002770162713642957
1.05680e-05;0.00271624737295674
1.05682e-05;0.0026623320322708885
1.05685e-05;0.0026084166915846716
1.05688e-05;0.0025545013508984546
1.05690e-05;0.002500586010212603
1.05693e-05;0.0024596115614606683
1.05695e-05;0.0024225316807481145
1.05697e-05;0.0023854518000358117
1.05700e-05;0.002348371919323258
1.05703e-05;0.002311292038610704
1.05705e-05;0.0022742121578984017
1.05708e-05;0.002237132277185848
1.05710e-05;0.002200052396473294
1.05713e-05;0.0021729196541986247
1.05715e-05;0.002148780508319419
1.05718e-05;0.0021246413624400502
1.05720e-05;0.002100502216560681
1.05723e-05;0.0020763630706814758
1.05725e-05;0.0020522239248021066
1.05728e-05;0.0020280847789227374
1.05730e-05;0.002003945633043532
1.05733e-05;0.001979806487164163
1.05735e-05;0.001957690321572147
1.05738e-05;0.0019410808206747018
1.05740e-05;0.0019244713197771436
1.05743e-05;0.0019078618188795855
1.05745e-05;0.00189125231798214
1.05748e-05;0.0018746428170845818
1.05750e-05;0.0018580333161870239
1.05753e-05;0.0018414238152895783
1.05755e-05;0.0018248143143920201
1.05758e-05;0.001808204813494462
1.05760e-05;0.0017962998283383136
1.05763e-05;0.0017858106695985121
1.05765e-05;0.0017753215108587106
1.05767e-05;0.0017648323521189803
1.05770e-05;0.0017543431933791788
1.05773e-05;0.0017438540346393773
1.05775e-05;0.0017333648758996467
1.05778e-05;0.0017228757171598452
1.05780e-05;0.0017123865584200437
1.05782e-05;0.0017018973996803133
1.05785e-05;0.0016914082409405118
1.05788e-05;0.0016809190822007103
1.05790e-05;0.00167042992346098
1.05793e-05;0.0016599407647211785
1.05795e-05;0.001649451605981377
1.05798e-05;0.0016389624472415755
1.05800e-05;0.0016324713919435366
1.05803e-05;0.001627183567919556
1.05805e-05;0.0016218957438955753
1.05808e-05;0.0016166079198716304
1.05810e-05;0.0016113200958476498
1.05813e-05;0.0016060322718236691
1.05815e-05;0.0016007444477997242
1.05818e-05;0.0015954566237757436
1.05820e-05;0.001590168799751763
1.05823e-05;0.001584880975727818
1.05825e-05;0.0015795931517038374
1.05828e-05;0.0015743053276798568
1.05830e-05;0.001569017503655912
1.05833e-05;0.0015637296796319313
1.05835e-05;0.0015584418556079506
1.05838e-05;0.001553154031584006
1.05840e-05;0.0015495640005005386
1.05843e-05;0.0015464849210703251
1.05845e-05;0.0015434058416401325
1.05848e-05;0.001540326762209919
1.05850e-05;0.0015372476827797054
1.05853e-05;0.0015341686033495125
1.05855e-05;0.001531089523919299
1.05858e-05;0.0015280104444890855
1.05860e-05;0.0015249313650588928
1.05863e-05;0.0015218522856286793
1.05865e-05;0.0015187732061984656
1.05867e-05;0.0015163455355801908
1.05870e-05;0.0015141139067768239
1.05873e-05;0.001511882277973457
1.05875e-05;0.001509650649170105
1.05878e-05;0.001507419020366738
1.05880e-05;0.0015051873915633712
1.05883e-05;0.001502955762760004
1.05885e-05;0.0015007241339566523
1.05888e-05;0.0014984925051532852
1.05890e-05;0.0014962608763499183
1.05893e-05;0.0014940292475465666
1.05895e-05;0.001493173884422275
1.05898e-05;0.0014927327091576572
1.05900e-05;0.0014922915338930424
1.05903e-05;0.001498728042551182
1.05905e-05;0.0015072343937017928
1.05908e-05;0.0015157407448523458
1.05910e-05;0.001530375061192814
1.05913e-05;0.0015468535917897558
1.05915e-05;0.0015691700374477647
1.05918e-05;0.0015932434066279273
1.05920e-05;0.0016173167758080902
1.05923e-05;0.0016505630548773848
1.05925e-05;0.001686569925867383
1.05928e-05;0.0017225767968573813
1.05930e-05;0.0017665956016866494
1.05933e-05;0.0018130256021011005
1.05935e-05;0.0018594556025155514
1.05938e-05;0.0019127955013872946
1.05940e-05;0.0019682149377327923
1.05943e-05;0.00202363437407829
1.05945e-05;0.002087589140972711
1.05948e-05;0.002154112619960027
1.05950e-05;0.0022206360989473436
1.05952e-05;0.002287159577934209
1.05955e-05;0.0023536830569215253
1.05958e-05;0.0024202065359088414
1.05960e-05;0.0024911979322824384
1.05963e-05;0.002563533950678359
1.05965e-05;0.0026358699690742795
1.05968e-05;0.0027082059874702
1.05970e-05;0.0027805420058656305
1.05973e-05;0.002852878024261551
1.05975e-05;0.0029171899687111167
1.05978e-05;0.002979087064003504
1.05980e-05;0.0030409841592963106
1.05983e-05;0.003102881254589117
1.05985e-05;0.0031647783498815044
1.05988e-05;0.003226675445174311
1.05990e-05;0.0032885725404671177
1.05993e-05;0.003350469635759505
1.05995e-05;0.0034043661516070783
1.05998e-05;0.0034364846458460017
1.06000e-05;0.0034686031400847075
1.06003e-05;0.0035007216343236314
1.06005e-05;0.003532840128562555
1.06008e-05;0.0035649586228012607
1.06010e-05;0.0035970771170401846
1.06013e-05;0.003629195611279108
1.06015e-05;0.003661314105517814
1.06018e-05;0.0036685504122153834
1.06020e-05;0.003668298411848735
1.06023e-05;0.0036680464114820887
1.06025e-05;0.0036677944111154406
1.06028e-05;0.0036675424107487924
1.06030e-05;0.003667290410382146
1.06033e-05;0.0036670384100154978
1.06035e-05;0.003666786409648849
1.06037e-05;0.0036665344092822027
1.06040e-05;0.0036480592032275766
1.06043e-05;0.003624099714102196
1.06045e-05;0.003600140224976978
1.06048e-05;0.003576180735851597
1.06050e-05;0.0035522212467262167
1.06053e-05;0.003528261757600836
1.06055e-05;0.003504302268475618
1.06058e-05;0.003480342779350237
1.06060e-05;0.0034563832902248567
1.06063e-05;0.003425546574544765
1.06065e-05;0.003392640154015876
1.06068e-05;0.0033597337334869875
1.06070e-05;0.0033268273129583217
1.06073e-05;0.003293920892429433
1.06075e-05;0.0032610144719005443
1.06078e-05;0.0032281080513718785
1.06080e-05;0.003196663867203766
1.06083e-05;0.003169199971624587
1.06085e-05;0.003141736076045594
1.06088e-05;0.0031142721804664148
1.06090e-05;0.0030868082848872357
1.06093e-05;0.0030593443893082426
1.06095e-05;0.0030318804937290635
1.06098e-05;0.0030044165981498844
1.06100e-05;0.0029973469338397556
1.06103e-05;0.002996414923860382
1.06105e-05;0.0029954829138810085
1.06108e-05;0.0029945509039016414
1.06110e-05;0.0029936188939222678
1.06113e-05;0.002992686883942894
1.06115e-05;0.002991754873963527
1.06118e-05;0.0029908228639841535
1.06120e-05;0.00298989085400478
1.06122e-05;0.0029889588440254124
1.06125e-05;0.0029976762187841825
1.06128e-05;0.0030326597547466728
1.06130e-05;0.0030676432907089262
1.06133e-05;0.003102626826671417
1.06135e-05;0.0031376103626339076
1.06138e-05;0.0031725938985963983
1.06140e-05;0.0032075774345586517
1.06143e-05;0.003242560970521142
1.06145e-05;0.0032775445064836327
1.06148e-05;0.003312528042445886
1.06150e-05;0.003347511578408377
1.06153e-05;0.0033968279200841203
1.06155e-05;0.0034504577269698737
1.06158e-05;0.00350408753385599
1.06160e-05;0.003557717340742107
1.06163e-05;0.00361134714762786
1.06165e-05;0.003664976954513977
1.06168e-05;0.0037186067614000933
1.06170e-05;0.0037718101063123483
1.06173e-05;0.0038238525980463763
1.06175e-05;0.003875895089780404
1.06178e-05;0.003927937581514079
1.06180e-05;0.003979980073248107
1.06183e-05;0.0040320225649821346
1.06185e-05;0.0040840650567158104
1.06188e-05;0.004136107548449838
1.06190e-05;0.0041752262130108405
1.06193e-05;0.004210455445172839
1.06195e-05;0.0042456846773350765
1.06198e-05;0.004280913909497313
1.06200e-05;0.004316143141659312
1.06203e-05;0.004351372373821549
1.06205e-05;0.004386601605983786
1.06207e-05;0.004421830838145784
1.06210e-05;0.004457060070308022
1.06213e-05;0.004492289302470259
1.06215e-05;0.004522941887225131
1.06218e-05;0.0045522171276017225
1.06220e-05;0.004581492367978314
1.06222e-05;0.004610767608354708
1.06225e-05;0.004640042848731299
1.06228e-05;0.004669318089107891
1.06230e-05;0.004698593329484483
1.06233e-05;0.004727868569860876
1.06235e-05;0.0047571438102374675
1.06238e-05;0.004786419050614059
1.06240e-05;0.004815210074437511
1.06243e-05;0.004843855373041818
1.06245e-05;0.004872500671646126
1.06248e-05;0.0049011459702502395
1.06250e-05;0.004929791268854547
1.06253e-05;0.004958436567458854
1.06255e-05;0.004987081866062968
1.06258e-05;0.005015727164667276
1.06260e-05;0.005044372463271583
1.06263e-05;0.005073017761875696
1.06265e-05;0.005101663060480004
1.06268e-05;0.005130308359084311
1.06270e-05;0.0051589536576884245
1.06273e-05;0.005187598956292732
1.06275e-05;0.00521356432440378
1.06278e-05;0.005232234772858971
1.06280e-05;0.005250905221314288
1.06283e-05;0.0052695756697696055
1.06285e-05;0.005288246118224796
1.06288e-05;0.0053069165666801135
1.06290e-05;0.005325587015135431
1.06292e-05;0.0053442574635906214
1.06295e-05;0.005362927912045939
1.06298e-05;0.005381598360501256
1.06300e-05;0.005400268808956447
1.06303e-05;0.005418939257411764
1.06305e-05;0.005437609705867081
1.06307e-05;0.005456280154322272
1.06310e-05;0.005474950602777589
1.06313e-05;0.00548472909826915
1.06315e-05;0.005491831555966053
1.06318e-05;0.005498934013662908
1.06320e-05;0.005506036471359811
1.06323e-05;0.005513138929056715
1.06325e-05;0.0055202413867535705
1.06328e-05;0.005527343844450474
1.06330e-05;0.005534446302147378
1.06333e-05;0.005541548759844233
1.06335e-05;0.005548651217541136
1.06338e-05;0.00555575367523804
1.06340e-05;0.0055628561329348954
1.06343e-05;0.0055699585906317985
1.06345e-05;0.005577061048328702
1.06348e-05;0.005584163506025557
1.06350e-05;0.005591265963722461
1.06353e-05;0.005598368421419364
1.06355e-05;0.005601660383890805
1.06358e-05;0.00560380557587407
1.06360e-05;0.005605950767857335
1.06363e-05;0.005608095959840586
1.06365e-05;0.0056102411518238506
1.06368e-05;0.005612386343807116
1.06370e-05;0.005614531535790366
1.06373e-05;0.005616676727773631
1.06375e-05;0.005618821919756896
1.06377e-05;0.005620967111740147
1.06380e-05;0.005623112303723411
1.06383e-05;0.005625257495706677
1.06385e-05;0.005627402687689928
1.06388e-05;0.005629547879673192
1.06390e-05;0.005631693071656457
1.06392e-05;0.005633838263639708
1.06395e-05;0.005635983455622973
1.06398e-05;0.005627853922144034
1.06400e-05;0.005616632204778257
1.06403e-05;0.0056054104874125555
1.06405e-05;0.005594188770046778
1.06408e-05;0.005582967052681001
1.06410e-05;0.0055717453353153
1.06413e-05;0.005560523617949523
1.06415e-05;0.005549301900583745
1.06418e-05;0.005538080183218044
1.06420e-05;0.005526858465852267
1.06423e-05;0.00551563674848649
1.06425e-05;0.005484940791506469
1.06428e-05;0.005448384052146352
1.06430e-05;0.005411827312786235
1.06433e-05;0.005375270573426367
1.06435e-05;0.00533871383406625
1.06438e-05;0.005302157094706134
1.06440e-05;0.005265600355346265
1.06443e-05;0.005229043615986148
1.06445e-05;0.005192486876626032
1.06448e-05;0.005155930137266162
1.06450e-05;0.005119373397906046
1.06453e-05;0.005072539148048554
1.06455e-05;0.005022611876146332
1.06458e-05;0.004972684604243771
1.06460e-05;0.00492275733234121
1.06462e-05;0.004872830060438987
1.06465e-05;0.004822902788536426
1.06468e-05;0.004772975516633865
1.06470e-05;0.004723048244731642
1.06473e-05;0.004674495180790425
1.06475e-05;0.004629682787251333
1.06477e-05;0.004584870393712545
1.06480e-05;0.004540058000173453
1.06483e-05;0.004495245606634361
1.06485e-05;0.004450433213095268
1.06488e-05;0.00440562081955648
1.06490e-05;0.004360808426017388
1.06493e-05;0.004315996032478296
1.06495e-05;0.004292804280866969
