Time(s);Current(A)
1.10000e-05;0.0019308940592890692
1.10003e-05;0.0019437503302108582
1.10005e-05;0.0019566066011327344
1.10008e-05;0.0019694628720546103
1.10010e-05;0.001982319142976399
1.10013e-05;0.001995175413898275
1.10015e-05;0.0020080316848201515
1.10018e-05;0.0020208879557419403
1.10020e-05;0.0020337442266638163
1.10023e-05;0.0020410829270918474
1.10025e-05;0.0020390463942145513
1.10028e-05;0.002037009861337241
1.10030e-05;0.002034973328459931
1.10033e-05;0.002032936795582635
1.10035e-05;0.0020309002627053245
1.10038e-05;0.0020288637298280145
1.10040e-05;0.002026827196950718
1.10043e-05;0.002024790664073408
1.10045e-05;0.002022754131196098
1.10047e-05;0.002014342137424635
1.10050e-05;0.0020049815772086254
1.10053e-05;0.001995621016992616
1.10055e-05;0.0019862604567766695
1.10058e-05;0.00197689989656066
1.10060e-05;0.0019675393363446504
1.10062e-05;0.0019581787761287044
1.10065e-05;0.0019488182159126946
1.10068e-05;0.001939457655696685
1.10070e-05;0.0019300970954806754
1.10073e-05;0.001920868325164921
1.10075e-05;0.0019116591630749474
1.10078e-05;0.0019024500009849738
1.10080e-05;0.0018932408388950624
1.10083e-05;0.0018840316768050887
1.10085e-05;0.001874822514715115
1.10088e-05;0.0018656133526252037
1.10090e-05;0.00185640419053523
1.10093e-05;0.0018471950284452564
1.10095e-05;0.0018379858663553452
1.10098e-05;0.0018209519918223368
1.10100e-05;0.0018027539254312861
1.10103e-05;0.0017845558590403585
1.10105e-05;0.0017663577926493078
1.10108e-05;0.001748159726258257
1.10110e-05;0.0017299616598673295
1.10113e-05;0.0017117635934762786
1.10115e-05;0.0016935655270852279
1.10118e-05;0.0016753674606943003
1.10120e-05;0.0016571693943032496
1.10123e-05;0.0016273267047200045
1.10125e-05;0.0015957514817548884
1.10128e-05;0.0015641762587895586
1.10130e-05;0.0015326010358242288
1.10132e-05;0.001501025812859113
1.10135e-05;0.0014694505898937829
1.10138e-05;0.001437875366928453
1.10140e-05;0.0014063001439633372
1.10143e-05;0.0013747249209980074
1.10145e-05;0.0013431496980326773
1.10147e-05;0.0013068555352691636
1.10150e-05;0.001269859269861512
1.10153e-05;0.0012328630044538603
1.10155e-05;0.0011958667390462086
1.10158e-05;0.0011588704736388076
1.10160e-05;0.001121874208231156
1.10163e-05;0.0010869052998096797
1.10165e-05;0.0010522380296294556
1.10168e-05;0.001017570759448997
1.10170e-05;0.000982903489268538
1.10173e-05;0.0009482362190883141
1.10175e-05;0.0009135689489078553
1.10178e-05;0.0008830753886937511
1.10180e-05;0.0008532028096595357
1.10183e-05;0.0008266625238104591
1.10185e-05;0.0008006180298036764
1.10188e-05;0.0007791819007782311
1.10190e-05;0.0007584314226353586
1.10193e-05;0.0007422897148251279
1.10195e-05;0.000730097253647927
1.10198e-05;0.000721636003568262
1.10200e-05;0.0007168852146063074
1.10203e-05;0.0007158241572959942
1.10205e-05;0.000718436163224836
1.10208e-05;0.000724811065152807
1.10210e-05;0.0007351711423342008
1.10213e-05;0.0007496332648794784
1.10215e-05;0.0007697650303322741
1.10217e-05;0.0007906610567311191
1.10220e-05;0.0008178791221650415
1.10223e-05;0.0008460378057276928
1.10225e-05;0.0008799243337232108
1.10228e-05;0.0009146630732099945
1.10230e-05;0.0009548473298235007
1.10232e-05;0.0009958417921475293
1.10235e-05;0.0010427062759367169
1.10238e-05;0.0010904441248816789
1.10240e-05;0.001138181973826641
1.10243e-05;0.0011924384365460225
1.10245e-05;0.0012476647645667687
1.10248e-05;0.0013028910925875147
1.10250e-05;0.0013581174206078865
1.10253e-05;0.0014133437486286327
1.10255e-05;0.0014695333310594811
1.10258e-05;0.0015273596365446738
1.10260e-05;0.0015851859420302583
1.10263e-05;0.0016430122475158428
1.10265e-05;0.0017008385530010355
1.10268e-05;0.00175866485848662
1.10270e-05;0.0018059861579105706
1.10273e-05;0.0018517444807228773
1.10275e-05;0.0018975028035354941
1.10278e-05;0.001943261126348111
1.10280e-05;0.001989019449160418
1.10283e-05;0.0020347777719730347
1.10285e-05;0.0020805360947856516
1.10288e-05;0.002126294417597958
1.10290e-05;0.0021720527404105747
1.10293e-05;0.00219962401196106
1.10295e-05;0.002224489341640407
1.10298e-05;0.0022493546713199227
1.10300e-05;0.0022742200009994384
1.10302e-05;0.0022990853306787858
1.10305e-05;0.002323950660358301
1.10308e-05;0.0023488159900378167
1.10310e-05;0.002373681319717164
1.10313e-05;0.0023985466493966798
1.10315e-05;0.0024103091919210878
1.10317e-05;0.002420122249623246
1.10320e-05;0.002429935307325471
1.10323e-05;0.002439748365027696
1.10325e-05;0.0024495614227299204
1.10328e-05;0.0024593744804320785
1.10330e-05;0.0024691875381343035
1.10333e-05;0.0024790005958365284
1.10335e-05;0.0024888136535386866
1.10338e-05;0.002498626711240911
1.10340e-05;0.0025050119606471067
1.10343e-05;0.002505572816406145
1.10345e-05;0.002506133672165187
1.10348e-05;0.002506694527924229
1.10350e-05;0.0025072553836832673
1.10353e-05;0.0025078162394423092
1.10355e-05;0.002508377095201351
1.10358e-05;0.0025089379509603896
1.10360e-05;0.0025094988067194315
1.10363e-05;0.0025100596624784734
1.10365e-05;0.002510620518237512
1.10368e-05;0.0025091267230659266
1.10370e-05;0.002507327228751274
1.10373e-05;0.0025055277344366344
1.10375e-05;0.002503728240121982
1.10378e-05;0.0025019287458073296
1.10380e-05;0.0025001292514926898
1.10383e-05;0.0024971488785902204
1.10385e-05;0.002492162004404145
1.10387e-05;0.002487175130218103
1.10390e-05;0.0024821882560320274
1.10393e-05;0.0024772013818459516
1.10395e-05;0.0024722145076599097
1.10398e-05;0.0024672276334738344
1.10400e-05;0.002448876222503806
1.10402e-05;0.0024285363825592298
1.10405e-05;0.002408196542614516
1.10408e-05;0.002387856702669802
1.10410e-05;0.002367516862725088
1.10413e-05;0.0023471770227805116
1.10415e-05;0.0023268371828357977
1.10418e-05;0.002306497342891084
1.10420e-05;0.0022861575029465074
1.10423e-05;0.0022589372914004185
1.10425e-05;0.0022200262298429185
1.10428e-05;0.002181115168285682
1.10430e-05;0.002142204106728182
1.10433e-05;0.002103293045170682
1.10435e-05;0.0020643819836134456
1.10438e-05;0.0020254709220559456
1.10440e-05;0.0019865598604984457
1.10443e-05;0.0019476487989412094
1.10445e-05;0.0019087377373837094
1.10448e-05;0.0018631714943224216
1.10450e-05;0.0018166150668687822
1.10453e-05;0.0017700586394148272
1.10455e-05;0.001723502211960872
1.10458e-05;0.0016769457845072326
1.10460e-05;0.0016303893570532775
1.10463e-05;0.0015860450677464134
1.10465e-05;0.0015420299091580241
1.10468e-05;0.0014980147505693365
1.10470e-05;0.001453999591980649
1.10472e-05;0.0014099844333922596
1.10475e-05;0.0013659692748035721
1.10478e-05;0.0013282097029399852
1.10480e-05;0.0012913808621679238
1.10483e-05;0.001254552021395613
1.10485e-05;0.0012234138931704304
1.10487e-05;0.0011931224518082844
1.10490e-05;0.001168123583390802
1.10493e-05;0.0011439121650415063
1.10495e-05;0.0011251655433474168
1.10498e-05;0.0011072319958507426
1.10500e-05;0.00109498400955922
1.10503e-05;0.001083581943693486
1.10505e-05;0.0010780731309980478
1.10508e-05;0.001073441139965521
1.10510e-05;0.0010746342017166409
1.10513e-05;0.0010766939380057177
1.10515e-05;0.0010842598674699942
1.10518e-05;0.001092645030270573
1.10520e-05;0.0011062478773298907
1.10523e-05;0.0011206270322206664
1.10525e-05;0.0011410666646570963
1.10528e-05;0.00116240799906448
1.10530e-05;0.0011837493334720083
1.10533e-05;0.001211298017778295
1.10535e-05;0.0012397702563088176
1.10538e-05;0.0012682424948395328
1.10540e-05;0.0013032317718001639
1.10543e-05;0.0013391906796773256
1.10545e-05;0.0013751495875547312
1.10548e-05;0.0014111084954321366
1.10550e-05;0.0014470674033092985
1.10553e-05;0.001483026311186704
1.10555e-05;0.0015221626679828907
1.10557e-05;0.0015617717782759114
1.10560e-05;0.0016013808885692003
1.10563e-05;0.0016409899988624895
1.10565e-05;0.00168059910915551
1.10568e-05;0.001720208219448799
1.10570e-05;0.0017485590564334953
1.10572e-05;0.0017752348427044807
1.10575e-05;0.0018019106289756468
1.10578e-05;0.0018285864152468132
1.10580e-05;0.0018552622015179793
1.10583e-05;0.0018819379877889647
1.10585e-05;0.001908613774060131
1.10588e-05;0.0019352895603312972
1.10590e-05;0.0019619653466022824
1.10593e-05;0.001988641132873449
1.10595e-05;0.002015316919144615
1.10598e-05;0.0020419927054156004
1.10600e-05;0.002068668491686767
1.10603e-05;0.0020852374897661428
1.10605e-05;0.002084633440842936
1.10608e-05;0.0020840293919197257
1.10610e-05;0.002083425342996515
1.10613e-05;0.002082821294073309
1.10615e-05;0.0020822172451500985
1.10618e-05;0.002081613196226888
1.10620e-05;0.0020810091473036814
1.10623e-05;0.002080405098380471
1.10625e-05;0.002079801049457261
1.10628e-05;0.002079197000534054
1.10630e-05;0.0020785929516108437
1.10633e-05;0.002077988902687633
1.10635e-05;0.002077384853764427
1.10638e-05;0.002063689369809479
1.10640e-05;0.002048046090042815
1.10642e-05;0.0020324028102762575
1.10645e-05;0.0020167595305095936
1.10648e-05;0.0020011162507429297
1.10650e-05;0.0019854729709763716
1.10653e-05;0.0019698296912097077
1.10655e-05;0.001954186411443044
1.10657e-05;0.001936272441352815
1.10660e-05;0.0019180206289180597
1.10663e-05;0.0018997688164833044
1.10665e-05;0.0018815170040485491
1.10668e-05;0.0018632651916139175
1.10670e-05;0.0018450133791791622
1.10673e-05;0.001826761566744407
1.10675e-05;0.0018085097543097755
1.10678e-05;0.0017938336359559518
1.10680e-05;0.0017796895235999447
1.10683e-05;0.0017655454112440335
1.10685e-05;0.0017514012988880264
1.10688e-05;0.0017372571865320193
1.10690e-05;0.001723113074176108
1.10693e-05;0.001708968961820101
1.10695e-05;0.0016947288969779038
1.10698e-05;0.0016804745559429834
1.10700e-05;0.0016662202149079666
1.10703e-05;0.0016519658738729495
1.10705e-05;0.0016377115328380294
1.10708e-05;0.0016234571918030123
1.10710e-05;0.0016092028507679954
1.10713e-05;0.0015908167369475866
1.10715e-05;0.0015718158815260371
1.10718e-05;0.0015528150261044879
1.10720e-05;0.0015338141706830672
1.10723e-05;0.0015148133152615177
1.10725e-05;0.0014958124598399684
1.10727e-05;0.0014768116044185477
1.10730e-05;0.0014578107489969985
1.10733e-05;0.001438809893575449
1.10735e-05;0.0014184123593986302
1.10738e-05;0.0013956416449917256
1.10740e-05;0.0013728709305848212
1.10742e-05;0.001350100216178071
1.10745e-05;0.0013273295017711666
1.10748e-05;0.0013045587873642623
1.10750e-05;0.0012817880729575123
1.10753e-05;0.0012590173585506077
1.10755e-05;0.0012362466441437033
1.10758e-05;0.001213475929736799
1.10760e-05;0.0011916693618786427
1.10763e-05;0.0011700062435815518
1.10765e-05;0.0011483431252844608
1.10768e-05;0.0011266800069875168
1.10770e-05;0.0011050168886904258
1.10773e-05;0.001083353770393335
1.10775e-05;0.001063794975004434
1.10778e-05;0.0010478117602592792
1.10780e-05;0.0010318285455141246
1.10783e-05;0.001015845330769078
1.10785e-05;0.0009998621160239233
1.10788e-05;0.0009838789012787685
1.10790e-05;0.0009678956865337221
1.10793e-05;0.0009582392925387494
1.10795e-05;0.0009495242281186949
1.10798e-05;0.0009408091636986997
1.10800e-05;0.0009367479734060103
1.10803e-05;0.0009333792050306282
1.10805e-05;0.0009300104366552689
1.10808e-05;0.0009314489510530596
1.10810e-05;0.0009336027121170774
1.10812e-05;0.0009357564731810804
1.10815e-05;0.0009425981241175989
1.10818e-05;0.0009501372579693428
1.10820e-05;0.0009576763918210357
1.10823e-05;0.0009694427335876167
1.10825e-05;0.0009818380161740322
1.10827e-05;0.0009942332987603639
1.10830e-05;0.0010123032463168681
1.10833e-05;0.0010312174931154943
1.10835e-05;0.001050131739913992
1.10838e-05;0.001069045986712618
1.10840e-05;0.001087960233511244
1.10843e-05;0.00110687448030987
1.10845e-05;0.0011257887271083678
1.10848e-05;0.0011488885898644767
1.10850e-05;0.0011726112052235617
1.10853e-05;0.0011963338205824858
1.10855e-05;0.0012200564359415708
1.10858e-05;0.0012437790513006558
1.10860e-05;0.0012675016666595798
1.10863e-05;0.0012912242820186648
1.10865e-05;0.0013126825852727874
1.10868e-05;0.0013338039951586679
1.10870e-05;0.0013549254050446915
1.10873e-05;0.001376046814930715
1.10875e-05;0.0013971682248165955
1.10878e-05;0.0014182896347026191
1.10880e-05;0.0014394110445886427
1.10883e-05;0.0014605324544745232
1.10885e-05;0.0014793371936734192
1.10888e-05;0.0014942055394424319
1.10890e-05;0.0015090738852113438
1.10893e-05;0.0015239422309803565
1.10895e-05;0.0015388105767493692
1.10897e-05;0.0015536789225182811
1.10900e-05;0.0015685472682872939
1.10903e-05;0.0015834156140563064
1.10905e-05;0.0015982839598252183
1.10908e-05;0.0016121645968825136
1.10910e-05;0.0016258982787060398
1.10912e-05;0.001639631960529473
1.10915e-05;0.0016533656423529989
1.10918e-05;0.001667099324176525
1.10920e-05;0.0016808330059999582
1.10923e-05;0.0016945666878234841
1.10925e-05;0.0017083003696470103
1.10928e-05;0.0017220340514705365
1.10930e-05;0.0017357677332939694
1.10933e-05;0.0017495014151174956
1.10935e-05;0.0017632350969410218
1.10938e-05;0.0017769687787644547
1.10940e-05;0.0017907024605879809
1.10943e-05;0.0018038045613743775
1.10945e-05;0.0018168126930199094
1.10948e-05;0.0018298208246655292
1.10950e-05;0.001842828956311149
1.10953e-05;0.0018558370879566807
1.10955e-05;0.0018688452196023006
1.10958e-05;0.0018818533512479205
1.10960e-05;0.0018948614828934523
1.10963e-05;0.0019078696145390722
1.10965e-05;0.0019208777461846918
1.10968e-05;0.0019338858778302236
1.10970e-05;0.0019468940094758435
1.10973e-05;0.0019599021411214634
1.10975e-05;0.0019729102727669952
1.10978e-05;0.0019828073173230863
1.10980e-05;0.001992241481957859
1.10983e-05;0.0020016756465925678
1.10985e-05;0.0020111098112273406
1.10988e-05;0.0020205439758621134
1.10990e-05;0.002029978140496822
1.10993e-05;0.002039412305131595
1.10995e-05;0.0020521399794988997
1.10997e-05;0.002065357675354479
1.11000e-05;0.0020785753712101473
1.11003e-05;0.0020917930670658162
1.11005e-05;0.002105010762921395
1.11008e-05;0.002118228458777064
1.11010e-05;0.0021314461546327323
1.11013e-05;0.0021532210287075596
1.11015e-05;0.002176269073821086
1.11018e-05;0.002199317118934769
1.11020e-05;0.0022223651640484515
1.11023e-05;0.002245413209161978
1.11025e-05;0.002268461254275661
1.11028e-05;0.0022915092993893438
1.11030e-05;0.0023145573445028703
1.11033e-05;0.002337605389616553
1.11035e-05;0.0023606534347302356
1.11038e-05;0.0023901253279654294
1.11040e-05;0.0024205529868958505
1.11043e-05;0.0024509806458262715
1.11045e-05;0.002481408304756486
1.11048e-05;0.0025118359636869068
1.11050e-05;0.002542263622617328
1.11053e-05;0.0025726912815475424
1.11055e-05;0.0026031189404779635
1.11058e-05;0.002633546599408384
1.11060e-05;0.002663974258338599
1.11063e-05;0.002692245361255857
1.11065e-05;0.002720195603184777
1.11068e-05;0.002748145845113508
1.11070e-05;0.002776096087042428
1.11073e-05;0.002804046328971348
1.11075e-05;0.002831996570900079
1.11078e-05;0.0028599468128289993
1.11080e-05;0.0028878970547579195
1.11082e-05;0.0029039570710420784
1.11085e-05;0.002918248012222752
1.11088e-05;0.0029325389534034254
1.11090e-05;0.0029468298945840017
1.11093e-05;0.002961120835764675
1.11095e-05;0.0029754117769453486
1.11098e-05;0.002989702718126022
1.11100e-05;0.003003993659306599
1.11103e-05;0.002997295059477313
1.11105e-05;0.0029874735521818034
1.11108e-05;0.00297765204488636
1.11110e-05;0.0029678305375908506
1.11113e-05;0.002958009030295341
1.11115e-05;0.002948187522999898
1.11118e-05;0.0029383660157043883
1.11120e-05;0.0029285445084088787
1.11123e-05;0.0029187230011134355
1.11125e-05;0.0029006684181251017
1.11128e-05;0.002868624524842728
1.11130e-05;0.0028365806315605716
1.11133e-05;0.002804536738278198
1.11135e-05;0.0027724928449958247
1.11138e-05;0.0027404489517136683
1.11140e-05;0.0027084050584312946
1.11143e-05;0.002676361165148921
1.11145e-05;0.0026443172718667645
1.11148e-05;0.002612273378584391
1.11150e-05;0.0025727368039590837
1.11153e-05;0.002532085438376927
1.11155e-05;0.0024914340727944947
1.11158e-05;0.0024507827072120627
1.11160e-05;0.002410131341629906
1.11163e-05;0.002369479976047474
1.11165e-05;0.002328828610465042
1.11167e-05;0.0022921930619993524
1.11170e-05;0.0022561550027902777
1.11173e-05;0.0022201169435812035
1.11175e-05;0.0021840788843723734
1.11178e-05;0.002148040825163299
1.11180e-05;0.002112002765954225
1.11183e-05;0.0020759647067451507
1.11185e-05;0.0020542487383690584
1.11188e-05;0.0020346636676809456
1.11190e-05;0.0020150785969928328
1.11193e-05;0.001995493526304853
1.11195e-05;0.0019759084556167403
1.11198e-05;0.0019563233849286274
1.11200e-05;0.0019367383142406475
1.11203e-05;0.0019171532435525347
1.11205e-05;0.001897568172864422
1.11208e-05;0.001877983102176442
1.11210e-05;0.001864598722003424
1.11213e-05;0.0018617503051704793
1.11215e-05;0.001858901888337554
1.11218e-05;0.0018560534715046093
1.11220e-05;0.0018532050546716647
1.11223e-05;0.0018503566378387393
1.11225e-05;0.001847508221005795
1.11228e-05;0.0018446598041728503
1.11230e-05;0.001841811387339925
1.11233e-05;0.0018389629705069803
1.11235e-05;0.0018361145536740357
1.11238e-05;0.0018416947050767032
1.11240e-05;0.0018485288924146301
1.11243e-05;0.001855363079752557
1.11245e-05;0.0018621972670904376
1.11248e-05;0.0018690314544283645
1.11250e-05;0.0018758656417662914
1.11252e-05;0.0018826998291041719
1.11255e-05;0.0018895340164420988
1.11258e-05;0.0018963682037800257
1.11260e-05;0.001905058979716428
1.11263e-05;0.0019140259862954695
1.11265e-05;0.001922992992874511
1.11268e-05;0.0019319599994535525
1.11270e-05;0.0019409270060325333
1.11273e-05;0.0019498940126115747
1.11275e-05;0.0019588610191906162
1.11278e-05;0.001967828025769597
1.11280e-05;0.0019767950323486385
1.11283e-05;0.0019786600783156306
1.11285e-05;0.0019794684663103925
1.11288e-05;0.001980276854305159
1.11290e-05;0.0019810852422999263
1.11293e-05;0.001981893630294688
1.11295e-05;0.001982702018289455
1.11298e-05;0.001983510406284222
1.11300e-05;0.001984318794278984
1.11303e-05;0.0019851271822737505
1.11305e-05;0.0019859355702685176
1.11308e-05;0.0019867439582632795
1.11310e-05;0.001987552346258046
1.11313e-05;0.0019883607342528133
1.11315e-05;0.001983715182698388
1.11318e-05;0.0019698025169371945
1.11320e-05;0.0019558898511760014
1.11323e-05;0.001941977185414902
1.11325e-05;0.001928064519653709
1.11328e-05;0.0019141518538925155
1.11330e-05;0.0019002391881314164
1.11333e-05;0.001886326522370223
1.11335e-05;0.0018724138566090297
1.11337e-05;0.0018585011908479306
1.11340e-05;0.0018445885250867372
1.11343e-05;0.0018306758593255438
1.11345e-05;0.0018167631935644447
1.11348e-05;0.0018028505278032513
1.11350e-05;0.0017840516427000907
1.11353e-05;0.0017645257664313462
1.11355e-05;0.001744999890162734
1.11358e-05;0.0017254740138939895
1.11360e-05;0.001705948137625245
1.11363e-05;0.0016864222613566329
1.11365e-05;0.0016668963850878884
1.11368e-05;0.001647370508819144
1.11370e-05;0.0016309610254004571
1.11373e-05;0.0016150152113161955
1.11375e-05;0.0015990693972319338
1.11378e-05;0.0015831235831477801
1.11380e-05;0.0015671777690635185
1.11383e-05;0.0015512319549792568
1.11385e-05;0.0015352861408951032
1.11388e-05;0.0015193403268108415
1.11390e-05;0.0015152289591095964
1.11393e-05;0.0015128783674543207
1.11395e-05;0.0015105277757990294
1.11398e-05;0.0015081771841437379
1.11400e-05;0.0015058265924884624
1.11403e-05;0.0015034760008331709
1.11405e-05;0.0015011254091778794
1.11408e-05;0.001498774817522604
1.11410e-05;0.0014964242258673124
1.11413e-05;0.001494073634212021
1.11415e-05;0.0014981827895366514
1.11418e-05;0.001513268086508128
1.11420e-05;0.001528353383479605
1.11422e-05;0.0015434386804509795
1.11425e-05;0.0015585239774224564
1.11428e-05;0.0015736092743939333
1.11430e-05;0.0015886945713653078
1.11433e-05;0.0016037798683367845
1.11435e-05;0.0016188651653082614
1.11438e-05;0.0016339504622797383
1.11440e-05;0.0016490357592511128
1.11443e-05;0.001672059934453895
1.11445e-05;0.0016962652875649237
1.11448e-05;0.0017204706406757882
1.11450e-05;0.001744675993786817
1.11453e-05;0.0017688813468978457
1.11455e-05;0.0017930867000087102
1.11458e-05;0.001817292053119739
1.11460e-05;0.001841354328950213
1.11463e-05;0.001865173493633473
1.11465e-05;0.0018889926583168944
1.11468e-05;0.0019128118230003158
1.11470e-05;0.001936630987683576
1.11473e-05;0.0019604501523669974
1.11475e-05;0.0019842693170504188
1.11478e-05;0.002008088481733679
1.11480e-05;0.0020199611492076777
