Time(s);Current(A)
1.37500e-05;-0.004674140132787733
1.37503e-05;-0.0046482470369069865
1.37505e-05;-0.00462235394102624
1.37508e-05;-0.004596460845145668
1.37510e-05;-0.004570302519520821
1.37513e-05;-0.0045440776067113475
1.37515e-05;-0.004517852693902051
1.37518e-05;-0.004491627781092577
1.37520e-05;-0.004465402868283103
1.37523e-05;-0.004439177955473807
1.37525e-05;-0.004412953042664333
1.37528e-05;-0.0043905236323646055
1.37530e-05;-0.004369047100963474
1.37533e-05;-0.004349510367813876
1.37535e-05;-0.004330460630211403
1.37538e-05;-0.004310126006575339
1.37540e-05;-0.004289468806209081
1.37543e-05;-0.00426636875907593
1.37545e-05;-0.004242655423681232
1.37548e-05;-0.004218942088286373
1.37550e-05;-0.004193377976050566
1.37553e-05;-0.00416734921751496
1.37555e-05;-0.004141320458979177
1.37558e-05;-0.004111377487949079
1.37560e-05;-0.004080451835316178
1.37563e-05;-0.004049526182683068
1.37565e-05;-0.004014103553003702
1.37568e-05;-0.003977551935918015
1.37570e-05;-0.0039410003188320815
1.37573e-05;-0.0039044487017461478
1.37575e-05;-0.003866179219452116
1.37578e-05;-0.0038238884822208307
1.37580e-05;-0.003781597744989258
1.37583e-05;-0.0037393070077576854
1.37585e-05;-0.0036970162705263995
1.37588e-05;-0.003652180017235587
1.37590e-05;-0.0036067047000703316
1.37593e-05;-0.0035608169687323605
1.37595e-05;-0.003514575198194301
1.37598e-05;-0.0034679245644732588
1.37600e-05;-0.0034209321051431167
1.37603e-05;-0.0033738443690203694
1.37605e-05;-0.003326944568473624
1.37608e-05;-0.003280517687425846
1.37610e-05;-0.003234848198984963
1.37613e-05;-0.0031901827956564766
1.37615e-05;-0.003146642228584836
1.37618e-05;-0.0031042751954922783
1.37620e-05;-0.003063236895485662
1.37623e-05;-0.003023794781093735
1.37625e-05;-0.0029862398882649793
1.37628e-05;-0.0029508635815812113
1.37630e-05;-0.0029179575043928193
1.37633e-05;-0.0028876732545643122
1.37635e-05;-0.002859679472823776
1.37638e-05;-0.002833328782382784
1.37640e-05;-0.002808307747683635
1.37643e-05;-0.0027846910477090634
1.37645e-05;-0.0027633369021644785
1.37648e-05;-0.002742478536122103
1.37650e-05;-0.0027246336223763
1.37653e-05;-0.0027075452501160837
1.37655e-05;-0.002693486583538779
1.37658e-05;-0.002680188538936703
1.37660e-05;-0.002666890494334627
1.37663e-05;-0.002657382875938768
1.37665e-05;-0.002648826862011904
1.37668e-05;-0.0026402708480850407
1.37670e-05;-0.002631714834158235
1.37673e-05;-0.002623158820231371
1.37675e-05;-0.0026187990088501777
1.37678e-05;-0.0026154926740119245
1.37680e-05;-0.002612186339173649
1.37683e-05;-0.0026088800043353733
1.37685e-05;-0.00260557366949712
1.37688e-05;-0.002605410491460866
1.37690e-05;-0.002606036417841223
1.37693e-05;-0.0026066623442215758
1.37695e-05;-0.0026072882706019325
1.37698e-05;-0.0026079141969822892
1.37700e-05;-0.002608540123362642
1.37703e-05;-0.0026109731533619806
1.37705e-05;-0.0026138598652922225
1.37708e-05;-0.002616746577222445
1.37710e-05;-0.0026196332891526863
1.37713e-05;-0.002622520001082928
1.37715e-05;-0.0026254067130131505
1.37718e-05;-0.002628563218751795
1.37720e-05;-0.0026317874575051137
1.37723e-05;-0.0026350116962584108
1.37725e-05;-0.0026379750123264787
1.37728e-05;-0.0026407056980014497
1.37730e-05;-0.002643204968860949
1.37733e-05;-0.002645699852473701
1.37735e-05;-0.0026492541053961464
1.37738e-05;-0.002655368907347501
1.37740e-05;-0.0026647789319886187
1.37743e-05;-0.0026774399112136937
1.37745e-05;-0.0026931463172059785
1.37748e-05;-0.002711688322832246
1.37750e-05;-0.002732856147682806
1.37753e-05;-0.0027578660599037377
1.37755e-05;-0.002783710377764464
1.37758e-05;-0.0028156177981226212
1.37760e-05;-0.0028490473891078
1.37763e-05;-0.0028898130887626767
1.37765e-05;-0.0029324205532798332
1.37768e-05;-0.0029750280177969894
1.37770e-05;-0.003024607502719416
1.37773e-05;-0.003075937346419348
1.37775e-05;-0.00312726719011928
1.37778e-05;-0.00318444322804946
1.37780e-05;-0.003243086980758491
1.37783e-05;-0.003305879348330519
1.37785e-05;-0.0033697132453321273
1.37788e-05;-0.0034364343207060393
1.37790e-05;-0.003503880235898405
1.37793e-05;-0.00357316917345254
1.37795e-05;-0.0036429208105090097
1.37798e-05;-0.00371388400725225
1.37800e-05;-0.0037857506378800474
1.37803e-05;-0.0038580195205180387
1.37805e-05;-0.0039302511215595914
1.37808e-05;-0.004002005623133177
1.37810e-05;-0.00407284269655464
1.37813e-05;-0.0041423612810311955
1.37815e-05;-0.004210289329867455
1.37818e-05;-0.004276422292905659
1.37820e-05;-0.004340437016120567
1.37823e-05;-0.004400643623219359
1.37825e-05;-0.004460004494310844
1.37828e-05;-0.004511920135714523
1.37830e-05;-0.004561966616906635
1.37833e-05;-0.004612013098098408
1.37835e-05;-0.004652370451731382
1.37838e-05;-0.004690295303953586
1.37840e-05;-0.0047282201561755334
1.37843e-05;-0.00475207912922496
1.37845e-05;-0.00477240679662028
1.37848e-05;-0.004792734464015462
1.37850e-05;-0.0048130621314107815
1.37853e-05;-0.0048333897988061016
1.37855e-05;-0.004853717466201284
1.37858e-05;-0.004855835819552525
1.37860e-05;-0.0048533826382807675
1.37863e-05;-0.0048509294570090265
1.37865e-05;-0.00484847627573727
1.37868e-05;-0.004846023094465512
1.37870e-05;-0.004843569913193771
1.37873e-05;-0.004826210391375137
1.37875e-05;-0.004805108562089715
1.37878e-05;-0.004784006732804435
1.37880e-05;-0.0047629049035190114
1.37883e-05;-0.004741803074233589
1.37885e-05;-0.004720701244948309
1.37888e-05;-0.004690000860410322
1.37890e-05;-0.004656890713068236
1.37893e-05;-0.004623780565726374
1.37895e-05;-0.004590670418384288
1.37898e-05;-0.004557560271042202
1.37900e-05;-0.004524450123700341
1.37903e-05;-0.004488090849958396
1.37905e-05;-0.004450915867629187
1.37908e-05;-0.004413740885300229
1.37910e-05;-0.004376401259888153
1.37913e-05;-0.004339020300049524
1.37915e-05;-0.004302469193458638
1.37918e-05;-0.004266126425460308
1.37920e-05;-0.004231601183099182
1.37923e-05;-0.00419753223916653
1.37925e-05;-0.004171214981903015
1.37928e-05;-0.004146843822329619
1.37930e-05;-0.004122472662756223
1.37933e-05;-0.0040981015031829925
1.37935e-05;-0.004073730343609596
1.37938e-05;-0.0040493591840362
1.37940e-05;-0.004024988024462969
1.37943e-05;-0.004000616864889573
1.37945e-05;-0.003976245705316177
1.37948e-05;-0.003962480314669808
1.37950e-05;-0.003951377552596529
1.37953e-05;-0.003940274790523251
1.37955e-05;-0.003929172028450048
1.37958e-05;-0.003918069266376769
1.37960e-05;-0.003906966504303491
1.37963e-05;-0.003895863742230288
1.37965e-05;-0.0038847609801570095
1.37968e-05;-0.003873658218083731
1.37970e-05;-0.003870314100486709
1.37973e-05;-0.003868917827370959
1.37975e-05;-0.003867521554255209
1.37978e-05;-0.0038661252811394687
1.37980e-05;-0.003864729008023719
1.37983e-05;-0.0038633327349079693
1.37985e-05;-0.003861936461792229
1.37988e-05;-0.003860540188676479
1.37990e-05;-0.003859143915560729
1.37993e-05;-0.0038592353425784677
1.37995e-05;-0.0038628092439415822
1.37998e-05;-0.0038663831453046964
1.38000e-05;-0.003869957046667811
1.38003e-05;-0.003873530948030901
1.38005e-05;-0.0038771048493940153
1.38008e-05;-0.00388067875075713
1.38010e-05;-0.0038842526521202197
1.38013e-05;-0.0038878265534833343
1.38015e-05;-0.003891400454846449
1.38018e-05;-0.0038948247649771596
1.38020e-05;-0.0038982115195197544
1.38023e-05;-0.0039015982740623492
1.38025e-05;-0.0039049850286049215
1.38028e-05;-0.003908371783147516
1.38030e-05;-0.003911758537690111
1.38033e-05;-0.0039151452922326834
1.38035e-05;-0.003918532046775278
1.38038e-05;-0.003917469483296915
1.38040e-05;-0.0039152898974340235
1.38043e-05;-0.003913110311571117
1.38045e-05;-0.0039109307257082105
1.38048e-05;-0.003908751139845319
1.38050e-05;-0.003906571553982412
1.38053e-05;-0.0039043919681195052
1.38055e-05;-0.0039022123822566135
1.38058e-05;-0.003893512055607694
1.38060e-05;-0.0038831746660677666
1.38063e-05;-0.003872837276527909
1.38065e-05;-0.003862499886987982
1.38068e-05;-0.0038521624974480547
1.38070e-05;-0.0038418251079081977
1.38073e-05;-0.0038314877183682704
1.38075e-05;-0.003821150328828343
1.38078e-05;-0.0038075530341642586
1.38080e-05;-0.0037911358820883344
1.38083e-05;-0.0037742162583145025
1.38085e-05;-0.0037572966345407856
1.38088e-05;-0.003740377010766954
1.38090e-05;-0.0037234573869931223
1.38093e-05;-0.003706537763219291
1.38095e-05;-0.0036890389761780316
1.38098e-05;-0.0036701844581152384
1.38100e-05;-0.003651329940052445
1.38103e-05;-0.0036324754219897795
1.38105e-05;-0.0036136209039269863
1.38108e-05;-0.003594766385864193
1.38110e-05;-0.0035759118678015274
1.38113e-05;-0.003557718441679038
1.38115e-05;-0.0035396909858226356
1.38118e-05;-0.003521663529966355
1.38120e-05;-0.003504994596668765
1.38123e-05;-0.0034886667269008213
1.38125e-05;-0.003472338857132988
1.38128e-05;-0.00345818881708098
1.38130e-05;-0.003444585531505074
1.38133e-05;-0.0034309822459292596
1.38135e-05;-0.003420047927705599
1.38138e-05;-0.0034097836663903322
1.38140e-05;-0.0033995194050751355
1.38143e-05;-0.003393915904247359
1.38145e-05;-0.0033894825094384962
1.38148e-05;-0.003385049114629663
1.38150e-05;-0.0033806157198208
1.38153e-05;-0.003376182325011937
1.38155e-05;-0.003371748930203104
1.38158e-05;-0.003367315535394241
1.38160e-05;-0.0033691632148183884
1.38163e-05;-0.0033725877877097948
1.38165e-05;-0.003376012360601224
1.38168e-05;-0.0033794369334926534
1.38170e-05;-0.0033828615063840593
1.38173e-05;-0.0033862860792754886
1.38175e-05;-0.003389710652166918
1.38178e-05;-0.003398112310654955
1.38180e-05;-0.003407763490080308
1.38183e-05;-0.003417414669505726
1.38185e-05;-0.0034270658489311445
1.38188e-05;-0.0034367170283564974
1.38190e-05;-0.003446368207781916
1.38193e-05;-0.003456019387207334
1.38195e-05;-0.003465670566632687
1.38198e-05;-0.003477427901131212
1.38200e-05;-0.003489713995847031
1.38203e-05;-0.0035020000905627664
1.38205e-05;-0.003514286185278585
1.38208e-05;-0.003526572279994404
1.38210e-05;-0.0035388583747101394
1.38213e-05;-0.003551144469425958
1.38215e-05;-0.003563430564141777
1.38218e-05;-0.0035749699878984756
1.38220e-05;-0.0035863219563706784
1.38223e-05;-0.003597673924842881
1.38225e-05;-0.003607913932147676
1.38228e-05;-0.003617874776329154
1.38230e-05;-0.003626576603417213
1.38233e-05;-0.003634962348294316
1.38235e-05;-0.00364100825689553
1.38238e-05;-0.0036464667385053694
1.38240e-05;-0.003647648408218797
1.38243e-05;-0.0036477563640272383
1.38245e-05;-0.0036478643198356794
1.38248e-05;-0.0036430281443649544
1.38250e-05;-0.003636950721294073
1.38253e-05;-0.0036308732982231915
1.38255e-05;-0.003619446277712946
1.38258e-05;-0.0036066762154004623
1.38260e-05;-0.0035939061530879785
1.38263e-05;-0.003574384876556769
1.38265e-05;-0.0035531686756853126
1.38268e-05;-0.0035319524748137127
1.38270e-05;-0.0035107362739421125
1.38273e-05;-0.003486986794142714
1.38275e-05;-0.0034573073028545814
1.38278e-05;-0.0034276278115664494
1.38280e-05;-0.0033979483202785186
1.38283e-05;-0.0033682688289903865
1.38285e-05;-0.003334591645666828
1.38288e-05;-0.0032999108228028884
1.38290e-05;-0.0032636093760142456
1.38293e-05;-0.003226901063905133
1.38295e-05;-0.003189265006014987
1.38298e-05;-0.0031508659990479434
1.38300e-05;-0.0031119391905447833
1.38303e-05;-0.003072700375253382
1.38305e-05;-0.0030333790758943226
1.38308e-05;-0.002994204956928843
1.38310e-05;-0.0029554079615868047
1.38313e-05;-0.002917204912912622
1.38315e-05;-0.002879772653433489
1.38318e-05;-0.0028432697019466265
1.38320e-05;-0.0028078978841457056
1.38323e-05;-0.0027739000639896766
1.38325e-05;-0.002741527092743121
1.38328e-05;-0.002711030147946929
1.38330e-05;-0.002682660453865831
1.38333e-05;-0.0026567183671388763
1.38335e-05;-0.002633643318513111
1.38338e-05;-0.002613887760356134
1.38340e-05;-0.00259767665534381
1.38343e-05;-0.002585048391073162
1.38345e-05;-0.002576004647222669
1.38348e-05;-0.0025705463083918433
1.38350e-05;-0.002568673933688258
1.38353e-05;-0.0025704192548296023
1.38355e-05;-0.0025774547600433038
1.38358e-05;-0.002585635730369342
1.38360e-05;-0.0026013408399511847
1.38363e-05;-0.0026189349203695725
1.38365e-05;-0.0026365290007878414
1.38368e-05;-0.0026622151584510564
1.38370e-05;-0.002689932870475904
1.38373e-05;-0.0027176505825005637
1.38375e-05;-0.002752573135383493
1.38378e-05;-0.0027893044977263274
1.38380e-05;-0.002826035860068913
1.38383e-05;-0.0028679013694261324
1.38385e-05;-0.002911055830735446
1.38388e-05;-0.002957384168985874
1.38390e-05;-0.0030045093240920607
1.38393e-05;-0.003054034800404521
1.38395e-05;-0.0031041628887368937
1.38398e-05;-0.003155999164562655
1.38400e-05;-0.003208264288958145
1.38403e-05;-0.0032613226034274006
1.38405e-05;-0.003314580052026143
1.38408e-05;-0.0033676216159496206
1.38410e-05;-0.0034206089810013655
1.38413e-05;-0.0034723961389234934
1.38415e-05;-0.0035238819791546735
1.38418e-05;-0.0035732340040887734
1.38420e-05;-0.00362205032457514
1.38423e-05;-0.0036666224950282697
1.38425e-05;-0.0037101291514909226
1.38428e-05;-0.00375363580795387
1.38430e-05;-0.0037902760910270418
1.38433e-05;-0.0038251925385025943
1.38435e-05;-0.00386010898597791
1.38438e-05;-0.003890881006010952
1.38440e-05;-0.003920612547882976
1.38443e-05;-0.0039503440897548
1.38445e-05;-0.003975129788159704
1.38448e-05;-0.0039986738091104986
1.38450e-05;-0.004022217830061133
1.38453e-05;-0.004045761851011928
1.38455e-05;-0.004069305871962722
1.38458e-05;-0.00408797864132377
1.38460e-05;-0.00410542845987531
1.38463e-05;-0.004122878278426851
1.38465e-05;-0.004140328096978273
1.38468e-05;-0.004157777915529813
1.38470e-05;-0.004169766958732437
1.38473e-05;-0.004180385048390128
1.38475e-05;-0.00419100313804789
1.38478e-05;-0.004201621227705653
1.38480e-05;-0.004212239317363344
1.38483e-05;-0.004222857407021107
1.38485e-05;-0.0042334754966788695
1.38488e-05;-0.004244093586336561
1.38490e-05;-0.0042547116759943234
1.38493e-05;-0.004265329765652086
1.38495e-05;-0.0042759478553097766
1.38498e-05;-0.004284917149740673
1.38500e-05;-0.004290026871292444
1.38503e-05;-0.00429513659284418
1.38505e-05;-0.004300246314395951
1.38508e-05;-0.004305356035947721
1.38510e-05;-0.0043104657574994576
1.38513e-05;-0.004315575479051229
1.38515e-05;-0.004320685200602999
1.38518e-05;-0.00432579492215477
1.38520e-05;-0.004330904643706506
1.38523e-05;-0.004336014365258277
1.38525e-05;-0.004341124086810048
1.38528e-05;-0.004343363908510591
1.38530e-05;-0.004344883228244997
1.38533e-05;-0.004346402547979403
1.38535e-05;-0.004347921867713799
1.38538e-05;-0.004349441187448204
1.38540e-05;-0.00435096050718261
1.38543e-05;-0.0043524798269170065
1.38545e-05;-0.004348818339834272
1.38548e-05;-0.004343856186633675
1.38550e-05;-0.004338894033433112
1.38553e-05;-0.0043339318802325145
1.38555e-05;-0.0043289697270319175
1.38558e-05;-0.0043240075738313535
1.38560e-05;-0.0043190454206307564
1.38563e-05;-0.004307920650609456
1.38565e-05;-0.004295248726413358
1.38568e-05;-0.004282576802217174
1.38570e-05;-0.004269904878020991
1.38573e-05;-0.004257232953824893
1.38575e-05;-0.004244561029628709
1.38578e-05;-0.0042318891054325255
1.38580e-05;-0.004219217181236428
1.38583e-05;-0.004202120877423544
1.38585e-05;-0.004183913812128116
1.38588e-05;-0.004165706746832811
1.38590e-05;-0.004147499681537383
1.38593e-05;-0.004129292616241955
1.38595e-05;-0.00411108555094665
1.38598e-05;-0.004092878485651222
1.38600e-05;-0.004074671420355794
1.38603e-05;-0.0040558208357225085
1.38605e-05;-0.004036808692508094
1.38608e-05;-0.0040177965492935504
1.38610e-05;-0.003998784406079006
1.38613e-05;-0.0039797722628645915
1.38615e-05;-0.003960760119650048
1.38618e-05;-0.003941747976435504
1.38620e-05;-0.003924174019153603
1.38623e-05;-0.003909966631189672
1.38625e-05;-0.003895759243225741
1.38628e-05;-0.003881551855261907
1.38630e-05;-0.003867344467297976
1.38633e-05;-0.003853137079334045
1.38635e-05;-0.0038389296913702107
1.38638e-05;-0.0038247223034062797
1.38640e-05;-0.0038171290093687894
1.38643e-05;-0.003811196214975144
1.38645e-05;-0.003805263420581458
1.38648e-05;-0.003799330626187772
1.38650e-05;-0.003793397831794126
1.38653e-05;-0.0037874650374004402
1.38655e-05;-0.0037815322430067543
1.38658e-05;-0.0037755994486131086
1.38660e-05;-0.0037696666542194226
1.38663e-05;-0.0037661447462821736
1.38665e-05;-0.003768266348124114
1.38668e-05;-0.0037703879499660685
1.38670e-05;-0.003772509551808023
1.38673e-05;-0.0037746311536499635
1.38675e-05;-0.0037767527554919186
1.38678e-05;-0.003778874357333873
1.38680e-05;-0.0037809959591758135
1.38683e-05;-0.003783117561017768
1.38685e-05;-0.003785239162859723
1.38688e-05;-0.0037909575919181575
1.38690e-05;-0.0037975790215052244
1.38693e-05;-0.003804200451092336
1.38695e-05;-0.0038108218806794476
1.38698e-05;-0.0038174433102665145
1.38700e-05;-0.0038240647398536266
1.38703e-05;-0.003830686169440738
1.38705e-05;-0.003837307599027805
1.38708e-05;-0.003843998712572639
1.38710e-05;-0.003850852945411564
1.38713e-05;-0.0038577071782504428
1.38715e-05;-0.0038645614110893677
1.38718e-05;-0.003871415643928293
1.38720e-05;-0.0038782698767671716
1.38723e-05;-0.003885124109606097
1.38725e-05;-0.0038919783424450224
1.38728e-05;-0.003898832575283901
1.38730e-05;-0.003904191117054639
1.38733e-05;-0.003909174158490119
1.38735e-05;-0.003914157199925565
1.38738e-05;-0.0039208803959148025
1.38740e-05;-0.003928040465956618
1.38743e-05;-0.003935200535998385
1.38745e-05;-0.0039423606060402005
1.38748e-05;-0.003949520676082016
1.38750e-05;-0.003956680746123783
1.38753e-05;-0.003963840816165598
1.38755e-05;-0.003972387388436028
1.38758e-05;-0.003984179546523043
1.38760e-05;-0.003995971704610138
1.38763e-05;-0.004007763862697232
1.38765e-05;-0.004019556020784246
1.38768e-05;-0.004031348178871341
1.38770e-05;-0.004043140336958436
1.38773e-05;-0.00405493249504553
1.38775e-05;-0.004070434263196449
1.38778e-05;-0.004086867346545253
1.38780e-05;-0.004103300429894057
1.38783e-05;-0.00411973351324275
1.38785e-05;-0.004136166596591554
1.38788e-05;-0.004152599679940358
1.38790e-05;-0.0041690327632890505
1.38793e-05;-0.004185465846637855
1.38795e-05;-0.004201898929986659
1.38798e-05;-0.004219105393302008
1.38800e-05;-0.004236506017325552
1.38803e-05;-0.004253906641349095
1.38805e-05;-0.004271307265372521
1.38808e-05;-0.004288707889396064
1.38810e-05;-0.0043061085134196075
1.38813e-05;-0.004323509137443033
1.38815e-05;-0.004340909761466577
1.38818e-05;-0.0043583103854901205
1.38820e-05;-0.00437346522989064
1.38823e-05;-0.004388056260667141
1.38825e-05;-0.004402647291443642
1.38828e-05;-0.0044163650595836195
1.38830e-05;-0.004428038655872097
1.38833e-05;-0.004439712252160573
1.38835e-05;-0.00445138584844897
1.38838e-05;-0.004463835069810162
1.38840e-05;-0.004476479015524001
1.38843e-05;-0.0044891229612377525
1.38845e-05;-0.004503839068975516
1.38848e-05;-0.0045190754028159395
1.38850e-05;-0.0045343117366562595
1.38853e-05;-0.004549548070496683
1.38855e-05;-0.004566043509302738
1.38858e-05;-0.004585486316771841
1.38860e-05;-0.004604929124240812
1.38863e-05;-0.004624371931709915
1.38865e-05;-0.004643814739179018
1.38868e-05;-0.004667359934477226
1.38870e-05;-0.0046919350536944624
1.38873e-05;-0.004716510172911699
1.38875e-05;-0.00474108529212877
1.38878e-05;-0.004765660411346006
1.38880e-05;-0.004790235530563243
1.38883e-05;-0.004818221007289648
1.38885e-05;-0.004847062670441628
1.38888e-05;-0.004875904333593607
1.38890e-05;-0.0049047459967453905
1.38893e-05;-0.00493358765989737
1.38895e-05;-0.004962429323049349
1.38898e-05;-0.004992290358897179
1.38900e-05;-0.005022407313094666
1.38903e-05;-0.005052524267292152
1.38905e-05;-0.005080118616434425
1.38908e-05;-0.005107079653614997
1.38910e-05;-0.005134040690795568
1.38913e-05;-0.005147457630129798
1.38915e-05;-0.00518195340419562
1.38918e-05;-0.015083700393515724
1.38920e-05;-0.03336003828728154
1.38923e-05;-0.025448099715972325
1.38925e-05;-0.01975395611921682
1.38928e-05;-0.014877663799431598
1.38930e-05;0.006680272125240958
1.38933e-05;0.0031500284402137834
1.38935e-05;0.0015092829781803026
1.38938e-05;-0.005098809499035608
1.38940e-05;-0.014038504221544134
1.38943e-05;-0.015264719941147493
1.38945e-05;-0.011936331104933489
1.38948e-05;-0.006511721863332955
1.38950e-05;6.835107829345627e-05
1.38953e-05;0.001590059614679258
1.38955e-05;1.2895906881690164e-05
