Time(s);Current(A)
4.25000e-06;0.0012279917014559028
4.25025e-06;0.00126030523815339
4.25050e-06;0.001292618774850768
4.25075e-06;0.0013251850532462505
4.25100e-06;0.0013601919554269812
4.25125e-06;0.0013951988576075933
4.25150e-06;0.0014302057597882054
4.25175e-06;0.001465212661968936
4.25200e-06;0.0015002195641495482
4.25225e-06;0.0015345509076461245
4.25250e-06;0.001562358655689343
4.25275e-06;0.0015901664037325613
4.25300e-06;0.001617974151775874
4.25325e-06;0.0016457818998190925
4.25350e-06;0.001673589647862311
4.25375e-06;0.0017013973959056237
4.25400e-06;0.0017292051439488421
4.25425e-06;0.0017570128919920606
4.25450e-06;0.0017848206400353733
4.25475e-06;0.0018056345160988247
4.25500e-06;0.0018216648691516631
4.25525e-06;0.001837695222204556
4.25550e-06;0.0018537255752573945
4.25575e-06;0.0018697559283102332
4.25600e-06;0.0018857862813631261
4.25625e-06;0.0019018166344159646
4.25650e-06;0.0019178469874688575
4.25675e-06;0.0019338773405216962
4.25700e-06;0.0019491361584275358
4.25725e-06;0.0019569445752152933
4.25750e-06;0.0019647529920030246
4.25775e-06;0.0019725614087907554
4.25800e-06;0.0019803698255785127
4.25825e-06;0.001988178242366244
4.25850e-06;0.001995986659153975
4.25875e-06;0.0020037950759417326
4.25900e-06;0.0020116034927294634
4.25925e-06;0.0020194119095171947
4.25950e-06;0.002027220326304952
4.25975e-06;0.002035028743092683
4.26000e-06;0.002042837159880414
4.26025e-06;0.0020506455766681714
4.26050e-06;0.0020584539934559026
4.26075e-06;0.00206626241024366
4.26100e-06;0.0020740708270313908
4.26125e-06;0.002081879243819122
4.26150e-06;0.0020896876606068793
4.26175e-06;0.0020968736709509176
4.26200e-06;0.00209804935541317
4.26225e-06;0.0020992250398754264
4.26250e-06;0.002100400724337679
4.26275e-06;0.0021015764087999314
4.26300e-06;0.0021027520932621877
4.26325e-06;0.00210392777772444
4.26350e-06;0.0021051034621866927
4.26375e-06;0.002106279146648949
4.26400e-06;0.0021074548311112015
4.26425e-06;0.0021086305155734535
4.26450e-06;0.0021098062000357103
4.26475e-06;0.0021109818844979623
4.26500e-06;0.0021121575689602187
4.26525e-06;0.002113333253422471
4.26550e-06;0.0021145089378847236
4.26575e-06;0.00211568462234698
4.26600e-06;0.0021168603068092325
4.26625e-06;0.002118035991271485
4.26650e-06;0.002118357130212068
4.26675e-06;0.002110426270612643
4.26700e-06;0.002102495411013217
4.26725e-06;0.0020945645514137646
4.26750e-06;0.002086633691814339
4.26775e-06;0.0020787028322149133
4.26800e-06;0.0020707719726154607
4.26825e-06;0.002062841113016035
4.26850e-06;0.00205491025341661
4.26875e-06;0.0020469793938171573
4.26900e-06;0.0020390485342177316
4.26925e-06;0.002031117674618279
4.26950e-06;0.002020571067783667
4.26975e-06;0.0020082353965907426
4.27000e-06;0.0019958997253977768
4.27025e-06;0.0019835640542048526
4.27050e-06;0.0019712283830119284
4.27075e-06;0.0019588927118189626
4.27100e-06;0.0019465570406260384
4.27125e-06;0.0019342213694331144
4.27150e-06;0.0019218856982401486
4.27175e-06;0.0019095500270472244
4.27200e-06;0.0018972143558543004
4.27225e-06;0.00188520379039433
4.27250e-06;0.0018763326387691605
4.27275e-06;0.001867461487143991
4.27300e-06;0.0018585903355187914
4.27325e-06;0.0018497191838936218
4.27350e-06;0.0018408480322684223
4.27375e-06;0.0018319768806432527
4.27400e-06;0.0018231057290180833
4.27425e-06;0.0018142345773928836
4.27450e-06;0.0018053634257677142
4.27475e-06;0.0017964922741425446
4.27500e-06;0.001787621122517345
4.27525e-06;0.0017787499708921755
4.27550e-06;0.001769878819267006
4.27575e-06;0.0017610076676418064
4.27600e-06;0.0017576062776717383
4.27625e-06;0.0017545781277783393
4.27650e-06;0.00175154997788493
4.27675e-06;0.0017485218279915309
4.27700e-06;0.0017454936780981318
4.27725e-06;0.0017424655282047225
4.27750e-06;0.0017394373783113234
4.27775e-06;0.001736409228417914
4.27800e-06;0.001733381078524515
4.27825e-06;0.001730352928631116
4.27850e-06;0.0017273247787377066
4.27875e-06;0.0017242966288443075
4.27900e-06;0.0017212684789509084
4.27925e-06;0.0017182403290574991
4.27950e-06;0.0017165992843754972
4.27975e-06;0.001715615845809951
4.28000e-06;-0.054933982921631354
4.28025e-06;-0.022343044387694518
4.28050e-06;0.00028344260868898297
4.28075e-06;0.02231659044917042
4.28100e-06;0.03205822194825234
4.28125e-06;0.02189683054130996
4.28150e-06;0.004583598201858011
4.28175e-06;-0.014630906820534589
4.28200e-06;-0.0234041342827992
4.28225e-06;-0.013222917318311671
4.28250e-06;0.001835507214789753
4.28275e-06;0.015468716666369262
4.28300e-06;0.021485470314989978
4.28325e-06;0.015067510184295814
4.28350e-06;0.0041835340666087385
4.28375e-06;-0.007884608302995548
4.28400e-06;-0.013408603144903742
4.28425e-06;-0.007057643403031093
4.28450e-06;0.0023494482399104843
4.28475e-06;0.01086480687184116
4.28500e-06;0.01461048485155654
4.28525e-06;0.010568806957185116
4.28550e-06;0.0037317439605502583
4.28575e-06;-0.0038448814178312
4.28600e-06;-0.007320300368725045
4.28625e-06;-0.003355909378983749
4.28650e-06;0.0025236873969753945
4.28675e-06;0.007845415825023594
4.28700e-06;0.010180221573918513
4.28725e-06;0.00763812450752944
4.28750e-06;0.0033463207774287076
4.28775e-06;-0.0014073934990163524
4.28800e-06;-0.003590931156380316
4.28825e-06;-0.0011133922387593347
4.28850e-06;0.0025642857733231784
4.28875e-06;0.005892869969110476
4.28900e-06;0.00735084285371646
4.28925e-06;0.005754486953556455
4.28950e-06;0.003062802978868692
4.28975e-06;8.246881044444879e-05
4.29000e-06;-0.0012873393103220673
4.29025e-06;0.000262851478615515
4.29050e-06;0.002564890330187615
4.29075e-06;0.004648259873026814
4.29100e-06;0.0055598922806668165
4.29125e-06;0.00455839531303352
4.29150e-06;0.0028709499277344433
4.29175e-06;0.0010028454912875137
4.29200e-06;0.0001436339139908283
4.29225e-06;0.001113386198985284
4.29250e-06;0.0025538198895547876
4.29275e-06;0.003856938966394887
4.29300e-06;0.0044257337676573295
4.29325e-06;0.00379583660539702
4.29350e-06;0.0027359780610204673
4.29375e-06;0.0015626476544786452
4.29400e-06;0.0010209435787997974
4.29425e-06;0.001624707329754527
4.29450e-06;0.00252368297887704
4.29475e-06;0.0033376589026113757
4.29500e-06;0.00369291365103558
4.29525e-06;0.003298577773873731
4.29550e-06;0.002636157476923557
4.29575e-06;0.0019038449091192664
4.29600e-06;0.0015682821696834622
4.29625e-06;0.0019512168523736313
4.29650e-06;0.00251993753831289
4.29675e-06;0.003036203621097182
4.29700e-06;0.0032658617892018208
4.29725e-06;0.0030266760882045976
4.29750e-06;0.0026202207635223265
4.29775e-06;0.0021705831782695764
4.29800e-06;0.0019699884117772653
4.29825e-06;0.002219877811851666
4.29850e-06;0.002586466989115663
4.29875e-06;0.0029204495789987143
4.29900e-06;0.0030750934565908477
4.29925e-06;0.0029361995727499885
4.29950e-06;0.0026926234877152158
4.29975e-06;0.002422031439069866
4.30000e-06;0.0023073993536174087
4.30025e-06;0.002474821840379117
4.30050e-06;0.0027151328997231648
4.30075e-06;0.00293473762535063
4.30100e-06;0.0030416619356096303
4.30125e-06;0.002964317994368204
4.30150e-06;0.00282094904892739
4.30175e-06;0.0026601421251078072
4.30200e-06;0.002596442419265419
4.30225e-06;0.002708756333857887
4.30250e-06;0.002865985753754062
4.30275e-06;0.0030094349648007467
4.30300e-06;0.003081428959076723
4.30325e-06;0.0030370672970296674
4.30350e-06;0.002950358412991369
4.30375e-06;0.0028516732471332174
4.30400e-06;0.002812665828963312
4.30425e-06;0.0028824705058828172
4.30450e-06;0.0029783862416887905
4.30475e-06;0.0030631325939320703
4.30500e-06;0.0031004749618897555
4.30525e-06;0.0030624188499383887
4.30550e-06;0.0029954760621329355
4.30575e-06;0.002918820553682218
4.30600e-06;0.002877483186296345
4.30625e-06;0.0029023855570972363
4.30650e-06;0.002941868349852873
4.30675e-06;0.002972726975424393
4.30700e-06;0.002972414782658598
4.30725e-06;0.0029235480109597034
4.30750e-06;0.002855412895493856
4.30775e-06;0.0027801699110846676
4.30800e-06;0.0027261743711595884
4.30825e-06;0.0027129410642899796
4.30850e-06;0.0027082570957926103
4.30875e-06;0.0026977361444134136
4.30900e-06;0.002667404448707644
4.30925e-06;0.002606523945866262
4.30950e-06;0.0025335905490307953
4.30975e-06;0.00245637095231908
4.31000e-06;0.0023927752210614627
4.31025e-06;0.002355174602826696
4.31050e-06;0.002323538664792569
4.31075e-06;0.0022890042863599963
4.31100e-06;0.002242968130663941
4.31125e-06;0.002178854157146853
4.31150e-06;0.0021083448933043184
4.31175e-06;0.0020365435316761983
4.31200e-06;0.001974872644055411
4.31225e-06;0.0019310672548689487
4.31250e-06;0.001892988563480044
4.31275e-06;0.001854921684565211
4.31300e-06;0.001811432730273329
4.31325e-06;0.001759123271337341
4.31350e-06;0.0017057699231124233
4.31375e-06;0.0016537872222876857
4.31400e-06;0.0016098943648329028
4.31425e-06;0.001580731348553121
4.31450e-06;0.0015584439879554658
4.31475e-06;0.001538423521191872
4.31500e-06;0.001516558081306641
4.31525e-06;0.0014922078646626507
4.31550e-06;0.0014698064849493974
4.31575e-06;0.0014500344484826499
4.31600e-06;0.0014365313761821664
4.31625e-06;0.0014345922080986752
4.31650e-06;0.0014388994535363437
4.31675e-06;0.0014459272718920768
4.31700e-06;0.001452894582223437
4.31725e-06;0.001459780606717161
4.31750e-06;0.001468755375166402
4.31775e-06;0.0014805361400740005
4.31800e-06;0.0014978596983385628
4.31825e-06;0.0015226293863637636
4.31850e-06;0.0015500504982604835
4.31875e-06;0.0015810335048421476
4.31900e-06;0.0016124367557156431
4.31925e-06;0.0016444045583097486
4.31950e-06;0.0016763723609038539
4.31975e-06;0.0017107634982817513
4.32000e-06;0.001748410117884789
4.32025e-06;0.0017887074161869068
4.32050e-06;0.0018325656081166644
4.32075e-06;0.001876423800046422
4.32100e-06;0.0019197206450914052
4.32125e-06;0.0019622633826896258
4.32150e-06;0.002004806120287846
4.32175e-06;0.0020476772306620484
4.32200e-06;0.002090989473537545
4.32225e-06;0.002134301716413041
4.32250e-06;0.0021765978086574875
4.32275e-06;0.002217528814930121
4.32300e-06;0.002258459821202755
4.32325e-06;0.002296252259361733
4.32350e-06;0.002329828378431985
4.32375e-06;0.002363404497502237
4.32400e-06;0.0023946197107028193
4.32425e-06;0.002422663308018568
4.32450e-06;0.002450706905334316
4.32475e-06;0.002476570359121314
4.32500e-06;0.00249950503123358
4.32525e-06;0.002522439703345924
4.32550e-06;0.002543093054034196
4.32575e-06;0.0025606817017375257
4.32600e-06;0.002578270349440915
4.32625e-06;0.0025941994147137865
4.32650e-06;0.002607899014565951
4.32675e-06;0.0026215986144181623
4.32700e-06;0.0026336021018174885
4.32725e-06;0.0026433270497518376
4.32750e-06;0.00265305199768622
4.32775e-06;0.0026613282305086817
4.32800e-06;0.002667658274827914
4.32825e-06;0.002673988319147168
4.32850e-06;0.002679234948578177
4.32875e-06;0.002683026129948793
4.32900e-06;0.0026868173113194214
4.32925e-06;0.0026895348147252655
4.32950e-06;0.0026908099505503474
4.32975e-06;0.002692085086375425
4.33000e-06;0.0026926297211095013
4.33025e-06;0.00269219300843222
4.33050e-06;0.0026917562957549396
4.33075e-06;0.0026907822969916366
4.33100e-06;0.002689086513803685
4.33125e-06;0.00268739073061574
4.33150e-06;0.002685281624962552
4.33175e-06;0.0026826172662969975
4.33200e-06;0.0026799529076314515
4.33225e-06;0.002677176739940051
4.33250e-06;0.00267425036919017
4.33275e-06;0.0026713239984402994
4.33300e-06;0.002668425447471743
4.33325e-06;0.0026655642693020854
4.33350e-06;0.0026627030911324377
4.33375e-06;0.0026599904176049438
4.33400e-06;0.002657477243637344
4.33425e-06;0.002654964069669744
4.33450e-06;0.002651629914084244
4.33475e-06;0.0026471928605081322
4.33500e-06;0.0026427558069320204
4.33525e-06;0.002637073818142017
4.33550e-06;0.0026297193966009222
4.33575e-06;0.0026223649750598274
4.33600e-06;0.0026139467449524598
4.33625e-06;0.002604099405709763
4.33650e-06;0.0025942520664670662
4.33675e-06;0.0025831048976205214
4.33700e-06;0.002570211551482223
4.33725e-06;0.002556149426781381
4.33750e-06;0.002540517177366407
4.33775e-06;0.0025248849279514863
4.33800e-06;0.0025081584338047273
4.33825e-06;0.002489961942901032
4.33850e-06;0.0024717654519973366
4.33875e-06;0.002452406723491496
4.33900e-06;0.0024314866573285523
4.33925e-06;0.0024105665911656085
4.33950e-06;0.0023888818784418234
4.33975e-06;0.0023661699476453194
4.34000e-06;0.0023434580168488154
4.34025e-06;0.002320336042346891
4.34050e-06;0.0022966632194840273
4.34075e-06;0.0022729903966211638
4.34100e-06;0.002249160458231351
4.34125e-06;0.0022251194525106563
4.34150e-06;0.0022010784467899613
4.34175e-06;0.0021774192344489827
4.34200e-06;0.0021542729192816352
4.34225e-06;0.0021311266041142093
4.34250e-06;0.002108750267632409
4.34275e-06;0.002087408312343164
4.34300e-06;0.002066066357053847
4.34325e-06;0.0020459664556440943
4.34350e-06;0.0020275351162311666
4.34375e-06;0.0020091037768181766
4.34400e-06;0.001992074355670969
4.34425e-06;0.0019769282566399976
4.34450e-06;0.001961782157608975
4.34475e-06;0.0019467563625728125
4.34500e-06;0.0019318921826461985
4.34525e-06;0.001917028002719534
4.34550e-06;0.0019024040002383056
4.34575e-06;0.0018881026495876176
4.34600e-06;0.0018738012989368811
4.34625e-06;0.0018596063920685256
4.34650e-06;0.0018455544806473578
4.34675e-06;0.0018315025692262376
4.34700e-06;0.0018170536629019348
4.34725e-06;0.0018020714378389376
4.34750e-06;0.001787089212775991
4.34775e-06;0.0017720504208243617
4.34800e-06;0.0017569356375149105
4.34825e-06;0.0017418208542055104
4.34850e-06;0.00172645408660305
4.34875e-06;0.0017107488059761831
4.34900e-06;0.0016950435253493697
4.34925e-06;0.001679132560494119
4.34950e-06;0.00166294528162978
4.34975e-06;0.0016467580027654954
4.35000e-06;0.001630659167622658
4.35025e-06;0.0016146791468362788
4.35050e-06;0.0015986991260499535
4.35075e-06;0.0015827498063793887
4.35100e-06;0.0015668417302619527
4.35125e-06;0.0015509336541445165
4.35150e-06;0.0015353431209595306
4.35175e-06;0.0015201791715792124
4.35200e-06;0.001505015222198894
4.35225e-06;0.0014903931955348997
4.35250e-06;0.001476499182095284
4.35275e-06;0.0014626051686556685
4.35300e-06;0.00144938657976394
4.35325e-06;0.0014370753490398833
4.35350e-06;0.0014247641183158268
4.35375e-06;0.0014149179741275093
4.35400e-06;0.0014083834010228627
4.35425e-06;0.0014018488279182164
4.35450e-06;0.0013953142548135478
4.35475e-06;0.0013887796817089013
4.35500e-06;0.0013822451086042326
4.35525e-06;0.0013757105354995861
4.35550e-06;0.0013691759623949396
4.35575e-06;0.0013626413892902712
4.35600e-06;0.0013606025535650506
4.35625e-06;0.0013646032437098477
4.35650e-06;0.0013686039338546585
4.35675e-06;0.0013726046239994558
4.35700e-06;0.0013766053141442529
4.35725e-06;0.0013806060042890636
4.35750e-06;0.0013846066944338607
4.35775e-06;0.001388607384578658
4.35800e-06;0.0013926080747234686
4.35825e-06;0.0014002142426205646
4.35850e-06;0.0014126639710551436
4.35875e-06;0.0014251136994897651
4.35900e-06;0.0014375634279243442
4.35925e-06;0.0014500131563589657
4.35950e-06;0.0014624628847935447
4.35975e-06;0.001474912613228124
4.36000e-06;0.0014873623416627453
4.36025e-06;0.0014998120700973245
4.36050e-06;0.0015152695161856583
4.36075e-06;0.0015309647531376975
4.36100e-06;0.0015466599900896838
4.36125e-06;0.0015623552270416698
4.36150e-06;0.0015780504639937092
4.36175e-06;0.0015937457009456953
4.36200e-06;0.0016094409378976816
4.36225e-06;0.0016251361748497208
4.36250e-06;0.0016383921995501878
4.36275e-06;0.001648371412406374
4.36300e-06;0.0016583506252625941
4.36325e-06;0.0016683298381187804
4.36350e-06;0.0016783090509750005
4.36375e-06;0.0016882882638311867
4.36400e-06;0.001698267476687373
4.36425e-06;0.0017082466895435933
4.36450e-06;0.0017182259023997796
4.36475e-06;0.0017282051152559658
4.36500e-06;0.001738184328112186
4.36525e-06;0.0017481635409683722
4.36550e-06;0.0017581427538245584
4.36575e-06;0.0017681219666807785
4.36600e-06;0.0017731009712692112
4.36625e-06;0.0017713627491528728
4.36650e-06;0.0017696245270365286
4.36675e-06;0.0017678863049201904
4.36700e-06;0.001766148082803852
4.36725e-06;0.0017644098606875078
4.36750e-06;0.0017626716385711694
4.36775e-06;0.0017609334164548252
4.36800e-06;0.0017591951943384868
4.36825e-06;0.0017574569722221484
4.36850e-06;0.0017557187501058042
4.36875e-06;0.0017539805279894658
4.36900e-06;0.0017522423058731274
4.36925e-06;0.0017505040837567831
4.36950e-06;0.0017461123595634241
4.36975e-06;0.0017381559488495767
4.37000e-06;0.0017301995381357024
4.37025e-06;0.0017222431274218552
4.37050e-06;0.0017142867167080078
4.37075e-06;0.0017063303059941335
4.37100e-06;0.0016983738952802863
4.37125e-06;0.0016904174845664389
4.37150e-06;0.0016824610738525646
4.37175e-06;0.0016745046631387174
4.37200e-06;0.001666548252424843
4.37225e-06;0.0016593780726270617
4.37250e-06;0.0016522700524299926
4.37275e-06;0.0016451620322328994
4.37300e-06;0.0016380540120358303
4.37325e-06;0.0016309459918387613
4.37350e-06;0.001623837971641668
4.37375e-06;0.001616729951444599
4.37400e-06;0.00160962193124753
4.37425e-06;0.0016025139110504368
4.37450e-06;0.0015954058908533677
4.37475e-06;0.0015898850042619281
4.37500e-06;0.0015864962561069412
4.37525e-06;0.0015831075079519657
4.37550e-06;0.0015797187597969902
4.37575e-06;0.0015763300116420033
4.37600e-06;0.0015729412634870278
4.37625e-06;0.0015695525153320408
4.37650e-06;0.0015661637671770653
4.37675e-06;0.0015627750190220899
4.37700e-06;0.001559386270867103
4.37725e-06;0.0015559975227121274
4.37750e-06;0.001552608774557152
4.37775e-06;0.001549220026402165
4.37800e-06;0.0015458312782471895
4.37825e-06;0.001542442530092214
4.37850e-06;0.001539053781937227
4.37875e-06;0.0015356650337822516
4.37900e-06;0.0015322762856272761
4.37925e-06;0.0015288875374722892
4.37950e-06;0.0015254987893173137
4.37975e-06;0.0015221100411623382
4.38000e-06;0.0015187212930073512
4.38025e-06;0.0015153325448523758
4.38050e-06;0.001511943796697389
4.38075e-06;0.0015096778354595974
4.38100e-06;0.0015089202142464244
4.38125e-06;0.001508162593033249
4.38150e-06;0.0015074049718200762
4.38175e-06;0.0015066473506069034
4.38200e-06;0.0015058897293937278
4.38225e-06;0.001505132108180555
4.38250e-06;0.0015043744869673822
4.38275e-06;0.0015036168657542068
4.38300e-06;0.0015028592445410337
4.38325e-06;0.001502101623327861
4.38350e-06;0.0015013440021146855
4.38375e-06;0.0015005863809015125
4.38400e-06;0.0014998287596883397
4.38425e-06;0.0014990711384751643
4.38450e-06;0.0014983135172619915
4.38475e-06;0.001497555896048816
4.38500e-06;0.001496798274835643
4.38525e-06;0.0014960406536224703
4.38550e-06;0.001495283032409295
4.38575e-06;0.0014945254111961219
4.38600e-06;0.001493767789982949
4.38625e-06;0.0014930101687697737
4.38650e-06;0.0014922525475566007
4.38675e-06;0.0014933583470911208
4.38700e-06;0.001496967446275054
4.38725e-06;0.001500576545458975
4.38750e-06;0.001504185644642896
4.38775e-06;0.0015077947438268291
4.38800e-06;0.0015114038430107503
4.38825e-06;0.0015150129421946713
4.38850e-06;0.0015186220413786044
4.38875e-06;0.0015222311405625256
4.38900e-06;0.0015258402397464587
4.38925e-06;0.0015294493389303796
4.38950e-06;0.0015330584381143008
4.38975e-06;0.001536667537298234
4.39000e-06;0.0015402766364821549
4.39025e-06;0.0015451687540552488
4.39050e-06;0.0015501623073631396
4.39075e-06;0.0015551558606710135
4.39100e-06;0.0015601494139788872
4.39125e-06;0.001565142967286778
4.39150e-06;0.001570136520594652
4.39175e-06;0.001575130073902526
4.39200e-06;0.0015801236272104165
4.39225e-06;0.0015851171805182905
4.39250e-06;0.0015901107338261644
4.39275e-06;0.001595104287134055
4.39300e-06;0.001600097840441929
4.39325e-06;0.0016050913937498198
4.39350e-06;0.0016079279841604772
4.39375e-06;0.0016078669335148623
4.39400e-06;0.0016078058828692472
4.39425e-06;0.0016077448322236322
4.39450e-06;0.0016076837815780173
4.39475e-06;0.0016076227309324022
4.39500e-06;0.0016075616802867872
4.39525e-06;0.0016075006296411723
4.39550e-06;0.0016074395789955572
4.39575e-06;0.0016073785283499422
4.39600e-06;0.0015938378572163943
4.39625e-06;0.0015792314841258544
4.39650e-06;0.0015646251110353639
4.39675e-06;0.0015500187379448734
4.39700e-06;0.0015354123648543335
4.39725e-06;0.001520805991763843
4.39750e-06;0.001506199618673303
4.39775e-06;0.0014915932455828128
4.39800e-06;0.0014769868724923223
4.39825e-06;0.001457336816086696
