Time(s);Current(A)
1.30000e-05;-0.011891271713446653
1.30003e-05;-0.011921352501284158
1.30005e-05;-0.011950556242940166
1.30008e-05;-0.011979421654817798
1.30010e-05;-0.012006967128994234
1.30013e-05;-0.01203400342333514
1.30015e-05;-0.012059727844767514
1.30018e-05;-0.012083897774421646
1.30020e-05;-0.012106483115915525
1.30023e-05;-0.01212636110963587
1.30025e-05;-0.012145370334706347
1.30028e-05;-0.012160627415079358
1.30030e-05;-0.012174437066215757
1.30033e-05;-0.01218433697316863
1.30035e-05;-0.012192728655227173
1.30038e-05;-0.012196246850401873
1.30040e-05;-0.012197885046810625
1.30043e-05;-0.012199523243219367
1.30045e-05;-0.01219497260749432
1.30048e-05;-0.012188034564754261
1.30050e-05;-0.01218109652201425
1.30053e-05;-0.012165998029403113
1.30055e-05;-0.012147751557521246
1.30058e-05;-0.01212950508563938
1.30060e-05;-0.012111258613757636
1.30063e-05;-0.01209301214187577
1.30065e-05;-0.012072152585833856
1.30068e-05;-0.01204211557015756
1.30070e-05;-0.012012078554481062
1.30073e-05;-0.011982041538804564
1.30075e-05;-0.01195200452312827
1.30078e-05;-0.011921967507451772
1.30080e-05;-0.011886749586375901
1.30083e-05;-0.011849533076612141
1.30085e-05;-0.01181231656684813
1.30088e-05;-0.011775100057084119
1.30090e-05;-0.01173788354732036
1.30093e-05;-0.01170066703755635
1.30095e-05;-0.011663586278609969
1.30098e-05;-0.011626982292539511
1.30100e-05;-0.011590378306468805
1.30103e-05;-0.011553774320398098
1.30105e-05;-0.01151717033432764
1.30108e-05;-0.011480566348256933
1.30110e-05;-0.011443962362186227
1.30113e-05;-0.01141128776530636
1.30115e-05;-0.011380128971588738
1.30118e-05;-0.011353117609410284
1.30120e-05;-0.011327706162521215
1.30123e-05;-0.011302294715631973
1.30125e-05;-0.011283186128080698
1.30128e-05;-0.011266508934737171
1.30130e-05;-0.011249831741393532
1.30133e-05;-0.01124004456908406
1.30135e-05;-0.01123291529477541
1.30138e-05;-0.011225786020466713
1.30140e-05;-0.01122582455448843
1.30143e-05;-0.011228628145878893
1.30145e-05;-0.011231431737269338
1.30148e-05;-0.01124355437557746
1.30150e-05;-0.011259271934140237
1.30153e-05;-0.011274989492702907
1.30155e-05;-0.011290707051265685
1.30158e-05;-0.011306424609828461
1.30160e-05;-0.01133223162701165
1.30163e-05;-0.01136193075885808
1.30165e-05;-0.011391629890704507
1.30168e-05;-0.011421329022550735
1.30170e-05;-0.011451028154397162
1.30173e-05;-0.011486999992218477
1.30175e-05;-0.011525391592270732
1.30178e-05;-0.011563783192323249
1.30180e-05;-0.011604962410295428
1.30183e-05;-0.011647216981166733
1.30185e-05;-0.011691031081282314
1.30188e-05;-0.0117354467861883
1.30190e-05;-0.011780613188859777
1.30193e-05;-0.011826333975101055
1.30195e-05;-0.011872242932870305
1.30198e-05;-0.011918093674494444
1.30200e-05;-0.011963638314616281
1.30203e-05;-0.012008630878372239
1.30205e-05;-0.012052817019000347
1.30208e-05;-0.012095930695355571
1.30210e-05;-0.012137694018355032
1.30213e-05;-0.01217782572858093
1.30215e-05;-0.0122160432224842
1.30218e-05;-0.012252065394199999
1.30220e-05;-0.012285603178774635
1.30223e-05;-0.012316167225570664
1.30225e-05;-0.012342951622143028
1.30228e-05;-0.01236526262234917
1.30230e-05;-0.012382849141016936
1.30233e-05;-0.012395709897524636
1.30235e-05;-0.012403884525933212
1.30238e-05;-0.012407414157988956
1.30240e-05;-0.012406334654613405
1.30243e-05;-0.012398721815047083
1.30245e-05;-0.012389082626399846
1.30248e-05;-0.012370196033075442
1.30250e-05;-0.01234774215624227
1.30253e-05;-0.01232528827940925
1.30255e-05;-0.012290586148360089
1.30258e-05;-0.012251159124565172
1.30260e-05;-0.012211732100770523
1.30263e-05;-0.012172305076975608
1.30265e-05;-0.01212908823259784
1.30268e-05;-0.012072561091530506
1.30270e-05;-0.012016033950462789
1.30273e-05;-0.011959506809395073
1.30275e-05;-0.01190297966832774
1.30278e-05;-0.011839199291869391
1.30280e-05;-0.01177262090365528
1.30283e-05;-0.01170604251544162
1.30285e-05;-0.01163608475516063
1.30288e-05;-0.011564823366600493
1.30290e-05;-0.01149356197804084
1.30293e-05;-0.011421332142318294
1.30295e-05;-0.011348728717928136
1.30298e-05;-0.011276125293538471
1.30300e-05;-0.011204844047069317
1.30303e-05;-0.011134072844624287
1.30305e-05;-0.011065694197279057
1.30308e-05;-0.010998238503199658
1.30310e-05;-0.01093563131754859
1.30313e-05;-0.010874894494963323
1.30315e-05;-0.01081415767237847
1.30318e-05;-0.010769751830522013
1.30320e-05;-0.010731645836059046
1.30323e-05;-0.010693539841596338
1.30325e-05;-0.010655433847133371
1.30328e-05;-0.010617327852670404
1.30330e-05;-0.010579221858207696
1.30333e-05;-0.010541115863744729
1.30335e-05;-0.010503009869281762
1.30338e-05;-0.010464903874819052
1.30340e-05;-0.010426797880356085
1.30343e-05;-0.010407480836148496
1.30345e-05;-0.010395411826904127
1.30348e-05;-0.010383342817659678
1.30350e-05;-0.010371273808415227
1.30353e-05;-0.010359204799170858
1.30355e-05;-0.01034713578992641
1.30358e-05;-0.010335066780681959
1.30360e-05;-0.01032299777143759
1.30363e-05;-0.01031092876219314
1.30365e-05;-0.01029885975294869
1.30368e-05;-0.01029870548247992
1.30370e-05;-0.010303147447673902
1.30373e-05;-0.010307589412867883
1.30375e-05;-0.010312031378061835
1.30378e-05;-0.010316473343255816
1.30380e-05;-0.010320915308449797
1.30383e-05;-0.010325357273643749
1.30385e-05;-0.01032979923883773
1.30388e-05;-0.010334241204031711
1.30390e-05;-0.010338683169225663
1.30393e-05;-0.010344402190105278
1.30395e-05;-0.010354606381114488
1.30398e-05;-0.010364810572123698
1.30400e-05;-0.010375014763132838
1.30403e-05;-0.01038521895414205
1.30405e-05;-0.01039542314515126
1.30408e-05;-0.0104056273361604
1.30410e-05;-0.01041583152716961
1.30413e-05;-0.01042603571817882
1.30415e-05;-0.010436239909187961
1.30418e-05;-0.010446444100197173
1.30420e-05;-0.010455977457288377
1.30423e-05;-0.010465252033147623
1.30425e-05;-0.010474526609006931
1.30428e-05;-0.01048380118486624
1.30430e-05;-0.010496585491201263
1.30433e-05;-0.010510723712941985
1.30435e-05;-0.010524861934682708
1.30438e-05;-0.010539000156423334
1.30440e-05;-0.010553138378164057
1.30443e-05;-0.010567276599904779
1.30445e-05;-0.010581414821645407
1.30448e-05;-0.010597233508312884
1.30450e-05;-0.010618954185927097
1.30453e-05;-0.010640674863541161
1.30455e-05;-0.010662395541155374
1.30458e-05;-0.010684116218769586
1.30460e-05;-0.010705836896383651
1.30463e-05;-0.010727557573997862
1.30465e-05;-0.010749278251612074
1.30468e-05;-0.010775438121863988
1.30470e-05;-0.010803310457316289
1.30473e-05;-0.010831182792768589
1.30475e-05;-0.010859055128220699
1.30478e-05;-0.010886927463672999
1.30480e-05;-0.010914799799125298
1.30482e-05;-0.010943135116312777
1.30485e-05;-0.010973096479940138
1.30488e-05;-0.011003057843567499
1.30490e-05;-0.011033019207194858
1.30493e-05;-0.011062980570822016
1.30495e-05;-0.011092941934449376
1.30498e-05;-0.011122903298076737
1.30500e-05;-0.011151973735080149
1.30503e-05;-0.011180700487778125
1.30505e-05;-0.011386505865949187
1.30508e-05;-0.01646919068945074
1.30510e-05;-0.021546508034371553
1.30513e-05;-0.022055437048583534
1.30515e-05;-0.02039686837983256
1.30518e-05;-0.01674171490661088
1.30520e-05;-0.01256961160554665
1.30523e-05;-0.01117893388023115
1.30525e-05;-0.01207237819013826
1.30528e-05;-0.014485297226395076
1.30530e-05;-0.01735371543914524
1.30533e-05;-0.018381338498104794
1.30535e-05;-0.017199768908985513
1.30538e-05;-0.014956060481905703
1.30540e-05;-0.012604000769743615
1.30543e-05;-0.011401959065738796
1.30545e-05;-0.011802790100657682
1.30548e-05;-0.012981346218807406
1.30550e-05;-0.014414510422681603
1.30553e-05;-0.015120683877137369
1.30555e-05;-0.014457555200039664
1.30558e-05;-0.01317191330020979
1.30560e-05;-0.011823817874420467
1.30563e-05;-0.01121024435825372
1.30565e-05;-0.011474554021028972
1.30567e-05;-0.012301525499570809
1.30570e-05;-0.013278699051720463
1.30573e-05;-0.013618378254952844
1.30575e-05;-0.013194049654446212
1.30578e-05;-0.012393702517277642
1.30580e-05;-0.011554215805642781
1.30583e-05;-0.011174794938375398
1.30585e-05;-0.011345197324637759
1.30588e-05;-0.011867926047052278
1.30590e-05;-0.012484595442953649
1.30593e-05;-0.012701808130346213
1.30595e-05;-0.012440352815200171
1.30598e-05;-0.011943295583491251
1.30600e-05;-0.011421666589933805
1.30603e-05;-0.011188152425979477
1.30605e-05;-0.01129894463208138
1.30608e-05;-0.01163030279194312
1.30610e-05;-0.01202035782163531
1.30613e-05;-0.012160048903876789
1.30615e-05;-0.011999781271351118
1.30618e-05;-0.011691826110279248
1.30620e-05;-0.011368373975318806
1.30623e-05;-0.011225206540782823
1.30625e-05;-0.011297293737249248
1.30628e-05;-0.011506913747206795
1.30630e-05;-0.011752606813431774
1.30633e-05;-0.011840809130663578
1.30635e-05;-0.011740507615588156
1.30638e-05;-0.011547134132479939
1.30640e-05;-0.011343536115859336
1.30643e-05;-0.011252382735319982
1.30645e-05;-0.01129560585115819
1.30648e-05;-0.011424547471965328
1.30650e-05;-0.01157568486649886
1.30652e-05;-0.011627812291840277
1.30655e-05;-0.011561548005434673
1.30658e-05;-0.011436718238707646
1.30660e-05;-0.01130525736172538
1.30663e-05;-0.011244038375926774
1.30665e-05;-0.011266830870902515
1.30668e-05;-0.01134318586591287
1.30670e-05;-0.01143334656441094
1.30673e-05;-0.011461428036209129
1.30675e-05;-0.011415335020342813
1.30678e-05;-0.011332583271618294
1.30680e-05;-0.011245743518925376
1.30683e-05;-0.011203005040507717
1.30685e-05;-0.011213024124877773
1.30688e-05;-0.011256761308889671
1.30690e-05;-0.011289651382849736
1.30693e-05;-0.011318113997713751
1.30695e-05;-0.011291045178784159
1.30698e-05;-0.011236160645289157
1.30700e-05;-0.011192916444377784
1.30703e-05;-0.011153642571406115
1.30705e-05;-0.011154414969331365
1.30708e-05;-0.011180407806369716
1.30710e-05;-0.011200320416585637
1.30713e-05;-0.011217621596054328
1.30715e-05;-0.0112008162515507
1.30718e-05;-0.011167258116061302
1.30720e-05;-0.011141794104847256
1.30723e-05;-0.011118993931236885
1.30725e-05;-0.011121142096116147
1.30728e-05;-0.011138267365646371
1.30730e-05;-0.011150070948624117
1.30733e-05;-0.011159895470463768
1.30735e-05;-0.01114714924902167
1.30737e-05;-0.01112292406506628
1.30740e-05;-0.011097240982426022
1.30743e-05;-0.011086796710333639
1.30745e-05;-0.01108035521774629
1.30748e-05;-0.011079779590965013
1.30750e-05;-0.011080744751593175
1.30753e-05;-0.011081709912221337
1.30755e-05;-0.011066109475419646
1.30758e-05;-0.011044248152401707
1.30760e-05;-0.01102188523473999
1.30763e-05;-0.010999522317078424
1.30765e-05;-0.010987035620865265
1.30768e-05;-0.010972957187760384
1.30770e-05;-0.010957779237497443
1.30773e-05;-0.0109426012872344
1.30775e-05;-0.010927423336971356
1.30778e-05;-0.010912245386708415
1.30780e-05;-0.01089423821984853
1.30783e-05;-0.010875487902453797
1.30785e-05;-0.01085673758505919
1.30788e-05;-0.010837987267664457
1.30790e-05;-0.01081924838278895
1.30793e-05;-0.010800512500894251
1.30795e-05;-0.010781776618999424
1.30798e-05;-0.010763040737104598
1.30800e-05;-0.01074433202280935
1.30803e-05;-0.010725630444629354
1.30805e-05;-0.01070692886644936
1.30808e-05;-0.01069311819375286
1.30810e-05;-0.010680592215565141
1.30813e-05;-0.01066806623737742
1.30815e-05;-0.010658281127939012
1.30818e-05;-0.010649215962699783
1.30820e-05;-0.010640150797460553
1.30822e-05;-0.010631085632221387
1.30825e-05;-0.010622020466982157
1.30828e-05;-0.010612955301742928
1.30830e-05;-0.010603890136503698
1.30833e-05;-0.01059482497126453
1.30835e-05;-0.010589192979527125
1.30838e-05;-0.010591886364412917
1.30840e-05;-0.01059457974929869
1.30843e-05;-0.010597273134184484
1.30845e-05;-0.010599966519070275
1.30848e-05;-0.01060265990395605
1.30850e-05;-0.01060535328884184
1.30853e-05;-0.010608046673727634
1.30855e-05;-0.010610740058613408
1.30858e-05;-0.01062007546057653
1.30860e-05;-0.010631155521662052
1.30863e-05;-0.0106422355827475
1.30865e-05;-0.010653315643833022
1.30868e-05;-0.010664395704918544
1.30870e-05;-0.010675475766003991
1.30873e-05;-0.010686555827089514
1.30875e-05;-0.010697635888175036
1.30878e-05;-0.010712784358743472
1.30880e-05;-0.010729001478735251
1.30883e-05;-0.01074521859872703
1.30885e-05;-0.010761435718718699
1.30888e-05;-0.010777652838710478
1.30890e-05;-0.010793869958702258
1.30893e-05;-0.010810087078693928
1.30895e-05;-0.010826304198685707
1.30898e-05;-0.010842948083556462
1.30900e-05;-0.010859704066789799
1.30903e-05;-0.010876460050023252
1.30905e-05;-0.010893216033256704
1.30907e-05;-0.010909972016490042
1.30910e-05;-0.010925257703992877
1.30913e-05;-0.010940157188806091
1.30915e-05;-0.010955056673619304
1.30918e-05;-0.010969956158432416
1.30920e-05;-0.01098485564324563
1.30923e-05;-0.010996814094048504
1.30925e-05;-0.01100800002322762
1.30928e-05;-0.011019185952406812
1.30930e-05;-0.011030371881586004
1.30933e-05;-0.011041557810765119
1.30935e-05;-0.011052743739944311
1.30938e-05;-0.011063929669123503
1.30940e-05;-0.01107511559830262
1.30943e-05;-0.01108630152748181
1.30945e-05;-0.011097487456661002
1.30948e-05;-0.011108673385840118
1.30950e-05;-0.011119859315019309
1.30953e-05;-0.0111310452441985
1.30955e-05;-0.011142231173377617
1.30958e-05;-0.011153417102556807
1.30960e-05;-0.011162640227994453
1.30963e-05;-0.01117134778362619
1.30965e-05;-0.011180055339257988
1.30968e-05;-0.011188762894889783
1.30970e-05;-0.01119747045052152
1.30973e-05;-0.011206178006153318
1.30975e-05;-0.011214885561785114
1.30978e-05;-0.011223593117416851
1.30980e-05;-0.011232300673048649
1.30983e-05;-0.011241008228680445
1.30985e-05;-0.011249715784312182
1.30988e-05;-0.01125842333994398
1.30990e-05;-0.011267130895575775
1.30992e-05;-0.011275838451207512
1.30995e-05;-0.01128454600683931
1.30998e-05;-0.011292323612205326
1.31000e-05;-0.01129985694746531
1.31003e-05;-0.011307390282725241
1.31005e-05;-0.011314923617985223
1.31008e-05;-0.011322456953245207
1.31010e-05;-0.011329990288505138
1.31013e-05;-0.01133752362376512
1.31015e-05;-0.011344669833904083
1.31018e-05;-0.01135158749377413
1.31020e-05;-0.011358343490997621
1.31023e-05;-0.011365382937551936
1.31025e-05;-0.011373923324986355
1.31028e-05;-0.011385130699271015
1.31030e-05;-0.011399361544587714
1.31033e-05;-0.01141648893532504
1.31035e-05;-0.011436324788540349
1.31038e-05;-0.011458691340600735
1.31040e-05;-0.01148341330912131
1.31043e-05;-0.011510593673829176
1.31045e-05;-0.01154082150054662
1.31048e-05;-0.01157465125899602
1.31050e-05;-0.011612132206291377
1.31053e-05;-0.011653008585223385
1.31055e-05;-0.011698080575923937
1.31058e-05;-0.01174407254428746
1.31060e-05;-0.011795666289017414
1.31063e-05;-0.01184873145276566
1.31065e-05;-0.011901796616514264
1.31068e-05;-0.011957420630782556
1.31070e-05;-0.012019249806050037
1.31073e-05;-0.012081078981317939
1.31075e-05;-0.012142908156585839
1.31077e-05;-0.012208484563937631
1.31080e-05;-0.012275045257022825
1.31083e-05;-0.012343200233353292
1.31085e-05;-0.012411773980183517
1.31088e-05;-0.012481622637302165
1.31090e-05;-0.012551806175202613
1.31093e-05;-0.01262222352656073
1.31095e-05;-0.012692702293716851
1.31098e-05;-0.012762154715679949
1.31100e-05;-0.012831337547473972
1.31103e-05;-0.012898427490667781
1.31105e-05;-0.012964967694656335
1.31108e-05;-0.013028661938940176
1.31110e-05;-0.013091608634774148
1.31113e-05;-0.01314921044347624
1.31115e-05;-0.013205408310273687
1.31118e-05;-0.013261606177070754
1.31120e-05;-0.01330408538959145
1.31123e-05;-0.013342961122162336
1.31125e-05;-0.01338183685473296
1.31128e-05;-0.013420712587303846
1.31130e-05;-0.013459588319874732
1.31133e-05;-0.013498464052445355
1.31135e-05;-0.013537339785016242
1.31138e-05;-0.013576215517587129
1.31140e-05;-0.013598996752430934
1.31143e-05;-0.013617550444347102
1.31145e-05;-0.01363610413626327
1.31148e-05;-0.01365465782817931
1.31150e-05;-0.013673211520095478
1.31153e-05;-0.013691765212011646
1.31155e-05;-0.013710318903927689
1.31158e-05;-0.013728872595843856
1.31160e-05;-0.013735393272392015
1.31162e-05;-0.013738753235888525
1.31165e-05;-0.013742113199385057
1.31168e-05;-0.01374547316288159
1.31170e-05;-0.013748833126378122
1.31173e-05;-0.01375219308987463
1.31175e-05;-0.013755553053371162
1.31178e-05;-0.013756424218274207
1.31180e-05;-0.013751260096686167
1.31183e-05;-0.013746095975098092
1.31185e-05;-0.013740931853510016
1.31188e-05;-0.013735767731921976
1.31190e-05;-0.013730603610333899
1.31193e-05;-0.013725439488745822
1.31195e-05;-0.013720275367157782
1.31198e-05;-0.013713090222031819
1.31200e-05;-0.01370537421450113
1.31203e-05;-0.013697658206970493
1.31205e-05;-0.013690050378116317
1.31208e-05;-0.013682470964563237
1.31210e-05;-0.01367489155101021
1.31213e-05;-0.013670681615222287
1.31215e-05;-0.013667356740412475
1.31218e-05;-0.013664031865602685
1.31220e-05;-0.013660706990792875
1.31223e-05;-0.013657382115983063
1.31225e-05;-0.013654057241173275
1.31228e-05;-0.013650732366363463
1.31230e-05;-0.013647407491553652
1.31233e-05;-0.013644082616743863
1.31235e-05;-0.01364075774193405
1.31238e-05;-0.01363743286712424
1.31240e-05;-0.01363410799231445
1.31243e-05;-0.01363078311750464
1.31245e-05;-0.013627458242694828
1.31247e-05;-0.01362413336788504
1.31250e-05;-0.013620808493075228
1.31253e-05;-0.013617483618265416
1.31255e-05;-0.013615078083689863
1.31258e-05;-0.01361490193067718
1.31260e-05;-0.013614725777664495
1.31263e-05;-0.013614549624651811
1.31265e-05;-0.013614373471639128
1.31268e-05;-0.013614197318626443
1.31270e-05;-0.013614021165613758
1.31273e-05;-0.013613845012601076
1.31275e-05;-0.01361366885958839
1.31278e-05;-0.013613492706575706
1.31280e-05;-0.013613316553563022
1.31283e-05;-0.013613140400550339
1.31285e-05;-0.013612964247537654
1.31288e-05;-0.01361278809452497
1.31290e-05;-0.013612611941512287
1.31293e-05;-0.013612435788499602
1.31295e-05;-0.013612259635486918
1.31298e-05;-0.013612083482474233
1.31300e-05;-0.013612692795631093
1.31303e-05;-0.01361350842724588
1.31305e-05;-0.013614324058860672
1.31308e-05;-0.013615139690475463
1.31310e-05;-0.01361609992342155
1.31313e-05;-0.013617410811685465
1.31315e-05;-0.01361872169994938
1.31318e-05;-0.013620032588213284
1.31320e-05;-0.013621343476477199
1.31323e-05;-0.01362386334340456
1.31325e-05;-0.013626700772848542
1.31328e-05;-0.013629538202292544
1.31330e-05;-0.013636834349355724
1.31332e-05;-0.013645301668111906
1.31335e-05;-0.013653768986868146
1.31338e-05;-0.013662236305624386
1.31340e-05;-0.013670703624380626
1.31343e-05;-0.01367917094313681
1.31345e-05;-0.013687638261893047
1.31348e-05;-0.013702754143762671
1.31350e-05;-0.01371961640420638
1.31353e-05;-0.013736478664650203
1.31355e-05;-0.013753340925094027
1.31358e-05;-0.013770203185537736
1.31360e-05;-0.01378706544598156
1.31363e-05;-0.013803927706425384
1.31365e-05;-0.013826670272593341
1.31368e-05;-0.013850957419109486
1.31370e-05;-0.01387524456562563
1.31373e-05;-0.013899531712141611
1.31375e-05;-0.013923818858657755
1.31378e-05;-0.0139481060051739
1.31380e-05;-0.013972393151689879
1.31383e-05;-0.013996680298206023
1.31385e-05;-0.01402319429663129
1.31388e-05;-0.014050293222415336
1.31390e-05;-0.014077392148199567
1.31393e-05;-0.014104491073983797
1.31395e-05;-0.014131589999767843
1.31398e-05;-0.014158688925552073
1.31400e-05;-0.014185787851336304
1.31403e-05;-0.01421288677712035
1.31405e-05;-0.014236273637672018
1.31408e-05;-0.01425868544976889
1.31410e-05;-0.01428109726186561
1.31413e-05;-0.014303509073962483
1.31415e-05;-0.014325920886059355
1.31418e-05;-0.014348332698156076
1.31420e-05;-0.014370744510252947
1.31423e-05;-0.01439315632234982
1.31425e-05;-0.014402403680762406
1.31428e-05;-0.014408193131132147
1.31430e-05;-0.014413982581501927
1.31433e-05;-0.014419772031871708
1.31435e-05;-0.014425561482241448
1.31438e-05;-0.014431350932611229
1.31440e-05;-0.014437140382981009
1.31443e-05;-0.01444292983335075
1.31445e-05;-0.014432913297857371
1.31448e-05;-0.014418745002864056
1.31450e-05;-0.014404576707870839
1.31453e-05;-0.014390408412877524
1.31455e-05;-0.014376240117884211
1.31458e-05;-0.014357784327224605
1.31460e-05;-0.01432893144586885
1.31463e-05;-0.014300078564513097
1.31465e-05;-0.014271225683157538
1.31468e-05;-0.014242372801801783
1.31470e-05;-0.014213519920446028
1.31473e-05;-0.014176490018563729
1.31475e-05;-0.014137312258081895
