Time(s);Current(A)
1.00000e-05;-0.010177036126484146
1.00003e-05;-0.010164937864684859
1.00005e-05;-0.010152900254315872
1.00008e-05;-0.010140862643946803
1.00010e-05;-0.010128825033577734
1.00013e-05;-0.010116787423208746
1.00015e-05;-0.010104749812839675
1.00018e-05;-0.010092712202470606
1.00020e-05;-0.010080454412899245
1.00023e-05;-0.010067936004692453
1.00025e-05;-0.010055417596485658
1.00028e-05;-0.01004289918827895
1.00030e-05;-0.010030380780072158
1.00033e-05;-0.010017862371865366
1.00035e-05;-0.010005343963658656
1.00038e-05;-0.009992816084870007
1.00040e-05;-0.009980287790315883
1.00042e-05;-0.009967759495761844
1.00045e-05;-0.00995523120120772
1.00048e-05;-0.009942702906653597
1.00050e-05;-0.009930174612099558
1.00053e-05;-0.009917943081497422
1.00055e-05;-0.00990606282029477
1.00057e-05;-0.009894182559092198
1.00060e-05;-0.009882636385619694
1.00063e-05;-0.009871485660433823
1.00065e-05;-0.009860705985875977
1.00068e-05;-0.009850365511330022
1.00070e-05;-0.009840025036784066
1.00073e-05;-0.009830923085101246
1.00075e-05;-0.00982328713081974
1.00078e-05;-0.009815651176538182
1.00080e-05;-0.009808015222256623
1.00083e-05;-0.009800379267975117
1.00085e-05;-0.009792743313693559
1.00088e-05;-0.009785107359412001
1.00090e-05;-0.009777471405130495
1.00093e-05;-0.009769835450848936
1.00095e-05;-0.009762199496567378
1.00098e-05;-0.009754563542285872
1.00100e-05;-0.009746927588004313
1.00103e-05;-0.009741259730436588
1.00105e-05;-0.00973567827375467
1.00108e-05;-0.009730096817072712
1.00110e-05;-0.009724515360390757
1.00113e-05;-0.009718933903708838
1.00115e-05;-0.00971335244702688
1.00118e-05;-0.009707770990344925
1.00120e-05;-0.009702189533663006
1.00123e-05;-0.009696608076981049
1.00125e-05;-0.009691026620299093
1.00127e-05;-0.009685445163617174
1.00130e-05;-0.009680231364146587
1.00133e-05;-0.009675452748016235
1.00135e-05;-0.009670674131885914
1.00138e-05;-0.009665895515755562
1.00140e-05;-0.00966111689962521
1.00142e-05;-0.009656338283494891
1.00145e-05;-0.00965155966736454
1.00148e-05;-0.009646781051234187
1.00150e-05;-0.00964229026589984
1.00153e-05;-0.009638140176092031
1.00155e-05;-0.009633990086284223
1.00157e-05;-0.009629839996476444
1.00160e-05;-0.009625689906668636
1.00163e-05;-0.009621539816860827
1.00165e-05;-0.009617389727053019
1.00168e-05;-0.009613239637245238
1.00170e-05;-0.009609268302143648
1.00173e-05;-0.009605559732306873
1.00175e-05;-0.009601970171593645
1.00178e-05;-0.009598555969510255
1.00180e-05;-0.009595566015981476
1.00183e-05;-0.009593479193794968
1.00185e-05;-0.009592684542826663
1.00188e-05;-0.009593266290797034
1.00190e-05;-0.009595443882608056
1.00193e-05;-0.009598645769619595
1.00195e-05;-0.009602913680820082
1.00198e-05;-0.009608443408606842
1.00200e-05;-0.009615581804355223
1.00203e-05;-0.009624624325673022
1.00205e-05;-0.009633666846990761
1.00208e-05;-0.009645358527626578
1.00210e-05;-0.009660185928072516
1.00212e-05;-0.009675013328518353
1.00215e-05;-0.009689840728964292
1.00218e-05;-0.00970466812941023
1.00220e-05;-0.009722191148693235
1.00223e-05;-0.009742904880339772
1.00225e-05;-0.00976361861198631
1.00227e-05;-0.009784332343632707
1.00230e-05;-0.009805046075279244
1.00233e-05;-0.009827647957044099
1.00235e-05;-0.009852484777904635
1.00238e-05;-0.009877321598765337
1.00240e-05;-0.009902158419626042
1.00242e-05;-0.009926995240486578
1.00245e-05;-0.00995183206134728
1.00248e-05;-0.009976928759812468
1.00250e-05;-0.01000233306656197
1.00253e-05;-0.010027737373311302
1.00255e-05;-0.010053141680060804
1.00258e-05;-0.010078545986810307
1.00260e-05;-0.010103950293559637
1.00263e-05;-0.010128146766541295
1.00265e-05;-0.010150913567759486
1.00268e-05;-0.010173680368977525
1.00270e-05;-0.01019515311336054
1.00273e-05;-0.01021509412666692
1.00275e-05;-0.010233669289817298
1.00278e-05;-0.010250627742578471
1.00280e-05;-0.01026713773587395
1.00283e-05;-0.010283116902947805
1.00285e-05;-0.010300227063611656
1.00288e-05;-0.010318675942933073
1.00290e-05;-0.010337124822254363
1.00293e-05;-0.010356404798116082
1.00295e-05;-0.010376668514694565
1.00297e-05;-0.010396932231272912
1.00300e-05;-0.010419527825528073
1.00303e-05;-0.010444883584103367
1.00305e-05;-0.010470239342678487
1.00308e-05;-0.01049559510125378
1.00310e-05;-0.010520950859829072
1.00312e-05;-0.010546306618404194
1.00315e-05;-0.010571662376979487
1.00318e-05;-0.010603929189722996
1.00320e-05;-0.010636499402802228
1.00323e-05;-0.01066906961588168
1.00325e-05;-0.010701639828961133
1.00327e-05;-0.010734210042040365
1.00330e-05;-0.010766780255119818
1.00333e-05;-0.01080124575093794
1.00335e-05;-0.0108379546284929
1.00338e-05;-0.010874663506047613
1.00340e-05;-0.010911372383602574
1.00343e-05;-0.010948081261157537
1.00345e-05;-0.01098479013871225
1.00348e-05;-0.01102149901626721
1.00350e-05;-0.011057296230350355
1.00353e-05;-0.011092014339378798
1.00355e-05;-0.011126732448407478
1.00358e-05;-0.01116145055743616
1.00360e-05;-0.011196168666464603
1.00363e-05;-0.011230886775493283
1.00365e-05;-0.011265604884521963
1.00368e-05;-0.011295055157001663
1.00370e-05;-0.01131827007046808
1.00373e-05;-0.011341484983934495
1.00375e-05;-0.011364699897400755
1.00378e-05;-0.011387914810867171
1.00380e-05;-0.011411129724333587
1.00382e-05;-0.011434344637799845
1.00385e-05;-0.011457559551266261
1.00388e-05;-0.011480774464732677
1.00390e-05;-0.01148823568292932
1.00393e-05;-0.011495005302373164
1.00395e-05;-0.011501774921817006
1.00397e-05;-0.011508544541260803
1.00400e-05;-0.011515314160704646
1.00403e-05;-0.011522083780148488
1.00405e-05;-0.011528853399592285
1.00408e-05;-0.011535623019036129
1.00410e-05;-0.011536145468670433
1.00412e-05;-0.01152927335580771
1.00415e-05;-0.011522401242944937
1.00418e-05;-0.011515529130082166
1.00420e-05;-0.011508657017219395
1.00423e-05;-0.011501784904356669
1.00425e-05;-0.011494912791493898
1.00428e-05;-0.011488040678631125
1.00430e-05;-0.011477331443795582
1.00433e-05;-0.011462080338144323
1.00435e-05;-0.011446829232493063
1.00438e-05;-0.011431578126841906
1.00440e-05;-0.011416327021190647
1.00443e-05;-0.011401075915539387
1.00445e-05;-0.011385824809888232
1.00448e-05;-0.011370573704236973
1.00450e-05;-0.011354271352448089
1.00453e-05;-0.011336724676348909
1.00455e-05;-0.011319178000249609
1.00458e-05;-0.011301631324150307
1.00460e-05;-0.011284084648051126
1.00463e-05;-0.011267269837327856
1.00465e-05;-0.011251321310766596
1.00467e-05;-0.011235372784205444
1.00470e-05;-0.011219424257644182
1.00473e-05;-0.011203475731082923
1.00475e-05;-0.011188860399378634
1.00478e-05;-0.011175823125097451
1.00480e-05;-0.011162785850816266
1.00482e-05;-0.011149163851925327
1.00485e-05;-0.011134849734394344
1.00488e-05;-0.011120535616863363
1.00490e-05;-0.011104552711983991
1.00493e-05;-0.011086594520259067
1.00495e-05;-0.011068636328534142
1.00497e-05;-0.01105067813680934
1.00500e-05;-0.011032719945084417
1.00503e-05;-0.011014761753359492
1.00505e-05;-0.010996803561634568
1.00508e-05;-0.010972834981802458
1.00510e-05;-0.010948602541532548
1.00513e-05;-0.010924370101262638
1.00515e-05;-0.010900137660992891
1.00518e-05;-0.010875905220722982
1.00520e-05;-0.010851672780453072
1.00523e-05;-0.010824962639501515
1.00525e-05;-0.010795319728494507
1.00528e-05;-0.0107656768174875
1.00530e-05;-0.010736033906480695
1.00533e-05;-0.010706390995473688
1.00535e-05;-0.01067674808446668
1.00538e-05;-0.01064607497484942
1.00540e-05;-0.010614182454163429
1.00543e-05;-0.01058228993347744
1.00545e-05;-0.010550397412791665
1.00548e-05;-0.010518504892105674
1.00550e-05;-0.010486612371419683
1.00552e-05;-0.010454920658784308
1.00555e-05;-0.010423466635810532
1.00558e-05;-0.010392597977188984
1.00560e-05;-0.010362422194449073
1.00563e-05;-0.010332962496770797
1.00565e-05;-0.01030435040463346
1.00567e-05;-0.010277028317628549
1.00570e-05;-0.010251233165838565
1.00573e-05;-0.010225438014048582
1.00575e-05;-0.010201392700055757
1.00578e-05;-0.010179418609568992
1.00580e-05;-0.010158209011323627
1.00582e-05;-0.010137904316551998
1.00585e-05;-0.010117211227023658
1.00588e-05;-0.010096058407827275
1.00590e-05;-0.010074905588630891
1.00593e-05;-0.010053744808195132
1.00595e-05;-0.010032574604310689
1.00598e-05;-0.010011404400426248
1.00600e-05;-0.009989905084586808
1.00603e-05;-0.00996801621011562
1.00605e-05;-0.009946127335644433
1.00608e-05;-0.00992315795985028
1.00610e-05;-0.009898909631376447
1.00613e-05;-0.009874661302902614
1.00615e-05;-0.009850412974428945
1.00618e-05;-0.009826164645955112
1.00620e-05;-0.009800102861186953
1.00623e-05;-0.009773961464359961
1.00625e-05;-0.009747820067532794
1.00628e-05;-0.009721678670705626
1.00630e-05;-0.009694818392905391
1.00633e-05;-0.009667107200138567
1.00635e-05;-0.009639396007371742
1.00637e-05;-0.009611666759651194
1.00640e-05;-0.009583916140895377
1.00643e-05;-0.009556108798307986
1.00645e-05;-0.00952818739920277
1.00648e-05;-0.0095002356322648
1.00650e-05;-0.009472412596989273
1.00652e-05;-0.009444880265171733
1.00655e-05;-0.009417800765272412
1.00658e-05;-0.009391322421247681
1.00660e-05;-0.009365528512313901
1.00663e-05;-0.009340418942644129
1.00665e-05;-0.009316013035170816
1.00667e-05;-0.009292424263407994
1.00670e-05;-0.009269810447365428
1.00673e-05;-0.009251797633158547
1.00675e-05;-0.009238550262056557
1.00678e-05;-0.009225302890954657
1.00680e-05;-0.009212055519852666
1.00683e-05;-0.009198808148750674
1.00685e-05;-0.009185560777648774
1.00688e-05;-0.009172313406546784
1.00690e-05;-0.009159066035444792
1.00693e-05;-0.009145818664342891
1.00695e-05;-0.009132571293240901
1.00698e-05;-0.00911932392213891
1.00700e-05;-0.009106076551037009
1.00703e-05;-0.009092829179935018
1.00705e-05;-0.009079581808833028
1.00708e-05;-0.009066334437731126
1.00710e-05;-0.009053087066629136
1.00713e-05;-0.009039839695527145
1.00715e-05;-0.009026592324425244
1.00718e-05;-0.009013344953323253
1.00720e-05;-0.009000097582221263
1.00722e-05;-0.008994439898814693
1.00725e-05;-0.008989115408255286
1.00728e-05;-0.00898379091769588
1.00730e-05;-0.00897846642713651
1.00733e-05;-0.008973141936577103
1.00735e-05;-0.008967817446017694
1.00737e-05;-0.008962492955458324
1.00740e-05;-0.008957168464898918
1.00743e-05;-0.008951843974339511
1.00745e-05;-0.008946519483780141
1.00748e-05;-0.008941194993220734
1.00750e-05;-0.008935870502661326
1.00752e-05;-0.008930546012101956
1.00755e-05;-0.00892522152154255
1.00758e-05;-0.008919897030983143
1.00760e-05;-0.008914572540423736
1.00763e-05;-0.008909248049864366
1.00765e-05;-0.008903923559304958
1.00768e-05;-0.008898599068745551
1.00770e-05;-0.008894027396494354
1.00773e-05;-0.008890400121551238
1.00775e-05;-0.008886895659354561
1.00778e-05;-0.008883553142946438
1.00780e-05;-0.008880523803727341
1.00783e-05;-0.00887808871844276
1.00785e-05;-0.008876475634316365
1.00788e-05;-0.008875735947936796
1.00790e-05;-0.00887583609685954
1.00793e-05;-0.008876738671516348
1.00795e-05;-0.008878576747164186
1.00798e-05;-0.008881019606277409
1.00800e-05;-0.008884252120835205
1.00803e-05;-0.008888419323695322
1.00805e-05;-0.008893721785094061
1.00808e-05;-0.008900368013427331
1.00810e-05;-0.008907014241760646
1.00813e-05;-0.00891514879538864
1.00815e-05;-0.008925045029066436
1.00818e-05;-0.0089349412627443
1.00820e-05;-0.008944837496422164
1.00822e-05;-0.00895473373009996
1.00825e-05;-0.008966165942777568
1.00828e-05;-0.008979416241575652
1.00830e-05;-0.008992666540373647
1.00833e-05;-0.009005916839171731
1.00835e-05;-0.009019167137969816
1.00837e-05;-0.009033142023295795
1.00840e-05;-0.00904797457705998
1.00843e-05;-0.009062807130824163
1.00845e-05;-0.009077888331158244
1.00848e-05;-0.009093263845983324
1.00850e-05;-0.00910863936080851
1.00853e-05;-0.009123872852807325
1.00855e-05;-0.009138938237215061
1.00858e-05;-0.009154003621622898
1.00860e-05;-0.009168678194469489
1.00863e-05;-0.009182890176958024
1.00865e-05;-0.009196549592558246
1.00868e-05;-0.009209554953519206
1.00870e-05;-0.009222560314480079
1.00873e-05;-0.009233676445341952
1.00875e-05;-0.009244709637618906
1.00878e-05;-0.009254935133713909
1.00880e-05;-0.009264204587299056
1.00883e-05;-0.009273862577805575
1.00885e-05;-0.009283980466256128
1.00888e-05;-0.009294911964952256
1.00890e-05;-0.009306806506434387
1.00893e-05;-0.009318701047916437
1.00895e-05;-0.009331191971537279
1.00898e-05;-0.00934438881241958
1.00900e-05;-0.009357585653301793
1.00903e-05;-0.009372687362903157
1.00905e-05;-0.00939004380084455
1.00907e-05;-0.009407400238785824
1.00910e-05;-0.009424756676727215
1.00913e-05;-0.009442113114668608
1.00915e-05;-0.009459469552609883
1.00918e-05;-0.009478999551103921
1.00920e-05;-0.009501102319326412
1.00922e-05;-0.009523205087548753
1.00925e-05;-0.009545307855771243
1.00928e-05;-0.009567410623993735
1.00930e-05;-0.009589513392216226
1.00933e-05;-0.009612939978966378
1.00935e-05;-0.009637933524700344
1.00938e-05;-0.00966292707043431
1.00940e-05;-0.009687920616168105
1.00943e-05;-0.00971291416190207
1.00945e-05;-0.009737907707636035
1.00948e-05;-0.009762901253369831
1.00950e-05;-0.009787111623161175
1.00953e-05;-0.009811287610955023
1.00955e-05;-0.00983546359874871
1.00958e-05;-0.009859639586542557
1.00960e-05;-0.009883815574336407
1.00963e-05;-0.009907991562130092
1.00965e-05;-0.00993058862178715
1.00968e-05;-0.009951316757889508
1.00970e-05;-0.009972044893991727
1.00973e-05;-0.009991022126060884
1.00975e-05;-0.010007926872553587
1.00978e-05;-0.010024831619046177
1.00980e-05;-0.010041125695818639
1.00983e-05;-0.010056696943604922
1.00985e-05;-0.010073771941586832
1.00988e-05;-0.01009262687755078
1.00990e-05;-0.01011148181351473
1.00992e-05;-0.01013158837006215
1.00995e-05;-0.010153176427341737
1.00998e-05;-0.010174764484621323
1.01000e-05;-0.010199431638768922
1.01003e-05;-0.010227743415196043
1.01005e-05;-0.010256055191623165
1.01007e-05;-0.010284366968050096
1.01010e-05;-0.010312678744477218
1.01013e-05;-0.010340990520904342
1.01015e-05;-0.010369302297331464
1.01018e-05;-0.01040643461683121
1.01020e-05;-0.010443954164632962
1.01023e-05;-0.010481473712434712
1.01025e-05;-0.01051899326023621
1.01028e-05;-0.01055651280803796
1.01030e-05;-0.010594032355839712
1.01033e-05;-0.01063401709614489
1.01035e-05;-0.010676919801005373
1.01038e-05;-0.010719822505865857
1.01040e-05;-0.010762725210726048
1.01043e-05;-0.010805627915586532
1.01045e-05;-0.010848530620447014
1.01048e-05;-0.010891433325307205
1.01050e-05;-0.010933410475146425
1.01053e-05;-0.01097429207697391
1.01055e-05;-0.011015173678801117
1.01058e-05;-0.011056055280628602
1.01060e-05;-0.011096936882456089
1.01063e-05;-0.011137818484283296
1.01065e-05;-0.011178700086110781
1.01068e-05;-0.011213133139783286
1.01070e-05;-0.011239933266241313
1.01073e-05;-0.01126673339269952
1.01075e-05;-0.011293533519157729
1.01077e-05;-0.011320333645615754
1.01080e-05;-0.011347133772073963
1.01083e-05;-0.01137393389853217
1.01085e-05;-0.011400734024990197
1.01088e-05;-0.011427534151448404
1.01090e-05;-0.011454334277906611
1.01092e-05;-0.011481134404364638
1.01095e-05;-0.011507934530822845
1.01098e-05;-0.011530928545051614
1.01100e-05;-0.011549417393633524
1.01103e-05;-0.011567906242215308
1.01105e-05;-0.011586395090797218
1.01108e-05;-0.011604883939379128
1.01110e-05;-0.011623372787960913
1.01113e-05;-0.011641861636542824
1.01115e-05;-0.011660350485124734
1.01118e-05;-0.011678839333706519
1.01120e-05;-0.011697328182288429
1.01123e-05;-0.01171581703087034
1.01125e-05;-0.011734305879452124
1.01128e-05;-0.01175169528140421
1.01130e-05;-0.011767783305759108
1.01133e-05;-0.011783871330113898
1.01135e-05;-0.011799959354468795
1.01138e-05;-0.011816047378823693
1.01140e-05;-0.011832135403178482
1.01143e-05;-0.01184822342753338
1.01145e-05;-0.011864311451888277
1.01148e-05;-0.011880399476243067
1.01150e-05;-0.011896487500597965
1.01153e-05;-0.011912575524952862
1.01155e-05;-0.011928663549307652
1.01158e-05;-0.01194475157366255
1.01160e-05;-0.011957837598318548
1.01162e-05;-0.011967370257991258
1.01165e-05;-0.011976902917664031
1.01168e-05;-0.011986435577336805
1.01170e-05;-0.011995968237009515
1.01173e-05;-0.012005500896682288
1.01175e-05;-0.012015033556355062
1.01177e-05;-0.01202456621602777
1.01180e-05;-0.012034098875700545
1.01183e-05;-0.01204363153537332
1.01185e-05;-0.012053164195046092
1.01188e-05;-0.012062696854718802
1.01190e-05;-0.012072229514391577
1.01193e-05;-0.012078563935975476
1.01195e-05;-0.012081112711865117
1.01198e-05;-0.012083661487754775
1.01200e-05;-0.012086210263644433
1.01203e-05;-0.012088759039534073
1.01205e-05;-0.012091307815423731
1.01208e-05;-0.012093856591313389
1.01210e-05;-0.01209640536720303
1.01213e-05;-0.012098954143092687
1.01215e-05;-0.012101502918982345
1.01218e-05;-0.012104051694871986
1.01220e-05;-0.012106600470761644
1.01223e-05;-0.012109149246651301
1.01225e-05;-0.012111698022540942
1.01228e-05;-0.0121142467984306
1.01230e-05;-0.012116795574320258
1.01233e-05;-0.012119344350209898
1.01235e-05;-0.01211873375746371
1.01238e-05;-0.012117984466119586
1.01240e-05;-0.012117235174775467
1.01243e-05;-0.012116485883431345
1.01245e-05;-0.012115736592087221
1.01247e-05;-0.012114987300743103
1.01250e-05;-0.012114238009398981
1.01253e-05;-0.012113488718054857
1.01255e-05;-0.01211273942671074
1.01258e-05;-0.012111990135366617
1.01260e-05;-0.012111240844022493
1.01262e-05;-0.012110491552678376
1.01265e-05;-0.012109742261334253
1.01268e-05;-0.012108992969990129
1.01270e-05;-0.012108243678646007
1.01273e-05;-0.012107494387301888
1.01275e-05;-0.012104996347967825
1.01278e-05;-0.012100428375090379
1.01280e-05;-0.012095860402212963
1.01283e-05;-0.012091292429335517
1.01285e-05;-0.01208672445645807
1.01288e-05;-0.012082156483580655
1.01290e-05;-0.012077588510703209
1.01293e-05;-0.012073020537825762
1.01295e-05;-0.012068452564948347
1.01298e-05;-0.012054117790122758
1.01300e-05;-0.012039354245535231
1.01303e-05;-0.012024590700947803
1.01305e-05;-0.012009827156360274
1.01308e-05;-0.011995063611772747
1.01310e-05;-0.011980300067185319
1.01313e-05;-0.01196553652259779
1.01315e-05;-0.011950772978010263
1.01318e-05;-0.011931703480584298
1.01320e-05;-0.01190753717317221
1.01323e-05;-0.011883370865760122
1.01325e-05;-0.0118592045583482
1.01328e-05;-0.011835038250936111
1.01330e-05;-0.011810871943524023
1.01332e-05;-0.011786705636112099
1.01335e-05;-0.01176253932870001
1.01338e-05;-0.011736465842389245
1.01340e-05;-0.011708134893254313
1.01343e-05;-0.011679803944119188
1.01345e-05;-0.011651472994984063
1.01347e-05;-0.011623142045849131
1.01350e-05;-0.011594811096714007
1.01353e-05;-0.011566480147578882
1.01355e-05;-0.011538149198443757
1.01358e-05;-0.011510528736623117
1.01360e-05;-0.01148374925448198
1.01363e-05;-0.011456969772340843
1.01365e-05;-0.011430190290199888
1.01368e-05;-0.011405188012614085
1.01370e-05;-0.01138228935164137
1.01373e-05;-0.011359390690668813
1.01375e-05;-0.011336492029696098
1.01378e-05;-0.011314922837654338
1.01380e-05;-0.011294927292788793
1.01383e-05;-0.011275022206316605
1.01385e-05;-0.011263611891301237
1.01388e-05;-0.01125220157628595
1.01390e-05;-0.011225918846393736
1.01393e-05;-0.011208166643371122
1.01395e-05;-0.04271197329561997
1.01398e-05;-0.03403735379621668
1.01400e-05;-0.027587772089422865
1.01403e-05;-0.022517460650523017
1.01405e-05;-0.0022926670266760676
1.01408e-05;-0.0014343673143226241
1.01410e-05;-0.004229157086885687
1.01413e-05;-0.009162760860537116
1.01415e-05;-0.01677652210393766
1.01417e-05;-0.02050785415448364
1.01420e-05;-0.01866547186861663
1.01423e-05;-0.013871722901286899
1.01425e-05;-0.00796604339370987
1.01428e-05;-0.004769749622901077
1.01430e-05;-0.005370871505625298
1.01432e-05;-0.008734859925188476
1.01435e-05;-0.013604644633660032
1.01438e-05;-0.016013019890412077
1.01440e-05;-0.014909072010049014
1.01443e-05;-0.011941619457465634
1.01445e-05;-0.008267289156644797
1.01448e-05;-0.006282805326128526
1.01450e-05;-0.006671770774019775
1.01453e-05;-0.008787593030175265
1.01455e-05;-0.011843916320793147
1.01458e-05;-0.013356591977607146
1.01460e-05;-0.01266814913757376
1.01463e-05;-0.010812043177157423
1.01465e-05;-0.008513223104067165
1.01468e-05;-0.007273246827279564
1.01470e-05;-0.007520425848098691
1.01473e-05;-0.00884979437890594
