Time(s);Current(A)
1.10500e-05;0.0027302789989038156
1.10503e-05;0.0027566214246652937
1.10505e-05;0.0027829638504265936
1.10508e-05;0.0028093062761880717
1.10510e-05;0.00283564870194955
1.10513e-05;0.002855488420446023
1.10515e-05;0.0028552633344848316
1.10518e-05;0.00285503824852364
1.10520e-05;0.00285481316256245
1.10523e-05;0.0028545880766012582
1.10525e-05;0.0028543629906400666
1.10528e-05;0.0028541379046788766
1.10530e-05;0.002853912818717685
1.10533e-05;0.0028536877327564932
1.10535e-05;0.0028534626467953033
1.10538e-05;0.002830765730748214
1.10540e-05;0.0028003674599466765
1.10543e-05;0.002769969189145345
1.10545e-05;0.002739570918343808
1.10548e-05;0.0027091726475422704
1.10550e-05;0.002678774376740939
1.10553e-05;0.002648376105939402
1.10555e-05;0.0026179778351378643
1.10557e-05;0.002587579564336533
1.10560e-05;0.0025533146596340354
1.10563e-05;0.0025071188390869683
1.10565e-05;0.002460923018540214
1.10568e-05;0.002414727197993147
1.10570e-05;0.0023685313774460797
1.10572e-05;0.0023223355568993253
1.10575e-05;0.002276139736352258
1.10578e-05;0.0022289469800572882
1.10580e-05;0.0021814125624097062
1.10583e-05;0.002133878144762447
1.10585e-05;0.002086343727114865
1.10588e-05;0.002038809309467283
1.10590e-05;0.001991274891820023
1.10593e-05;0.0019452310583025515
1.10595e-05;0.0019037865828504463
1.10598e-05;0.001862342107398622
1.10600e-05;0.0018228061507697233
1.10603e-05;0.001789159134768479
1.10605e-05;0.0017555121187674625
1.10608e-05;0.0017242766974593952
1.10610e-05;0.001700482511623527
1.10613e-05;0.0016790441529680423
1.10615e-05;0.0016648749531101336
1.10618e-05;0.0016530604976604177
1.10620e-05;0.0016485118599983504
1.10623e-05;0.0016463213147897978
1.10625e-05;0.0016514069181238248
1.10628e-05;0.001659009197285078
1.10630e-05;0.00167437695108886
1.10633e-05;0.001692251464806906
1.10635e-05;0.001717860856548187
1.10638e-05;0.00174576544023155
1.10640e-05;0.0017807520861461642
1.10642e-05;0.0018183237270089226
1.10645e-05;0.001863871648529891
1.10648e-05;0.0019094195700508593
1.10650e-05;0.0019577749866912676
1.10653e-05;0.002014793232261629
1.10655e-05;0.0020718114778319908
1.10657e-05;0.0021316585605298845
1.10660e-05;0.0022002343252256877
1.10663e-05;0.0022688100899214913
1.10665e-05;0.0023373858546172945
1.10668e-05;0.002405961619312633
1.10670e-05;0.0024745373840084363
1.10673e-05;0.00254430332421355
1.10675e-05;0.002617741679291352
1.10678e-05;0.0026911800343696517
1.10680e-05;0.0027646183894479517
1.10683e-05;0.002838056744525754
1.10685e-05;0.002911495099604054
1.10688e-05;0.002980490593750832
1.10690e-05;0.0030357771614086793
1.10693e-05;0.003091063729066901
1.10695e-05;0.0031463502967251224
1.10698e-05;0.0032016368643829696
1.10700e-05;0.003256923432041191
1.10703e-05;0.0033122099996994126
1.10705e-05;0.00336749656735726
1.10708e-05;0.0034227831350154814
1.10710e-05;0.003478069702673703
1.10713e-05;0.00353335627033155
1.10715e-05;0.003562220002217921
1.10718e-05;0.003582028324231765
1.10720e-05;0.0036018366462454744
1.10723e-05;0.003621644968259318
1.10725e-05;0.0036414532902731616
1.10727e-05;0.0036612616122868712
1.10730e-05;0.003681069934300715
1.10733e-05;0.0037008782563145584
1.10735e-05;0.0037206865783282676
1.10738e-05;0.0037404949003421112
1.10740e-05;0.0037538792589504283
1.10742e-05;0.003747441785755299
1.10745e-05;0.003741004312560126
1.10748e-05;0.003734566839364953
1.10750e-05;0.0037281293661698234
1.10753e-05;0.0037216918929746504
1.10755e-05;0.0037152544197794775
1.10758e-05;0.0037088169465843046
1.10760e-05;0.003702379473389175
1.10763e-05;0.003695942000194002
1.10765e-05;0.0036803731807681294
1.10768e-05;0.0036616749439122216
1.10770e-05;0.0036429767070561866
1.10773e-05;0.003624278470200152
1.10775e-05;0.003605580233344244
1.10778e-05;0.0035868819964882093
1.10780e-05;0.0035681837596321744
1.10783e-05;0.0035494855227762665
1.10785e-05;0.0035307872859202316
1.10788e-05;0.003512890694123236
1.10790e-05;0.003497467664600136
1.10793e-05;0.0034820446350769313
1.10795e-05;0.003466621605553726
1.10798e-05;0.003451198576030626
1.10800e-05;0.0034357755465074208
1.10803e-05;0.003420352516984216
1.10805e-05;0.003404929487461116
1.10808e-05;0.0033895064579379107
1.10810e-05;0.003374083428414706
1.10812e-05;0.003358660398891606
1.10815e-05;0.0033432373693684007
1.10818e-05;0.003327814339845196
1.10820e-05;0.0033123913103220953
1.10823e-05;0.0033011749684632163
1.10825e-05;0.0032914003068747685
1.10827e-05;0.0032816256452863866
1.10830e-05;0.0032718509836979384
1.10833e-05;0.0032620763221094906
1.10835e-05;0.0032523016605211087
1.10838e-05;0.0032425269989326605
1.10840e-05;0.0032327523373442127
1.10843e-05;0.0032229776757557644
1.10845e-05;0.0032132030141673825
1.10848e-05;0.0032034283525789347
1.10850e-05;0.0031936536909904865
1.10853e-05;0.0031838790294021046
1.10855e-05;0.003174550645596807
1.10858e-05;0.0031665993000155324
1.10860e-05;0.003158647954434311
1.10863e-05;0.0031506966088530367
1.10865e-05;0.0031427452632717618
1.10868e-05;0.003134793917690541
1.10870e-05;0.003126842572109266
1.10873e-05;0.0031188912265279916
1.10875e-05;0.0031109398809467705
1.10878e-05;0.003102988535365496
1.10880e-05;0.003095037189784221
1.10883e-05;0.0030870858442030003
1.10885e-05;0.0030791344986217254
1.10888e-05;0.003071503110008079
1.10890e-05;0.0030648589831206194
1.10893e-05;0.0030582148562331144
1.10895e-05;0.0030515707293456095
1.10897e-05;0.0030449266024581497
1.10900e-05;0.0030382824755706447
1.10903e-05;0.00303163834868314
1.10905e-05;0.00302499422179568
1.10908e-05;0.0030183500949081754
1.10910e-05;0.0030117059680206705
1.10912e-05;0.0030050618411332107
1.10915e-05;0.0029984177142457057
1.10918e-05;0.002991773587358201
1.10920e-05;0.0029830132407930943
1.10923e-05;0.0029677230702090584
1.10925e-05;0.002952432899625022
1.10928e-05;0.0029371427290409862
1.10930e-05;0.002921852558457054
1.10933e-05;0.002906562387873018
1.10935e-05;0.0028912722172889822
1.10938e-05;0.0028759820467050496
1.10940e-05;0.0028606918761210137
1.10943e-05;0.002845401705536978
1.10945e-05;0.0028301115349530456
1.10948e-05;0.0028148213643690097
1.10950e-05;0.0027927647999139793
1.10953e-05;0.0027683893144148765
1.10955e-05;0.0027440138289156085
1.10958e-05;0.0027196383434163404
1.10960e-05;0.0026952628579172376
1.10963e-05;0.00267088737241797
1.10965e-05;0.002646511886918702
1.10968e-05;0.002622136401419599
1.10970e-05;0.002597760915920331
1.10973e-05;0.002573385430421063
1.10975e-05;0.00254900994492196
1.10978e-05;0.002524756469140169
1.10980e-05;0.002500879467498722
1.10983e-05;0.002477002465857437
1.10985e-05;0.0024531254642159903
1.10988e-05;0.0024292484625745435
1.10990e-05;0.0024053714609332585
1.10993e-05;0.0023814944592918117
1.10995e-05;0.002357617457650365
1.10997e-05;0.00233374045600908
1.11000e-05;0.0023177739509772496
1.11003e-05;0.002304518464164588
1.11005e-05;0.0022912629773520162
1.11008e-05;0.0022780074905393547
1.11010e-05;0.0022647520037266927
1.11013e-05;0.002251496516914031
1.11015e-05;0.0022382410301014593
1.11018e-05;0.0022249855432887977
1.11020e-05;0.0022162975130739027
1.11023e-05;0.002221702862730809
1.11025e-05;0.0022271082123877526
1.11028e-05;0.0022325135620446957
1.11030e-05;0.002237918911701602
1.11033e-05;0.002243324261358545
1.11035e-05;0.0022487296110154883
1.11038e-05;0.002254134960672395
1.11040e-05;0.002259540310329338
1.11043e-05;0.0022649456599862813
1.11045e-05;0.0022743934481451985
1.11048e-05;0.0022963146162266906
1.11050e-05;0.0023182357843081827
1.11053e-05;0.0023401569523895265
1.11055e-05;0.0023620781204710182
1.11058e-05;0.0023839992885525104
1.11060e-05;0.002405920456633854
1.11063e-05;0.0024278416247153463
1.11065e-05;0.0024497627927968385
1.11068e-05;0.002471683960878182
1.11070e-05;0.0024949001515595444
1.11073e-05;0.002522112274124351
1.11075e-05;0.0025493243966889733
1.11078e-05;0.0025765365192537797
1.11080e-05;0.0026037486418185865
1.11082e-05;0.0026309607643832085
1.11085e-05;0.0026581728869480153
1.11088e-05;0.002685385009512822
1.11090e-05;0.0027125971320774442
1.11093e-05;0.002734428916589126
1.11095e-05;0.0027544167973344805
1.11098e-05;0.0027744046780798356
1.11100e-05;0.002794392558825055
1.11103e-05;0.0028143804395704096
1.11105e-05;0.0028343683203157647
1.11108e-05;0.002854356201060984
1.11110e-05;0.0028743440818063386
1.11113e-05;0.002890317316692752
1.11115e-05;0.0028939029288511443
1.11118e-05;0.002897488541009561
1.11120e-05;0.002901074153167978
1.11123e-05;0.0029046597653263704
1.11125e-05;0.002908245377484787
1.11128e-05;0.002911830989643204
1.11130e-05;0.0029154166018015965
1.11133e-05;0.002919002213960013
1.11135e-05;0.0029225878261184297
1.11138e-05;0.002926173438276822
1.11140e-05;0.002929759050435239
1.11143e-05;0.0029216999807577995
1.11145e-05;0.002909650144610776
1.11148e-05;0.002897600308463671
1.11150e-05;0.0028855504723165662
1.11153e-05;0.002873500636169543
1.11155e-05;0.0028614508000224382
1.11158e-05;0.0028494009638753335
1.11160e-05;0.0028373511277283102
1.11163e-05;0.0028253012915812055
1.11165e-05;0.0028132514554341003
1.11167e-05;0.002801201619287077
1.11170e-05;0.002787958729775655
1.11173e-05;0.002771034545451943
1.11175e-05;0.0027541103611283457
1.11178e-05;0.002737186176804634
1.11180e-05;0.002720261992480922
1.11183e-05;0.00270333780815721
1.11185e-05;0.002686413623833613
1.11188e-05;0.0026694894395099013
1.11190e-05;0.0026525652551861894
1.11193e-05;0.0026356410708625925
1.11195e-05;0.0026187168865388806
1.11198e-05;0.00260345107909084
1.11200e-05;0.002593302372329635
1.11203e-05;0.0025831536655683616
1.11205e-05;0.0025730049588070882
1.11208e-05;0.0025628562520458834
1.11210e-05;0.00255270754528461
1.11213e-05;0.0025425588385233366
1.11215e-05;0.0025324101317621317
1.11218e-05;0.0025222614250008583
1.11220e-05;0.002512112718239585
1.11223e-05;0.00250196401147838
1.11225e-05;0.002494182309114222
1.11228e-05;0.0024937042540726516
1.11230e-05;0.0024932261990310844
1.11233e-05;0.002492748143989514
1.11235e-05;0.0024922700889479436
1.11238e-05;0.0024917920339063765
1.11240e-05;0.002491313978864806
1.11243e-05;0.002490835923823235
1.11245e-05;0.002490357868781668
1.11248e-05;0.002489879813740098
1.11250e-05;0.002489401758698527
1.11252e-05;0.00248892370365696
1.11255e-05;0.00248844564861539
1.11258e-05;0.0024893202214286824
1.11260e-05;0.0024943684733544063
1.11263e-05;0.002499416725280164
1.11265e-05;0.002504464977205922
1.11268e-05;0.0025095132291316803
1.11270e-05;0.0025145614810574038
1.11273e-05;0.002519609732983162
1.11275e-05;0.00252465798490892
1.11278e-05;0.0025297062368346435
1.11280e-05;0.0025347544887604017
1.11283e-05;0.00253980274068616
1.11285e-05;0.0025448509926118833
1.11288e-05;0.0025498992445376414
1.11290e-05;0.00255453357679526
1.11293e-05;0.0025578907152799583
1.11295e-05;0.002561247853764679
1.11298e-05;0.0025646049922494
1.11300e-05;0.002567962130734098
1.11303e-05;0.002571319269218819
1.11305e-05;0.0025746764077035403
1.11308e-05;0.0025780335461882383
1.11310e-05;0.002581390684672959
1.11313e-05;0.00258474782315768
1.11315e-05;0.0025854958398768353
1.11318e-05;0.0025781931300216865
1.11320e-05;0.002570890420166537
1.11323e-05;0.0025635877103114377
1.11325e-05;0.0025562850004562884
1.11328e-05;0.002548982290601139
1.11330e-05;0.0025416795807460396
1.11333e-05;0.0025343768708908903
1.11335e-05;0.002527074161035741
1.11337e-05;0.0025197714511806415
1.11340e-05;0.002509586719196601
1.11343e-05;0.002490509197137319
1.11345e-05;0.0024714316750781666
1.11348e-05;0.0024523541530188852
1.11350e-05;0.0024332766309596034
1.11353e-05;0.0024141991089003216
1.11355e-05;0.0023951215868411695
1.11358e-05;0.0023760440647818877
1.11360e-05;0.002356966542722606
1.11363e-05;0.0023365915114133573
1.11365e-05;0.002312212875389293
1.11368e-05;0.002287834239365228
1.11370e-05;0.002263455603341329
1.11373e-05;0.0022390769673172645
1.11375e-05;0.0022146983312932
1.11378e-05;0.0021903196952693005
1.11380e-05;0.002165941059245236
1.11383e-05;0.0021415624232211717
1.11385e-05;0.0021185245337222262
1.11388e-05;0.00209962366221254
1.11390e-05;0.002080722790702854
1.11393e-05;0.002061821919193296
1.11395e-05;0.0020429210476836097
1.11398e-05;0.0020240201761739236
1.11400e-05;0.0020051193046643654
1.11403e-05;0.0019862184331546793
1.11405e-05;0.001967317561644993
1.11408e-05;0.0019484166901354353
1.11410e-05;0.0019295158186257491
1.11413e-05;0.001910614947116063
1.11415e-05;0.0018940334779477639
1.11418e-05;0.001884608774829683
1.11420e-05;0.001875184071711602
1.11422e-05;0.001865759368593585
1.11425e-05;0.0018563346654755042
1.11428e-05;0.0018469099623574232
1.11430e-05;0.0018374852592394062
1.11433e-05;0.0018280605561213253
1.11435e-05;0.0018186358530032443
1.11438e-05;0.0018092111498851635
1.11440e-05;0.0017997864467671465
1.11443e-05;0.0017903617436490656
1.11445e-05;0.0017822492968123662
1.11448e-05;0.0017781859582472158
1.11450e-05;0.0017741226196820378
1.11453e-05;0.0017700592811168599
1.11455e-05;0.0017659959425517094
1.11458e-05;0.0017619326039865315
1.11460e-05;0.0017578692654213535
1.11463e-05;0.001753805926856203
1.11465e-05;0.0017497425882910254
1.11468e-05;0.0017456792497258474
1.11470e-05;0.001741615911160697
1.11473e-05;0.001737552572595519
1.11475e-05;0.001733489234030341
1.11478e-05;0.0017294258954651906
1.11480e-05;0.0017253625569000127
1.11483e-05;0.001721299218334835
1.11485e-05;0.001718088010736172
1.11488e-05;0.0017175061451298076
1.11490e-05;0.0017169242795234431
1.11493e-05;0.0017163424139170827
1.11495e-05;0.0017157605483107184
1.11498e-05;0.0017151786827043541
1.11500e-05;0.0017145968170979937
1.11503e-05;0.0017140149514916292
1.11505e-05;0.001713433085885265
1.11507e-05;0.0017128512202789045
1.11510e-05;0.0017122693546725402
1.11513e-05;0.0017116874890661757
1.11515e-05;0.0017111056234598153
1.11518e-05;0.001710523757853451
1.11520e-05;0.0017099418922470867
1.11523e-05;0.0017093600266407224
1.11525e-05;0.001710457947212301
1.11528e-05;0.0017167390291874282
1.11530e-05;0.0017230201111625555
1.11533e-05;0.0017293011931376401
1.11535e-05;0.0017355822751127675
1.11538e-05;0.0017418633570878948
1.11540e-05;0.0017481444390629794
1.11543e-05;0.0017544255210381068
1.11545e-05;0.0017607066030132339
1.11548e-05;0.0017669876849883187
1.11550e-05;0.0017732687669634458
1.11553e-05;0.0017795498489385731
1.11555e-05;0.0017869091867254677
1.11558e-05;0.001797595599101509
1.11560e-05;0.0018082820114775503
1.11563e-05;0.001818968423853519
1.11565e-05;0.0018296548362295602
1.11568e-05;0.0018403412486056015
1.11570e-05;0.0018510276609815704
1.11573e-05;0.0018617140733576114
1.11575e-05;0.0018724004857336527
1.11578e-05;0.0018830868981096216
1.11580e-05;0.0018937733104856626
1.11583e-05;0.001904459722861704
1.11585e-05;0.00191443675661415
1.11588e-05;0.001922224926122329
1.11590e-05;0.001930013095630508
1.11592e-05;0.0019378012651386344
1.11595e-05;0.0019455894346468133
1.11598e-05;0.0019533776041549926
1.11600e-05;0.0019611657736631188
1.11603e-05;0.001968953943171298
1.11605e-05;0.0019767421126794765
1.11608e-05;0.0019845302821876556
1.11610e-05;0.0019923184516957818
1.11613e-05;0.002000106621203961
1.11615e-05;0.00200789479071214
1.11618e-05;0.002015682960220266
1.11620e-05;0.002023471129728445
1.11623e-05;0.0020302192643307728
1.11625e-05;0.0020337582590702016
1.11628e-05;0.0020372972538096547
1.11630e-05;0.002040836248549108
1.11633e-05;0.0020443752432885366
1.11635e-05;0.0020479142380279898
1.11638e-05;0.0020514532327674424
1.11640e-05;0.0020549922275068717
1.11643e-05;0.002058531222246325
1.11645e-05;0.0020620702169857775
1.11648e-05;0.0020656092117252067
1.11650e-05;0.00206914820646466
1.11653e-05;0.0020726872012041125
1.11655e-05;0.002076226195943542
1.11658e-05;0.0020797651906829945
1.11660e-05;0.002082897157328925
1.11663e-05;0.002084773194896766
1.11665e-05;0.00208664923246462
1.11668e-05;0.0020885252700324737
1.11670e-05;0.002090401307600315
1.11673e-05;0.002092277345168169
1.11675e-05;0.002094153382736023
1.11677e-05;0.0020960294203038643
1.11680e-05;0.002097905457871718
1.11683e-05;0.002099781495439572
1.11685e-05;0.002101657533007413
1.11688e-05;0.002103533570575267
1.11690e-05;0.002105409608143121
1.11693e-05;0.002107299809294778
1.11695e-05;0.0021091948644695927
1.11698e-05;0.00211108991964442
1.11700e-05;0.002112984974819248
1.11703e-05;0.0021148800299940628
1.11705e-05;0.00211677508516889
1.11708e-05;0.0021186701403437176
1.11710e-05;0.0021205651955185324
1.11713e-05;0.0021224602506933602
1.11715e-05;0.0021243553058681876
1.11718e-05;0.0021262503610430025
1.11720e-05;0.00212814541621783
1.11723e-05;0.002131392368922434
1.11725e-05;0.002138810747250285
1.11728e-05;0.0021462291255781867
1.11730e-05;0.002153647503906088
1.11733e-05;0.0021610658822339393
1.11735e-05;0.0021684842605618412
1.11738e-05;0.0021759026388897427
1.11740e-05;0.002183321017217594
1.11743e-05;0.0021907393955454954
1.11745e-05;0.002198157773873397
1.11748e-05;0.002205576152201248
1.11750e-05;0.00221299453052915
1.11753e-05;0.0022204129088570514
1.11755e-05;0.0022288769425688405
1.11758e-05;0.0022405674587369488
1.11760e-05;0.002252257974905057
1.11762e-05;0.0022639484910730863
1.11765e-05;0.0022756390072411945
1.11768e-05;0.0022873295234093027
1.11770e-05;0.002299020039577332
1.11773e-05;0.0023107105557454402
1.11775e-05;0.002322401071913549
1.11778e-05;0.002334091588081657
1.11780e-05;0.0023457821042496864
1.11783e-05;0.0023574726204177946
1.11785e-05;0.002369163136585903
1.11788e-05;0.002380340005062611
1.11790e-05;0.0023899319581930497
1.11793e-05;0.0023995239113234887
1.11795e-05;0.0024091158644538625
1.11798e-05;0.0024187078175843015
1.11800e-05;0.0024282997707147404
1.11803e-05;0.0024378917238451142
1.11805e-05;0.002447483676975553
1.11808e-05;0.0024574942568731427
1.11810e-05;0.0024687965548079558
1.11813e-05;0.0024800988527428455
1.11815e-05;0.0024914011506777353
1.11818e-05;0.002502703448612549
1.11820e-05;0.0025140057465474386
1.11823e-05;0.0025253080444823284
1.11825e-05;0.0025366103424171414
1.11828e-05;0.002550364228096509
1.11830e-05;0.002571682752156433
1.11833e-05;0.002593001276216213
1.11835e-05;0.002614319800276137
1.11838e-05;0.0026356383243360615
1.11840e-05;0.0026569568483958412
1.11843e-05;0.0026782753724557654
1.11845e-05;0.0026995938965156895
1.11847e-05;0.0027209124205754692
1.11850e-05;0.0027422309446353934
1.11853e-05;0.0027635494686953175
1.11855e-05;0.00278674855550051
1.11858e-05;0.002815750321469635
1.11860e-05;0.0028447520874387597
1.11863e-05;0.002873753853407884
1.11865e-05;0.0029027556193768123
1.11868e-05;0.002931757385345937
1.11870e-05;0.002960759151315062
1.11873e-05;0.00298976091728399
1.11875e-05;0.0030187626832531146
1.11878e-05;0.0030477644492222394
1.11880e-05;0.0030767662151911677
1.11883e-05;0.0031046672275621004
1.11885e-05;0.003129171745992602
1.11888e-05;0.0031536762644229373
1.11890e-05;0.003178180782853439
1.11893e-05;0.0032026853012839403
1.11895e-05;0.0032271898197142757
1.11898e-05;0.0032516943381447772
1.11900e-05;0.0032761988565752783
1.11903e-05;0.0033007033750056137
1.11905e-05;0.003325207893436115
1.11908e-05;0.0033367957987754412
1.11910e-05;0.003343957032153487
1.11913e-05;0.0033511182655315817
1.11915e-05;0.0033582794989096758
1.11918e-05;0.0033654407322877217
1.11920e-05;0.003372601965665816
1.11923e-05;0.0033797631990439103
1.11925e-05;0.003386924432421956
1.11928e-05;0.0033940856658000503
1.11930e-05;0.003396001357202657
1.11932e-05;0.0033817313631211185
1.11935e-05;0.0033674613690394834
1.11938e-05;0.003353191374957848
1.11940e-05;0.0033389213808763096
1.11943e-05;0.003324651386794674
1.11945e-05;0.003310381392713039
1.11948e-05;0.003296111398631404
1.11950e-05;0.003281841404549865
1.11953e-05;0.00326757141046823
1.11955e-05;0.003242857972819131
1.11958e-05;0.0032145654468675026
1.11960e-05;0.003186272920915683
1.11963e-05;0.003157980394963863
1.11965e-05;0.0031296878690122354
1.11968e-05;0.0031013953430604154
1.11970e-05;0.0030731028171085955
1.11973e-05;0.0030448102911569677
1.11975e-05;0.0030165177652051478
1.11978e-05;0.0029882930846882416
1.11980e-05;0.002960277748577953
1.11983e-05;0.0029322624124674744
1.11985e-05;0.0029042470763569962
