Time(s);Current(A)
6.55000e-06;-0.0011113270055247385
6.55025e-06;-0.0011158283785661597
6.55050e-06;-0.0011179849999036547
6.55075e-06;-0.001114395973739379
6.55100e-06;-0.0011084779352902637
6.55125e-06;-0.0010968528176679478
6.55150e-06;-0.0010830557445579683
6.55175e-06;-0.0010639364488007044
6.55200e-06;-0.0010430590278773483
6.55225e-06;-0.0010178734461149194
6.55250e-06;-0.0009911605924348046
6.55275e-06;-0.0009607052674031516
6.55300e-06;-0.0009286052011913531
6.55325e-06;-0.0008924748135448965
6.55350e-06;-0.0008563444258984399
6.55375e-06;-0.0008188946880528906
6.55400e-06;-0.00077821197625916
6.55425e-06;-0.0007375292644652915
6.55450e-06;-0.0006963022915439767
6.55475e-06;-0.0006537416453887485
6.55500e-06;-0.0006111809992333761
6.55525e-06;-0.0005686340990624268
6.55550e-06;-0.0005261208824495663
6.55575e-06;-0.0004840621099324961
6.55600e-06;-0.000443116920393153
6.55625e-06;-0.00040302580942867377
6.55650e-06;-0.00036502755734592893
6.55675e-06;-0.0003278806846880725
6.55700e-06;-0.0002934988509159286
6.55725e-06;-0.000261539472920117
6.55750e-06;-0.00023221663071405993
6.55775e-06;-0.0002054995381899225
6.55800e-06;-0.00018115266780133538
6.55825e-06;-0.00015904780254519436
6.55850e-06;-0.00013924041140746143
6.55875e-06;-0.00012183508512008519
6.55900e-06;-0.00010693638109356108
6.55925e-06;-9.464690680790489e-05
6.55950e-06;-8.502505030421089e-05
6.55975e-06;-7.797581190137402e-05
6.56000e-06;-7.327595897710399e-05
6.56025e-06;-7.076946195848061e-05
6.56050e-06;-7.041538632909549e-05
6.56075e-06;-7.220354880683555e-05
6.56100e-06;-7.612374944893504e-05
6.56125e-06;-8.216456662820026e-05
6.56150e-06;-9.028687311109595e-05
6.56175e-06;-0.00010035546945426031
6.56200e-06;-0.00011215483803411355
6.56225e-06;-0.00012551157328179874
6.56250e-06;-0.00014032438160597858
6.56275e-06;-0.0001565112357602617
6.56300e-06;-0.00017399008592940756
6.56325e-06;-0.0001928246338776862
6.56350e-06;-0.0002128342085327318
6.56375e-06;-0.00023337976621878834
6.56400e-06;-0.0002552387122509896
6.56425e-06;-0.0002770976582832649
6.56450e-06;-0.0002992468648738089
6.56475e-06;-0.00032210733434500646
6.56500e-06;-0.0003449678038162815
6.56525e-06;-0.0003678282732874791
6.56550e-06;-0.0003903896916869627
6.56575e-06;-0.00041221830667726356
6.56600e-06;-0.0004340469216674905
6.56625e-06;-0.0004558755366577174
6.56650e-06;-0.00047697439002289247
6.56675e-06;-0.0004962850143615789
6.56700e-06;-0.0005148617988280701
6.56725e-06;-0.0005316403608131903
6.56750e-06;-0.0005472615019246224
6.56775e-06;-0.0005600464653983433
6.56800e-06;-0.0005714934264208039
6.56825e-06;-0.0005787025307441673
6.56850e-06;-0.0005826198614043869
6.56875e-06;-0.0005833069118321456
6.56900e-06;-0.0005808253315389637
6.56925e-06;-0.0005752336938269622
6.56950e-06;-0.0005665275666638638
6.56975e-06;-0.0005545042803176059
6.57000e-06;-0.0005388639776733331
6.57025e-06;-0.0005195226782154771
6.57050e-06;-0.000496624627957543
6.57075e-06;-0.00047036716773961925
6.57100e-06;-0.0004409476375658259
6.57125e-06;-0.0004085614352989502
6.57150e-06;-0.00037336452427372735
6.57175e-06;-0.00033538868814029696
6.57200e-06;-0.0002946048218339014
6.57225e-06;-0.00025111909505103264
6.57250e-06;-0.00020518056086572494
6.57275e-06;-0.0001570715595454314
6.57300e-06;-0.0001070743949783146
6.57325e-06;-5.547016222892702e-05
6.57350e-06;-2.5151920221014078e-06
6.57375e-06;5.1611950803066736e-05
6.57400e-06;0.0001068562297886676
6.57425e-06;0.00016294559386838332
6.57450e-06;0.00021918205424868527
6.57475e-06;0.0002757789636655247
6.57500e-06;0.0003321345184532119
6.57525e-06;0.0003878986508653624
6.57550e-06;0.0004430702523487033
6.57575e-06;0.0004967898988789292
6.57600e-06;0.0005498772610598688
6.57625e-06;0.0006008653035194614
6.57650e-06;0.0006498489742369858
6.57675e-06;0.0006964597436416849
6.57700e-06;0.0007403290745641726
6.57725e-06;0.0007810851891819934
6.57750e-06;0.0008182898981894072
6.57775e-06;0.0008513117062067207
6.57800e-06;0.0008794811773387381
6.57825e-06;0.0009024464759705584
6.57850e-06;0.0009201440698918033
6.57875e-06;0.0009325733618285585
6.57900e-06;0.0009397339350561707
6.57925e-06;0.0009416231493960619
6.57950e-06;0.0009381968154316784
6.57975e-06;0.0009292896745778067
6.58000e-06;0.000914712798324239
6.58025e-06;0.0008944762094450219
6.58050e-06;0.0008687704744506597
6.58075e-06;0.0008378255810806958
6.58100e-06;0.000801871648686924
6.58125e-06;0.0007611373812397554
6.58150e-06;0.0007158254091917177
6.58175e-06;0.0006660626184328046
6.58200e-06;0.0006119609625658429
6.58225e-06;0.0005537570690646856
6.58250e-06;0.0004918006508344511
6.58275e-06;0.00042646608268021783
6.58300e-06;0.0003581277065046128
6.58325e-06;0.00028715906669870406
6.58350e-06;0.00021391737196170551
6.58375e-06;0.00013871228564298538
6.58400e-06;6.184412353690683e-05
6.58425e-06;-1.6308735712571316e-05
6.58450e-06;-9.526406338198688e-05
6.58475e-06;-0.00017449748101897023
6.58500e-06;-0.0002537308986556851
6.58525e-06;-0.0003324385176324932
6.58550e-06;-0.0004098577043422042
6.58575e-06;-0.0004862715588517748
6.58600e-06;-0.0005602219182167463
6.58625e-06;-0.0006326164115418042
6.58650e-06;-0.000701198365652218
6.58675e-06;-0.0007682374686869309
6.58700e-06;-0.0008302661244820126
6.58725e-06;-0.0008879059238656852
6.58750e-06;-0.0009401259365687404
6.58775e-06;-0.0009873233855899417
6.58800e-06;-0.0010320968459800245
6.58825e-06;-0.0010709304944122023
6.58850e-06;-0.0011072530222735928
6.58875e-06;-0.0011374222275480257
6.58900e-06;-0.0011648652068573496
6.58925e-06;-0.0011856277630898616
6.58950e-06;-0.0012036498553403025
6.58975e-06;-0.001214956635265121
6.59000e-06;-0.0012238806392071858
6.59025e-06;-0.0012269658198585823
6.59050e-06;-0.0012277750096536975
6.59075e-06;-0.0012230070455252927
6.59100e-06;-0.0012159897277783
6.59125e-06;-0.0012034605287666337
6.59150e-06;-0.0011888344781179334
6.59175e-06;-0.0011690702414777483
6.59200e-06;-0.0011475944906187937
6.59225e-06;-0.0011219247957406327
6.59250e-06;-0.0010944379430327766
6.59275e-06;-0.0010624982741414461
6.59300e-06;-0.0010305586052501156
6.59325e-06;-0.0009968472423388106
6.59350e-06;-0.0009587944690804723
6.59375e-06;-0.0009207416958221338
6.59400e-06;-0.0008816978958592614
6.59425e-06;-0.0008402256553529004
6.59450e-06;-0.0007987534148465395
6.59475e-06;-0.0007569728358019062
6.59500e-06;-0.0007144366950719226
6.59525e-06;-0.0006719005543419389
6.59550e-06;-0.0006297621896136828
6.59575e-06;-0.0005885985467229314
6.59600e-06;-0.0005474349038321801
6.59625e-06;-0.0005072534479290995
6.59650e-06;-0.00046947877147205205
6.59675e-06;-0.00043255000022637466
6.59700e-06;-0.00039836847601019097
6.59725e-06;-0.00036658111902114043
6.59750e-06;-0.0003370583735504497
6.59775e-06;-0.00030863213847440966
6.59800e-06;-0.0002796226086234595
6.59825e-06;-0.0002486449849094731
6.59850e-06;-0.00021590577415689328
6.59875e-06;-0.00018174105053004295
6.59900e-06;-0.00014648684474654307
6.59925e-06;-0.00011046933045920709
6.59950e-06;-7.37996151392374e-05
6.59975e-06;-3.588350401628363e-05
6.60000e-06;4.328015501565656e-06
6.60025e-06;4.7320757469571334e-05
6.60050e-06;9.289486548636532e-05
6.60075e-06;0.00014068272764439845
6.60100e-06;0.00019031676794146286
6.60125e-06;0.00024143562622830003
6.60150e-06;0.0002938126828917742
6.60175e-06;0.0003476630844795905
6.60200e-06;0.0004037695026469514
6.60225e-06;0.0004621238177620903
6.60250e-06;0.0005215171791495074
6.60275e-06;0.000583456649619459
6.60300e-06;0.0006453961200894107
6.60325e-06;0.0007077650843869754
6.60350e-06;0.0007711864927999535
6.60375e-06;0.00083487587621041
6.60400e-06;0.0008992219133172165
6.60425e-06;0.0009637134430499165
6.60450e-06;0.0010285130255137777
6.60475e-06;0.0010930294994796225
6.60500e-06;0.0011568631883513924
6.60525e-06;0.0012196171155924155
6.60550e-06;0.0012809470419970121
6.60575e-06;0.0013406822127904946
6.60600e-06;0.0013987634979149902
6.60625e-06;0.0014549935423134681
6.60650e-06;0.001509006166198657
6.60675e-06;0.0015603942989296721
6.60700e-06;0.0016087508850623077
6.60725e-06;0.0016536630355857458
6.60750e-06;0.0016946007631777208
6.60775e-06;0.001730678742051754
6.60800e-06;0.001760885444205145
6.60825e-06;0.00178468766938886
6.60850e-06;0.0018020175185554203
6.60875e-06;0.0018129115983975272
6.60900e-06;0.0018174067940300155
6.60925e-06;0.0018155362521868957
6.60950e-06;0.001806250355758178
6.60975e-06;0.001789840975862346
6.61000e-06;0.001769360400367056
6.61025e-06;0.0017389036492476073
6.61050e-06;0.0017046331845801323
6.61075e-06;0.0016610174857657402
6.61100e-06;0.0016139521044053133
6.61125e-06;0.0015584335210107262
6.61150e-06;0.0014997213706769404
6.61175e-06;0.0014331836114099212
6.61200e-06;0.001363637615598774
6.61225e-06;0.001286720149822569
6.61250e-06;0.0012072941107973722
6.61275e-06;0.0011217209912203516
6.61300e-06;0.0010342055126103214
6.61325e-06;0.0009419304211630727
6.61350e-06;0.0008482116217974737
6.61375e-06;0.0007509551187295631
6.61400e-06;0.0006525956248358141
6.61425e-06;0.0005515333302743982
6.61450e-06;0.0004504710357126399
6.61475e-06;0.0003492744710851819
6.61500e-06;0.00024774888719864045
6.61525e-06;0.0001466616621604086
6.61550e-06;4.715475825093099e-05
6.61575e-06;-5.046501220797779e-05
6.61600e-06;-0.0001456930042072131
6.61625e-06;-0.00023795098914602673
6.61650e-06;-0.0003265891993580543
6.61675e-06;-0.0004109418255643869
6.61700e-06;-0.0004903431203786566
6.61725e-06;-0.0005641351258029228
6.61750e-06;-0.0006318366182031073
6.61775e-06;-0.0006935764610025891
6.61800e-06;-0.0007499828253599259
6.61825e-06;-0.0008013967222993666
6.61850e-06;-0.0008476892256386732
6.61875e-06;-0.000888606983570974
6.61900e-06;-0.0009238968341089979
6.61925e-06;-0.0009533104155284376
6.61950e-06;-0.0009767101370851644
6.61975e-06;-0.0009943405716750435
6.62000e-06;-0.0010067591187134428
6.62025e-06;-0.0010143431425101766
6.62050e-06;-0.0010164883412419764
6.62075e-06;-0.0010135774925350157
6.62100e-06;-0.0010079220973799802
6.62125e-06;-0.0009955413861113466
6.62150e-06;-0.0009806004634779536
6.62175e-06;-0.0009593859247583766
6.62200e-06;-0.0009361127273748975
6.62225e-06;-0.0009077949331711393
6.62250e-06;-0.0008776853840756473
6.62275e-06;-0.0008431852668947783
6.62300e-06;-0.0008070878432835405
6.62325e-06;-0.0007670763337290799
6.62350e-06;-0.0007257727157090174
6.62375e-06;-0.0006813028776782304
6.62400e-06;-0.000636044786595254
6.62425e-06;-0.000588855137400775
6.62450e-06;-0.0005412340164076368
6.62475e-06;-0.0004925556044218893
6.62500e-06;-0.0004437571055604591
6.62525e-06;-0.00039466434234033276
6.62550e-06;-0.0003458321820641906
6.62575e-06;-0.00029763861079002183
6.62600e-06;-0.0002499640903006599
6.62625e-06;-0.0002040547281384761
6.62650e-06;-0.0001599433469255709
6.62675e-06;-0.00011796123957225685
6.62700e-06;-7.843966577254373e-05
6.62725e-06;-4.1700669991380664e-05
6.62750e-06;-7.86259482222974e-06
6.62775e-06;2.3633835123789183e-05
6.62800e-06;5.3817939228988674e-05
6.62825e-06;8.324033182081911e-05
6.62850e-06;0.00011183126121555717
6.62875e-06;0.00013936624814424363
6.62900e-06;0.00016562085135123019
6.62925e-06;0.00019037643518525054
6.62950e-06;0.000213431091078818
6.62975e-06;0.00023517914666634069
6.63000e-06;0.00025668508848833145
6.63025e-06;0.00027759774772649496
6.63050e-06;0.0002981291984021412
6.63075e-06;0.00031772652457465693
6.63100e-06;0.0003373238507472391
6.63125e-06;0.00035623578116810134
6.63150e-06;0.000373468197986699
6.63175e-06;0.0003907006148052383
6.63200e-06;0.00040767103974226766
6.63225e-06;0.0004239994721843225
6.63250e-06;0.000440327904626322
6.63275e-06;0.0004560052500450991
6.63300e-06;0.00047008715296355263
6.63325e-06;0.00048416905588195846
6.63350e-06;0.0004982509588003643
6.63375e-06;0.0005123328617188178
6.63400e-06;0.0005264147646372237
6.63425e-06;0.0005404966675556295
6.63450e-06;0.000554578570474083
6.63475e-06;0.0005677199967082201
6.63500e-06;0.0005785568516345306
6.63525e-06;0.0005893937065608779
6.63550e-06;0.0006002305614871883
6.63575e-06;0.0006110674164135355
6.63600e-06;0.0006219042713398459
6.63625e-06;0.0006327411262661564
6.63650e-06;0.0006435779811925037
6.63675e-06;0.0006538276570978126
6.63700e-06;0.000662465190215377
6.63725e-06;0.0006704728048428839
6.63750e-06;0.0006770771757047059
6.63775e-06;0.0006814754629786493
6.63800e-06;0.0006841858873355116
6.63825e-06;0.0006815086769933954
6.63850e-06;0.0006745662261615133
6.63875e-06;0.0006635431206036669
6.63900e-06;0.0006486240945659884
6.63925e-06;0.0006299871099509164
6.63950e-06;0.0006076657119638433
6.63975e-06;0.000581229451735457
6.64000e-06;0.000549982635291053
6.64025e-06;0.0005136641155409991
6.64050e-06;0.0004725031627283074
6.64075e-06;0.000426846045792743
6.64100e-06;0.0003770390045707223
6.64125e-06;0.00032342404924199286
6.64150e-06;0.0002662527451429423
6.64175e-06;0.00020548602177020397
6.64200e-06;0.00014091867238954936
6.64225e-06;7.261766592325225e-05
6.64250e-06;9.57183068766917e-07
6.64275e-06;-7.361533409375477e-05
6.64300e-06;-0.00015065247775527618
6.64325e-06;-0.00022970953841983802
6.64350e-06;-0.00031059880672743923
6.64375e-06;-0.00039300420719016706
6.64400e-06;-0.0004761158402810018
6.64425e-06;-0.0005609580462602193
6.64450e-06;-0.0006458002522391492
6.64475e-06;-0.0007303940126961692
6.64500e-06;-0.0008143789750505575
6.64525e-06;-0.0008983639374046612
6.64550e-06;-0.000980923917193287
6.64575e-06;-0.001059992078430298
6.64600e-06;-0.001139060239667041
6.64625e-06;-0.0012161784730029177
6.64650e-06;-0.0012885185465327936
6.64675e-06;-0.00135857918778763
6.64700e-06;-0.0014230542421746332
6.64725e-06;-0.0014845849792644796
6.64750e-06;-0.0015389008759692725
6.64775e-06;-0.0015894700149162372
6.64800e-06;-0.0016308579901322894
6.64825e-06;-0.0016681237389391946
6.64850e-06;-0.0016952882647573665
6.64875e-06;-0.0017182705418156365
6.64900e-06;-0.0017310045153783539
6.64925e-06;-0.0017394904315274342
6.64950e-06;-0.001737566784749566
6.64975e-06;-0.0017312431015366692
6.65000e-06;-0.0017141374416009879
6.65025e-06;-0.001692747285725037
6.65050e-06;-0.0016608582769012548
6.65075e-06;-0.0016249979410294698
6.65100e-06;-0.0015794061503347264
6.65125e-06;-0.0015301524564137817
6.65150e-06;-0.0014719255287643546
6.65175e-06;-0.0014102922061869627
6.65200e-06;-0.001340311754815442
6.65225e-06;-0.0012673479159481039
6.65250e-06;-0.0011870734979516973
6.65275e-06;-0.0011049026908211694
6.65300e-06;-0.001017004430168731
6.65325e-06;-0.0009255150595200223
6.65350e-06;-0.0008308967043219714
6.65375e-06;-0.0007335793436175455
6.65400e-06;-0.0006340017531308908
6.65425e-06;-0.0005326845753896684
6.65450e-06;-0.0004302143594531594
6.65475e-06;-0.00032719110145487397
6.65500e-06;-0.00022421474311995335
6.65525e-06;-0.0001218847259738565
6.65550e-06;-2.0792694666898156e-05
6.65575e-06;7.849003017976934e-05
6.65600e-06;0.00017538660587200467
6.65625e-06;0.0002692689533679526
6.65650e-06;0.0003594677764169296
6.65675e-06;0.0004453054049784092
6.65700e-06;0.0005261042126687884
6.65725e-06;0.0006011882826408116
6.65750e-06;0.0006699279263530202
6.65775e-06;0.0007318820330048353
6.65800e-06;0.0007868617884585363
6.65825e-06;0.0008347741376006772
6.65850e-06;0.0008754941728216526
6.65875e-06;0.0009088778208893437
6.65900e-06;0.0009347809444382815
6.65925e-06;0.000953060615702961
6.65950e-06;0.0009636027317230147
6.65975e-06;0.0009664115088594186
6.66000e-06;0.0009616491212702516
6.66025e-06;0.0009495377112365437
6.66050e-06;0.000930279504603418
6.66075e-06;0.0009040646092638087
6.66100e-06;0.0008710833212586222
6.66125e-06;0.0008315263971274154
6.66150e-06;0.0007856028787692734
6.66175e-06;0.0007335957963561624
6.66200e-06;0.0006758870828281733
6.66225e-06;0.0006128963433588404
6.66250e-06;0.0005450305392978761
6.66275e-06;0.00047268914138703005
6.66300e-06;0.0003962715828301303
6.66325e-06;0.0003161776772344997
6.66350e-06;0.00023281860434077814
6.66375e-06;0.00014665185983445608
6.66400e-06;5.81969395556937e-05
6.66425e-06;-3.200321797821107e-05
6.66450e-06;-0.0001234501961636971
6.66475e-06;-0.00021557900205748084
6.66500e-06;-0.0003077078079515768
6.66525e-06;-0.00039941233134538025
6.66550e-06;-0.0004900771806130287
6.66575e-06;-0.0005796315531297617
6.66600e-06;-0.0006664647812540672
6.66625e-06;-0.0007514740249463403
6.66650e-06;-0.00083201372435736
6.66675e-06;-0.0009107415939464327
6.66700e-06;-0.0009835853711656958
6.66725e-06;-0.001050550123158584
6.66750e-06;-0.0011117813810182014
6.66775e-06;-0.0011710602761181165
6.66800e-06;-0.0012255550449648965
6.66825e-06;-0.0012788494511446408
6.66850e-06;-0.0013292024538792938
6.66875e-06;-0.0013774762675376198
6.66900e-06;-0.0014206551760645172
6.66925e-06;-0.001463834084591561
6.66950e-06;-0.0015046070381809747
6.66975e-06;-0.0015394843701085116
6.67000e-06;-0.0015743617020359303
6.67025e-06;-0.0016066207114821944
6.67050e-06;-0.0016324637076868878
6.67075e-06;-0.0016583067038914935
6.67100e-06;-0.0016841497000960994
6.67125e-06;-0.0017099926963007927
6.67150e-06;-0.0017358356925053983
6.67175e-06;-0.0017616786887100042
6.67200e-06;-0.0017875216849146975
6.67225e-06;-0.0018133646811193034
6.67250e-06;-0.0018309007492727952
6.67275e-06;-0.0018462262374667909
6.67300e-06;-0.0018615517256607345
6.67325e-06;-0.0018768772138546782
6.67350e-06;-0.001892202702048674
6.67375e-06;-0.0019075281902426176
6.67400e-06;-0.001922853678436613
6.67425e-06;-0.0019381791666305567
6.67450e-06;-0.0019510157331931815
6.67475e-06;-0.0019577533741050156
6.67500e-06;-0.001964491015016827
6.67525e-06;-0.001971228655928638
6.67550e-06;-0.001977966296840472
6.67575e-06;-0.0019847039377522834
6.67600e-06;-0.001991441578664095
6.67625e-06;-0.001998179219575929
6.67650e-06;-0.0020049168604877403
6.67675e-06;-0.0020116545013995515
6.67700e-06;-0.0020183921423113857
6.67725e-06;-0.002025129783223197
6.67750e-06;-0.002031867424135008
6.67775e-06;-0.0020386050650468422
6.67800e-06;-0.0020453427059586534
6.67825e-06;-0.0020520803468704876
6.67850e-06;-0.0020588179877822988
6.67875e-06;-0.0020655556286941104
6.67900e-06;-0.002072293269605944
6.67925e-06;-0.002076844819114688
6.67950e-06;-0.0020760395069352668
6.67975e-06;-0.002075234194755843
6.68000e-06;-0.002074428882576422
6.68025e-06;-0.0020736235703970006
6.68050e-06;-0.002072818258217577
6.68075e-06;-0.0020720129460381556
6.68100e-06;-0.0020712076338587344
6.68125e-06;-0.0020704023216793106
6.68150e-06;-0.0020695970094998894
6.68175e-06;-0.0020687916973204682
6.68200e-06;-0.0020679863851410444
6.68225e-06;-0.0020671810729616233
6.68250e-06;-0.0020663757607821995
6.68275e-06;-0.0020655704486027783
6.68300e-06;-0.0020647651364233575
6.68325e-06;-0.0020639598242439333
6.68350e-06;-0.0020631545120645125
6.68375e-06;-0.0020623491998850913
6.68400e-06;-0.0020608309942135874
6.68425e-06;-0.0020575658936823073
6.68450e-06;-0.0020543007931510273
6.68475e-06;-0.002051035692619736
6.68500e-06;-0.002047770592088456
6.68525e-06;-0.002044505491557176
6.68550e-06;-0.002041240391025885
6.68575e-06;-0.002037975290494605
6.68600e-06;-0.002034710189963325
6.68625e-06;-0.0020314450894320336
6.68650e-06;-0.0020281799889007536
6.68675e-06;-0.0020249148883694627
6.68700e-06;-0.002021821824918954
6.68725e-06;-0.0020191503261136694
6.68750e-06;-0.0020157312639432655
6.68775e-06;-0.0020104803508522616
6.68800e-06;-0.0020025914908702288
6.68825e-06;-0.0019882385294268156
6.68850e-06;-0.001971153420753202
6.68875e-06;-0.0019473733793789357
6.68900e-06;-0.0019212036454457912
6.68925e-06;-0.001889178139657167
6.68950e-06;-0.0018545713859996614
6.68975e-06;-0.001813639467806868
6.69000e-06;-0.0017692747536217886
6.69025e-06;-0.0017164982167175132
6.69050e-06;-0.0016605626451215278
6.69075e-06;-0.0015968860834269356
6.69100e-06;-0.0015305976722486687
6.69125e-06;-0.0014579091094531489
6.69150e-06;-0.0013828213058551973
6.69175e-06;-0.001301854333108968
6.69200e-06;-0.0012182873871400524
6.69225e-06;-0.001128349391486453
6.69250e-06;-0.0010367548767947043
6.69275e-06;-0.000940222606513575
6.69300e-06;-0.0008408281854433632
6.69325e-06;-0.000739151871900973
6.69350e-06;-0.0006356881840219262
6.69375e-06;-0.0005306540199291509
