Time(s);Current(A)
2.25000e-06;0.0055839331221848535
2.25025e-06;0.0055548723442307695
2.25050e-06;0.005525811566276685
2.25075e-06;0.00549675078832265
2.25100e-06;0.005467690010368565
2.25125e-06;0.005438629232414481
2.25150e-06;0.005409568454460446
2.25175e-06;0.005380507676506362
2.25200e-06;0.005351446898552277
2.25225e-06;0.005327807237355608
2.25250e-06;0.005318469077564175
2.25275e-06;0.0053091309177727255
2.25300e-06;0.005299792757981276
2.25325e-06;0.005290454598189842
2.25350e-06;0.005281116438398393
2.25375e-06;0.0052717782786069435
2.25400e-06;0.0052624401188155106
2.25425e-06;0.005253101959024061
2.25450e-06;0.005243763799232612
2.25475e-06;0.005234425639441162
2.25500e-06;0.0052307700861409494
2.25525e-06;0.00524210587288342
2.25550e-06;0.0052534416596258906
2.25575e-06;0.005264777446368342
2.25600e-06;0.005276113233110812
2.25625e-06;0.005287449019853282
2.25650e-06;0.005298784806595752
2.25675e-06;0.005310120593338203
2.25700e-06;0.005321456380080673
2.25725e-06;0.005332792166823144
2.25750e-06;0.005344127953565595
2.25775e-06;0.005355463740308065
2.25800e-06;0.005369117480902234
2.25825e-06;0.005388886238337386
2.25850e-06;0.005408654995772572
2.25875e-06;0.005428423753207757
2.25900e-06;0.005448192510642942
2.25925e-06;0.005467961268078095
2.25950e-06;0.00548773002551328
2.25975e-06;0.005507498782948466
2.26000e-06;0.005527267540383618
2.26025e-06;0.0055470362978188035
2.26050e-06;0.005566805055253989
2.26075e-06;0.005586573812689174
2.26100e-06;0.005603375405229924
2.26125e-06;0.0056123492908961665
2.26150e-06;0.00562132317656241
2.26175e-06;0.005630297062228638
2.26200e-06;0.005639270947894881
2.26225e-06;0.005648244833561124
2.26250e-06;0.005657218719227352
2.26275e-06;0.005666192604893595
2.26300e-06;0.005675166490559838
2.26325e-06;0.005684140376226081
2.26350e-06;0.005693114261892309
2.26375e-06;0.005695643707656677
2.26400e-06;0.005681172013168256
2.26425e-06;0.00566670031867986
2.26450e-06;0.005652228624191438
2.26475e-06;0.005637756929703017
2.26500e-06;0.005623285235214595
2.26525e-06;0.005608813540726198
2.26550e-06;0.005594341846237776
2.26575e-06;0.005579870151749355
2.26600e-06;0.005565398457260958
2.26625e-06;0.005550926762772536
2.26650e-06;0.005531680344537934
2.26675e-06;0.0054998376806538254
2.26700e-06;0.005467995016769662
2.26725e-06;0.005436152352885499
2.26750e-06;0.005404309689001336
2.26775e-06;0.0053724670251172274
2.26800e-06;0.005340624361233065
2.26825e-06;0.005308781697348902
2.26850e-06;0.005276939033464793
2.26875e-06;0.005245096369580629
2.26900e-06;0.00521298668171341
2.26925e-06;0.005180172555251665
2.26950e-06;0.005147358428789976
2.26975e-06;0.005114544302328232
2.27000e-06;0.005081730175866488
2.27025e-06;0.005048916049404799
2.27050e-06;0.005016101922943055
2.27075e-06;0.004983287796481311
2.27100e-06;0.004950473670019622
2.27125e-06;0.004917659543557877
2.27150e-06;0.00488754376898086
2.27175e-06;0.004864546543035666
2.27200e-06;0.00484154931709051
2.27225e-06;0.0048185520911453155
2.27250e-06;0.004795554865200121
2.27275e-06;0.004772557639254965
2.27300e-06;0.004749560413309771
2.27325e-06;0.004726563187364576
2.27350e-06;0.0047035659614193814
2.27375e-06;0.004680568735474226
2.27400e-06;0.004657571509529031
2.27425e-06;0.004634574283583837
2.27450e-06;0.004611108765171051
2.27475e-06;0.004586407839796027
2.27500e-06;0.004561706914421002
2.27525e-06;0.004537005989046019
2.27550e-06;0.004512305063670995
2.27575e-06;0.00448760413829597
2.27600e-06;0.0044629032129209455
2.27625e-06;0.004438202287545963
2.27650e-06;0.0044135013621709384
2.27675e-06;0.0043888004367959145
2.27700e-06;0.004364099511420931
2.27725e-06;0.0043393985860459075
2.27750e-06;0.0043142693893501215
2.27775e-06;0.004288010365873075
2.27800e-06;0.004261751342396073
2.27825e-06;0.004235492318919026
2.27850e-06;0.004209233295441979
2.27875e-06;0.0041829742719649765
2.27900e-06;0.00415671524848793
2.27925e-06;0.004130456225010883
2.27950e-06;0.004104197201533881
2.27975e-06;0.004081261937680205
2.28000e-06;0.004059292366847109
2.28025e-06;0.004037322796014013
2.28050e-06;0.004015353225180954
2.28075e-06;0.003993383654347858
2.28100e-06;0.0039714140835147614
2.28125e-06;0.0039494445126817025
2.28150e-06;0.003927474941848606
2.28175e-06;0.0039110899840640026
2.28200e-06;0.0039094378488607195
2.28225e-06;0.00390778571365744
2.28250e-06;0.0039061335784541574
2.28275e-06;0.003904481443250875
2.28300e-06;0.003902829308047595
2.28325e-06;0.0039011771728443122
2.28350e-06;0.0038995250376410297
2.28375e-06;0.003929357186957648
2.28400e-06;0.003968336855127884
2.28425e-06;0.00400731652329812
2.28450e-06;0.0040462961914683555
2.28475e-06;0.004085275859638525
2.28500e-06;0.0041242555278087605
2.28525e-06;0.004163235195978996
2.28550e-06;0.0042128257758598615
2.28575e-06;0.00429040910623284
2.28600e-06;0.004367992436605818
2.28625e-06;0.004445575766978796
2.28650e-06;0.004523159097351642
2.28675e-06;0.00460074242772462
2.28700e-06;0.004678325758097598
2.28725e-06;0.0047559090884704445
2.28750e-06;0.004850809133749831
2.28775e-06;0.004950740418535091
2.28800e-06;0.00505067170332018
2.28825e-06;0.00515060298810544
2.28850e-06;0.005250534272890699
2.28875e-06;0.005350465557675959
2.28900e-06;0.0054503968424610486
2.28925e-06;0.005549746689479336
2.28950e-06;0.005647562639808836
2.28975e-06;0.00574537859013817
2.29000e-06;0.00584319454046767
2.29025e-06;0.00594101049079717
2.29050e-06;0.00603882644112667
2.29075e-06;0.006136642391456004
2.29100e-06;0.006214824742561591
2.29125e-06;0.006287302701084891
2.29150e-06;0.006359780659608069
2.29175e-06;0.0064322586181313705
2.29200e-06;0.006504736576654671
2.29225e-06;0.006577214535177849
2.29250e-06;0.006640954666859235
2.29275e-06;0.006681643451652254
2.29300e-06;0.006722332236445273
2.29325e-06;0.006763021021238223
2.29350e-06;0.006803709806031242
2.29375e-06;0.006844398590824262
2.29400e-06;0.0068850873756172125
2.29425e-06;0.006925776160410232
2.29450e-06;0.006966464945203251
2.29475e-06;0.00700715372999627
2.29500e-06;0.0070404937362587355
2.29525e-06;0.007054446857637754
2.29550e-06;0.007068399979016772
2.29575e-06;0.007082353100395766
2.29600e-06;0.007096306221774784
2.29625e-06;0.007110259343153801
2.29650e-06;0.0071242124645327955
2.29675e-06;0.007138165585911813
2.29700e-06;0.007152118707290831
2.29725e-06;0.007166071828669849
2.29750e-06;0.007177357129331638
2.29775e-06;0.007180166909705982
2.29800e-06;0.007179184364389762
2.29825e-06;0.007178201819073545
2.29850e-06;0.007177219273757325
2.29875e-06;0.007176236728441105
2.29900e-06;0.007175254183124886
2.29925e-06;0.007174271637808668
2.29950e-06;0.007173289092492448
2.29975e-06;0.007172306547176229
2.30000e-06;0.007168796139567173
2.30025e-06;0.007164551280839436
2.30050e-06;0.007160306422111699
2.30075e-06;0.007156061563383969
2.30100e-06;0.007151816704656232
2.30125e-06;0.007147571845928495
2.30150e-06;0.007143326987200758
2.30175e-06;0.007139082128473029
2.30200e-06;0.007131348853264618
2.30225e-06;0.007114412752245234
2.30250e-06;0.007097476651225878
2.30275e-06;0.007080540550206494
2.30300e-06;0.00706360444918711
2.30325e-06;0.007046668348167725
2.30350e-06;0.00702973224714837
2.30375e-06;0.007012796146128986
2.30400e-06;0.006995860045109601
2.30425e-06;0.0069563068164377505
2.30450e-06;0.006910182353742072
2.30475e-06;0.0068640578910463945
2.30500e-06;0.006817933428350794
2.30525e-06;0.006771808965655116
2.30550e-06;0.006725684502959438
2.30575e-06;0.0066795600402637595
2.30600e-06;0.00663343557756816
2.30625e-06;0.006580535279848777
2.30650e-06;0.006509759585141923
2.30675e-06;0.00643898389043519
2.30700e-06;0.006368208195728336
2.30725e-06;0.0062974325010214825
2.30750e-06;0.0062266568063146285
2.30775e-06;0.006155881111607895
2.30800e-06;0.006085105416901041
2.30825e-06;0.006014329722194188
2.30850e-06;0.005939051597787158
2.30875e-06;0.005862465326753583
2.30900e-06;0.005785879055720008
2.30925e-06;0.005709292784686563
2.30950e-06;0.005632706513652988
2.30975e-06;0.005556120242619413
2.31000e-06;0.005479533971585838
2.31025e-06;0.005402947700552392
2.31050e-06;0.005331506934553639
2.31075e-06;0.005273640575971922
2.31100e-06;0.005215774217390303
2.31125e-06;0.005157907858808586
2.31150e-06;0.005100041500226869
2.31175e-06;0.005042175141645152
2.31200e-06;0.004984308783063532
2.31225e-06;0.004926442424481816
2.31250e-06;0.004868576065900099
2.31275e-06;0.00482376872313484
2.31300e-06;0.004782755577863374
2.31325e-06;0.004741742432591909
2.31350e-06;0.004700729287320513
2.31375e-06;0.004659716142049047
2.31400e-06;0.004618702996777582
2.31425e-06;0.004577689851506117
2.31450e-06;0.004536676706234721
2.31475e-06;0.004497010113181009
2.31500e-06;0.004460895872770856
2.31525e-06;0.004424781632360764
2.31550e-06;0.00438866739195061
2.31575e-06;0.004352553151540456
2.31600e-06;0.0043164389111303636
2.31625e-06;0.0042803246707202106
2.31650e-06;0.004244210430310057
2.31675e-06;0.004208096189899903
2.31700e-06;0.0041719819494898105
2.31725e-06;0.0041358677090796575
2.31750e-06;0.004099753468669504
2.31775e-06;0.004063639228259411
2.31800e-06;0.0040275249878492575
2.31825e-06;0.003996629454549876
2.31850e-06;0.003967250176818344
2.31875e-06;0.003937870899086863
2.31900e-06;0.003908491621355331
2.31925e-06;0.0038791123436237997
2.31950e-06;0.003849733065892318
2.31975e-06;0.003820353788160786
2.32000e-06;0.0037909745104292548
2.32025e-06;0.003761595232697773
2.32050e-06;0.003732215954966241
2.32075e-06;0.00370283667723471
2.32100e-06;0.003673457399503178
2.32125e-06;0.0036440781217716963
2.32150e-06;0.0036197704812338796
2.32175e-06;0.003608842376636768
2.32200e-06;0.0035979142720396753
2.32225e-06;0.0035869861674425636
2.32250e-06;0.0035760580628454524
2.32275e-06;0.003565129958248341
2.32300e-06;0.003554201853651248
2.32325e-06;0.003543273749054137
2.32350e-06;0.003532345644457025
2.32375e-06;0.0035214175398599326
2.32400e-06;0.003510489435262821
2.32425e-06;0.0034995613306657096
2.32450e-06;0.0034886332260686166
2.32475e-06;0.0034777051214715054
2.32500e-06;0.0034823197853761367
2.32525e-06;0.003491450282183812
2.32550e-06;0.0035005807789914717
2.32575e-06;0.003509711275799147
2.32600e-06;0.0035188417726068223
2.32625e-06;0.003527972269414482
2.32650e-06;0.003537102766222157
2.32675e-06;0.0035462332630298325
2.32700e-06;0.0035553637598375078
2.32725e-06;0.0035644942566451674
2.32750e-06;0.0035736247534528427
2.32775e-06;0.0035827552502605176
2.32800e-06;0.0035918857470681777
2.32825e-06;0.003602878873809756
2.32850e-06;0.0036187858228919037
2.32875e-06;0.0036346927719740243
2.32900e-06;0.003650599721056172
2.32925e-06;0.0036665066701383198
2.32950e-06;0.0036824136192204673
2.32975e-06;0.0036983205683025883
2.33000e-06;0.003714227517384736
2.33025e-06;0.0037301344664668833
2.33050e-06;0.0037460414155490044
2.33075e-06;0.003761948364631152
2.33100e-06;0.0037778553137133
2.33125e-06;0.0037904125421545595
2.33150e-06;0.0038019965347990355
2.33175e-06;0.003813580527443531
2.33200e-06;0.003825164520088027
2.33225e-06;0.0038367485127325032
2.33250e-06;0.003848332505376999
2.33275e-06;0.003859916498021495
2.33300e-06;0.003871500490665971
2.33325e-06;0.0038830844833104665
2.33350e-06;0.003894668475954962
2.33375e-06;0.003906252468599458
2.33400e-06;0.003918126811134611
2.33425e-06;0.003930767128570919
2.33450e-06;0.003943407446007226
2.33475e-06;0.003956047763443512
2.33500e-06;0.00396868808087982
2.33525e-06;0.003981328398316128
2.33550e-06;0.003993968715752435
2.33575e-06;0.004006609033188721
2.33600e-06;0.004019249350625029
2.33625e-06;0.004031889668061337
2.33650e-06;0.0040445299854976234
2.33675e-06;0.004057170302933931
2.33700e-06;0.004069810620370239
2.33725e-06;0.004082450937806525
2.33750e-06;0.0040950912552428324
2.33775e-06;0.00410773157267914
2.33800e-06;0.004120220727559674
2.33825e-06;0.004132311099015651
2.33850e-06;0.004144401470471648
2.33875e-06;0.004156491841927646
2.33900e-06;0.004168582213383622
2.33925e-06;0.004180672584839619
2.33950e-06;0.0041927629562956165
2.33975e-06;0.004204853327751614
2.34000e-06;0.00421694369920759
2.34025e-06;0.004229034070663587
2.34050e-06;0.004241124442119585
2.34075e-06;0.004253214813575562
2.34100e-06;0.004265305185031559
2.34125e-06;0.004277395556487556
2.34150e-06;0.004289485927943533
2.34175e-06;0.00430157629939953
2.34200e-06;0.0043115429545222276
2.34225e-06;0.004315907012706547
2.34250e-06;0.004320271070890858
2.34275e-06;0.004324635129075176
2.34300e-06;0.004328999187259495
2.34325e-06;0.004333363245443807
2.34350e-06;0.004337727303628125
2.34375e-06;0.004342091361812443
2.34400e-06;0.004346455419996762
2.34425e-06;0.004350819478181073
2.34450e-06;0.004355183536365392
2.34475e-06;0.004359547594549711
2.34500e-06;0.004363911652734022
2.34525e-06;0.00436827571091834
2.34550e-06;0.004372639769102659
2.34575e-06;0.00437700382728697
2.34600e-06;0.004381367885471289
2.34625e-06;0.004385731943655607
2.34650e-06;0.004390096001839926
2.34675e-06;0.0043944600600242375
2.34700e-06;0.004395746771745504
2.34725e-06;0.0043961393839108695
2.34750e-06;0.004396531996076234
2.34775e-06;0.0043969246082416
2.34800e-06;0.004397317220406966
2.34825e-06;0.004397709832572331
2.34850e-06;0.0043981024447376955
2.34875e-06;0.004398495056903062
2.34900e-06;0.004398887669068427
2.34925e-06;0.004399280281233792
2.34950e-06;0.004399672893399157
2.34975e-06;0.004400065505564522
2.35000e-06;0.004400458117729888
2.35025e-06;0.004400850729895253
2.35050e-06;0.0044012433420606185
2.35075e-06;0.004401635954225984
2.35100e-06;0.004402028566391349
2.35125e-06;0.004402421178556715
2.35150e-06;0.00440281379072208
2.35175e-06;0.0044017910934570715
2.35200e-06;0.004397034654468771
2.35225e-06;0.0043922782154804715
2.35250e-06;0.004387521776492172
2.35275e-06;0.00438276533750388
2.35300e-06;0.00437800889851558
2.35325e-06;0.004365388813982768
2.35350e-06;0.004352236488622879
2.35375e-06;0.004339084163262967
2.35400e-06;0.004325931837903056
2.35425e-06;0.004312779512543167
2.35450e-06;0.004285074153065208
2.35475e-06;0.001534441406716471
2.35500e-06;-0.0294831643506505
2.35525e-06;-0.019070766496986455
2.35550e-06;-0.012215615330226463
2.35575e-06;-0.007374114766369689
2.35600e-06;0.01929355107401199
2.35625e-06;0.014122076108279837
2.35650e-06;0.011634460655495078
2.35675e-06;0.0023128010140837253
2.35700e-06;-0.008916748756225664
2.35725e-06;-0.008880600275231553
2.35750e-06;-0.0036172109580025306
2.35775e-06;0.003648149597060936
2.35800e-06;0.01172554602061133
2.35825e-06;0.012417663620040435
2.35850e-06;0.00945806041145423
2.35875e-06;0.003442729038326846
2.35900e-06;-0.0037255817937047694
2.35925e-06;-0.003807001665383723
2.35950e-06;-0.00059273358465686
2.35975e-06;0.0038909468910185326
2.36000e-06;0.00889457075467783
2.36025e-06;0.009280752983190968
2.36050e-06;0.007386588104903045
2.36075e-06;0.0035842875591123075
2.36100e-06;-0.0009350299645644821
2.36125e-06;-0.001010668162746581
2.36150e-06;0.0009819055899332502
2.36175e-06;0.0037730664324681284
2.36200e-06;0.00689291778416161
2.36225e-06;0.0071225525329573795
2.36250e-06;0.005924917994838569
2.36275e-06;0.0035327169451154104
2.36300e-06;0.0006920465940665042
2.36325e-06;0.0006354012227208526
2.36350e-06;0.001874565969261142
2.36375e-06;0.003614137864525905
2.36400e-06;0.0055597183795489825
2.36425e-06;0.005695042560982542
2.36450e-06;0.004936607278404343
2.36475e-06;0.003430238298960651
2.36500e-06;0.001643325541258616
2.36525e-06;0.001600621855436478
2.36550e-06;0.0023697849155271916
2.36575e-06;0.0034525150408483167
2.36600e-06;0.004664372456086529
2.36625e-06;0.00474240967637333
2.36650e-06;0.004260788121037233
2.36675e-06;0.0033108921976113914
2.36700e-06;0.0021855169311274353
2.36725e-06;0.0021529147112637585
2.36750e-06;0.0026289876230438146
2.36775e-06;0.0033015619245045282
2.36800e-06;0.004055085183198515
2.36825e-06;0.00409847027719517
2.36850e-06;0.0037914131561869436
2.36875e-06;0.0031911796257133593
2.36900e-06;0.002481187499377534
2.36925e-06;0.002455835670306232
2.36950e-06;0.0027491934403060443
2.36975e-06;0.003165689057065155
2.37000e-06;0.003632926379490984
2.37025e-06;0.0036553809610971543
2.37050e-06;0.0034583900269904095
2.37075e-06;0.0030778368479025707
2.37100e-06;0.0026286195315371437
2.37125e-06;0.0026083259247820867
2.37150e-06;0.0027877027391424954
2.37175e-06;0.003044278756483136
2.37200e-06;0.0033333544722854917
2.37225e-06;0.0033467642195593636
2.37250e-06;0.003228325317120941
2.37275e-06;0.003001439788180112
2.37300e-06;0.002737787567201222
2.37325e-06;0.0027486868498682437
2.37350e-06;0.002890156183305783
2.37375e-06;0.003085112243367791
2.37400e-06;0.0033051925224297893
2.37425e-06;0.003357010470685841
2.37450e-06;0.0033303049280994763
2.37475e-06;0.0032393826934894567
2.37500e-06;0.0031287889382214523
2.37525e-06;0.0031931665897921946
2.37550e-06;0.0033419552024358027
2.37575e-06;0.0035265060436363888
2.37600e-06;0.0037286910417892644
2.37625e-06;0.003827018242436073
2.37650e-06;0.0038773483041002117
2.37675e-06;0.003888288300858062
2.37700e-06;0.00388738430418944
2.37725e-06;0.003996197609636414
2.37750e-06;0.004157635095381882
2.37775e-06;0.004340860635405189
2.37800e-06;0.004534159282228837
2.37825e-06;0.004661072282294983
2.37850e-06;0.004756236389239627
2.37875e-06;0.0048246871045782005
2.37900e-06;0.004883322264204878
2.37925e-06;0.005007926301796448
2.37950e-06;0.0051623728699759985
2.37975e-06;0.005326986595645088
2.38000e-06;0.005494069506179106
2.38025e-06;0.005615371287106263
2.38050e-06;0.0057122329770747235
2.38075e-06;0.005787452128669441
2.38100e-06;0.005851257129333937
2.38125e-06;0.0059507588912160285
2.38150e-06;0.006062967227667589
2.38175e-06;0.0061752277167103475
2.38200e-06;0.006282729778833448
2.38225e-06;0.006356224475659507
2.38250e-06;0.006410557333960239
2.38275e-06;0.006449470241859101
2.38300e-06;0.006485401830941015
2.38325e-06;0.006523271274815472
2.38350e-06;0.006576026515230533
2.38375e-06;0.006625053167693055
2.38400e-06;0.006660810133792168
2.38425e-06;0.006693581573285986
2.38450e-06;0.006701619769818276
2.38475e-06;0.006698229440237563
2.38500e-06;0.006690997021953749
2.38525e-06;0.006684763916929435
2.38550e-06;0.006685915445514987
2.38575e-06;0.00668374010881133
2.38600e-06;0.0066795980236737
2.38625e-06;0.006659025511705437
2.38650e-06;0.006629038893522746
2.38675e-06;0.00659016191918847
2.38700e-06;0.006551284944854128
2.38725e-06;0.006512939342366734
2.38750e-06;0.006478166920514508
2.38775e-06;0.006438862624338869
2.38800e-06;0.006399558328163231
2.38825e-06;0.006358930805338652
2.38850e-06;0.006307499824722475
2.38875e-06;0.006252461454530424
2.38900e-06;0.006197423084338373
2.38925e-06;0.00614303241767406
2.38950e-06;0.006093624040069778
2.38975e-06;0.006043590830224354
2.39000e-06;0.005993557620379016
2.39025e-06;0.005943524410533592
2.39050e-06;0.00589380727441052
2.39075e-06;0.005846560465293105
2.39100e-06;0.005799313656175609
2.39125e-06;0.005752066847058113
2.39150e-06;0.00570674713611706
2.39175e-06;0.005676488983069285
2.39200e-06;0.005646230830021458
2.39225e-06;0.005615972676973632
2.39250e-06;0.005585714523925857
2.39275e-06;0.00555545637087803
2.39300e-06;0.005525198217830204
2.39325e-06;0.005494940064782377
2.39350e-06;0.005464681911734602
2.39375e-06;0.00543625058454175
2.39400e-06;0.005422097120154889
2.39425e-06;0.005407943655768053
2.39450e-06;0.005393790191381193
2.39475e-06;0.005379636726994332
2.39500e-06;0.0053654832626074955
2.39525e-06;0.005351329798220635
2.39550e-06;0.005337176333833775
2.39575e-06;0.005323022869446914
2.39600e-06;0.005310311952724297
2.39625e-06;0.005308875508379953
2.39650e-06;0.005307439064035608
2.39675e-06;0.005306002619691266
2.39700e-06;0.005304566175346922
2.39725e-06;0.005303129731002577
2.39750e-06;0.005301693286658233
2.39775e-06;0.005300256842313891
2.39800e-06;0.005298820397969546
2.39825e-06;0.005297383953625202
2.39850e-06;0.00529594750928086
2.39875e-06;0.005294511064936515
2.39900e-06;0.0052930746205921714
2.39925e-06;0.005291638176247829
2.39950e-06;0.005292617676279044
2.39975e-06;0.005295119622635606
2.40000e-06;0.005297621568992168
2.40025e-06;0.005300123515348726
