Time(s);Current(A)
6.50000e-06;-0.0017909763464011013
6.50025e-06;-0.0017976364087551593
6.50050e-06;-0.00180497098555384
6.50075e-06;-0.0018188174530357662
6.50100e-06;-0.001832663920517692
6.50125e-06;-0.0018465103879996652
6.50150e-06;-0.0018607918453596
6.50175e-06;-0.0018792727776996258
6.50200e-06;-0.001898025228034151
6.50225e-06;-0.0019193989647062544
6.50250e-06;-0.0019409518230525823
6.50275e-06;-0.001964335640125266
6.50300e-06;-0.00198878948758787
6.50325e-06;-0.0020141713606013677
6.50350e-06;-0.002040341585086725
6.50375e-06;-0.0020671846668383087
6.50400e-06;-0.002094619928811237
6.50425e-06;-0.0021225514314972362
6.50450e-06;-0.0021508313392800808
6.50475e-06;-0.002179289387399052
6.50500e-06;-0.002207754743721818
6.50525e-06;-0.002236057143487662
6.50550e-06;-0.0022640270439171608
6.50575e-06;-0.0022915103429884958
6.50600e-06;-0.002318375003055408
6.50625e-06;-0.002344478899182618
6.50650e-06;-0.0023696482069532447
6.50675e-06;-0.00239362474128448
6.50700e-06;-0.002415756807363039
6.50725e-06;-0.00243750405995911
6.50750e-06;-0.002455536250038661
6.50775e-06;-0.0024735684401181518
6.50800e-06;-0.0024911277783339998
6.50825e-06;-0.0025041221147640274
6.50850e-06;-0.0025171164511940108
6.50875e-06;-0.002530110787623994
6.50900e-06;-0.0025425368746651213
6.50925e-06;-0.002549476974075834
6.50950e-06;-0.0025564170734865468
6.50975e-06;-0.002563357172897283
6.51000e-06;-0.0025696608493096357
6.51025e-06;-0.0025698203771056458
6.51050e-06;-0.0025699799049016567
6.51075e-06;-0.0025701394326976667
6.51100e-06;-0.002570298960493677
6.51125e-06;-0.0025704584882896876
6.51150e-06;-0.0025699921883606926
6.51175e-06;-0.002563484028599043
6.51200e-06;-0.002556975868837415
6.51225e-06;-0.002550467709075788
6.51250e-06;-0.002543959549314138
6.51275e-06;-0.002537451389552511
6.51300e-06;-0.0025306067233249008
6.51325e-06;-0.0025205133597020423
6.51350e-06;-0.002510419996079218
6.51375e-06;-0.0025001825891863734
6.51400e-06;-0.0024885545611809724
6.51425e-06;-0.002476926533175611
6.51450e-06;-0.0024652342123665048
6.51475e-06;-0.002452921196607472
6.51500e-06;-0.0024406081808484806
6.51525e-06;-0.0024282893302225283
6.51550e-06;-0.0024159141486816394
6.51575e-06;-0.0024035389671407926
6.51600e-06;-0.00239124331753185
6.51625e-06;-0.0023797154843134744
6.51650e-06;-0.0023681876510950983
6.51675e-06;-0.0023568759497989513
6.51700e-06;-0.002347650827168355
6.51725e-06;-0.0023384257045377587
6.51750e-06;-0.0023292005819071314
6.51775e-06;-0.0023199754592765354
6.51800e-06;-0.0023109579617546835
6.51825e-06;-0.00230394491650329
6.51850e-06;-0.0022969318712519208
6.51875e-06;-0.002289918826000551
6.51900e-06;-0.002282905780749158
6.51925e-06;-0.0022761544478564822
6.51950e-06;-0.0022719297358273828
6.51975e-06;-0.002267705023798269
6.52000e-06;-0.0022634803117691695
6.52025e-06;-0.0022592555997400557
6.52050e-06;-0.0022550308877109563
6.52075e-06;-0.002250806175681857
6.52100e-06;-0.002246581463652743
6.52125e-06;-0.0022423567516236436
6.52150e-06;-0.002238132039594544
6.52175e-06;-0.0022339073275654303
6.52200e-06;-0.002229682615536331
6.52225e-06;-0.0022254579035072314
6.52250e-06;-0.0022212331914781176
6.52275e-06;-0.002217214006315928
6.52300e-06;-0.0022151790165981125
6.52325e-06;-0.0022131440268802903
6.52350e-06;-0.0022111090371624747
6.52375e-06;-0.002209074047444659
6.52400e-06;-0.0022070390577268364
6.52425e-06;-0.0022050040680090207
6.52450e-06;-0.0022029690782911985
6.52475e-06;-0.002200934088573383
6.52500e-06;-0.002198899098855567
6.52525e-06;-0.0021968641091377446
6.52550e-06;-0.002194829119419929
6.52575e-06;-0.0021927941297021133
6.52600e-06;-0.002190759139984291
6.52625e-06;-0.002188787512426149
6.52650e-06;-0.0021874275952026958
6.52675e-06;-0.002186067677979238
6.52700e-06;-0.002184707760755785
6.52725e-06;-0.0021833478435323316
6.52750e-06;-0.0021819879263088736
6.52775e-06;-0.0021806280090854203
6.52800e-06;-0.002179268091861967
6.52825e-06;-0.0021772045710280277
6.52850e-06;-0.0021746598562692333
6.52875e-06;-0.0021721151415104306
6.52900e-06;-0.0021695704267516366
6.52925e-06;-0.0021670257119928427
6.52950e-06;-0.00216448099723404
6.52975e-06;-0.0021619362824752456
6.53000e-06;-0.0021591544416980956
6.53025e-06;-0.0021540833412623185
6.53050e-06;-0.002149012240826559
6.53075e-06;-0.0021439411403907987
6.53100e-06;-0.0021388700399550217
6.53125e-06;-0.002133798939519262
6.53150e-06;-0.0021287278390835023
6.53175e-06;-0.0021236567386477253
6.53200e-06;-0.0021185856382119656
6.53225e-06;-0.002113514537776206
6.53250e-06;-0.00210729081443448
6.53275e-06;-0.0021002788132447347
6.53300e-06;-0.0020932668120549657
6.53325e-06;-0.0020862548108652205
6.53350e-06;-0.0020792428096754758
6.53375e-06;-0.0020722308084857068
6.53400e-06;-0.0020652188072959616
6.53425e-06;-0.0020582068061062164
6.53450e-06;-0.002051194804916448
6.53475e-06;-0.00204416813968887
6.53500e-06;-0.002036999905052481
6.53525e-06;-0.002029831670416068
6.53550e-06;-0.0020226634357796793
6.53575e-06;-0.0020154952011432904
6.53600e-06;-0.0020088042088003753
6.53625e-06;-0.0020024396020655983
6.53650e-06;-0.0019960749953308217
6.53675e-06;-0.0019897103885960234
6.53700e-06;-0.00198344092685803
6.53725e-06;-0.0019780900130055585
6.53750e-06;-0.0019727720650588036
6.53775e-06;-0.0019677723762323023
6.53800e-06;-0.0019626259088140505
6.53825e-06;-0.001956062412969448
6.53850e-06;-0.0019494989171248453
6.53875e-06;-0.001942717489120353
6.53900e-06;-0.0019338321026169446
6.53925e-06;-0.0019249467161135362
6.53950e-06;-0.0019160613296100976
6.53975e-06;-0.0019071759431066892
6.54000e-06;-0.0018962192138199249
6.54025e-06;-0.00188384589492419
6.54050e-06;-0.001871472576028497
6.54075e-06;-0.001859099257132804
6.54100e-06;-0.0018463895373955332
6.54125e-06;-0.0018304321399867497
6.54150e-06;-0.001814474742577912
6.54175e-06;-0.0017985173451691287
6.54200e-06;-0.0017825599477603452
6.54225e-06;-0.001766315422448361
6.54250e-06;-0.0017472989097787382
6.54275e-06;-0.0017282823971091154
6.54300e-06;-0.001709265884439428
6.54325e-06;-0.001690249371769805
6.54350e-06;-0.0016711162229504021
6.54375e-06;-0.0016508570465694013
6.54400e-06;-0.001630597870188469
6.54425e-06;-0.0016103021111584436
6.54450e-06;-0.0015896531762799647
6.54475e-06;-0.0015690223906787797
6.54500e-06;-0.0015485668216499253
6.54525e-06;-0.0015281745620203027
6.54550e-06;-0.0015083935033661136
6.54575e-06;-0.0014887032785117207
6.54600e-06;-0.001469889980427879
6.54625e-06;-0.0014511960020955718
6.54650e-06;-0.0014336539593260208
6.54675e-06;-0.0014162306899722092
6.54700e-06;-0.0014000494173583187
6.54725e-06;-0.0013848959533765146
6.54750e-06;-0.0013709656790308077
6.54775e-06;-0.0013588323503210564
6.54800e-06;-0.0013469763635465919
6.54825e-06;-0.0013377978885354518
6.54850e-06;-0.0013289087147515873
6.54875e-06;-0.0013228125100087774
6.54900e-06;-0.0013170879229171125
6.54925e-06;-0.0013149510032696573
6.54950e-06;-0.001312814083622195
6.54975e-06;-0.0013111326769603508
6.55000e-06;-0.0013138488792492262
6.55025e-06;-0.0013165650815380923
6.55050e-06;-0.0013197117382078626
6.55075e-06;-0.0013270140832950183
6.55100e-06;-0.001334316428382149
6.55125e-06;-0.0013420062421448285
6.55150e-06;-0.0013534367521541957
6.55175e-06;-0.0013648672621635243
6.55200e-06;-0.001376584409102309
6.55225e-06;-0.0013910688034440653
6.55250e-06;-0.0014057447649913207
6.55275e-06;-0.0014222701527552978
6.55300e-06;-0.0014389514593100945
6.55325e-06;-0.001457138035508881
6.55350e-06;-0.001475419384589106
6.55375e-06;-0.0014946670227991249
6.55400e-06;-0.0015144515713180868
6.55425e-06;-0.001534665301039615
6.55450e-06;-0.001555189551561494
6.55475e-06;-0.001575901992233986
6.55500e-06;-0.001596680503384565
6.55525e-06;-0.0016174029544137763
6.55550e-06;-0.0016379471857207923
6.55575e-06;-0.0016581917214914291
6.55600e-06;-0.0016780138482316586
6.55625e-06;-0.0016972833182318913
6.55650e-06;-0.0017158183144875448
6.55675e-06;-0.0017331815433227103
6.55700e-06;-0.0017502817770020842
6.55725e-06;-0.0017648430054562467
6.55750e-06;-0.0017794042339103597
6.55775e-06;-0.0017937142352830743
6.55800e-06;-0.0018055988426577826
6.55825e-06;-0.0018174834500324507
6.55850e-06;-0.001829179181295895
6.55875e-06;-0.001839051466678988
6.55900e-06;-0.001848923752062081
6.55925e-06;-0.0018587960374452073
6.55950e-06;-0.0018671801559581092
6.55975e-06;-0.0018745465183850679
6.56000e-06;-0.0018819128808120515
6.56025e-06;-0.0018891086782244486
6.56050e-06;-0.001894657808564868
6.56075e-06;-0.0019002069389053061
6.56100e-06;-0.0019057560692457255
6.56125e-06;-0.0019113051995861448
6.56150e-06;-0.0019156686907054322
6.56175e-06;-0.0019192213241465876
6.56200e-06;-0.0019227739575877433
6.56225e-06;-0.0019263265910289106
6.56250e-06;-0.0019296547537623774
6.56275e-06;-0.0019308158336161544
6.56300e-06;-0.0019319769134699277
6.56325e-06;-0.0019331379933237008
6.56350e-06;-0.0019342990731774778
6.56375e-06;-0.0019354601530312508
6.56400e-06;-0.0019366212328850241
6.56425e-06;-0.001937782312738801
6.56450e-06;-0.0019389433925925742
6.56475e-06;-0.0019401044724463472
6.56500e-06;-0.0019412655523001244
6.56525e-06;-0.0019424266321538975
6.56550e-06;-0.0019435877120076706
6.56575e-06;-0.0019447487918614476
6.56600e-06;-0.0019459098717152208
6.56625e-06;-0.0019469977177966318
6.56650e-06;-0.0019473785511194362
6.56675e-06;-0.0019477593844422394
6.56700e-06;-0.001948140217765044
6.56725e-06;-0.001948521051087847
6.56750e-06;-0.0019489018844106502
6.56775e-06;-0.0019492827177334548
6.56800e-06;-0.0019496635510562578
6.56825e-06;-0.001950044384379061
6.56850e-06;-0.0019504252177018656
6.56875e-06;-0.0019508060510246687
6.56900e-06;-0.001951186884347472
6.56925e-06;-0.0019515677176702765
6.56950e-06;-0.0019519485509930795
6.56975e-06;-0.0019523293843158828
6.57000e-06;-0.0019528728733841645
6.57025e-06;-0.001954986671936398
6.57050e-06;-0.001957100470488632
6.57075e-06;-0.0019592142690408724
6.57100e-06;-0.001961328067593106
6.57125e-06;-0.0019634418661453466
6.57150e-06;-0.0019655556646975803
6.57175e-06;-0.0019676694632498135
6.57200e-06;-0.0019697832618020546
6.57225e-06;-0.001971897060354288
6.57250e-06;-0.0019740108589065214
6.57275e-06;-0.0019761246574587625
6.57300e-06;-0.0019787943084343066
6.57325e-06;-0.0019818441064201713
6.57350e-06;-0.001984893904406046
6.57375e-06;-0.00198794370239191
6.57400e-06;-0.0019909935003777743
6.57425e-06;-0.001994043298363649
6.57450e-06;-0.001997093096349513
6.57475e-06;-0.0020001428943353773
6.57500e-06;-0.002003192692321252
6.57525e-06;-0.002006242490307116
6.57550e-06;-0.002009292288292991
6.57575e-06;-0.0020123188171219867
6.57600e-06;-0.0020151207010877174
6.57625e-06;-0.0020179225850534576
6.57650e-06;-0.0020206868374051845
6.57675e-06;-0.0020230877870025432
6.57700e-06;-0.00202548873659991
6.57725e-06;-0.002027836986640257
6.57750e-06;-0.0020296764651404446
6.57775e-06;-0.002031355954647524
6.57800e-06;-0.0020314908800055215
6.57825e-06;-0.002031367650743158
6.57850e-06;-0.0020287521477076634
6.57875e-06;-0.002025837380099494
6.57900e-06;-0.002020033455424705
6.57925e-06;-0.002014229530749896
6.57950e-06;-0.00200801918110563
6.57975e-06;-0.0019978851275559944
6.58000e-06;-0.0019877510740063933
6.58025e-06;-0.001977617020456792
6.58050e-06;-0.00196432706155732
6.58075e-06;-0.0019488787816124141
6.58100e-06;-0.0019334305016675078
6.58125e-06;-0.0019174871137472003
6.58150e-06;-0.001896763859327337
6.58175e-06;-0.0018760406049074738
6.58200e-06;-0.0018553173504875402
6.58225e-06;-0.001834594096067677
6.58250e-06;-0.001813414266584535
6.58275e-06;-0.0017878265746589822
6.58300e-06;-0.0017622388827335162
6.58325e-06;-0.0017366511908080502
6.58350e-06;-0.0017110634988824975
6.58375e-06;-0.0016852985439166582
6.58400e-06;-0.0016578222578666328
6.58425e-06;-0.0016302944359550514
6.58450e-06;-0.0016022690770397224
6.58475e-06;-0.0015742526452522468
6.58500e-06;-0.0015463223976548504
6.58525e-06;-0.0015184378128086128
6.58550e-06;-0.0014910430602409434
6.58575e-06;-0.001464179273884539
6.58600e-06;-0.0014379423622986104
6.58625e-06;-0.0014124375307314903
6.58650e-06;-0.0013878203856246573
6.58675e-06;-0.001364407461255889
6.58700e-06;-0.0013434373365044884
6.58725e-06;-0.001322467211753159
6.58750e-06;-0.001301894488064023
6.58775e-06;-0.001285158349762375
6.58800e-06;-0.0012684222114607842
6.58825e-06;-0.0012519626351355556
6.58850e-06;-0.0012381730406960387
6.58875e-06;-0.0012243834462565219
6.58900e-06;-0.0012105938518169582
6.58925e-06;-0.0011990194808735412
6.58950e-06;-0.001188960099437512
6.58975e-06;-0.0011789007180014487
6.59000e-06;-0.0011691395957068548
6.59025e-06;-0.001162257923852666
6.59050e-06;-0.0011553762519984538
6.59075e-06;-0.001148494580144265
6.59100e-06;-0.0011416129082900764
6.59125e-06;-0.0011366579347378682
6.59150e-06;-0.0011330206285526344
6.59175e-06;-0.0011293833223674009
6.59200e-06;-0.001125746016182155
6.59225e-06;-0.0011223997950292814
6.59250e-06;-0.0011218637641039074
6.59275e-06;-0.0011213277331785351
6.59300e-06;-0.001120791702253163
6.59325e-06;-0.001120255671327789
6.59350e-06;-0.0011197196404024168
6.59375e-06;-0.0011191836094770447
6.59400e-06;-0.0011186475785516707
6.59425e-06;-0.0011181115476262984
6.59450e-06;-0.0011188150798335976
6.59475e-06;-0.001120366348236747
6.59500e-06;-0.0011219176166398911
6.59525e-06;-0.0011234688850430352
6.59550e-06;-0.0011250201534461846
6.59575e-06;-0.0011265714218493287
6.59600e-06;-0.0011281226902524729
6.59625e-06;-0.0011296739586556222
6.59650e-06;-0.001131229370534204
6.59675e-06;-0.0011328247843121868
6.59700e-06;-0.0011343990767458125
6.59725e-06;-0.0011357694597066983
6.59750e-06;-0.0011371533426266923
6.59775e-06;-0.0011386675567176953
6.59800e-06;-0.001140319010376759
6.59825e-06;-0.0011432954009099182
6.59850e-06;-0.0011464631656103944
6.59875e-06;-0.001151478492895128
6.59900e-06;-0.0011564938201798784
6.59925e-06;-0.001161709466971096
6.59950e-06;-0.0011688590363508828
6.59975e-06;-0.0011760086057306936
6.60000e-06;-0.0011834480869072402
6.60025e-06;-0.0011936864316705867
6.60050e-06;-0.0012039247764339678
6.60075e-06;-0.0012141631211973142
6.60100e-06;-0.0012267235398153366
6.60125e-06;-0.0012397793360070066
6.60150e-06;-0.0012528351321986324
6.60175e-06;-0.0012638810913035722
6.60200e-06;-0.0051295518439133546
6.60225e-06;-0.01976696781943669
6.60250e-06;-0.01780722971355748
6.60275e-06;-0.014949233406833984
6.60300e-06;-0.010286044123216822
6.60325e-06;0.0014976740493476753
6.60350e-06;0.0014254938994807409
6.60375e-06;0.0009600530899746393
6.60400e-06;-0.001373010979902112
6.60425e-06;-0.010565162507024412
6.60450e-06;-0.011003562517456702
6.60475e-06;-0.007788326830597148
6.60500e-06;-0.004206694682895917
6.60525e-06;-6.253432935739026e-05
6.60550e-06;0.001934433327556284
6.60575e-06;0.0010083573862401727
6.60600e-06;-0.0018025635911393032
6.60625e-06;-0.005087589804517746
6.60650e-06;-0.006458273343288288
6.60675e-06;-0.005221793078706767
6.60700e-06;-0.0027374138819481787
6.60725e-06;-0.00018484235440679986
6.60750e-06;0.0010299429006868659
6.60775e-06;0.0004201208642639198
6.60800e-06;-0.0013645404937486154
6.60825e-06;-0.0034408855305069954
6.60850e-06;-0.004313459290260362
6.60875e-06;-0.0035490028534538556
6.60900e-06;-0.001999578311584093
6.60925e-06;-0.0004046257887883052
6.60950e-06;0.0003548131554380732
6.60975e-06;-2.6438842018484715e-05
6.61000e-06;-0.0011415641465465113
6.61025e-06;-0.0024375606521261483
6.61050e-06;-0.0029779223735494653
6.61075e-06;-0.0024915332168716346
6.61100e-06;-0.001512368824579848
6.61125e-06;-0.0005037969283472011
6.61150e-06;-1.782473312830411e-05
6.61175e-06;-0.0002456938318414175
6.61200e-06;-0.0009326470128482619
6.61225e-06;-0.0017323772409943235
6.61250e-06;-0.002058387743621022
6.61275e-06;-0.0017410102956904854
6.61300e-06;-0.0011148734636971741
6.61325e-06;-0.0004703451959430843
6.61350e-06;-0.0001532849634002529
6.61375e-06;-0.00028354559696552303
6.61400e-06;-0.000701606638769204
6.61425e-06;-0.0011906165635470116
6.61450e-06;-0.0013832947088687402
6.61475e-06;-0.0011734817022087528
6.61500e-06;-0.000770903513484832
6.61525e-06;-0.0003575425651162706
6.61550e-06;-0.00015012222098030202
6.61575e-06;-0.00022378178126813015
6.61600e-06;-0.0004786622007070372
6.61625e-06;-0.0007790027676179979
6.61650e-06;-0.0008948305203555072
6.61675e-06;-0.0007597519123853888
6.61700e-06;-0.0005052403048111333
6.61725e-06;-0.0002453791676027692
6.61750e-06;-0.00011599018904312381
6.61775e-06;-0.00016411746758636367
6.61800e-06;-0.00032704842897286713
6.61825e-06;-0.0005195477742571599
6.61850e-06;-0.0005974515175409265
6.61875e-06;-0.000519121627183632
6.61900e-06;-0.0003668668764707178
6.61925e-06;-0.0002120959730759096
6.61950e-06;-0.00013982720819111086
6.61975e-06;-0.00017946346417111088
6.62000e-06;-0.00029165661222629483
6.62025e-06;-0.00042295453376674425
6.62050e-06;-0.0004829988242736572
6.62075e-06;-0.0004456584899139587
6.62100e-06;-0.0003624414892223654
6.62125e-06;-0.0002780235646524348
6.62150e-06;-0.00024560101175446884
6.62175e-06;-0.00028352942830745214
6.62200e-06;-0.00036709914606582563
6.62225e-06;-0.0004627684298455967
6.62250e-06;-0.0005138816271095237
6.62275e-06;-0.0005040183680785764
6.62300e-06;-0.0004653904431703706
6.62325e-06;-0.00042592725495294275
6.62350e-06;-0.0004188926677475669
6.62375e-06;-0.0004557242914523668
6.62400e-06;-0.0005208839116024115
6.62425e-06;-0.00059330257451471
6.62450e-06;-0.0006374353620289039
6.62475e-06;-0.0006429428354524032
6.62500e-06;-0.0006299481924405334
6.62525e-06;-0.0006158903968259339
6.62550e-06;-0.0006215481735184516
6.62575e-06;-0.0006540270254279822
6.62600e-06;-0.0007035350040880108
6.62625e-06;-0.0007568167519730088
6.62650e-06;-0.0007915507579199462
6.62675e-06;-0.0008012054635797675
6.62700e-06;-0.0007983308662026233
6.62725e-06;-0.0007937944861754147
6.62750e-06;-0.0008006064481627594
6.62775e-06;-0.0008235300637426744
6.62800e-06;-0.0008572064325240454
6.62825e-06;-0.0008940590432506264
6.62850e-06;-0.0009203417131569946
6.62875e-06;-0.0009319277338993642
6.62900e-06;-0.0009366185335135035
6.62925e-06;-0.0009411609891955505
6.62950e-06;-0.0009536433693199533
6.62975e-06;-0.0009769876823063092
6.63000e-06;-0.0010077753865907356
6.63025e-06;-0.0010411992844769817
6.63050e-06;-0.0010685880370632785
6.63075e-06;-0.0010872964788316
6.63100e-06;-0.0011021510409446316
6.63125e-06;-0.001117317172987716
6.63150e-06;-0.0011378002773563493
6.63175e-06;-0.0011653692363585038
6.63200e-06;-0.001197821169672799
6.63225e-06;-0.001232083611237147
6.63250e-06;-0.0012626640365685656
6.63275e-06;-0.0012878449019988003
6.63300e-06;-0.0013105890065803075
6.63325e-06;-0.0013334447711216594
6.63350e-06;-0.001359486416279215
6.63375e-06;-0.0013897606815132036
6.63400e-06;-0.0014228264368637302
6.63425e-06;-0.0014566978999771486
6.63450e-06;-0.0014878737040252784
6.63475e-06;-0.0015152173881265564
6.63500e-06;-0.001540524040707149
6.63525e-06;-0.0015653291106016444
6.63550e-06;-0.001591497325597014
6.63575e-06;-0.0016196231769374507
6.63600e-06;-0.0016487428179200402
6.63625e-06;-0.001677551336083649
6.63650e-06;-0.0017037945638007374
6.63675e-06;-0.0017266999373752193
6.63700e-06;-0.0017473311341098892
6.63725e-06;-0.001766589127475399
6.63750e-06;-0.0017856128939903453
6.63775e-06;-0.001804945804281847
6.63800e-06;-0.0018244526243764321
6.63825e-06;-0.0018437735487260595
6.63850e-06;-0.0018616643973208779
6.63875e-06;-0.001877644825369489
6.63900e-06;-0.0018923699749256108
6.63925e-06;-0.001906393037860503
6.63950e-06;-0.0019204161479959062
6.63975e-06;-0.0019347682127398332
6.64000e-06;-0.0019493532024231932
6.64025e-06;-0.001963934563778077
6.64050e-06;-0.001977721600291449
6.64075e-06;-0.001990402077245324
6.64100e-06;-0.0020023246891245207
6.64125e-06;-0.002013922681976851
6.64150e-06;-0.002025633077999062
6.64175e-06;-0.0020375412422931616
6.64200e-06;-0.002049440982100415
6.64225e-06;-0.0020612437106987715
6.64250e-06;-0.002073046439297088
6.64275e-06;-0.002084284281535137
6.64300e-06;-0.002094732512268258
6.64325e-06;-0.0021049763620970973
6.64350e-06;-0.0021152202119259366
6.64375e-06;-0.002125517883837145
