Time(s);Current(A)
2.50000e-07;-0.0015185178691174898
2.50250e-07;-0.0016012569575968153
2.50500e-07;-0.0016847495025421448
2.50750e-07;-0.0017695060313753592
2.51000e-07;-0.0018548323504701065
2.51250e-07;-0.0019401351985588095
2.51500e-07;-0.0020254274661719042
2.51750e-07;-0.002109275925881575
2.52000e-07;-0.0021924735326090557
2.52250e-07;-0.0022731276847088636
2.52500e-07;-0.002352635274980396
2.52750e-07;-0.0024287224375471477
2.53000e-07;-0.0025032677083104697
2.53250e-07;-0.002572964150074682
2.53500e-07;-0.0026404747921859833
2.53750e-07;-0.002701624912023377
2.54000e-07;-0.0027599077772347447
2.54250e-07;-0.0028106132387819074
2.54500e-07;-0.0028579028887378358
2.54750e-07;-0.002895109474739857
2.55000e-07;-0.0029277707246009714
2.55250e-07;-0.0029604319744620925
2.55500e-07;-0.0029803978039620914
2.55750e-07;-0.0029946406753161127
2.56000e-07;-0.0030088835466701375
2.56250e-07;-0.003012220839076673
2.56500e-07;-0.003010642014482056
2.56750e-07;-0.003002723851701055
2.57000e-07;-0.002987877910796482
2.57250e-07;-0.0029672388498541502
2.57500e-07;-0.002940968398031015
2.57750e-07;-0.002909228781735821
2.58000e-07;-0.0028721855659825627
2.58250e-07;-0.002830043083466885
2.58500e-07;-0.00278308318682359
2.58750e-07;-0.0027316394689451662
2.59000e-07;-0.002676051383647865
2.59250e-07;-0.0026166535019355275
2.59500e-07;-0.0025537792372898405
2.59750e-07;-0.002487762163678041
2.60000e-07;-0.00241893833469517
2.60250e-07;-0.0023476676780558306
2.60500e-07;-0.0022743589110061856
2.60750e-07;-0.0021994530387767
2.61000e-07;-0.00212339474547037
2.61250e-07;-0.002046625575292104
2.61500e-07;-0.001969586356893111
2.61750e-07;-0.001892717955097116
2.62000e-07;-0.001816462679097513
2.62250e-07;-0.0017412779328898485
2.62500e-07;-0.0016676516241155754
2.62750e-07;-0.0015960917841730772
2.63000e-07;-0.0015271086344094693
2.63250e-07;-0.0014612105289446915
2.63500e-07;-0.0013989053878278878
2.63750e-07;-0.0013407009706226506
2.64000e-07;-0.0012869736071563886
2.64250e-07;-0.0012371605509494412
2.64500e-07;-0.0011895474994889196
2.64750e-07;-0.0011427989743365578
2.65000e-07;-0.00109674301481635
2.65250e-07;-0.0010517010131628041
2.65500e-07;-0.00100804595616944
2.65750e-07;-0.0009661505616265666
2.66000e-07;-0.00092630530639749
2.66250e-07;-0.0008882124792702714
2.66500e-07;-0.0008508530472031623
2.66750e-07;-0.0008134451746886994
2.67000e-07;-0.0007759361563745593
2.67250e-07;-0.0007385822294831409
2.67500e-07;-0.0007016718672331276
2.67750e-07;-0.0006654934484629753
2.68000e-07;-0.0006302837779542921
2.68250e-07;-0.0005959111350371706
2.68500e-07;-0.00056179205272113
2.68750e-07;-0.0005274917608971277
2.69000e-07;-0.0004930322071612146
2.69250e-07;-0.00045862879763472047
2.69500e-07;-0.000424517125850772
2.69750e-07;-0.0003912046908818393
2.70000e-07;-0.00035820142735711275
2.70250e-07;-0.00032602078247285214
2.70500e-07;-0.0002942109651717495
2.70750e-07;-0.0002625851445094757
2.71000e-07;-0.00023124475010499705
2.71250e-07;-0.00020033770751713638
2.71500e-07;-0.00017006649562873586
2.71750e-07;-0.0001406335551756854
2.72000e-07;-0.00011222103649422792
2.72250e-07;-8.486649753286832e-05
2.72500e-07;-5.8430255468600086e-05
2.72750e-07;-3.2830991634705985e-05
2.73000e-07;-8.166600283809686e-06
2.73250e-07;1.538912766806291e-05
2.73500e-07;3.7654498917014794e-05
2.73750e-07;5.844786334721012e-05
2.74000e-07;7.761380303933736e-05
2.74250e-07;9.518855818979024e-05
2.74500e-07;0.00011145543624887391
2.74750e-07;0.0001266475210826739
2.75000e-07;0.0001407817154106104
2.75250e-07;0.00015378051435772653
2.75500e-07;0.0001655563800979826
2.75750e-07;0.00017602180744354486
2.76000e-07;0.0001851057053716844
2.76250e-07;0.00019285706103914615
2.76500e-07;0.0001994796314793612
2.76750e-07;0.00020514565718632503
2.77000e-07;0.000209891979862139
2.77250e-07;0.00021335874035448293
2.77500e-07;0.00021637786986265821
2.77750e-07;0.00021801254101559388
2.78000e-07;0.00021902311332054316
2.78250e-07;0.00021878020852342755
2.78500e-07;0.00021797224981016047
2.78750e-07;0.00021625391697271306
2.79000e-07;0.00021412519732948927
2.79250e-07;0.00021115791079809787
2.79500e-07;0.00020781260738603668
2.79750e-07;0.0002036549564062363
2.80000e-07;0.0001991311079317449
2.80250e-07;0.00019385041480060141
2.80500e-07;0.00018822854428659716
2.80750e-07;0.00018260667377259174
2.81000e-07;0.00017651909770860264
2.81250e-07;0.0001702215866211839
2.81500e-07;0.00016392407553376378
2.81750e-07;0.00015739079116939043
2.82000e-07;0.00015075122276261236
2.82250e-07;0.00014411165435583426
2.82500e-07;0.00013759155403851193
2.82750e-07;0.00013112530864338052
2.83000e-07;0.00012499583958636303
2.83250e-07;0.00011901818565896173
2.83500e-07;0.00011350542315191668
2.83750e-07;0.00010820222866747607
2.84000e-07;0.00010335837130014742
2.84250e-07;9.872157813561106e-05
2.84500e-07;9.396355822789122e-05
2.84750e-07;8.867996594335393e-05
2.85000e-07;8.318408591139571e-05
2.85250e-07;7.728132495628375e-05
2.85500e-07;7.098127947844171e-05
2.85750e-07;6.441398824184668e-05
2.86000e-07;5.762625920891564e-05
2.86250e-07;5.055501549661776e-05
2.86500e-07;4.300721149020575e-05
2.86750e-07;3.4844757298455594e-05
2.87000e-07;2.607414632580987e-05
2.87250e-07;1.676202127982799e-05
2.87500e-07;6.981234761808906e-06
2.87750e-07;-3.195366058020136e-06
2.88000e-07;-1.370472498986397e-05
2.88250e-07;-2.455262129189541e-05
2.88500e-07;-3.5826240090587384e-05
2.88750e-07;-4.757833351283243e-05
2.89000e-07;-5.977108613873387e-05
2.89250e-07;-7.24190037240721e-05
2.89500e-07;-8.52132913374296e-05
2.89750e-07;-9.829684990580056e-05
2.90000e-07;-0.00011151080869104885
2.90250e-07;-0.00012472476747629437
2.90500e-07;-0.0001381706846641522
2.90750e-07;-0.0001517211661903333
2.91000e-07;-0.00016527164771651154
2.91250e-07;-0.00017882212924269264
2.91500e-07;-0.00019204005469819396
2.91750e-07;-0.0002051080674749758
2.92000e-07;-0.0002181760802517604
2.92250e-07;-0.000231244093028545
2.92500e-07;-0.00024349232909579228
2.92750e-07;-0.00025537101869160084
2.93000e-07;-0.00026724970828740947
2.93250e-07;-0.000278448527761703
2.93500e-07;-0.0002889027436946239
2.93750e-07;-0.00029866211281665667
2.94000e-07;-0.0003077545249085773
2.94250e-07;-0.0003170019786826276
2.94500e-07;-0.0003281468536840169
2.94750e-07;-0.00034249237358675985
2.95000e-07;-0.0003602639070663896
2.95250e-07;-0.00038124255008249437
2.95500e-07;-0.0004051638290589869
2.95750e-07;-0.0004317632664709553
2.96000e-07;-0.0004608476824563364
2.96250e-07;-0.0004927213331401863
2.96500e-07;-0.0005282649306657722
2.96750e-07;-0.0005680840232567716
2.97000e-07;-0.0006121089167880363
2.97250e-07;-0.0006599917224711009
2.97500e-07;-0.0007113559712414489
2.97750e-07;-0.0007667476065465313
2.98000e-07;-0.0008234834867537897
2.98250e-07;-0.0008841771402793657
2.98500e-07;-0.0009466549151974451
2.98750e-07;-0.001013499861973427
2.99000e-07;-0.0010823134825742764
2.99250e-07;-0.0011544916418004965
2.99500e-07;-0.0012281864986378728
2.99750e-07;-0.0013040287318607097
3.00000e-07;-0.0013808389791255121
3.00250e-07;-0.00145910057711275
3.00500e-07;-0.0015380164283034362
3.00750e-07;-0.0016180592889980113
3.01000e-07;-0.0016986101933837397
3.01250e-07;-0.0017790792501586653
3.01500e-07;-0.0018595114109161304
3.01750e-07;-0.0019385187813033
3.02000e-07;-0.002016883871606423
3.02250e-07;-0.0020928077365526924
3.02500e-07;-0.0021676311235198746
3.02750e-07;-0.0022392298751062645
3.03000e-07;-0.0023093749959504947
3.03250e-07;-0.0023749579951618444
3.03500e-07;-0.002438484439298941
3.03750e-07;-0.002496079900633546
3.04000e-07;-0.0025510017390884482
3.04250e-07;-0.002601606276558115
3.04500e-07;-0.002648778525617083
3.04750e-07;-0.002693880622664431
3.05000e-07;-0.0027383515084329637
3.05250e-07;-0.002780309512063808
3.05500e-07;-0.0028211347356140084
3.05750e-07;-0.002858547475492306
3.06000e-07;-0.0028944219046511724
3.06250e-07;-0.002927387614158464
3.06500e-07;-0.0029590421043164195
3.06750e-07;-0.0029892497640938384
3.07000e-07;-0.003018805208389046
3.07250e-07;-0.0030483606526842473
3.07500e-07;-0.0030753637889011417
3.07750e-07;-0.0031012163722498928
3.08000e-07;-0.003127068955598638
3.08250e-07;-0.003150666877997574
3.08500e-07;-0.0031732484236336317
3.08750e-07;-0.003194977470233069
3.09000e-07;-0.0032163222194900374
3.09250e-07;-0.003237666968747001
3.09500e-07;-0.0032570791514755578
3.09750e-07;-0.0032756201541216464
3.10000e-07;-0.003294161156767731
3.10250e-07;-0.0033127021594138197
3.10500e-07;-0.0033294779417985206
3.10750e-07;-0.003345457981987396
3.11000e-07;-0.0033614380221762747
3.11250e-07;-0.0033774180623651535
3.11500e-07;-0.0033917436975382715
3.11750e-07;-0.0034053235448293835
3.12000e-07;-0.0034189033921204954
3.12250e-07;-0.0034324832394116048
3.12500e-07;-0.0034444228846547196
3.12750e-07;-0.003455623144560028
3.13000e-07;-0.0034668234044653344
3.13250e-07;-0.003478023664370643
3.13500e-07;-0.0034882658658942044
3.13750e-07;-0.0034975703347325934
3.14000e-07;-0.0035059802753852646
3.14250e-07;-0.0035126187565061363
3.14500e-07;-0.0035158337713486042
3.14750e-07;-0.003514410983777709
3.15000e-07;-0.0035081171500379615
3.15250e-07;-0.003497117491003915
3.15500e-07;-0.00348161807759045
3.15750e-07;-0.003461825037262338
3.16000e-07;-0.003437881514818733
3.16250e-07;-0.0034094986747057604
3.16500e-07;-0.0033759024157453935
3.16750e-07;-0.0033365925868833446
3.17000e-07;-0.003291683948458314
3.17250e-07;-0.0032415406895456144
3.17500e-07;-0.003186552423952436
3.17750e-07;-0.0031271090706617905
3.18000e-07;-0.0030635608205949426
3.18250e-07;-0.0029959873188854388
3.18500e-07;-0.002924164485068678
3.18750e-07;-0.00284803975217785
3.19000e-07;-0.002767945423865168
3.19250e-07;-0.002684370361036998
3.19500e-07;-0.0025978191800432354
3.19750e-07;-0.002508796745859717
3.20000e-07;-0.0024177830324127684
3.20250e-07;-0.0023250883285882637
3.20500e-07;-0.0022308327593481667
3.20750e-07;-0.0021352440417100396
3.21000e-07;-0.0020387907160201134
3.21250e-07;-0.001942039447809377
3.21500e-07;-0.0018455668783393647
3.21750e-07;-0.0017499493719708385
3.22000e-07;-0.0016557480186660334
3.22250e-07;-0.0015634175707550527
3.22500e-07;-0.0014732935415515307
3.22750e-07;-0.0013857786170587145
3.23000e-07;-0.0013014266398022984
3.23250e-07;-0.0012208527690186508
3.23500e-07;-0.001144678233037622
3.23750e-07;-0.001073524304259204
3.24000e-07;-0.0010079702440520138
3.24250e-07;-0.0009482710356745591
3.24500e-07;-0.0008942149101086909
3.24750e-07;-0.0008455662733132057
3.25000e-07;-0.0008023697890862001
3.25250e-07;-0.000764804853160318
3.25500e-07;-0.0007330661741101431
3.25750e-07;-0.0007073483141621885
3.26000e-07;-0.0006878195057304582
3.26250e-07;-0.0006744448941916043
3.26500e-07;-0.0006668971837287626
3.26750e-07;-0.0006648342714741967
3.27000e-07;-0.0006680895910979208
3.27250e-07;-0.0006765809679679429
3.27500e-07;-0.0006902357990448197
3.27750e-07;-0.0007089813388898783
3.28000e-07;-0.0007327284403185348
3.28250e-07;-0.0007612607123519672
3.28500e-07;-0.0007955077927305126
3.28750e-07;-0.0008316725617020154
3.29000e-07;-0.0008728032539137616
3.29250e-07;-0.0009161725305956765
3.29500e-07;-0.0009638395290303977
3.29750e-07;-0.001013443893934031
3.30000e-07;-0.0010666261428897389
3.30250e-07;-0.0011214212632668324
3.30500e-07;-0.0011786824842549958
3.30750e-07;-0.0012370553967177966
3.31000e-07;-0.0012967895472883767
3.31250e-07;-0.0013571373292706368
3.31500e-07;-0.0014178921025098453
3.31750e-07;-0.0014788303430044243
3.32000e-07;-0.0015391892709241788
3.32250e-07;-0.0015992870510028283
3.32500e-07;-0.0016575735113569501
3.32750e-07;-0.0017150434483759881
3.33000e-07;-0.0017694749533288935
3.33250e-07;-0.0018225367659792948
3.33500e-07;-0.0018714273194598997
3.33750e-07;-0.0019184375144357824
3.34000e-07;-0.0019589167648986286
3.34250e-07;-0.001996451936233571
3.34500e-07;-0.002033987107568513
3.34750e-07;-0.002063474572448297
3.35000e-07;-0.0020893342183265725
3.35250e-07;-0.0021151938642048475
3.35500e-07;-0.002132508352037771
3.35750e-07;-0.002145970775074268
3.36000e-07;-0.0021594331981107644
3.36250e-07;-0.002164189710114649
3.36500e-07;-0.002165021691614639
3.36750e-07;-0.0021658536731146284
3.37000e-07;-0.0021600268165227945
3.37250e-07;-0.0021511982277614044
3.37500e-07;-0.002138548398730595
3.37750e-07;-0.0021216971367192506
3.38000e-07;-0.0021013089522252506
3.38250e-07;-0.0020775300141680194
3.38500e-07;-0.002050603680714911
3.38750e-07;-0.0020207920860151724
3.39000e-07;-0.0019883125786282012
3.39250e-07;-0.0019533593102533395
3.39500e-07;-0.001916123820267565
3.39750e-07;-0.001876797371147025
3.40000e-07;-0.0018355762523865073
3.40250e-07;-0.0017926967023774822
3.40500e-07;-0.0017484558974750594
3.40750e-07;-0.0017031625715967168
3.41000e-07;-0.001657097419330682
3.41250e-07;-0.0016105267245391127
3.41500e-07;-0.0015637148144500748
3.41750e-07;-0.001516926156399826
3.42000e-07;-0.0014704281709113092
3.42250e-07;-0.0014245133766457548
3.42500e-07;-0.0013795123982962268
3.42750e-07;-0.0013357629796216873
3.43000e-07;-0.001293585427526257
3.43250e-07;-0.0012532909214317087
3.43500e-07;-0.0012151895115126165
3.43750e-07;-0.001179591051285503
3.44000e-07;-0.001146711036683803
3.44250e-07;-0.001116092956457235
3.44500e-07;-0.0010864644358612313
3.44750e-07;-0.0010568426013246497
3.45000e-07;-0.0010270920114825689
3.45250e-07;-0.00099743447675315
3.45500e-07;-0.0009681288567931222
3.45750e-07;-0.0009394341253835193
3.46000e-07;-0.0009115500253052293
3.46250e-07;-0.0008842553170676988
3.46500e-07;-0.0008568177169558362
3.46750e-07;-0.0008286864039669602
3.47000e-07;-0.0007998414883045851
3.47250e-07;-0.0007704867649564522
3.47500e-07;-0.0007408543152056167
3.47750e-07;-0.000711158192695258
3.48000e-07;-0.0006815977606847956
3.48250e-07;-0.0006520984964836525
3.48500e-07;-0.0006218398215294123
3.48750e-07;-0.0005912388124237762
3.49000e-07;-0.0005606378033181336
3.49250e-07;-0.0005294377552935719
3.49500e-07;-0.0004979006843650664
3.49750e-07;-0.00046640914748767944
3.50000e-07;-0.0004351469389728216
3.50250e-07;-0.0004041326640978712
3.50500e-07;-0.0003731845121050379
3.50750e-07;-0.00034219181865892867
3.51000e-07;-0.0003112522991535267
3.51250e-07;-0.00028055139720875924
3.51500e-07;-0.000250283691991925
3.51750e-07;-0.00022064370150105274
3.52000e-07;-0.00019181135805334108
3.52250e-07;-0.00016386313000896964
3.52500e-07;-0.00013674991510075735
3.52750e-07;-0.0001104672235975734
3.53000e-07;-8.514105567966958e-05
3.53250e-07;-6.0952363775367124e-05
3.53500e-07;-3.808780844568315e-05
3.53750e-07;-1.6734008363071912e-05
3.54000e-07;2.9304695295299488e-06
3.54250e-07;2.079291378137174e-05
3.54500e-07;3.6844767374359153e-05
3.54750e-07;5.110324763983886e-05
3.55000e-07;6.354521357267746e-05
3.55250e-07;7.41249692665139e-05
3.55500e-07;8.279409647141874e-05
3.55750e-07;8.950420830207123e-05
3.56000e-07;9.421197217955929e-05
3.56250e-07;9.691530779365023e-05
3.56500e-07;9.767737487016436e-05
3.56750e-07;9.657748074155885e-05
3.57000e-07;9.36696508033095e-05
3.57250e-07;8.899377744752345e-05
3.57500e-07;8.258804539335889e-05
3.57750e-07;7.449066620302329e-05
3.58000e-07;6.474300499485556e-05
3.58250e-07;5.341227330356234e-05
3.58500e-07;4.0606545254577516e-05
3.58750e-07;2.6444003540469343e-05
3.59000e-07;1.1026980894558131e-05
3.59250e-07;-5.5510434857024435e-06
3.59500e-07;-2.3197670051278305e-05
3.59750e-07;-4.1820485708223684e-05
3.60000e-07;-6.132510163152333e-05
3.60250e-07;-8.160095359985024e-05
3.60500e-07;-0.00010266649254694523
3.60750e-07;-0.00012398509928820145
3.61000e-07;-0.00014578356606719325
3.61250e-07;-0.0001677983485595751
3.61500e-07;-0.00018981313105195227
3.61750e-07;-0.0002117985664281594
3.62000e-07;-0.00023377077244190222
3.62250e-07;-0.00025528380934681274
3.62500e-07;-0.0002765898577852314
3.62750e-07;-0.00029700983060896
3.63000e-07;-0.00031703037013205813
3.63250e-07;-0.00033575350465955947
3.63500e-07;-0.000353891783051703
3.63750e-07;-0.00037033995843217105
3.64000e-07;-0.00038602625366025
3.64250e-07;-0.00039995023742686814
3.64500e-07;-0.00041307979025315074
3.64750e-07;-0.0004262093430794361
3.65000e-07;-0.0004379607198896065
3.65250e-07;-0.00044909082986223744
3.65500e-07;-0.0004602209398348684
3.65750e-07;-0.0004695962209830072
3.66000e-07;-0.0004781804442826049
3.66250e-07;-0.00048676466758220256
3.66500e-07;-0.0004940567217260091
3.66750e-07;-0.0005007662799943973
3.67000e-07;-0.0005074758382627853
3.67250e-07;-0.0005121895027346752
3.67500e-07;-0.0005160034398767284
3.67750e-07;-0.0005198173770187815
3.68000e-07;-0.0005236313141608339
3.68250e-07;-0.0005274452513028871
3.68500e-07;-0.0005312591884449394
3.68750e-07;-0.0005350731255869926
3.69000e-07;-0.0005388870627290457
3.69250e-07;-0.0005421401406033984
3.69500e-07;-0.0005429909585589905
3.69750e-07;-0.0005438417765145825
3.70000e-07;-0.0005446925944701745
3.70250e-07;-0.0005455434124257666
3.70500e-07;-0.0005463942303813587
3.70750e-07;-0.0005472450483369507
3.71000e-07;-0.0005480958662925428
3.71250e-07;-0.000548946684248135
3.71500e-07;-0.0005489697871649305
3.71750e-07;-0.0005486197650973042
3.72000e-07;-0.0005482697430296778
3.72250e-07;-0.0005479197209620516
3.72500e-07;-0.0005475696988944252
3.72750e-07;-0.000547219676826799
3.73000e-07;-0.0005467847846712233
3.73250e-07;-0.0005463116339982113
3.73500e-07;-0.0005458384833251995
3.73750e-07;-0.0005453653326521875
3.74000e-07;-0.0005448921819791756
3.74250e-07;-0.0005444190313061637
3.74500e-07;-0.0005435455686303637
3.74750e-07;-0.000542491649634691
3.75000e-07;-0.0005414377306390184
3.75250e-07;-0.0005403838116433457
3.75500e-07;-0.000539329892647673
3.75750e-07;-0.0005382759736520004
3.76000e-07;-0.0005372220546563277
3.76250e-07;-0.0005361681356606552
3.76500e-07;-0.0005351142166649825
3.76750e-07;-0.0005340602976693097
3.77000e-07;-0.0005327827539402236
3.77250e-07;-0.00053054738573561
3.77500e-07;-0.0005283120175309965
3.77750e-07;-0.0005260766493263835
3.78000e-07;-0.0005238412811217699
3.78250e-07;-0.0005216059129171564
3.78500e-07;-0.0005193705447125433
3.78750e-07;-0.0005171351765079299
3.79000e-07;-0.0005148998083033163
3.79250e-07;-0.0005126644400987033
3.79500e-07;-0.0005104290718940897
3.79750e-07;-0.0005077705026092018
3.80000e-07;-0.0005049211588559469
3.80250e-07;-0.0005020718151026915
3.80500e-07;-0.0004992224713494366
3.80750e-07;-0.0004963731275961812
3.81000e-07;-0.0004935237838429256
3.81250e-07;-0.0004906744400896708
3.81500e-07;-0.00048782509633641535
3.81750e-07;-0.0004850386135238677
3.82000e-07;-0.00048252137529194457
3.82250e-07;-0.0004800041370600209
3.82500e-07;-0.0004774868988280973
3.82750e-07;-0.00047496966059617417
3.83000e-07;-0.0004724524223642505
3.83250e-07;-0.00046993518413232684
3.83500e-07;-0.0004674179459004037
3.83750e-07;-0.0004649007076684801
3.84000e-07;-0.00046266349887468417
3.84250e-07;-0.00046055252432195394
3.84500e-07;-0.00045844154976922317
3.84750e-07;-0.00045633057521649294
3.85000e-07;-0.00045421960066376223
3.85250e-07;-0.0004521086261110315
3.85500e-07;-0.00044999765155830123
3.85750e-07;-0.0004477256247012606
3.86000e-07;-0.000444763782202829
3.86250e-07;-0.00044180193970439803
3.86500e-07;-0.00043884009720596644
3.86750e-07;-0.00043587825470753485
3.87000e-07;-0.00043291641220910386
3.87250e-07;-0.00042995456971067227
3.87500e-07;-0.0004269927272122407
3.87750e-07;-0.00042326756550503187
3.88000e-07;-0.0004191983077568657
3.88250e-07;-0.00041512905000870034
3.88500e-07;-0.0004110597922605341
3.88750e-07;-0.00040699053451236794
3.89000e-07;-0.0004029212767642026
3.89250e-07;-0.0003988520190160364
3.89500e-07;-0.00039478276126787024
3.89750e-07;-0.0003907135035197049
3.90000e-07;-0.00038656366806885987
3.90250e-07;-0.0003820687039972614
3.90500e-07;-0.00037757373992566384
3.90750e-07;-0.00037307877585406534
3.91000e-07;-0.0003685838117824669
3.91250e-07;-0.0003640888477108693
3.91500e-07;-0.00035959388363927087
3.91750e-07;-0.00035509891956767237
3.92000e-07;-0.0003506039554960748
3.92250e-07;-0.00034610899142447634
3.92500e-07;-0.0003419490032001548
3.92750e-07;-0.0003379400184636775
3.93000e-07;-0.00033393103372720016
