Time(s);Current(A)
1.25000e-06;0.01087751644895218
1.25025e-06;0.01088378225418811
1.25050e-06;0.010890048059424045
1.25075e-06;0.010892066771840866
1.25100e-06;0.010886209218507817
1.25125e-06;0.010880351665174773
1.25150e-06;0.010874494111841729
1.25175e-06;0.01086863655850868
1.25200e-06;0.010862779005175635
1.25225e-06;0.010856921451842586
1.25250e-06;0.010851063898509542
1.25275e-06;0.010845206345176498
1.25300e-06;0.01083934879184345
1.25325e-06;0.010833491238510407
1.25350e-06;0.010827633685177357
1.25375e-06;0.010821776131844313
1.25400e-06;0.01081591857851127
1.25425e-06;0.010807195613076897
1.25450e-06;0.010793158719232292
1.25475e-06;0.010779121825387676
1.25500e-06;0.01076508493154307
1.25525e-06;0.010751048037698453
1.25550e-06;0.010737011143853848
1.25575e-06;0.010722974250009242
1.25600e-06;0.010708937356164626
1.25625e-06;0.010694900462320021
1.25650e-06;0.010680863568475404
1.25675e-06;0.010666826674630798
1.25700e-06;0.010653362757465111
1.25725e-06;0.010639999697677578
1.25750e-06;0.010626636637890055
1.25775e-06;0.01061327357810252
1.25800e-06;0.010599910518314997
1.25825e-06;0.010586547458527475
1.25850e-06;0.010573184398739941
1.25875e-06;0.010559821338952419
1.25900e-06;0.010546458279164886
1.25925e-06;0.010533095219377363
1.25950e-06;0.010519246026480683
1.25975e-06;0.010504495296056984
1.26000e-06;0.010489744565633284
1.26025e-06;0.010474993835209572
1.26050e-06;0.010460243104785872
1.26075e-06;0.01044549237436216
1.26100e-06;0.01043074164393846
1.26125e-06;0.01041599091351476
1.26150e-06;0.010401240183091048
1.26175e-06;0.010386489452667349
1.26200e-06;0.010371738722243637
1.26225e-06;0.010348788399138316
1.26250e-06;0.010324394754777045
1.26275e-06;0.010300001110415754
1.26300e-06;0.010275607466054484
1.26325e-06;0.010251213821693195
1.26350e-06;0.010226820177331924
1.26375e-06;0.010202426532970633
1.26400e-06;0.010178032888609363
1.26425e-06;0.010153639244248095
1.26450e-06;0.010129245599886804
1.26475e-06;0.010102906998428057
1.26500e-06;0.010072961459324417
1.26525e-06;0.010043015920220805
1.26550e-06;0.01001307038111719
1.26575e-06;0.00998312484201355
1.26600e-06;0.009953179302909936
1.26625e-06;0.009923233763806298
1.26650e-06;0.009893288224702684
1.26675e-06;0.00986334268559907
1.26700e-06;0.0098347269616217
1.26725e-06;0.009808577389851933
1.26750e-06;0.009782427818082143
1.26775e-06;0.009756278246312375
1.26800e-06;0.009730128674542586
1.26825e-06;0.009703979102772818
1.26850e-06;0.009677829531003051
1.26875e-06;0.009651679959233262
1.26900e-06;0.009625530387463494
1.26925e-06;0.009604130267292312
1.26950e-06;0.00959153804102545
1.26975e-06;0.00957894581475859
1.27000e-06;0.009566353588491719
1.27025e-06;0.009553761362224859
1.27050e-06;0.00954782824601483
1.27075e-06;0.009554244499760386
1.27100e-06;0.009560660753505942
1.27125e-06;0.009567077007251503
1.27150e-06;0.009573493260997058
1.27175e-06;0.009584210520329815
1.27200e-06;0.009610356219226363
1.27225e-06;0.009650322064870837
1.27250e-06;0.009690287910515346
1.27275e-06;0.00973025375615982
1.27300e-06;0.009770219601804327
1.27325e-06;0.009810185447448801
1.27350e-06;0.00985015129309331
1.27375e-06;0.009890117138737784
1.27400e-06;0.009930082984382258
1.27425e-06;0.009970048830026765
1.27450e-06;0.010018313652998868
1.27475e-06;0.010081968992180345
1.27500e-06;0.010145624331361767
1.27525e-06;0.01020927967054319
1.27550e-06;0.010272935009724668
1.27575e-06;0.010336590348906091
1.27600e-06;0.010400245688087568
1.27625e-06;0.010463901027268992
1.27650e-06;0.010527556366450414
1.27675e-06;0.010591211705631891
1.27700e-06;0.010653565708894346
1.27725e-06;0.010713506374854713
1.27750e-06;0.010773447040815027
1.27775e-06;0.010833387706775393
1.27800e-06;0.010893328372735708
1.27825e-06;0.010953269038696024
1.27850e-06;0.01101320970465639
1.27875e-06;0.011073150370616704
1.27900e-06;0.011112171120274184
1.27925e-06;0.011147509472398077
1.27950e-06;0.01118284782452197
1.27975e-06;0.011218186176645896
1.28000e-06;0.01125352452876979
1.28025e-06;0.011288862880893714
1.28050e-06;0.011324201233017608
1.28075e-06;0.011346379227005434
1.28100e-06;0.011344151237314788
1.28125e-06;0.011341923247624144
1.28150e-06;0.011339695257933498
1.28175e-06;0.011337467268242854
1.28200e-06;0.011335239278552206
1.28225e-06;0.011333011288861562
1.28250e-06;0.011330783299170918
1.28275e-06;0.011328555309480272
1.28300e-06;0.011326327319789626
1.28325e-06;0.01132409933009898
1.28350e-06;0.011293433384807218
1.28375e-06;0.011257761690159521
1.28400e-06;0.011222089995511794
1.28425e-06;0.011186418300864098
1.28450e-06;0.01115074660621637
1.28475e-06;0.011115074911568674
1.28500e-06;0.011079403216920978
1.28525e-06;0.01104373152227325
1.28550e-06;0.011008059827625554
1.28575e-06;0.010972388132977826
1.28600e-06;0.010933261160436818
1.28625e-06;0.010887726348914946
1.28650e-06;0.010842191537393114
1.28675e-06;0.01079665672587128
1.28700e-06;0.010751121914349408
1.28725e-06;0.010705587102827575
1.28750e-06;0.010660052291305703
1.28775e-06;0.01061451747978387
1.28800e-06;0.010568982668262035
1.28825e-06;0.010523447856740165
1.28850e-06;0.010492375098380717
1.28875e-06;0.010463848001682534
1.28900e-06;0.010435320904984377
1.28925e-06;0.01040679380828622
1.28950e-06;0.010378266711588037
1.28975e-06;0.01034973961488988
1.29000e-06;0.0103212125181917
1.29025e-06;0.010292685421493543
1.29050e-06;0.01026415832479536
1.29075e-06;0.010247527308816284
1.29100e-06;0.010252957664484353
1.29125e-06;0.010258388020152425
1.29150e-06;0.010263818375820494
1.29175e-06;0.010269248731488566
1.29200e-06;0.010274679087156633
1.29225e-06;0.010280109442824701
1.29250e-06;0.010285539798492773
1.29275e-06;0.010290970154160842
1.29300e-06;0.010296400509828914
1.29325e-06;0.010312033657535876
1.29350e-06;0.010346587960228288
1.29375e-06;0.010381142262920732
1.29400e-06;0.010415696565613145
1.29425e-06;0.010450250868305587
1.29450e-06;0.010484805170998
1.29475e-06;0.010519359473690443
1.29500e-06;0.010553913776382857
1.29525e-06;0.01058846807907527
1.29550e-06;0.010623022381767712
1.29575e-06;0.010661157707337152
1.29600e-06;0.010705934066910195
1.29625e-06;0.010750710426483201
1.29650e-06;0.010795486786056208
1.29675e-06;0.010840263145629253
1.29700e-06;0.01088503950520226
1.29725e-06;0.010929815864775304
1.29750e-06;0.01097459222434831
1.29775e-06;0.011016025358437993
1.29800e-06;0.011051258455588946
1.29825e-06;0.011086491552739868
1.29850e-06;0.01112172464989082
1.29875e-06;0.011156957747041741
1.29900e-06;0.011192190844192693
1.29925e-06;0.011227423941343614
1.29950e-06;0.011262657038494536
1.29975e-06;0.01128921527196101
1.30000e-06;0.011299685905129487
1.30025e-06;0.011310156538297976
1.30050e-06;0.011320627171466454
1.30075e-06;0.011331097804634932
1.30100e-06;0.01134156843780342
1.30125e-06;0.011352039070971898
1.30150e-06;0.011362509704140385
1.30175e-06;0.011372980337308864
1.30200e-06;0.011383450970477342
1.30225e-06;0.011393921603645829
1.30250e-06;0.011404392236814309
1.30275e-06;0.011414862869982795
1.30300e-06;0.011425333503151273
1.30325e-06;0.011435804136319762
1.30350e-06;0.01144627476948824
1.30375e-06;0.011456745402656718
1.30400e-06;0.011467216035825206
1.30425e-06;0.011477686668993684
1.30450e-06;0.01147360711212698
1.30475e-06;0.011466966379435886
1.30500e-06;0.011460325646744792
1.30525e-06;0.01145368491405369
1.30550e-06;0.011447044181362597
1.30575e-06;0.011440403448671496
1.30600e-06;0.011433762715980402
1.30625e-06;0.011427121983289308
1.30650e-06;0.011420481250598207
1.30675e-06;0.011413840517907113
1.30700e-06;0.011407199785216012
1.30725e-06;0.011400559052524918
1.30750e-06;0.011393918319833819
1.30775e-06;0.011387277587142723
1.30800e-06;0.011380636854451629
1.30825e-06;0.011373996121760528
1.30850e-06;0.011367355389069434
1.30875e-06;0.011360714656378335
1.30900e-06;0.01135568509440079
1.30925e-06;0.01135364346069425
1.30950e-06;0.011351601826987709
1.30975e-06;0.011349560193281169
1.31000e-06;0.011347518559574627
1.31025e-06;0.011345476925868087
1.31050e-06;0.011343435292161547
1.31075e-06;0.011341393658455006
1.31100e-06;0.011339352024748466
1.31125e-06;0.011337310391041924
1.31150e-06;0.011335268757335384
1.31175e-06;0.011333227123628845
1.31200e-06;0.011331185489922303
1.31225e-06;0.011329143856215763
1.31250e-06;0.011327102222509221
1.31275e-06;0.011325060588802682
1.31300e-06;0.01132607584328437
1.31325e-06;0.011332760120025369
1.31350e-06;0.011339444396766367
1.31375e-06;0.01134612867350737
1.31400e-06;0.011352812950248368
1.31425e-06;0.011359497226989371
1.31450e-06;0.01136618150373037
1.31475e-06;0.011372865780471367
1.31500e-06;0.01137955005721237
1.31525e-06;0.011386234333953369
1.31550e-06;0.011392918610694374
1.31575e-06;0.011399602887435372
1.31600e-06;0.01140628716417637
1.31625e-06;0.011412971440917373
1.31650e-06;0.011419655717658371
1.31675e-06;0.011426339994399374
1.31700e-06;0.011432962981120152
1.31725e-06;0.011439472305035003
1.31750e-06;0.011445981628949848
1.31775e-06;0.011452490952864694
1.31800e-06;0.011459000276779546
1.31825e-06;0.01146550960069439
1.31850e-06;0.011472018924609242
1.31875e-06;0.011478528248524087
1.31900e-06;0.011485037572438933
1.31925e-06;0.011491546896353785
1.31950e-06;0.01149805622026863
1.31975e-06;0.011491019627311817
1.32000e-06;0.01148159863423917
1.32025e-06;0.011472177641166524
1.32050e-06;0.011462756648093871
1.32075e-06;0.011453335655021223
1.32100e-06;0.01144391466194857
1.32125e-06;0.011434493668875924
1.32150e-06;0.011425072675803269
1.32175e-06;0.011415651682730623
1.32200e-06;0.011406230689657976
1.32225e-06;0.011387661222267136
1.32250e-06;0.011352125840079252
1.32275e-06;0.011316590457891339
1.32300e-06;0.011281055075703456
1.32325e-06;0.011245519693515572
1.32350e-06;0.011209984311327659
1.32375e-06;0.011174448929139776
1.32400e-06;0.01113891354695186
1.32425e-06;0.011103378164763977
1.32450e-06;0.011067842782576094
1.32475e-06;0.01103230740038818
1.32500e-06;0.010996772018200297
1.32525e-06;0.010951278694113442
1.32550e-06;0.010904032537934052
1.32575e-06;0.010856786381754625
1.32600e-06;0.010809540225575237
1.32625e-06;0.010762294069395849
1.32650e-06;0.01071504791321642
1.32675e-06;0.010667801757037031
1.32700e-06;0.010620555600857604
1.32725e-06;0.010573309444678214
1.32750e-06;0.010526063288498826
1.32775e-06;0.010478817132319398
1.32800e-06;0.01043582554432004
1.32825e-06;0.010400724085180143
1.32850e-06;0.010365622626040275
1.32875e-06;0.010330521166900405
1.32900e-06;0.010295419707760508
1.32925e-06;0.01026031824862064
1.32950e-06;0.010225216789480743
1.32975e-06;0.010190115330340876
1.33000e-06;0.010155013871200977
1.33025e-06;0.01011991241206111
1.33050e-06;0.010084810952921242
1.33075e-06;0.010054412246823963
1.33100e-06;0.010024841335921712
1.33125e-06;0.009995270425019435
1.33150e-06;0.009965699514117183
1.33175e-06;0.009936128603214932
1.33200e-06;0.009906557692312655
1.33225e-06;0.009876986781410404
1.33250e-06;0.009847415870508127
1.33275e-06;0.009817844959605875
1.33300e-06;0.009788274048703624
1.33325e-06;0.009757899358368516
1.33350e-06;0.009726034052997762
1.33375e-06;0.00969416874762698
1.33400e-06;0.009662303442256227
1.33425e-06;0.009630438136885447
1.33450e-06;0.009598572831514694
1.33475e-06;0.00956670752614394
1.33500e-06;0.009534842220773158
1.33525e-06;0.009502976915402405
1.33550e-06;0.009471111610031625
1.33575e-06;0.009439246304660871
1.33600e-06;0.009407380999290118
1.33625e-06;0.009375515693919336
1.33650e-06;0.009343650388548582
1.33675e-06;0.009317380180796676
1.33700e-06;0.009292094841882722
1.33725e-06;0.00926680950296877
1.33750e-06;0.009241524164054793
1.33775e-06;0.009216238825140841
1.33800e-06;0.009190953486226866
1.33825e-06;0.009165668147312912
1.33850e-06;0.009140382808398937
1.33875e-06;0.009115097469484983
1.33900e-06;0.009089812130571029
1.33925e-06;0.009064526791657054
1.33950e-06;0.0090392414527431
1.33975e-06;0.009013956113829125
1.34000e-06;0.008992448140173186
1.34025e-06;0.008977945318949108
1.34050e-06;0.00896344249772502
1.34075e-06;0.008948939676500943
1.34100e-06;0.008934436855276853
1.34125e-06;0.008919934034052777
1.34150e-06;0.008905431212828701
1.34175e-06;0.008890928391604611
1.34200e-06;0.008876425570380535
1.34225e-06;0.008861922749156445
1.34250e-06;0.008847419927932369
1.34275e-06;0.00883291710670828
1.34300e-06;0.008818414285484202
1.34325e-06;0.008803911464260126
1.34350e-06;0.008789408643036036
1.34375e-06;0.00877490582181196
1.34400e-06;0.008760403000587872
1.34425e-06;0.008745900179363794
1.34450e-06;0.00873508519503415
1.34475e-06;0.008724919356775534
1.34500e-06;0.008714753518516928
1.34525e-06;0.008704587680258313
1.34550e-06;0.008694421841999705
1.34575e-06;0.008684256003741099
1.34600e-06;0.008674090165482483
1.34625e-06;0.008663924327223876
1.34650e-06;0.008653758488965262
1.34675e-06;0.008643592650706654
1.34700e-06;0.008633426812448048
1.34725e-06;0.008623260974189431
1.34750e-06;0.008613095135930825
1.34775e-06;0.00860292929767221
1.34800e-06;0.008592763459413602
1.34825e-06;0.008582597621154988
1.34850e-06;0.008572431782896382
1.34875e-06;0.008564908212715555
1.34900e-06;0.008562284748663058
1.34925e-06;0.008559661284610566
1.34950e-06;0.00855703782055807
1.34975e-06;0.008554414356505575
1.35000e-06;0.00855179089245308
1.35025e-06;0.008549167428400584
1.35050e-06;0.008565885090613732
1.35075e-06;0.00858600724616089
1.35100e-06;0.00860612940170803
1.35125e-06;0.00862625155725517
1.35150e-06;0.008646373712802328
1.35175e-06;0.00866649586834947
1.35200e-06;0.008698416033145145
1.35225e-06;0.008752215695295981
1.35250e-06;0.008806015357446864
1.35275e-06;0.008859815019597702
1.35300e-06;0.008913614681748538
1.35325e-06;0.008967414343899421
1.35350e-06;0.009021214006050259
1.35375e-06;0.009075013668201142
1.35400e-06;0.009128813330351978
1.35425e-06;0.009182612992502816
1.35450e-06;0.009257812722105565
1.35475e-06;0.009336779367139298
1.35500e-06;0.009415746012173098
1.35525e-06;0.00949471265720683
1.35550e-06;0.009573679302240562
1.35575e-06;0.009652645947274363
1.35600e-06;0.009731612592308094
1.35625e-06;0.009810579237341894
1.35650e-06;0.009889545882375627
1.35675e-06;0.00996755581653443
1.35700e-06;0.010043791523141927
1.35725e-06;0.010120027229749423
1.35750e-06;0.010196262936356984
1.35775e-06;0.01027249864296448
1.35800e-06;0.010348734349572042
1.35825e-06;0.010424970056179537
1.35850e-06;0.010501205762787034
1.35875e-06;0.010553766392804732
1.35900e-06;0.010602159652250562
1.35925e-06;0.010650552911696433
1.35950e-06;0.010698946171142261
1.35975e-06;0.01074733943058809
1.36000e-06;0.01079573269003396
1.36025e-06;0.010844125949479788
1.36050e-06;0.010877161945178886
1.36075e-06;0.010881717779145995
1.36100e-06;0.010886273613113107
1.36125e-06;0.010890829447080216
1.36150e-06;0.010895385281047325
1.36175e-06;0.010899941115014437
1.36200e-06;0.010904496948981546
1.36225e-06;0.010909052782948658
1.36250e-06;0.010913608616915767
1.36275e-06;0.010918164450882875
1.36300e-06;0.010887515462082503
1.36325e-06;0.01085066959607997
1.36350e-06;0.010813823730077405
1.36375e-06;0.010776977864074873
1.36400e-06;0.01074013199807234
1.36425e-06;0.010703286132069776
1.36450e-06;0.010666440266067242
1.36475e-06;0.010629594400064678
1.36500e-06;0.010592748534062146
1.36525e-06;0.010549017864136005
1.36550e-06;0.010492519273279214
1.36575e-06;0.010436020682422423
1.36600e-06;0.010379522091565585
1.36625e-06;0.010323023500708794
1.36650e-06;0.010266524909851955
1.36675e-06;0.010210026318995166
1.36700e-06;0.010153527728138375
1.36725e-06;0.010097029137281536
1.36750e-06;0.010040530546424746
1.36775e-06;0.009988751329268238
1.36800e-06;0.009945724226321003
1.36825e-06;0.009902697123373768
1.36850e-06;0.009859670020426496
1.36875e-06;0.009816642917479261
1.36900e-06;0.00977361581453199
1.36925e-06;0.009730588711584755
1.36950e-06;0.009687561608637483
1.36975e-06;0.009644534505690248
1.37000e-06;0.009601507402743013
1.37025e-06;0.00957153985108016
1.37050e-06;0.009565791336013811
1.37075e-06;0.009560042820947459
1.37100e-06;0.009554294305881112
1.37125e-06;0.009548545790814765
1.37150e-06;0.009542797275748412
1.37175e-06;0.009537048760682065
1.37200e-06;0.009531300245615713
1.37225e-06;0.009525551730549366
1.37250e-06;0.009519803215483019
1.37275e-06;0.00954348197095792
1.37300e-06;0.009572340618492643
1.37325e-06;0.00960119926602739
1.37350e-06;0.009630057913562112
1.37375e-06;0.00965891656109686
1.37400e-06;0.009687775208631583
1.37425e-06;0.009716633856166307
1.37450e-06;0.009745492503701055
1.37475e-06;0.009774351151235778
1.37500e-06;0.009809528760550698
1.37525e-06;0.009856424932262436
1.37550e-06;0.009903321103974176
1.37575e-06;0.009950217275685954
1.37600e-06;0.009997113447397692
1.37625e-06;0.01004400961910947
1.37650e-06;0.010090905790821208
1.37675e-06;0.010137801962532946
1.37700e-06;0.010184698134244724
1.37725e-06;0.010231594305956462
1.37750e-06;0.01027849047766824
1.37775e-06;0.010315333951918111
1.37800e-06;0.010350407914867714
1.37825e-06;0.010385481877817286
1.37850e-06;0.010420555840766859
1.37875e-06;0.01045562980371646
1.37900e-06;0.010490703766666033
1.37925e-06;0.010525777729615635
1.37950e-06;0.010560851692565208
1.37975e-06;0.01059592565551478
1.38000e-06;0.010630999618464382
1.38025e-06;0.010653343810087337
1.38050e-06;0.010652080544540336
1.38075e-06;0.010650817278993337
1.38100e-06;0.010649554013446338
1.38125e-06;0.010648290747899337
1.38150e-06;0.010647027482352339
1.38175e-06;0.010645764216805338
1.38200e-06;0.010644500951258337
1.38225e-06;0.010643237685711338
1.38250e-06;0.010641974420164338
1.38275e-06;0.010611735698196201
1.38300e-06;0.010576396614085408
1.38325e-06;0.010541057529974645
1.38350e-06;0.010505718445863852
1.38375e-06;0.010470379361753088
1.38400e-06;0.010435040277642324
1.38425e-06;0.01039970119353153
1.38450e-06;0.010364362109420766
1.38475e-06;0.010329023025309974
1.38500e-06;0.010287507183022633
1.38525e-06;0.010234536495997159
1.38550e-06;0.01018156580897164
1.38575e-06;0.010128595121946166
1.38600e-06;0.010075624434920646
1.38625e-06;0.010022653747895172
1.38650e-06;0.009969683060869698
1.38675e-06;0.00991671237384418
1.38700e-06;0.009863741686818707
1.38725e-06;0.009810770999793187
1.38750e-06;0.009764736326403078
1.38775e-06;0.009719922554621872
1.38800e-06;0.009675108782840705
1.38825e-06;0.00963029501105954
1.38850e-06;0.009585481239278335
1.38875e-06;0.009540667467497169
1.38900e-06;0.009495853695715964
1.38925e-06;0.009451039923934798
1.38950e-06;0.009406226152153632
1.38975e-06;0.009371988773122298
1.39000e-06;0.009357365394408372
1.39025e-06;0.009342742015694435
1.39050e-06;0.009328118636980508
1.39075e-06;0.009313495258266583
1.39100e-06;0.009298871879552644
1.39125e-06;0.00928424850083872
1.39150e-06;0.00926962512212478
1.39175e-06;0.009255001743410856
1.39200e-06;0.009240378364696917
1.39225e-06;0.009225754985982992
1.39250e-06;0.009211131607269066
1.39275e-06;0.009196508228555129
1.39300e-06;0.009181884849841202
1.39325e-06;0.009167261471127263
1.39350e-06;0.009161370108853406
1.39375e-06;0.00917167233708563
1.39400e-06;0.009181974565317864
1.39425e-06;0.009192276793550088
1.39450e-06;0.009202579021782321
1.39475e-06;0.009212881250014546
1.39500e-06;0.009223183478246771
1.39525e-06;0.009233485706479005
1.39550e-06;0.00924378793471123
1.39575e-06;0.009254090162943464
1.39600e-06;0.009264392391175689
1.39625e-06;0.009274694619407923
1.39650e-06;0.009284996847640146
1.39675e-06;0.00929529907587237
1.39700e-06;0.009305601304104604
1.39725e-06;0.00931642619767358
1.39750e-06;0.009328220378061133
1.39775e-06;0.009340014558448675
1.39800e-06;0.00935180873883622
1.39825e-06;0.009363602919223772
1.39850e-06;0.009375397099611315
1.39875e-06;0.009387191279998867
1.39900e-06;0.00939898546038641
1.39925e-06;0.009410779640773952
1.39950e-06;0.009422573821161505
1.39975e-06;0.009434368001549048
1.40000e-06;0.009431973071023529
1.40025e-06;0.009427080523098217
1.40050e-06;0.0094221879751729
1.40075e-06;0.009417295427247585
1.40100e-06;0.009412402879322273
1.40125e-06;0.009407510331396956
1.40150e-06;0.009402617783471642
1.40175e-06;0.009397725235546325
