Time(s);Current(A)
1.05000e-05;-0.005932039749935447
1.05002e-05;-0.005922424437012416
1.05005e-05;-0.005912809124089319
1.05008e-05;-0.005903193811166223
1.05010e-05;-0.0058935784982431915
1.05013e-05;-0.005883963185320095
1.05015e-05;-0.005880566738131813
1.05017e-05;-0.005879637278202352
1.05020e-05;-0.005878707818272885
1.05023e-05;-0.005877778358343418
1.05025e-05;-0.0058768488984139566
1.05028e-05;-0.005875919438484489
1.05030e-05;-0.0058749899785550215
1.05033e-05;-0.005874060518625554
1.05035e-05;-0.005873131058696093
1.05038e-05;-0.005872201598766625
1.05040e-05;-0.005871272138837158
1.05043e-05;-0.005873273992831459
1.05045e-05;-0.005876438681723683
1.05048e-05;-0.005879603370615907
1.05050e-05;-0.005882768059508109
1.05053e-05;-0.005885932748400334
1.05055e-05;-0.005889097437292558
1.05058e-05;-0.005892262126184761
1.05060e-05;-0.0058954268150769856
1.05063e-05;-0.005898587575751176
1.05065e-05;-0.005901734076461334
1.05068e-05;-0.005904880577171513
1.05070e-05;-0.005908027077881691
1.05073e-05;-0.005911173578591849
1.05075e-05;-0.005914320079302028
1.05078e-05;-0.005917466580012206
1.05080e-05;-0.0059206130807223645
1.05083e-05;-0.005923759581432543
1.05085e-05;-0.005923286586254103
1.05087e-05;-0.005921377758461918
1.05090e-05;-0.005919468930669719
1.05093e-05;-0.00591756010287752
1.05095e-05;-0.005915651275085334
1.05098e-05;-0.005913742447293135
1.05100e-05;-0.005911833619500937
1.05102e-05;-0.005909924791708751
1.05105e-05;-0.005906229239974769
1.05108e-05;-0.005896047638103299
1.05110e-05;-0.005885866036231898
1.05113e-05;-0.005875684434360427
1.05115e-05;-0.005865502832488956
1.05118e-05;-0.005855321230617485
1.05120e-05;-0.005845139628746084
1.05123e-05;-0.005834958026874614
1.05125e-05;-0.005824776425003143
1.05128e-05;-0.00580999423223185
1.05130e-05;-0.005793387012257649
1.05133e-05;-0.00577677979228345
1.05135e-05;-0.005760172572309362
1.05138e-05;-0.005743565352335163
1.05140e-05;-0.005726958132360962
1.05143e-05;-0.005710350912386876
1.05145e-05;-0.005693263468547045
1.05148e-05;-0.005674432746970036
1.05150e-05;-0.0056556020253931555
1.05153e-05;-0.005636771303816147
1.05155e-05;-0.005617940582239139
1.05158e-05;-0.005599109860662257
1.05160e-05;-0.005580279139085249
1.05163e-05;-0.005561448417508241
1.05165e-05;-0.005543443756169529
1.05168e-05;-0.00552576678804204
1.05170e-05;-0.005508089819914551
1.05172e-05;-0.005492997760522561
1.05175e-05;-0.00547893111913925
1.05178e-05;-0.005464864477755938
1.05180e-05;-0.005450797836372722
1.05183e-05;-0.005436731194989411
1.05185e-05;-0.0054226645536061
1.05187e-05;-0.005408597912222883
1.05190e-05;-0.005394531270839572
1.05193e-05;-0.0053804563234048815
1.05195e-05;-0.005366351223877702
1.05198e-05;-0.005352246124350427
1.05200e-05;-0.0053381410248231525
1.05203e-05;-0.005324035925295878
1.05205e-05;-0.005309930825768698
1.05208e-05;-0.0052958257262414234
1.05210e-05;-0.005281720626714149
1.05213e-05;-0.005267615527186969
1.05215e-05;-0.005251064600995445
1.05218e-05;-0.0052335434298300815
1.05220e-05;-0.005216022258664836
1.05223e-05;-0.0051985010874994715
1.05225e-05;-0.005180979916334107
1.05228e-05;-0.0051634587451688625
1.05230e-05;-0.005145937574003498
1.05233e-05;-0.005126862270941605
1.05235e-05;-0.00510717045294711
1.05238e-05;-0.0050874786349524815
1.05240e-05;-0.005067786816957852
1.05243e-05;-0.005048094998963358
1.05245e-05;-0.005028403180968729
1.05248e-05;-0.0050087113629741
1.05250e-05;-0.0049887282147078665
1.05253e-05;-0.004968629497445519
1.05255e-05;-0.004948530780183171
1.05257e-05;-0.00492895739411232
1.05260e-05;-0.004909592403818341
1.05263e-05;-0.004890227413524361
1.05265e-05;-0.00487189230352463
1.05268e-05;-0.004853965740947144
1.05270e-05;-0.004836039178369658
1.05272e-05;-0.004820669257225977
1.05275e-05;-0.004806313540619996
1.05278e-05;-0.004791957824014015
1.05280e-05;-0.004777602107408132
1.05283e-05;-0.00476324639080215
1.05285e-05;-0.004748890674196169
1.05288e-05;-0.004734534957590188
1.05290e-05;-0.00472033738015676
1.05293e-05;-0.004706713869358941
1.05295e-05;-0.004693090358561123
1.05298e-05;-0.004679466847763397
1.05300e-05;-0.004665843336965578
1.05303e-05;-0.004652219826167759
1.05305e-05;-0.004638596315370033
1.05308e-05;-0.004624972804572215
1.05310e-05;-0.004609388672942674
1.05313e-05;-0.0045930267746234965
1.05315e-05;-0.004576664876304209
1.05318e-05;-0.004560302977984921
1.05320e-05;-0.004543941079665745
1.05323e-05;-0.004527103513081086
1.05325e-05;-0.004508539206204209
1.05328e-05;-0.004489974899327459
1.05330e-05;-0.004471410592450583
1.05333e-05;-0.004452846285573707
1.05335e-05;-0.004434281978696956
1.05338e-05;-0.0044148247795373395
1.05340e-05;-0.00439501337528926
1.05342e-05;-0.004375201971041316
1.05345e-05;-0.004355259095077706
1.05348e-05;-0.004335264065061999
1.05350e-05;-0.004315269035046428
1.05353e-05;-0.0042952520004663295
1.05355e-05;-0.00427522623680566
1.05357e-05;-0.004255557880615236
1.05360e-05;-0.004236031305854561
1.05363e-05;-0.004217153865743422
1.05365e-05;-0.004198533933509261
1.05368e-05;-0.004180444778040281
1.05370e-05;-0.004162957926502043
1.05373e-05;-0.004146379801977632
1.05375e-05;-0.004130100516204108
1.05378e-05;-0.004116476725702355
1.05380e-05;-0.004103906354471912
1.05383e-05;-0.004091335983241553
1.05385e-05;-0.00407876561201111
1.05388e-05;-0.004066195240780667
1.05390e-05;-0.004053624869550309
1.05393e-05;-0.004041054498319865
1.05395e-05;-0.004029133499391825
1.05398e-05;-0.004019569809961335
1.05400e-05;-0.004010006120530781
1.05403e-05;-0.004000442431100226
1.05405e-05;-0.003990878741669736
1.05408e-05;-0.003981315052239181
1.05410e-05;-0.003971751362808626
1.05413e-05;-0.003962187673378136
1.05415e-05;-0.003953531008598934
1.05418e-05;-0.003945234155135369
1.05420e-05;-0.003936937301671861
1.05423e-05;-0.003928640448208296
1.05425e-05;-0.0039203435947447315
1.05427e-05;-0.003912046741281223
1.05430e-05;-0.0039037498878176586
1.05433e-05;-0.0038960523253312087
1.05435e-05;-0.0038885924980316304
1.05438e-05;-0.0038811326707320014
1.05440e-05;-0.0038736728434323724
1.05442e-05;-0.003866213016132794
1.05445e-05;-0.003858753188833165
1.05448e-05;-0.003851293361533536
1.05450e-05;-0.0038442057304859376
1.05453e-05;-0.0038372657474905468
1.05455e-05;-0.003830325764495156
1.05458e-05;-0.003823735742980874
1.05460e-05;-0.003817284549116771
1.05463e-05;-0.0038108333552526238
1.05465e-05;-0.0038048188075171735
1.05468e-05;-0.0037989774747190105
1.05470e-05;-0.0037931361419208075
1.05473e-05;-0.0037875554187361917
1.05475e-05;-0.0037822449457908802
1.05478e-05;-0.0037771928749091243
1.05480e-05;-0.003772434429647551
1.05483e-05;-0.0037681232920188136
1.05485e-05;-0.0037649469296741783
1.05488e-05;-0.003764035293171031
1.05490e-05;-0.003766095654449829
1.05493e-05;-0.003771196777039566
1.05495e-05;-0.0037792062092328422
1.05498e-05;-0.0037899792626280657
1.05500e-05;-0.003803371449967452
1.05503e-05;-0.0038193119315010748
1.05505e-05;-0.003839326689055009
1.05508e-05;-0.0038606719039732647
1.05510e-05;-0.00388830903512943
1.05512e-05;-0.003918442132251339
1.05515e-05;-0.003948575229373452
1.05518e-05;-0.003986433373339789
1.05520e-05;-0.004027355997708973
1.05523e-05;-0.004068278622078436
1.05525e-05;-0.004109201246447898
1.05527e-05;-0.0041525278955506836
1.05530e-05;-0.004204581480371378
1.05533e-05;-0.004256635065192072
1.05535e-05;-0.0043086886500124134
1.05538e-05;-0.004360742234833108
1.05540e-05;-0.004417094081608807
1.05543e-05;-0.004475151023485616
1.05545e-05;-0.004533207965362032
1.05548e-05;-0.004593114735391467
1.05550e-05;-0.004653755321310689
1.05553e-05;-0.004714395907229499
1.05555e-05;-0.004775034048197122
1.05558e-05;-0.004835671219266902
1.05560e-05;-0.004896308390336272
1.05563e-05;-0.0049552434305568435
1.05565e-05;-0.005013503245534489
1.05568e-05;-0.00506954476703986
1.05570e-05;-0.005124706304642404
1.05573e-05;-0.0051766943506372076
1.05575e-05;-0.005227423491276168
1.05578e-05;-0.005272534466544719
1.05580e-05;-0.005315416748831602
1.05583e-05;-0.0053582990311181935
1.05585e-05;-0.005393325795053485
1.05588e-05;-0.005425236321309251
1.05590e-05;-0.005457146847564802
1.05593e-05;-0.005481257978221651
1.05595e-05;-0.0055022751347629986
1.05597e-05;-0.005523292291304203
1.05600e-05;-0.0055358611398656785
1.05603e-05;-0.005545078594607098
1.05605e-05;-0.005554296049348454
1.05608e-05;-0.005552439702011316
1.05610e-05;-0.005546190442869942
1.05612e-05;-0.005539941183728611
1.05615e-05;-0.005533691924587237
1.05618e-05;-0.005527442665445864
1.05620e-05;-0.005517479964567778
1.05623e-05;-0.005494036966716594
1.05625e-05;-0.00547059396886541
1.05628e-05;-0.005447150971014226
1.05630e-05;-0.005423707973163201
1.05633e-05;-0.005400264975312017
1.05635e-05;-0.005369695428500643
1.05638e-05;-0.005336298821856875
1.05640e-05;-0.0053029022152128805
1.05643e-05;-0.005266433526885546
1.05645e-05;-0.005228746161920123
1.05648e-05;-0.005189451296845621
1.05650e-05;-0.00514951874598319
1.05653e-05;-0.005108717848334055
1.05655e-05;-0.005067572482648831
1.05658e-05;-0.005026185066755373
1.05660e-05;-0.004984757975996768
1.05663e-05;-0.004943580284070664
1.05665e-05;-0.0049029224161955464
1.05668e-05;-0.004863096167048567
1.05670e-05;-0.004824409369048
1.05673e-05;-0.004787142432948892
1.05675e-05;-0.004751566971540779
1.05678e-05;-0.004718779803219325
1.05680e-05;-0.0046868994673370185
1.05682e-05;-0.0046585488636236155
1.05685e-05;-0.0046315984837900365
1.05688e-05;-0.004607950955730245
1.05690e-05;-0.004585613649439532
1.05693e-05;-0.0045665300180550514
1.05695e-05;-0.004548737100267023
1.05697e-05;-0.004535384547983892
1.05700e-05;-0.004523793462440657
1.05703e-05;-0.004512202376897421
1.05705e-05;-0.004507817887220873
1.05708e-05;-0.004506292211512272
1.05710e-05;-0.004504766535803671
1.05713e-05;-0.00450324086009507
1.05715e-05;-0.004501715184386479
1.05718e-05;-0.0045026041107239755
1.05720e-05;-0.00451225836986384
1.05723e-05;-0.004521912629003639
1.05725e-05;-0.004531566888143505
1.05728e-05;-0.00454122114728337
1.05730e-05;-0.00455087540642317
1.05733e-05;-0.004566738268092205
1.05735e-05;-0.00458506404567331
1.05738e-05;-0.0046033898232542905
1.05740e-05;-0.0046217156008353955
1.05743e-05;-0.0046400413784165005
1.05745e-05;-0.0046583671559974815
1.05748e-05;-0.00467758997256346
1.05750e-05;-0.004700069162266557
1.05753e-05;-0.004722548351969503
1.05755e-05;-0.004745027541672601
1.05758e-05;-0.004767506731375698
1.05760e-05;-0.004789985921078643
1.05763e-05;-0.0048124651107817416
1.05765e-05;-0.004834393399887344
1.05767e-05;-0.0048561031499832
1.05770e-05;-0.004877812900079203
1.05773e-05;-0.004896402280698183
1.05775e-05;-0.004913753829195941
1.05778e-05;-0.004931105377693816
1.05780e-05;-0.004948456926191691
1.05782e-05;-0.00496580847468945
1.05785e-05;-0.004983160023187325
1.05788e-05;-0.004999338661723135
1.05790e-05;-0.005015052013812156
1.05793e-05;-0.005030765365901283
1.05795e-05;-0.005046478717990409
1.05798e-05;-0.005062192070079537
1.05800e-05;-0.005077905422168557
1.05803e-05;-0.00509571830976194
1.05805e-05;-0.00511436407067563
1.05808e-05;-0.005133009831589193
1.05810e-05;-0.005151655592502883
1.05813e-05;-0.005170301353416573
1.05815e-05;-0.005188947114330137
1.05818e-05;-0.005207592875243827
1.05820e-05;-0.00522724247728609
1.05823e-05;-0.00525053615872867
1.05825e-05;-0.005273829840171408
1.05828e-05;-0.005297123521614145
1.05830e-05;-0.005320417203056725
1.05833e-05;-0.005343710884499462
1.05835e-05;-0.0053670045659422
1.05838e-05;-0.00539029824738478
1.05840e-05;-0.00541493219943085
1.05843e-05;-0.0054400978289005355
1.05845e-05;-0.005465263458370052
1.05848e-05;-0.005490429087839738
1.05850e-05;-0.005515594717309424
1.05853e-05;-0.005540760346778939
1.05855e-05;-0.0055659259762486256
1.05858e-05;-0.005591091605718312
1.05860e-05;-0.005616257235187827
1.05863e-05;-0.005637950107270633
1.05865e-05;-0.005658265357031579
1.05867e-05;-0.005678580606792387
1.05870e-05;-0.005698895856553332
1.05873e-05;-0.005719211106314278
1.05875e-05;-0.005739526356075086
1.05878e-05;-0.0057598416058360314
1.05880e-05;-0.005780156855596978
1.05883e-05;-0.005800472105357923
1.05885e-05;-0.005812238026186521
1.05888e-05;-0.005820612478777477
1.05890e-05;-0.0058289869313684324
1.05893e-05;-0.0058373613839593315
1.05895e-05;-0.005845735836550288
1.05898e-05;-0.005854110289141243
1.05900e-05;-0.005862484741732142
1.05903e-05;-0.0058708591943230975
1.05905e-05;-0.0058765409481159716
1.05908e-05;-0.005872447840184238
1.05910e-05;-0.005868354732252478
1.05913e-05;-0.0058642616243207175
1.05915e-05;-0.005860168516388984
1.05918e-05;-0.005856075408457223
1.05920e-05;-0.005851982300525463
1.05923e-05;-0.00584788919259373
1.05925e-05;-0.005843796084661969
1.05928e-05;-0.005833196921304939
1.05930e-05;-0.00582001684422907
1.05933e-05;-0.005806836767153112
1.05935e-05;-0.005793656690077154
1.05938e-05;-0.005780476613001285
1.05940e-05;-0.005767296535925327
1.05943e-05;-0.005754116458849368
1.05945e-05;-0.005740936381773499
1.05948e-05;-0.005725219695198552
1.05950e-05;-0.005708496750633434
1.05952e-05;-0.0056917738060684306
1.05955e-05;-0.005675050861503313
1.05958e-05;-0.005658327916938196
1.05960e-05;-0.005641604972373191
1.05963e-05;-0.005624882027808074
1.05965e-05;-0.0056081590832429565
1.05968e-05;-0.005593708654180413
1.05970e-05;-0.005580159718581308
1.05973e-05;-0.005566610782982109
1.05975e-05;-0.005553061847382912
1.05978e-05;-0.005539512911783806
1.05980e-05;-0.005525963976184609
1.05983e-05;-0.005512415040585411
1.05985e-05;-0.005498866104986305
1.05988e-05;-0.005487346792081789
1.05990e-05;-0.005483195284746235
1.05993e-05;-0.005479043777410709
1.05995e-05;-0.005474892270075155
1.05998e-05;-0.0054707407627396015
1.06000e-05;-0.0054665892554040755
1.06003e-05;-0.005462437748068522
1.06005e-05;-0.005458286240732968
1.06008e-05;-0.005454134733397442
1.06010e-05;-0.005457555502651442
1.06013e-05;-0.005463980149256911
1.06015e-05;-0.005470404795862336
1.06018e-05;-0.0054768294424678045
1.06020e-05;-0.005483254089073274
1.06023e-05;-0.005489678735678699
1.06025e-05;-0.0054961033822841674
1.06028e-05;-0.005502528028889636
1.06030e-05;-0.005510523856215347
1.06033e-05;-0.005524223282585866
1.06035e-05;-0.005537922708956386
1.06037e-05;-0.005551622135326812
1.06040e-05;-0.005565321561697332
1.06043e-05;-0.005579020988067851
1.06045e-05;-0.005592720414438278
1.06048e-05;-0.005606419840808797
1.06050e-05;-0.005620119267179317
1.06053e-05;-0.0056351871015798425
1.06055e-05;-0.005650797775355012
1.06058e-05;-0.005666408449130287
1.06060e-05;-0.005682019122905563
1.06063e-05;-0.005697629796680733
1.06065e-05;-0.005713240470456008
1.06068e-05;-0.005727094113106086
1.06070e-05;-0.0057402507518971605
1.06073e-05;-0.005753407390688325
1.06075e-05;-0.005766564029479488
1.06078e-05;-0.005779720668270563
1.06080e-05;-0.005792877307061727
1.06083e-05;-0.005804194633771414
1.06085e-05;-0.005814782316253197
1.06088e-05;-0.0058253699987350525
1.06090e-05;-0.005835957681216908
1.06093e-05;-0.005846545363698691
1.06095e-05;-0.005857133046180546
1.06098e-05;-0.005867720728662401
1.06100e-05;-0.005878308411144185
1.06103e-05;-0.005891051540727343
1.06105e-05;-0.005904649723431642
1.06108e-05;-0.00591824790613585
1.06110e-05;-0.00593184608884015
1.06113e-05;-0.0059454442715444495
1.06115e-05;-0.005959042454248657
1.06118e-05;-0.005972640636952957
1.06120e-05;-0.005986238819657257
1.06122e-05;-0.006002672614671187
1.06125e-05;-0.006020231280323212
1.06128e-05;-0.006037789945975236
1.06130e-05;-0.006055348611627141
1.06133e-05;-0.006072907277279165
1.06135e-05;-0.006090465942931189
1.06138e-05;-0.0061080246085832126
1.06140e-05;-0.006125583274235118
1.06143e-05;-0.0061431419398871425
1.06145e-05;-0.0061608465511687315
1.06148e-05;-0.006179080964873982
1.06150e-05;-0.006197315378579356
1.06153e-05;-0.006215549792284731
1.06155e-05;-0.006233784205989981
1.06158e-05;-0.006252018619695355
1.06160e-05;-0.006270253033400729
1.06163e-05;-0.00628848744710598
1.06165e-05;-0.006306721860811354
1.06168e-05;-0.0063249562745167276
1.06170e-05;-0.006340480945984226
1.06173e-05;-0.0063549306787269895
1.06175e-05;-0.006369380411469752
1.06178e-05;-0.006383830144212418
1.06180e-05;-0.006398279876955181
1.06183e-05;-0.006410831949813669
1.06185e-05;-0.006419090366463349
1.06188e-05;-0.006427348783113084
1.06190e-05;-0.00643560719976282
1.06193e-05;-0.0064438656164125
1.06195e-05;-0.006452124033062235
1.06198e-05;-0.006461800030175206
1.06200e-05;-0.03208550511690596
1.06203e-05;-0.047870675964700106
1.06205e-05;-0.021633663175869282
1.06207e-05;0.003814518076954005
1.06210e-05;0.023661621642823157
1.06213e-05;0.025853992898576504
1.06215e-05;0.008670442483320186
1.06218e-05;-0.010635362623911975
1.06220e-05;-0.029413418621395425
1.06222e-05;-0.0317354028899028
1.06225e-05;-0.015295007293515154
1.06228e-05;0.0005863257163252764
1.06230e-05;0.012974074032045433
1.06233e-05;0.01430700184262955
1.06235e-05;0.0035061328410895994
1.06238e-05;-0.008620667528783507
1.06240e-05;-0.020413585623656205
1.06243e-05;-0.02189577970898632
1.06245e-05;-0.011623726707318642
1.06248e-05;-0.0017009970891854829
1.06250e-05;0.006034226016805281
1.06253e-05;0.00684590072765036
1.06255e-05;5.871659723867507e-05
1.06258e-05;-0.007557005353712409
1.06260e-05;-0.0149616226288719
1.06263e-05;-0.015906044972245903
1.06265e-05;-0.009486761935078592
1.06268e-05;-0.0032858355010401074
1.06270e-05;0.0015453008527594467
1.06273e-05;0.002040192256650564
1.06275e-05;-0.002223820399155485
1.06278e-05;-0.007005634293395581
1.06280e-05;-0.011654054696573827
1.06283e-05;-0.012254812663780191
1.06285e-05;-0.008241999073766038
1.06288e-05;-0.004364610215141904
1.06290e-05;-0.0013434574817557954
1.06292e-05;-0.0010365429098584229
1.06295e-05;-0.003708482896154965
1.06298e-05;-0.0067026283914176175
1.06300e-05;-0.009611182274295435
1.06303e-05;-0.009982490408482134
1.06305e-05;-0.007462433056539734
1.06307e-05;-0.005026018874126435
1.06310e-05;-0.0031248485720943376
1.06313e-05;-0.0029227819856229432
1.06315e-05;-0.004585522510616453
1.06318e-05;-0.00644896398874136
1.06320e-05;-0.008257764400916131
1.06323e-05;-0.008476392936921038
1.06325e-05;-0.006883290871883447
1.06328e-05;-0.005342184875657782
1.06330e-05;-0.004136043728403325
1.06333e-05;-0.003993947227805248
1.06335e-05;-0.005019691577591094
1.06338e-05;-0.006170925304190771
1.06340e-05;-0.007287799164461613
1.06343e-05;-0.007408606174879489
1.06345e-05;-0.006394759350397626
1.06348e-05;-0.005413843549769998
1.06350e-05;-0.004643197276875731
1.06353e-05;-0.004539572735902206
1.06355e-05;-0.005168021473025889
1.06358e-05;-0.005875675981568134
1.06360e-05;-0.006562500377863672
1.06363e-05;-0.0066262081553478975
1.06365e-05;-0.0059801453594653395
1.06368e-05;-0.005355812560776495
1.06370e-05;-0.004864382425289664
1.06373e-05;-0.004792033421954153
1.06375e-05;-0.005179567875950433
1.06377e-05;-0.005618101456547695
1.06380e-05;-0.006045064203251731
1.06383e-05;-0.006083275906724111
1.06385e-05;-0.005678483393143269
1.06388e-05;-0.005288798322636501
1.06390e-05;-0.004983714304525201
1.06392e-05;-0.004942383918041714
1.06395e-05;-0.005190271010842115
1.06398e-05;-0.005471166659147247
1.06400e-05;-0.005745806391987535
1.06403e-05;-0.005777866938358524
1.06405e-05;-0.005533318307769578
1.06408e-05;-0.005299062794427276
1.06410e-05;-0.0051185583556952255
1.06413e-05;-0.005103945753856118
1.06415e-05;-0.005271089148311877
1.06418e-05;-0.005459420436371013
1.06420e-05;-0.0056442728403252864
1.06423e-05;-0.005677550523176368
1.06425e-05;-0.005537881334903077
1.06428e-05;-0.005404917287118909
1.06430e-05;-0.005305807842798983
1.06433e-05;-0.0053107208462191136
1.06435e-05;-0.005429512820728378
1.06438e-05;-0.0055615272184803355
1.06440e-05;-0.005691241188905854
1.06443e-05;-0.005725821166120784
1.06445e-05;-0.0056518182987120805
1.06448e-05;-0.0055816999794933535
1.06450e-05;-0.005532400100220538
1.06453e-05;-0.0055477964800569515
1.06455e-05;-0.00563398578845287
1.06458e-05;-0.005727842306004332
1.06460e-05;-0.0058195712067014285
1.06462e-05;-0.00585095297170643
