Time(s);Current(A)
7.00000e-06;-0.0032788361089868645
7.00025e-06;-0.0033328276107919643
7.00050e-06;-0.00338143386858134
7.00075e-06;-0.0034243165471500633
7.00100e-06;-0.0034613071042459893
7.00125e-06;-0.003489322925754425
7.00150e-06;-0.003517179598868521
7.00175e-06;-0.0035359881695784822
7.00200e-06;-0.003548484853900687
7.00225e-06;-0.0035514842496566167
7.00250e-06;-0.003554315237452804
7.00275e-06;-0.0035477293003383166
7.00300e-06;-0.0035348417857378267
7.00325e-06;-0.0035158904805399353
7.00350e-06;-0.003491059745579254
7.00375e-06;-0.003460534668907114
7.00400e-06;-0.0034218862284493496
7.00425e-06;-0.0033830938492487596
7.00450e-06;-0.0033342735005940844
7.00475e-06;-0.003285273243899231
7.00500e-06;-0.003227385451249394
7.00525e-06;-0.003169338210649404
7.00550e-06;-0.003103788719992975
7.00575e-06;-0.003038104634280916
7.00600e-06;-0.002966320967673323
7.00625e-06;-0.0028944278707718468
7.00650e-06;-0.0028178775462931378
7.00675e-06;-0.002741243668240903
7.00700e-06;-0.002662137707303932
7.00725e-06;-0.002581940511554212
7.00750e-06;-0.002501133960584548
7.00775e-06;-0.0024201827802558906
7.00800e-06;-0.002339551471806387
7.00825e-06;-0.0022597043036427164
7.00850e-06;-0.002181112630609271
7.00875e-06;-0.002104270350019304
7.00900e-06;-0.002029697150041103
7.00925e-06;-0.0019579236957805975
7.00950e-06;-0.0018894818703779276
7.00975e-06;-0.0018249031179839966
7.01000e-06;-0.0017647189889063082
7.01025e-06;-0.0017094582907791179
7.01050e-06;-0.0016595876825765557
7.01075e-06;-0.0016154089405411734
7.01100e-06;-0.0015770701716218791
7.01125e-06;-0.0015446680596754158
7.01150e-06;-0.0015182979570576144
7.01175e-06;-0.0014980550935533537
7.01200e-06;-0.0014871376092211203
7.01225e-06;-0.0014763854900971846
7.01250e-06;-0.001474995287008178
7.01275e-06;-0.0014799821837383634
7.01300e-06;-0.0014911454050773327
7.01325e-06;-0.001508307844958755
7.01350e-06;-0.001531291053056625
7.01375e-06;-0.0015599170221367164
7.01400e-06;-0.001594007524444878
7.01425e-06;-0.0016333831844878477
7.01450e-06;-0.0016778403611780368
7.01475e-06;-0.0017271107061312169
7.01500e-06;-0.0017808653631857811
7.01525e-06;-0.001838755655694179
7.01550e-06;-0.0019004322274312458
7.01575e-06;-0.0019655457160157727
7.01600e-06;-0.0020337466447035847
7.01625e-06;-0.002104685077244527
7.01650e-06;-0.002177995973189746
7.01675e-06;-0.0022532730791022582
7.01700e-06;-0.002330073268129748
7.01725e-06;-0.002407940642526692
7.01750e-06;-0.002486418172153884
7.01775e-06;-0.002565050182820913
7.01800e-06;-0.002643379881321936
7.01825e-06;-0.0027209506826615048
7.01850e-06;-0.0027972963994079662
7.01875e-06;-0.002871925283069476
7.01900e-06;-0.0029443224856791597
7.01925e-06;-0.0030139647475730916
7.01950e-06;-0.0030803291229181268
7.01975e-06;-0.003142891987907668
7.02000e-06;-0.003198787426188683
7.02025e-06;-0.003254564451597726
7.02050e-06;-0.0033037151375168187
7.02075e-06;-0.0033497547343722474
7.02100e-06;-0.003392301279196742
7.02125e-06;-0.0034347861195750513
7.02150e-06;-0.003473429487706025
7.02175e-06;-0.003509064565000763
7.02200e-06;-0.0035414236853183807
7.02225e-06;-0.0035702709705253987
7.02250e-06;-0.003595892992372311
7.02275e-06;-0.003619142400456026
7.02300e-06;-0.0036396091945270458
7.02325e-06;-0.0036600268121609845
7.02350e-06;-0.0036775274726310184
7.02375e-06;-0.003691709920656669
7.02400e-06;-0.0037058337767467264
7.02425e-06;-0.003716445413301602
7.02450e-06;-0.0037248378277329646
7.02475e-06;-0.003731603505892172
7.02500e-06;-0.0037371046519545956
7.02525e-06;-0.003741362905936818
7.02550e-06;-0.003744329137712518
7.02575e-06;-0.003745952827135505
7.02600e-06;-0.003746183907410393
7.02625e-06;-0.0037449929053910225
7.02650e-06;-0.003742555428033562
7.02675e-06;-0.0037392685031669938
7.02700e-06;-0.003735397887422365
7.02725e-06;-0.0037309957971112455
7.02750e-06;-0.0037260701763044512
7.02775e-06;-0.0037206277852976457
7.02800e-06;-0.0037146760623609377
7.02825e-06;-0.003708235495521631
7.02850e-06;-0.003701454207721746
7.02875e-06;-0.003694620072565734
7.02900e-06;-0.0036879378859173847
7.02925e-06;-0.0036816105658379512
7.02950e-06;-0.003675289563108714
7.02975e-06;-0.0036694053148454463
7.03000e-06;-0.0036638763387496906
7.03025e-06;-0.00365867564368956
7.03050e-06;-0.003653128257851923
7.03075e-06;-0.0036459286280389434
7.03100e-06;-0.0036363326009818883
7.03125e-06;-0.003624356062043385
7.03150e-06;-0.0036101674139832323
7.03175e-06;-0.003593936639585296
7.03200e-06;-0.0035758343914007898
7.03225e-06;-0.003555988562317216
7.03250e-06;-0.0035341198297453914
7.03275e-06;-0.003509553886667772
7.03300e-06;-0.0034805615572478434
7.03325e-06;-0.0034514906723270883
7.03350e-06;-0.003418446453965169
7.03375e-06;-0.0033830098285431804
7.03400e-06;-0.003343588533628601
7.03425e-06;-0.0033040964983439627
7.03450e-06;-0.0032646044630593243
7.03475e-06;-0.0032199515430436686
7.03500e-06;-0.003175206033530946
7.03525e-06;-0.003127366417687334
7.03550e-06;-0.0030777839715608797
7.03575e-06;-0.0030262301610190713
7.03600e-06;-0.002974641526058718
7.03625e-06;-0.002921334578489728
7.03650e-06;-0.002867996803318925
7.03675e-06;-0.0028132618484382806
7.03700e-06;-0.002758501827280718
7.03725e-06;-0.002703093707783575
7.03750e-06;-0.002647665040638731
7.03775e-06;-0.0025925530005404987
7.03800e-06;-0.0025385675211299953
7.03825e-06;-0.0024846021509590402
7.03850e-06;-0.002432287847618792
7.03875e-06;-0.0023812957024942297
7.03900e-06;-0.0023318274250304603
7.03925e-06;-0.002284209712135775
7.03950e-06;-0.002238793735938158
7.03975e-06;-0.0021959301558008384
7.04000e-06;-0.0021559700721277305
7.04025e-06;-0.0021192659658921266
7.04050e-06;-0.0020861698852341344
7.04075e-06;-0.0020569620497665215
7.04100e-06;-0.002031786441589991
7.04125e-06;-0.002012744241472954
7.04150e-06;-0.0019938108027769868
7.04175e-06;-0.001983134070596533
7.04200e-06;-0.001972605468890505
7.04225e-06;-0.001970543316483682
7.04250e-06;-0.0019686330574678174
7.04275e-06;-0.0019752673580681066
7.04300e-06;-0.001982054953407226
7.04325e-06;-0.001995041168493088
7.04350e-06;-0.002012097857413145
7.04375e-06;-0.0020330530979445665
7.04400e-06;-0.0020595559363882497
7.04425e-06;-0.002086157070256348
7.04450e-06;-0.002119612470206274
7.04475e-06;-0.002153190839972862
7.04500e-06;-0.002192879540811636
7.04525e-06;-0.002232677864808136
7.04550e-06;-0.0022776234642710646
7.04575e-06;-0.0023226614090722164
7.04600e-06;-0.0023718615015657263
7.04625e-06;-0.0024211362655894475
7.04650e-06;-0.0024735805015355123
7.04675e-06;-0.002526081599788523
7.04700e-06;-0.002580274020847869
7.04725e-06;-0.0026352094990507073
7.04750e-06;-0.0026905523180933027
7.04775e-06;-0.0027459788392770936
7.04800e-06;-0.00280116474182618
7.04825e-06;-0.0028557872937440883
7.04850e-06;-0.002909522419395526
7.04875e-06;-0.002962035497076461
7.04900e-06;-0.0030129713596063956
7.04925e-06;-0.0030619618945996437
7.04950e-06;-0.0031086378490697364
7.04975e-06;-0.0031526297248883777
7.05000e-06;-0.0031918896201008984
7.05025e-06;-0.0032310654713715876
7.05050e-06;-0.00326320235939785
7.05075e-06;-0.0032952129640252802
7.05100e-06;-0.003320040392949304
7.05125e-06;-0.0033447389512127846
7.05150e-06;-0.003361978603210401
7.05175e-06;-0.003379084437769065
7.05200e-06;-0.003386389619523052
7.05225e-06;-0.003393518971441948
7.05250e-06;-0.003400648323360868
7.05275e-06;-0.003399943923359265
7.05300e-06;-0.0033953938300786786
7.05325e-06;-0.0033871672636900576
7.05350e-06;-0.0033753498741115463
7.05375e-06;-0.003360026195280754
7.05400e-06;-0.0033412816596299633
7.05425e-06;-0.00331920537563953
7.05450e-06;-0.003293941411958509
7.05475e-06;-0.003265714190394222
7.05500e-06;-0.003234756647212153
7.05525e-06;-0.0032012716539045433
7.05550e-06;-0.0031654539923054626
7.05575e-06;-0.0031274980801057643
7.05600e-06;-0.0030875981021656284
7.05625e-06;-0.003045952127603437
7.05650e-06;-0.0030027912320043848
7.05675e-06;-0.002958396944374387
7.05700e-06;-0.0029130564915543495
7.05725e-06;-0.002867038430933248
7.05750e-06;-0.002820605722688288
7.05775e-06;-0.0027740212326164697
7.05800e-06;-0.0027275482839685936
7.05825e-06;-0.0026814513518381563
7.05850e-06;-0.0026360166609145754
7.05875e-06;-0.002591561475156095
7.05900e-06;-0.0025484070392986476
7.05925e-06;-0.002506862537092117
7.05950e-06;-0.002467233503893459
7.05975e-06;-0.0024298258709616956
7.06000e-06;-0.0023963280045719943
7.06025e-06;-0.00236289957773992
7.06050e-06;-0.002334949165813449
7.06075e-06;-0.0023070970328969986
7.06100e-06;-0.0022842039330145383
7.06125e-06;-0.0022613998012831473
7.06150e-06;-0.0022424325672569714
7.06175e-06;-0.0022262292614154753
7.06200e-06;-0.0022143162806685123
7.06225e-06;-0.0022024794035757933
7.06250e-06;-0.002194915606836496
7.06275e-06;-0.0021900242960941987
7.06300e-06;-0.002187600175340598
7.06325e-06;-0.0021875932122259367
7.06350e-06;-0.0021899819800888813
7.06375e-06;-0.0021947455241715197
7.06400e-06;-0.00220186334717017
7.06425e-06;-0.002211305353448489
7.06450e-06;-0.0022229495554413337
7.06475e-06;-0.0022365625310516025
7.06500e-06;-0.00225194571356748
7.06525e-06;-0.002268980793985222
7.06550e-06;-0.0022875678171296633
7.06575e-06;-0.002308270897633853
7.06600e-06;-0.00232901145137061
7.06625e-06;-0.002352170794569808
7.06650e-06;-0.0023753735323631345
7.06675e-06;-0.00239994039879526
7.06700e-06;-0.002425157764718394
7.06725e-06;-0.002450855481298044
7.06750e-06;-0.002476884348160743
7.06775e-06;-0.00250309581114891
7.06800e-06;-0.0025293408668577116
7.06825e-06;-0.002555467301495127
7.06850e-06;-0.002581286247478546
7.06875e-06;-0.002606565866143971
7.06900e-06;-0.002631087512033511
7.06925e-06;-0.002654664125621129
7.06950e-06;-0.0026764735768505603
7.06975e-06;-0.0026982516239353687
7.07000e-06;-0.002717113514400525
7.07025e-06;-0.002735923087194132
7.07050e-06;-0.002750692538222006
7.07075e-06;-0.002765389506941369
7.07100e-06;-0.002780086475660782
7.07125e-06;-0.002790082415555162
7.07150e-06;-0.0027999940160555407
7.07175e-06;-0.002809905616555886
7.07200e-06;-0.002814708672717363
7.07225e-06;-0.0028194200784019295
7.07250e-06;-0.0028241314840864802
7.07275e-06;-0.0028247130307256516
7.07300e-06;-0.002825220485113497
7.07325e-06;-0.0028234705170331535
7.07350e-06;-0.0028202061317194396
7.07375e-06;-0.0028154610562716956
7.07400e-06;-0.002809256229033846
7.07425e-06;-0.0028016155782165765
7.07450e-06;-0.0027926106606204286
7.07475e-06;-0.00278237061090535
7.07500e-06;-0.0027710116290458244
7.07525e-06;-0.0027586110098163745
7.07550e-06;-0.0027452371203219497
7.07575e-06;-0.0027309586373953257
7.07600e-06;-0.0027158442460764737
7.07625e-06;-0.002699964918676586
7.07650e-06;-0.0026834211743424585
7.07675e-06;-0.0026663497430067544
7.07700e-06;-0.0026488788456637377
7.07725e-06;-0.0026311129802723556
7.07750e-06;-0.0026131505039520423
7.07775e-06;-0.002595090586142904
7.07800e-06;-0.002577031497790533
7.07825e-06;-0.002559073551970897
7.07850e-06;-0.002541335625589362
7.07875e-06;-0.002523958657013334
7.07900e-06;-0.0025070791711737763
7.07925e-06;-0.0024908180533825645
7.07950e-06;-0.0024752924790060206
7.07975e-06;-0.0024606202480394177
7.08000e-06;-0.0024469189440612074
7.08025e-06;-0.002434322157446048
7.08050e-06;-0.0024231135820880385
7.08075e-06;-0.002413696479245312
7.08100e-06;-0.0024062948264497314
7.08125e-06;-0.0024009282959989416
7.08150e-06;-0.002397577043046999
7.08175e-06;-0.0023971909533715688
7.08200e-06;-0.0023968574234745346
7.08225e-06;-0.002400431811058825
7.08250e-06;-0.002404076309123939
7.08275e-06;-0.0024130883468884627
7.08300e-06;-0.002422196681668233
7.08325e-06;-0.0024313050164479722
7.08350e-06;-0.0024455652012379354
7.08375e-06;-0.002459917813435383
7.08400e-06;-0.0024779137058178356
7.08425e-06;-0.0024959749609227365
7.08450e-06;-0.0025174242367289154
7.08475e-06;-0.002538934295742878
7.08500e-06;-0.002563653739565083
7.08525e-06;-0.002588430761755475
7.08550e-06;-0.0026158542712724484
7.08575e-06;-0.0026433252604253304
7.08600e-06;-0.0026728149952800757
7.08625e-06;-0.002702340947693754
7.08650e-06;-0.002733357629216137
7.08675e-06;-0.0027644010553498294
7.08700e-06;-0.002796455226697319
7.08725e-06;-0.0028285275314454262
7.08750e-06;-0.0028608900909289563
7.08775e-06;-0.0028932578577637517
7.08800e-06;-0.002925154789789285
7.08825e-06;-0.002957043274744119
7.08850e-06;-0.0029877622778528967
7.08875e-06;-0.0030184602997267284
7.08900e-06;-0.0030473207277902565
7.08925e-06;-0.0030761481882730706
7.08950e-06;-0.003102319097435169
7.08975e-06;-0.0031284423464071676
7.09000e-06;-0.003152045136704525
7.09025e-06;-0.0031736996986275784
7.09050e-06;-0.0031938427707954562
7.09075e-06;-0.0032134925063227195
7.09100e-06;-0.0032332608101511753
7.09125e-06;-0.0032530313914264
7.09150e-06;-0.0032725465988543887
7.09175e-06;-0.003292057224715974
7.09200e-06;-0.0033106316704100613
7.09225e-06;-0.003329189320447234
7.09250e-06;-0.0033470483234475414
7.09275e-06;-0.0033650940136190966
7.09300e-06;-0.0033838753191444437
7.09325e-06;-0.0034026697579461495
7.09350e-06;-0.0034220324693172255
7.09375e-06;-0.0034414053758530893
7.09400e-06;-0.0034607077581886975
7.09425e-06;-0.003480008875276167
7.09450e-06;-0.0034993099923635706
7.09475e-06;-0.0035191180450266416
7.09500e-06;-0.003538935192430651
7.09525e-06;-0.003559073282074692
7.09550e-06;-0.003579555766325967
7.09575e-06;-0.003600038250577311
7.09600e-06;-0.0036203219861958916
7.09625e-06;-0.00364060215613986
7.09650e-06;-0.003660882326083897
7.09675e-06;-0.0036809657144485537
7.09700e-06;-0.003701045572428833
7.09725e-06;-0.003721125430409045
7.09750e-06;-0.00374082598255544
7.09775e-06;-0.0037605197297183256
7.09800e-06;-0.0037790261543183224
7.09825e-06;-0.003797511277609934
7.09850e-06;-0.0038159964009016082
7.09875e-06;-0.0038327691203685825
7.09900e-06;-0.0038495111182413723
7.09925e-06;-0.0038662531161142186
7.09950e-06;-0.0038815995734880647
7.09975e-06;-0.003896020723986522
7.10000e-06;-0.003909402626599586
7.10025e-06;-0.003921574963298597
7.10050e-06;-0.003931956953259992
7.10075e-06;-0.003939597247586002
7.10100e-06;-0.003943960668755849
7.10125e-06;-0.003945029684044274
7.10150e-06;-0.003942888774765293
7.10175e-06;-0.003938020550508198
7.10200e-06;-0.0039328563042268115
7.10225e-06;-0.003923192436672297
7.10250e-06;-0.017125831563172066
7.10275e-06;-0.024540495216520963
7.10300e-06;-0.020250898588190326
7.10325e-06;-0.01670101166754805
7.10350e-06;-0.006325738708858676
7.10375e-06;0.001794072281261493
7.10400e-06;0.000333705989890047
7.10425e-06;-0.0007734601856632241
7.10450e-06;-0.006877046577280251
7.10475e-06;-0.011974485246385695
7.10500e-06;-0.01130720282770565
7.10525e-06;-0.00793074425093025
7.10550e-06;-0.003422120525339406
7.10575e-06;0.0004341470872025366
7.10600e-06;0.000701138305063862
7.10625e-06;-0.0011975146393324006
7.10650e-06;-0.00461632029632154
7.10675e-06;-0.007576264425664603
7.10700e-06;-0.007206581898824817
7.10725e-06;-0.005126284277614411
7.10750e-06;-0.0023265205085242695
7.10775e-06;7.230279030171052e-05
7.10800e-06;0.00022855307966424107
7.10825e-06;-0.0009675192070251516
7.10850e-06;-0.003112835276347768
7.10875e-06;-0.004968826021106398
7.10900e-06;-0.004738272838515839
7.10925e-06;-0.0034362269849335754
7.10950e-06;-0.0016842491180846424
7.10975e-06;-0.0001847083900585098
7.11000e-06;-9.158295532670947e-05
7.11025e-06;-0.0008473275350595947
7.11050e-06;-0.002198702580413415
7.11075e-06;-0.0033683160127002633
7.11100e-06;-0.003229389880139822
7.11125e-06;-0.002417695657541958
7.11150e-06;-0.0013227634523540167
7.11175e-06;-0.00038468791339484694
7.11200e-06;-0.00032638626577907487
7.11225e-06;-0.0007986529659634554
7.11250e-06;-0.001642914778349161
7.11275e-06;-0.0023722934982379966
7.11300e-06;-0.002281105872742899
7.11325e-06;-0.0017677373499042635
7.11350e-06;-0.0010762958665824264
7.11375e-06;-0.0004825369909881183
7.11400e-06;-0.00043934040245002044
7.11425e-06;-0.0007279975058685838
7.11450e-06;-0.001249224880040682
7.11475e-06;-0.001698106879535313
7.11500e-06;-0.001632701763185712
7.11525e-06;-0.0013026635767963753
7.11550e-06;-0.000860987800369273
7.11575e-06;-0.0004804790247833028
7.11600e-06;-0.0004448708420842083
7.11625e-06;-0.0006172078705628762
7.11650e-06;-0.0009353513856090862
7.11675e-06;-0.0012083663211203183
7.11700e-06;-0.0011595060252549147
7.11725e-06;-0.0009452436758472364
7.11750e-06;-0.0006614942141020079
7.11775e-06;-0.0004165714319039093
7.11800e-06;-0.00038826190270916993
7.11825e-06;-0.0004908288969972827
7.11850e-06;-0.0006854063413684579
7.11875e-06;-0.0008524575406126725
7.11900e-06;-0.000818706855384088
7.11925e-06;-0.0006822503804977194
7.11950e-06;-0.0005032434429431362
7.11975e-06;-0.0003496020289114974
7.12000e-06;-0.00033275380540338795
7.12025e-06;-0.00039916716781361497
7.12050e-06;-0.0005251738661558307
7.12075e-06;-0.0006369867981448677
7.12100e-06;-0.0006267248968424164
7.12125e-06;-0.0005558333518828395
7.12150e-06;-0.00046178490335773716
7.12175e-06;-0.0003869099751747311
7.12200e-06;-0.0004007894614106392
7.12225e-06;-0.0004696722873062517
7.12250e-06;-0.0005785159734058035
7.12275e-06;-0.0006808864961252056
7.12300e-06;-0.0007089985447388963
7.12325e-06;-0.0007011339125245816
7.12350e-06;-0.0006805552328262613
7.12375e-06;-0.0006735656284083633
7.12400e-06;-0.0007235348595494456
7.12425e-06;-0.0008091044567156271
7.12450e-06;-0.0009206364525784169
7.12475e-06;-0.0010288310645677847
7.12500e-06;-0.001091017274089762
7.12525e-06;-0.0011309653229159473
7.12550e-06;-0.001163035541417384
7.12575e-06;-0.0012034914653603131
7.12600e-06;-0.0012792851572225024
7.12625e-06;-0.001376822462125698
7.12650e-06;-0.0014898518102072246
7.12675e-06;-0.0015998063526954278
7.12700e-06;-0.0016797457777312733
7.12725e-06;-0.0017443491630854476
7.12750e-06;-0.001802399781483509
7.12775e-06;-0.0018638726545391014
7.12800e-06;-0.0019454364286670578
7.12825e-06;-0.002038361484654132
7.12850e-06;-0.002138517957550738
7.12875e-06;-0.0022340626338631406
7.12900e-06;-0.0023079086204493347
7.12925e-06;-0.002369039181726614
7.12950e-06;-0.0024227444709004065
7.12975e-06;-0.0024750598453983507
7.13000e-06;-0.002536216845506585
7.13025e-06;-0.0026007134312126877
7.13050e-06;-0.00266673507554509
7.13075e-06;-0.002728433503017761
7.13100e-06;-0.00277625660311109
7.13125e-06;-0.0028161153908130222
7.13150e-06;-0.0028513226350130854
7.13175e-06;-0.0028856579578729713
7.13200e-06;-0.002925528637319809
7.13225e-06;-0.0029674864840322605
7.13250e-06;-0.0030103934203576073
7.13275e-06;-0.0030505846190200503
7.13300e-06;-0.003082075652494604
7.13325e-06;-0.003108568552939322
7.13350e-06;-0.00313213734944882
7.13375e-06;-0.003155148236689815
7.13400e-06;-0.0031816130849269095
7.13425e-06;-0.0032093704534063854
7.13450e-06;-0.0032377056384966033
7.13475e-06;-0.0032643216692274093
7.13500e-06;-0.003285468807656215
7.13525e-06;-0.0033034648962897823
7.13550e-06;-0.0033196078511268687
7.13575e-06;-0.0033353782740768155
7.13600e-06;-0.0033532878740814877
7.13625e-06;-0.003371980874491358
7.13650e-06;-0.0033910082550688537
7.13675e-06;-0.0034089295040711756
7.13700e-06;-0.0034233946521082187
7.13725e-06;-0.003435854085856308
7.13750e-06;-0.0034471193453622304
7.13775e-06;-0.003458116675298035
7.13800e-06;-0.0034704177410700477
7.13825e-06;-0.0034831715464220085
7.13850e-06;-0.0034960953762131516
7.13875e-06;-0.003508284990644906
7.13900e-06;-0.003518267362403942
7.13925e-06;-0.0035269494040629777
7.13950e-06;-0.003534838160309282
7.13975e-06;-0.003542512003330498
7.14000e-06;-0.0035509499183776897
7.14025e-06;-0.0035594070759942665
7.14050e-06;-0.003566579612943534
7.14075e-06;-0.0035699742779777823
7.14100e-06;-0.003567438906627601
7.14125e-06;-0.0035594511340659887
7.14150e-06;-0.003546591593191707
7.14175e-06;-0.0035294855815929493
7.14200e-06;-0.003509009299568898
7.14225e-06;-0.00348495956621516
7.14250e-06;-0.0034567824433662376
7.14275e-06;-0.003423179270850486
7.14300e-06;-0.0033830653062999726
7.14325e-06;-0.0033370030814860443
7.14350e-06;-0.003285619631637473
7.14375e-06;-0.0032295698357096563
7.14400e-06;-0.003169665682510889
7.14425e-06;-0.003105559903260637
