Time(s);Current(A)
1.17500e-05;0.0014115900404907894
1.17503e-05;0.0013760550873653952
1.17505e-05;0.0013405201342402417
1.17508e-05;0.0013049851811148473
1.17510e-05;0.001269450227989453
1.17513e-05;0.0012339152748642994
1.17515e-05;0.0012068550874114235
1.17518e-05;0.0011798697829812964
1.17520e-05;0.001152884478551352
1.17523e-05;0.0011290210120700594
1.17525e-05;0.0011051851301464234
1.17528e-05;0.0010813492482229493
1.17530e-05;0.0010606378174795909
1.17533e-05;0.001039953994384422
1.17535e-05;0.0010192701712893931
1.17538e-05;0.0009985863481942242
1.17540e-05;0.0009779025250990553
1.17543e-05;0.0009572187020040265
1.17545e-05;0.0009365348789088576
1.17548e-05;0.0009158510558136887
1.17550e-05;0.0008973885852426992
1.17553e-05;0.0008789457425407835
1.17555e-05;0.0008605028998388679
1.17558e-05;0.0008420600571370771
1.17560e-05;0.0008236172144351615
1.17563e-05;0.0008051743717332458
1.17565e-05;0.0007867315290314552
1.17568e-05;0.0007682886863295395
1.17570e-05;0.0007508824719206026
1.17572e-05;0.0007334854171586066
1.17575e-05;0.0007160883623964927
1.17578e-05;0.0006986913076343789
1.17580e-05;0.000681294252872383
1.17583e-05;0.0006638971981102692
1.17585e-05;0.0006465001433481553
1.17588e-05;0.0006291030885860415
1.17590e-05;0.0006142725781171175
1.17593e-05;0.0005994647456315869
1.17595e-05;0.0005846569131460564
1.17598e-05;0.0005698490806606262
1.17600e-05;0.0005550412481750956
1.17603e-05;0.0005402334156895651
1.17605e-05;0.000525425583204135
1.17608e-05;0.0005106177507186045
1.17610e-05;0.0004988182332718574
1.17613e-05;0.00048704529729473155
1.17615e-05;0.0004752723613175259
1.17618e-05;0.00046606080567640766
1.17620e-05;0.0004568718823901958
1.17623e-05;0.00044768295910392174
1.17625e-05;0.0004410914869217838
1.17628e-05;0.00043452296581583357
1.17630e-05;0.00042795444470983875
1.17633e-05;0.00042414416897957854
1.17635e-05;0.0004203582651035777
1.17638e-05;0.0004165723612275512
1.17640e-05;0.00041516281993826524
1.17643e-05;0.00041377427618717914
1.17645e-05;0.00041451541751219345
1.17648e-05;0.0004152753767330831
1.17650e-05;0.00041603533595396764
1.17653e-05;0.0004192189219111944
1.17655e-05;0.00042242392303258857
1.17657e-05;0.000425628924153961
1.17660e-05;0.0004310131247169059
1.17663e-05;0.00043641658068461033
1.17665e-05;0.0004418200366522782
1.17668e-05;0.0004497178606101689
1.17670e-05;0.00045763772480191423
1.17673e-05;0.0004655575889936596
1.17675e-05;0.00047347745318535126
1.17678e-05;0.00048139731737709655
1.17680e-05;0.000489317181568842
1.17683e-05;0.0004980481281182571
1.17685e-05;0.0005076190794768872
1.17688e-05;0.0005171900308355172
1.17690e-05;0.0005267609821940825
1.17693e-05;0.0005363319335527126
1.17695e-05;0.0005459028849113427
1.17698e-05;0.0005554738362699079
1.17700e-05;0.0005646724729595039
1.17703e-05;0.0005738678198769289
1.17705e-05;0.0005830631667942914
1.17708e-05;0.0005916055245061388
1.17710e-05;0.0005994716080174232
1.17713e-05;0.0006073376915286543
1.17715e-05;0.0006152037750399387
1.17718e-05;0.0006229004796648593
1.17720e-05;0.0006305956876579966
1.17723e-05;0.0006382908956511862
1.17725e-05;0.0006519828904717167
1.17728e-05;0.000665727872896747
1.17730e-05;0.00068490784787003
1.17733e-05;0.0007041358464340499
1.17735e-05;0.0007279490637171518
1.17738e-05;0.0007518027959901344
1.17740e-05;0.0007809186003763369
1.17742e-05;0.0008100809004282605
1.17745e-05;0.0008464869627027146
1.17748e-05;0.0008829570308557085
1.17750e-05;0.0009259020951731446
1.17753e-05;0.0009689043725530001
1.17755e-05;0.001017129400966129
1.17758e-05;0.0010654005776042108
1.17760e-05;0.0011185988326797276
1.17763e-05;0.0011718406234176844
1.17765e-05;0.0012316559101542685
1.17768e-05;0.0012915292802971373
1.17770e-05;0.0013514026504404116
1.17773e-05;0.001417811972770795
1.17775e-05;0.0014842790467703671
1.17778e-05;0.0015507461207703898
1.17780e-05;0.0016172131947704124
1.17783e-05;0.0016836802687699847
1.17785e-05;0.0017511069266310452
1.17788e-05;0.0018195273862320574
1.17790e-05;0.0018879478458326058
1.17793e-05;0.001956368305433618
1.17795e-05;0.0020247887650346303
1.17798e-05;0.002093209224635179
1.17800e-05;0.002146131380257889
1.17803e-05;0.002198916592875434
1.17805e-05;0.002251701805492621
1.17808e-05;0.002304487018110166
1.17810e-05;0.002357272230727711
1.17813e-05;0.0024100574433448983
1.17815e-05;0.002462842655962443
1.17818e-05;0.0025156278685799878
1.17820e-05;0.002568413081197175
1.17823e-05;0.00262119829381472
1.17825e-05;0.0026601056503533452
1.17827e-05;0.0026846402792127673
1.17830e-05;0.002709174908072355
1.17833e-05;0.0027337095369319433
1.17835e-05;0.002758244165791365
1.17838e-05;0.002782778794650953
1.17840e-05;0.0028073134235105414
1.17843e-05;0.0028318480523701296
1.17845e-05;0.0028563826812295513
1.17848e-05;0.0028809173100891395
1.17850e-05;0.0029054519389487272
1.17853e-05;0.002910818860865666
1.17855e-05;0.0029160164169341695
1.17858e-05;0.0029212139730026726
1.17860e-05;0.0029264115290711405
1.17863e-05;0.002931609085139644
1.17865e-05;0.002936806641208147
1.17868e-05;0.002942004197276615
1.17870e-05;0.0029472017533451185
1.17873e-05;0.0029523993094136215
1.17875e-05;0.0029575968654820895
1.17878e-05;0.002958065113516861
1.17880e-05;0.0029536354107367793
1.17883e-05;0.002949205707956727
1.17885e-05;0.0029447760051766448
1.17888e-05;0.0029403463023965626
1.17890e-05;0.0029359165996165103
1.17893e-05;0.0029314868968364285
1.17895e-05;0.0029270571940563463
1.17898e-05;0.002922627491276294
1.17900e-05;0.002918197788496212
1.17903e-05;0.0029137680857161297
1.17905e-05;0.0029085818008646046
1.17908e-05;0.002903388830854237
1.17910e-05;0.00289819586084387
1.17912e-05;0.0028930028908335376
1.17915e-05;0.00288780992082317
1.17918e-05;0.002880104961629325
1.17920e-05;0.0028697984380245682
1.17923e-05;0.0028594919144197418
1.17925e-05;0.002849185390814915
1.17928e-05;0.0028388788672100884
1.17930e-05;0.002828572343605332
1.17933e-05;0.0027980716939124653
1.17935e-05;0.002767392608930984
1.17938e-05;0.0027367135239497104
1.17940e-05;0.0027060344389682293
1.17943e-05;0.0026753553539867483
1.17945e-05;0.002644676269005475
1.17948e-05;0.002613997184023994
1.17950e-05;0.0025833180990425123
1.17953e-05;0.002552639014061239
1.17955e-05;0.0024965839305899004
1.17958e-05;0.0024403046248073173
1.17960e-05;0.002384025319025116
1.17963e-05;0.002327746013242533
1.17965e-05;0.0022714667074599498
1.17968e-05;0.002215187401677748
1.17970e-05;0.002158908095895165
1.17973e-05;0.0021026287901125817
1.17975e-05;0.0020463494843303803
1.17978e-05;0.0019787743205472346
1.17980e-05;0.0019110993465676425
1.17983e-05;0.0018434243725885086
1.17985e-05;0.0017757493986089164
1.17988e-05;0.0017080744246293239
1.17990e-05;0.0016406363810718579
1.17993e-05;0.0015732004310310406
1.17995e-05;0.0015057644809902233
1.17997e-05;0.001438328530949863
1.18000e-05;0.0013708925809090458
1.18003e-05;0.0013094195182883114
1.18005e-05;0.0012479991437388024
1.18008e-05;0.001186578769188877
1.18010e-05;0.0011316945793646
1.18013e-05;0.001076868143265935
1.18015e-05;0.001029296576223128
1.18018e-05;0.0009817891132000616
1.18020e-05;0.0009430625694766268
1.18023e-05;0.0009044136139529209
1.18025e-05;0.0008728407795674054
1.18028e-05;0.0008461619717456514
1.18030e-05;0.0008244379032221607
1.18033e-05;0.0008077498318912405
1.18035e-05;0.0007961788425541007
1.18038e-05;0.0007898035951732287
1.18040e-05;0.0007886619359234216
1.18043e-05;0.0007926993224791748
1.18045e-05;0.0008017887386341622
1.18048e-05;0.000815785918009277
1.18050e-05;0.0008345474282612449
1.18053e-05;0.0008579297880153539
1.18055e-05;0.0008879360482334038
1.18058e-05;0.0009180004797181924
1.18060e-05;0.0009562837381177656
1.18063e-05;0.0009946396180690342
1.18065e-05;0.0010402403276510432
1.18068e-05;0.0010859050525446018
1.18070e-05;0.0011389879506215348
1.18073e-05;0.00119213639567394
1.18075e-05;0.001245284840725985
1.18078e-05;0.001306382725311776
1.18080e-05;0.0013675508511423666
1.18082e-05;0.0014287189769725428
1.18085e-05;0.0014898871028031335
1.18088e-05;0.0015510552286337243
1.18090e-05;0.0016146160609254682
1.18093e-05;0.001678198035171076
1.18095e-05;0.0017417800094166839
1.18098e-05;0.0018053619836622917
1.18100e-05;0.0018689439579074687
1.18103e-05;0.0019221283687540567
1.18105e-05;0.0019752209067340513
1.18108e-05;0.002028313444713686
1.18110e-05;0.0020814059826936805
1.18113e-05;0.002134498520673675
1.18115e-05;0.0021875910586533097
1.18118e-05;0.0022406835966333042
1.18120e-05;0.002268569166993968
1.18123e-05;0.0022962320085969405
1.18125e-05;0.0023238948502001004
1.18128e-05;0.0023515576918032603
1.18130e-05;0.0023792205334062324
1.18133e-05;0.0024068833750093923
1.18135e-05;0.0024345462166125522
1.18138e-05;0.002441318515671344
1.18140e-05;0.0024479062259029167
1.18143e-05;0.002454493936134489
1.18145e-05;0.002449341289314469
1.18148e-05;0.002444084904703327
1.18150e-05;0.0024388285200921856
1.18153e-05;0.002422648395231211
1.18155e-05;0.002406371748204834
1.18158e-05;0.002390095101178457
1.18160e-05;0.0023594894641512008
1.18163e-05;0.002328757216172752
1.18165e-05;0.002298024968194303
1.18167e-05;0.0022672927202160623
1.18170e-05;0.0022365604722376134
1.18173e-05;0.0022058282242591646
1.18175e-05;0.0021691290833646616
1.18178e-05;0.0021262502756273843
1.18180e-05;0.0020833714678901074
1.18183e-05;0.0020404926601528305
1.18185e-05;0.0019976138524158437
1.18188e-05;0.001954735044678567
1.18190e-05;0.0019118562369412895
1.18193e-05;0.00186724575635653
1.18195e-05;0.001822619974710701
1.18198e-05;0.0017779941930648718
1.18200e-05;0.0017333684114193453
1.18203e-05;0.0016887426297735161
1.18205e-05;0.0016479623788628478
1.18208e-05;0.0016111647867853543
1.18210e-05;0.0015743671947076113
1.18213e-05;0.0015375696026298684
1.18215e-05;0.0015007720105523748
1.18218e-05;0.001463974418474632
1.18220e-05;0.0014359500806244464
1.18223e-05;0.0014080032632464328
1.18225e-05;0.0013800564458682297
1.18228e-05;0.0013576390675967102
1.18230e-05;0.001335270547447832
1.18233e-05;0.0013129020272988022
1.18235e-05;0.0012905335071497724
1.18238e-05;0.0012681649870008942
1.18240e-05;0.0012457964668518644
1.18243e-05;0.0012234279467028346
1.18245e-05;0.0012010594265539564
1.18248e-05;0.001184763589933966
1.18250e-05;0.0011685214115441634
1.18252e-05;0.0011522792331544708
1.18255e-05;0.0011360370547646682
1.18258e-05;0.0011197948763748656
1.18260e-05;0.0011035526979851732
1.18263e-05;0.0010873105195953706
1.18265e-05;0.001071068341205568
1.18268e-05;0.0010593005718313269
1.18270e-05;0.0010475723383342019
1.18273e-05;0.0010358441048369973
1.18275e-05;0.001024115871339793
1.18278e-05;0.001012387637842668
1.18280e-05;0.0010006594043454635
1.18283e-05;0.0009889311708482591
1.18285e-05;0.0009772029373511341
1.18288e-05;0.0009654747038539296
1.18290e-05;0.0009537464703567251
1.18293e-05;0.0009420182368596002
1.18295e-05;0.0009302900033623957
1.18298e-05;0.0009185617698651913
1.18300e-05;0.0009068335363680663
1.18303e-05;0.0008980744577830954
1.18305e-05;0.0008923904114514308
1.18308e-05;0.0008867063651198047
1.18310e-05;0.0008810223187881402
1.18313e-05;0.0008753382724564755
1.18315e-05;0.0008696542261248494
1.18318e-05;0.0008639701797931848
1.18320e-05;0.0008582861334615203
1.18323e-05;0.0008526020871298941
1.18325e-05;0.0008469180407982295
1.18328e-05;0.0008412339944665649
1.18330e-05;0.0008355499481349388
1.18333e-05;0.0008298659018032741
1.18335e-05;0.0008241818554716096
1.18337e-05;0.0008184978091399835
1.18340e-05;0.0008189682450375479
1.18343e-05;0.0008194930619391046
1.18345e-05;0.0008200178788406578
1.18348e-05;0.0008205426957422146
1.18350e-05;0.0008210675126437714
1.18352e-05;0.0008215923295453245
1.18355e-05;0.0008221171464468813
1.18358e-05;0.0008226419633484381
1.18360e-05;0.0008231667802499948
1.18363e-05;0.000823691597151548
1.18365e-05;0.0008259169626006811
1.18368e-05;0.0008299035165992616
1.18370e-05;0.0008338900705978151
1.18373e-05;0.0008378766245963955
1.18375e-05;0.000841863178594976
1.18378e-05;0.0008458497325935295
1.18380e-05;0.0008498362865921099
1.18383e-05;0.0008538228405906904
1.18385e-05;0.0008578093945892439
1.18388e-05;0.0008617959485878243
1.18390e-05;0.0008657825025864048
1.18393e-05;0.0008704351699373303
1.18395e-05;0.0008750937230657714
1.18398e-05;0.0008797522761942126
1.18400e-05;0.0008844108293226223
1.18403e-05;0.0008890693824510634
1.18405e-05;0.0008937279355795046
1.18408e-05;0.0008975219057664418
1.18410e-05;0.0009013082364986483
1.18413e-05;0.0009050945672308548
1.18415e-05;0.0009088808979630357
1.18418e-05;0.0009126672286952421
1.18420e-05;0.0009164535594274486
1.18422e-05;0.0009231162814831816
1.18425e-05;0.0009298044193323536
1.18428e-05;0.0009364925571815255
1.18430e-05;0.000948081357470303
1.18433e-05;0.0009597134600119285
1.18435e-05;0.000971345562553554
1.18437e-05;0.0009874021664708662
1.18440e-05;0.00100349786528198
1.18443e-05;0.001019593564093094
1.18445e-05;0.0010418882422020678
1.18448e-05;0.0010642376944913585
1.18450e-05;0.0010865871467808006
1.18453e-05;0.0011142189904376587
1.18455e-05;0.0011418975093039703
1.18458e-05;0.0011695760281704697
1.18460e-05;0.0012018241777198787
1.18463e-05;0.0012341127045253986
1.18465e-05;0.0012664012313311373
1.18468e-05;0.0013045534715439696
1.18470e-05;0.001342757523527755
1.18473e-05;0.0013809615755117992
1.18475e-05;0.0014191656274958435
1.18478e-05;0.0014573696794796288
1.18480e-05;0.001495573731463673
1.18483e-05;0.001534957836340836
1.18485e-05;0.00157556407371538
1.18488e-05;0.0016161703110901993
1.18490e-05;0.0016567765484650184
1.18493e-05;0.0016973827858395626
1.18495e-05;0.001737989023214382
1.18498e-05;0.001778595260589201
1.18500e-05;0.0018107079045804476
1.18503e-05;0.0018427454991811981
1.18505e-05;0.0018747830937819487
1.18507e-05;0.0019068206883824821
1.18510e-05;0.0019388582829832327
1.18513e-05;0.001970895877583983
1.18515e-05;0.0020029334721845165
1.18518e-05;0.002034971066785267
1.18520e-05;0.0020670086613860175
1.18522e-05;0.00208878474987446
1.18525e-05;0.0020999334163472796
1.18528e-05;0.002111082082820099
1.18530e-05;0.002122230749292918
1.18533e-05;0.0021333794157656623
1.18535e-05;0.002144528082238482
1.18538e-05;0.002155676748711301
1.18540e-05;0.002166825415184045
1.18543e-05;0.002177974081656864
1.18545e-05;0.0021891227481296836
1.18548e-05;0.0021807447311710374
1.18550e-05;0.0021721941764379646
1.18553e-05;0.002163643621704892
1.18555e-05;0.002155093066971877
1.18558e-05;0.0021465425122388043
1.18560e-05;0.0021379919575057315
1.18563e-05;0.002129441402772717
1.18565e-05;0.002120890848039644
1.18568e-05;0.0021064080247669135
1.18570e-05;0.0020857813936946976
1.18573e-05;0.0020651547626223425
1.18575e-05;0.002044528131549987
1.18578e-05;0.0020239015004777715
1.18580e-05;0.0020032748694054163
1.18583e-05;0.001982648238333061
1.18585e-05;0.0019620216072608453
1.18588e-05;0.00194139497618849
1.18590e-05;0.0019179577328893053
1.18592e-05;0.001894495655020628
1.18595e-05;0.0018710335771517917
1.18598e-05;0.0018475714992829554
1.18600e-05;0.0018241094214142782
1.18603e-05;0.001800647343545442
1.18605e-05;0.0017771852656766056
1.18607e-05;0.001759531118601872
1.18610e-05;0.0017419282904036263
1.18613e-05;0.0017243254622053806
1.18615e-05;0.0017067226340071351
1.18618e-05;0.0016891198058090087
1.18620e-05;0.0016715169776107632
1.18623e-05;0.0016539141494125175
1.18625e-05;0.0016461086237283724
1.18628e-05;0.0016383896670095128
1.18630e-05;0.0016306707102906532
1.18633e-05;0.0016301184795530822
1.18635e-05;0.0016296295740065151
1.18638e-05;0.0016291406684599483
1.18640e-05;0.0016361099014658665
1.18643e-05;0.001643145034584329
1.18645e-05;0.0016501801677027915
1.18648e-05;0.0016647499851784205
1.18650e-05;0.0016793863791253263
1.18653e-05;0.0016940227730722324
1.18655e-05;0.0017195735140561965
1.18658e-05;0.0017452206942111161
1.18660e-05;0.001770867874366036
1.18663e-05;0.0017965150545207816
1.18665e-05;0.0018221622346757012
1.18668e-05;0.001847809414830621
1.18670e-05;0.0018734565949853669
1.18673e-05;0.0019039447490502694
1.18675e-05;0.001939446501719882
1.18678e-05;0.001974948254389254
1.18680e-05;0.0020104500070588665
1.18683e-05;0.002045951759728479
1.18685e-05;0.002081453512397851
1.18688e-05;0.002116955265067464
1.18690e-05;0.002152457017737076
1.18692e-05;0.0021868681761906396
1.18695e-05;0.002221269698153871
1.18698e-05;0.002255671220117103
1.18700e-05;0.0022900727420803344
1.18703e-05;0.002324474264043333
1.18705e-05;0.002358875786006565
1.18708e-05;0.0023932773079697964
1.18710e-05;0.002427678829932795
1.18713e-05;0.0024555422536086417
1.18715e-05;0.002476634436400927
1.18718e-05;0.002497726619193069
1.18720e-05;0.0025188188019853535
1.18723e-05;0.0025399109847776386
1.18725e-05;0.0025610031675697806
1.18728e-05;0.0025820953503620653
1.18730e-05;0.0026031875331543504
1.18733e-05;0.0026242797159464924
1.18735e-05;0.002628393341525337
1.18738e-05;0.0026323569445707946
1.18740e-05;0.0026363205476162255
1.18743e-05;0.002640284150661683
1.18745e-05;0.0026442477537071407
1.18748e-05;0.002648211356752571
1.18750e-05;0.002652174959798029
1.18753e-05;0.0026561385628434864
1.18755e-05;0.0026601021658889173
1.18758e-05;0.0026640657689343747
1.18760e-05;0.0026680293719798325
1.18763e-05;0.0026590984722942197
1.18765e-05;0.0026500536367809204
1.18768e-05;0.0026410088012676206
1.18770e-05;0.0026319639657543825
1.18773e-05;0.002622919130241083
1.18775e-05;0.002613874294727784
1.18777e-05;0.0026048294592145456
1.18780e-05;0.002595784623701246
1.18783e-05;0.0025867397881879466
1.18785e-05;0.0025776949526746472
1.18788e-05;0.002568650117161409
1.18790e-05;0.002556988035814991
1.18793e-05;0.002545302828484052
1.18795e-05;0.0025336176211531924
1.18798e-05;0.0025219324138222535
1.18800e-05;0.0025102472064913147
1.18803e-05;0.002498561999160455
1.18805e-05;0.0024868767918295163
1.18808e-05;0.0024751915844985774
1.18810e-05;0.002463506377167718
1.18813e-05;0.002451821169836779
1.18815e-05;0.00244013596250584
1.18818e-05;0.0024284507551749807
1.18820e-05;0.0024243550836162723
1.18823e-05;0.0024203264731967877
1.18825e-05;0.002416297862777331
1.18828e-05;0.0024122692523578467
1.18830e-05;0.0024082406419383626
1.18833e-05;0.0024042120315189053
1.18835e-05;0.002400183421099421
1.18838e-05;0.002396154810679937
1.18840e-05;0.00239212620026048
1.18843e-05;0.0023880975898409955
1.18845e-05;0.0023840689794215114
1.18848e-05;0.0023800403690020545
1.18850e-05;0.002384730114183113
1.18853e-05;0.0023894968947557487
1.18855e-05;0.002394263675328352
1.18858e-05;0.002399030455900988
1.18860e-05;0.0024037972364736233
1.18862e-05;0.0024085640170462266
1.18865e-05;0.0024133307976188624
1.18868e-05;0.002418097578191498
1.18870e-05;0.0024228643587641337
1.18873e-05;0.002427631139336737
1.18875e-05;0.0024323979199093724
1.18878e-05;0.0024371647004820082
1.18880e-05;0.0024453388848568692
1.18883e-05;0.0024535431770524125
1.18885e-05;0.002461747469247956
1.18888e-05;0.0024699517614434436
1.18890e-05;0.002478156053638987
1.18893e-05;0.0024863603458345302
1.18895e-05;0.002494564638030018
1.18898e-05;0.0025027689302255613
1.18900e-05;0.0025109732224211046
1.18903e-05;0.0025191775146165924
1.18905e-05;0.0025273818068121357
1.18908e-05;0.002535586099007679
1.18910e-05;0.0025363709433663187
1.18913e-05;0.0025370902294823525
1.18915e-05;0.002537809515598386
1.18918e-05;0.0025385288017144144
1.18920e-05;0.002539248087830448
1.18923e-05;0.002539967373946481
1.18925e-05;0.0025406866600625098
1.18928e-05;0.002541405946178543
1.18930e-05;0.0025421252322945765
1.18933e-05;0.002542844518410605
1.18935e-05;0.0025435638045266384
1.18938e-05;0.0025442830906426722
1.18940e-05;0.0025450023767587004
1.18943e-05;0.002545721662874734
1.18945e-05;0.0025379282157274212
1.18947e-05;0.0025213184790413954
1.18950e-05;0.0025047087423552567
1.18953e-05;0.0024880990056691185
1.18955e-05;0.0024714892689829803
1.18958e-05;0.0024548795322969544
1.18960e-05;0.0024382697956108162
1.18963e-05;0.0024216600589246776
1.18965e-05;0.0024050503222386517
1.18968e-05;0.0023884405855525135
1.18970e-05;0.0023718308488663753
1.18973e-05;0.0023552211121803494
1.18975e-05;0.0023386113754942112
1.18978e-05;0.0023220016388080726
