Time(s);Current(A)
5.50000e-07;-0.001991622499499116
5.50250e-07;-0.001997641346464354
5.50500e-07;-0.0020060066410499786
5.50750e-07;-0.0020143719356356038
5.51000e-07;-0.0020227372302212255
5.51250e-07;-0.0020311025248068507
5.51500e-07;-0.0020394678193924754
5.51750e-07;-0.0020478331139781006
5.52000e-07;-0.0020593189877486135
5.52250e-07;-0.0020876096183772676
5.52500e-07;-0.0021159002490059335
5.52750e-07;-0.0021441908796345998
5.53000e-07;-0.0021724815102632656
5.53250e-07;-0.002200772140891932
5.53500e-07;-0.002229062771520598
5.53750e-07;-0.002257353402149252
5.54000e-07;-0.002299116980719842
5.54250e-07;-0.0023479264482242656
5.54500e-07;-0.0023967359157286887
5.54750e-07;-0.002445545383233112
5.55000e-07;-0.002494354850737535
5.55250e-07;-0.0025431643182419377
5.55500e-07;-0.0025919737857463612
5.55750e-07;-0.0026427539089243605
5.56000e-07;-0.0027041462894698953
5.56250e-07;-0.0027655386700154304
5.56500e-07;-0.0028269310505609395
5.56750e-07;-0.0028883234311064742
5.57000e-07;-0.002949715811652009
5.57250e-07;-0.003011108192197544
5.57500e-07;-0.0030725005727430792
5.57750e-07;-0.0031336534372749234
5.58000e-07;-0.0031946810431597392
5.58250e-07;-0.0032557086490445806
5.58500e-07;-0.003316736254929422
5.58750e-07;-0.0033777638608142634
5.59000e-07;-0.003438791466699105
5.59250e-07;-0.0034998190725839466
5.59500e-07;-0.0035507284616763243
5.59750e-07;-0.0035963463709800577
5.60000e-07;-0.003641964280283791
5.60250e-07;-0.003687582189587524
5.60500e-07;-0.0037332000988912575
5.60750e-07;-0.0037788180081949714
5.61000e-07;-0.0038244359174987048
5.61250e-07;-0.0038482470820684887
5.61500e-07;-0.0038606540682752585
5.61750e-07;-0.0038730610544820284
5.62000e-07;-0.0038854680406887982
5.62250e-07;-0.003897875026895563
5.62500e-07;-0.003910282013102333
5.62750e-07;-0.003922688999309103
5.63000e-07;-0.0039350959855158725
5.63250e-07;-0.003947502971722643
5.63500e-07;-0.003959909957929408
5.63750e-07;-0.003948040247567983
5.64000e-07;-0.003923474658885094
5.64250e-07;-0.0038989090702022033
5.64500e-07;-0.0038743434815193137
5.64750e-07;-0.0038497778928364237
5.65000e-07;-0.003825212304153544
5.65250e-07;-0.003800646715470654
5.65500e-07;-0.003776081126787764
5.65750e-07;-0.0037515155381048744
5.66000e-07;-0.0037269499494219844
5.66250e-07;-0.0036902999528072127
5.66500e-07;-0.0036473302259828963
5.66750e-07;-0.0036043604991585617
5.67000e-07;-0.0035613907723342267
5.67250e-07;-0.003518421045509892
5.67500e-07;-0.0034754513186855576
5.67750e-07;-0.003432481591861241
5.68000e-07;-0.003389541327153324
5.68250e-07;-0.0033466164701201734
5.68500e-07;-0.0033036916130870226
5.68750e-07;-0.0032607667560538723
5.69000e-07;-0.0032178418990207215
5.69250e-07;-0.0031749170419875894
5.69500e-07;-0.003131992184954439
5.69750e-07;-0.003102559710522367
5.70000e-07;-0.0030801832886833682
5.70250e-07;-0.0030578068668443694
5.70500e-07;-0.0030354304450053706
5.70750e-07;-0.0030130540231663814
5.71000e-07;-0.0029906776013273826
5.71250e-07;-0.002968301179488384
5.71500e-07;-0.002945924757649385
5.71750e-07;-0.002923548335810386
5.72000e-07;-0.002901171913971397
5.72250e-07;-0.002878795492132398
5.72500e-07;-0.0028564190702933994
5.72750e-07;-0.002851042522586919
5.73000e-07;-0.002854556325050729
5.73250e-07;-0.0028580701275145383
5.73500e-07;-0.0028615839299783465
5.73750e-07;-0.002865097732442156
5.74000e-07;-0.002868611534905966
5.74250e-07;-0.0028721253373697755
5.74500e-07;-0.002875639139833585
5.74750e-07;-0.002879152942297395
5.75000e-07;-0.002882666744761203
5.75250e-07;-0.0028861805472250126
5.75500e-07;-0.002889694349688822
5.75750e-07;-0.0029023524412572846
5.76000e-07;-0.0029197926818913993
5.76250e-07;-0.0029372329225255066
5.76500e-07;-0.0029546731631596213
5.76750e-07;-0.002972113403793736
5.77000e-07;-0.0029895536444278508
5.77250e-07;-0.0030069938850619655
5.77500e-07;-0.00302443412569608
5.77750e-07;-0.0030418743663301875
5.78000e-07;-0.0030595445517987495
5.78250e-07;-0.0030784530224717463
5.78500e-07;-0.0030973614931447432
5.78750e-07;-0.00311626996381774
5.79000e-07;-0.003135178434490729
5.79250e-07;-0.003154086905163726
5.79500e-07;-0.003172995375836723
5.79750e-07;-0.0031919038465097194
5.80000e-07;-0.0032108123171827162
5.80250e-07;-0.003229720787855713
5.80500e-07;-0.0032467506357680208
5.80750e-07;-0.0032627980285132962
5.81000e-07;-0.003278845421258572
5.81250e-07;-0.0032948928140038476
5.81500e-07;-0.003310940206749123
5.81750e-07;-0.0033269875994943986
5.82000e-07;-0.0033430349922396675
5.82250e-07;-0.003359082384984943
5.82500e-07;-0.0033751297777302185
5.82750e-07;-0.003391177170475494
5.83000e-07;-0.00340722456322077
5.83250e-07;-0.0034232719559660384
5.83500e-07;-0.003439319348711314
5.83750e-07;-0.0034553667414565898
5.84000e-07;-0.0034714141342018653
5.84250e-07;-0.0034874615269471407
5.84500e-07;-0.003503508919692416
5.84750e-07;-0.003519556312437685
5.85000e-07;-0.0035358190898602654
5.85250e-07;-0.0035532417439976837
5.85500e-07;-0.003570664398135102
5.85750e-07;-0.0035880870522725203
5.86000e-07;-0.0036055097064099386
5.86250e-07;-0.0036229323605473495
5.86500e-07;-0.003640355014684768
5.86750e-07;-0.003657777668822186
5.87000e-07;-0.0036752003229596044
5.87250e-07;-0.0036926229770970227
5.87500e-07;-0.0037100456312344336
5.87750e-07;-0.003727468285371852
5.88000e-07;-0.00374489093950927
5.88250e-07;-0.0037623135936466884
5.88500e-07;-0.0037797362477841067
5.88750e-07;-0.003797158901921525
5.89000e-07;-0.003814581556058936
5.89250e-07;-0.003832004210196354
5.89500e-07;-0.0038494268643337725
5.89750e-07;-0.003861500051895481
5.90000e-07;-0.003870775652209621
5.90250e-07;-0.0038800512525237613
5.90500e-07;-0.0038893268528378973
5.90750e-07;-0.0038986024531520377
5.91000e-07;-0.003907878053466178
5.91250e-07;-0.003917153653780318
5.91500e-07;-0.0039264292540944585
5.91750e-07;-0.003935704854408594
5.92000e-07;-0.003944980454722735
5.92250e-07;-0.003954256055036875
5.92500e-07;-0.003963531655351015
5.92750e-07;-0.003972807255665155
5.93000e-07;-0.003982082855979296
5.93250e-07;-0.003991358456293431
5.93500e-07;-0.004000634056607572
5.93750e-07;-0.004009909656921712
5.94000e-07;-0.0040176227158768025
5.94250e-07;-0.0040169212703228185
5.94500e-07;-0.004016219824768835
5.94750e-07;-0.004015518379214851
5.95000e-07;-0.004014816933660867
5.95250e-07;-0.004014115488106883
5.95500e-07;-0.0040134140425528994
5.95750e-07;-0.0040127125969989155
5.96000e-07;-0.0040120111514449315
5.96250e-07;-0.0040113097058909475
5.96500e-07;-0.0040106082603369635
5.96750e-07;-0.0040099068147829795
5.97000e-07;-0.0040092053692289955
5.97250e-07;-0.0040085039236750115
5.97500e-07;-0.004007802478121028
5.97750e-07;-0.0040071010325670444
5.98000e-07;-0.0040063995870130605
5.98250e-07;-0.0040056981414590765
5.98500e-07;-0.004006308648972339
5.98750e-07;-0.004007605262869934
5.99000e-07;-0.00400890187676753
5.99250e-07;-0.004010198490665126
5.99500e-07;-0.0040114951045627225
5.99750e-07;-0.004012791718460318
6.00000e-07;-0.0040140883323579145
6.00250e-07;-0.00401538494625551
6.00500e-07;-0.0040166815601531064
6.00750e-07;-0.004017978174050702
6.01000e-07;-0.004019274787948298
6.01250e-07;-0.004020571401845894
6.01500e-07;-0.00402186801574349
6.01750e-07;-0.004023164629641086
6.02000e-07;-0.004024461243538682
6.02250e-07;-0.004025757857436278
6.02500e-07;-0.004027054471333874
6.02750e-07;-0.004030232175875979
6.03000e-07;-0.0040435398175354366
6.03250e-07;-0.0040568474591949006
6.03500e-07;-0.004070155100854365
6.03750e-07;-0.004083462742513829
6.04000e-07;-0.004096770384173293
6.04250e-07;-0.004110078025832757
6.04500e-07;-0.004123385667492215
6.04750e-07;-0.004136693309151679
6.05000e-07;-0.004150000950811143
6.05250e-07;-0.004163308592470607
6.05500e-07;-0.004176616234130071
6.05750e-07;-0.004189923875789535
6.06000e-07;-0.004203231517448993
6.06250e-07;-0.004216539159108457
6.06500e-07;-0.004229846800767921
6.06750e-07;-0.004243154442427385
6.07000e-07;-0.004256462084086849
6.07250e-07;-0.004272453556641084
6.07500e-07;-0.004289848580555028
6.07750e-07;-0.004307243604468973
6.08000e-07;-0.004324638628382918
6.08250e-07;-0.004342033652296863
6.08500e-07;-0.004359428676210808
6.08750e-07;-0.004376823700124746
6.09000e-07;-0.00439421872403869
6.09250e-07;-0.004411287403976868
6.09500e-07;-0.004426598675805631
6.09750e-07;-0.0044419099476343945
6.10000e-07;-0.004457221219463158
6.10250e-07;-0.004472532491291915
6.10500e-07;-0.004487843763120678
6.10750e-07;-0.004503155034949441
6.11000e-07;-0.004518466306778204
6.11250e-07;-0.004533777578606968
6.11500e-07;-0.004555857094731104
6.11750e-07;-0.004581476170110693
6.12000e-07;-0.004607095245490281
6.12250e-07;-0.004632714320869869
6.12500e-07;-0.0046583333962494575
6.12750e-07;-0.0046839524716290465
6.13000e-07;-0.004709571547008623
6.13250e-07;-0.004735190622388212
6.13500e-07;-0.0047608096977678005
6.13750e-07;-0.004786428773147389
6.14000e-07;-0.004812047848526978
6.14250e-07;-0.004847887325936684
6.14500e-07;-0.004889071722504337
6.14750e-07;-0.004930256119072007
6.15000e-07;-0.0049714405156396765
6.15250e-07;-0.005012624912207346
6.15500e-07;-0.005053809308775016
6.15750e-07;-0.005094993705342669
6.16000e-07;-0.005136178101910338
6.16250e-07;-0.005177362498478008
6.16500e-07;-0.0052185468950456775
6.16750e-07;-0.005259731291613347
6.17000e-07;-0.005302669195016313
6.17250e-07;-0.005346524122255507
6.17500e-07;-0.005390379049494718
6.17750e-07;-0.00543423397673393
6.18000e-07;-0.005478088903973141
6.18250e-07;-0.005521943831212353
6.18500e-07;-0.005565798758451546
6.18750e-07;-0.005609653685690757
6.19000e-07;-0.005653508612929969
6.19250e-07;-0.005697363540169181
6.19500e-07;-0.005741218467408392
6.19750e-07;-0.005782415104387221
6.20000e-07;-0.005809296475242623
6.20250e-07;-0.005836177846098037
6.20500e-07;-0.005863059216953451
6.20750e-07;-0.005889940587808865
6.21000e-07;-0.005916821958664279
6.21250e-07;-0.005943703329519693
6.21500e-07;-0.005970584700375095
6.21750e-07;-0.005997466071230509
6.22000e-07;-0.006024347442085923
6.22250e-07;-0.006051228812941336
6.22500e-07;-0.006078110183796751
6.22750e-07;-0.00609148442437583
6.23000e-07;-0.006097794899833822
6.23250e-07;-0.0061041053752918135
6.23500e-07;-0.006110415850749806
6.23750e-07;-0.006116726326207797
6.24000e-07;-0.006123036801665789
6.24250e-07;-0.006129347277123778
6.24500e-07;-0.00613565775258177
6.24750e-07;-0.006141968228039762
6.25000e-07;-0.006148278703497754
6.25250e-07;-0.006154589178955746
6.25500e-07;-0.006160899654413738
6.25750e-07;-0.006167210129871727
6.26000e-07;-0.006173520605329719
6.26250e-07;-0.006173031316046597
6.26500e-07;-0.006168985983397672
6.26750e-07;-0.006164940650748747
6.27000e-07;-0.006160895318099825
6.27250e-07;-0.0061568499854509
6.27500e-07;-0.006152804652801976
6.27750e-07;-0.006148759320153052
6.28000e-07;-0.0061447139875041275
6.28250e-07;-0.006140668654855203
6.28500e-07;-0.00613662332220628
6.28750e-07;-0.0061325779895573555
6.29000e-07;-0.006128532656908431
6.29250e-07;-0.006124487324259507
6.29500e-07;-0.006120441991610583
6.29750e-07;-0.006119913417919315
6.30000e-07;-0.006121223988350922
6.30250e-07;-0.006122534558782529
6.30500e-07;-0.006123845129214136
6.30750e-07;-0.006125155699645743
6.31000e-07;-0.00612646627007735
6.31250e-07;-0.006127776840508956
6.31500e-07;-0.006129087410940564
6.31750e-07;-0.006130397981372171
6.32000e-07;-0.0061317085518037785
6.32250e-07;-0.006133019122235385
6.32500e-07;-0.006134329692666992
6.32750e-07;-0.006135640263098599
6.33000e-07;-0.006136950833530206
6.33250e-07;-0.0061382614039618135
6.33500e-07;-0.00613957197439342
6.33750e-07;-0.006140882544825027
6.34000e-07;-0.006142193115256635
6.34250e-07;-0.006143503685688241
6.34500e-07;-0.006144814256119848
6.34750e-07;-0.006146124826551455
6.35000e-07;-0.006151273057865999
6.35250e-07;-0.006158428253986341
6.35500e-07;-0.00616558345010668
6.35750e-07;-0.006172738646227021
6.36000e-07;-0.0061798938423473625
6.36250e-07;-0.006187049038467705
6.36500e-07;-0.006194204234588046
6.36750e-07;-0.006201359430708387
6.37000e-07;-0.006208514626828726
6.37250e-07;-0.0062156698229490675
6.37500e-07;-0.00622282501906941
6.37750e-07;-0.006229980215189751
6.38000e-07;-0.006237135411310092
6.38250e-07;-0.006244290607430431
6.38500e-07;-0.006251445803550773
6.38750e-07;-0.0062586009996711146
6.39000e-07;-0.006265756195791456
6.39250e-07;-0.006272911391911798
6.39500e-07;-0.006280066588032139
6.39750e-07;-0.006287221784152478
6.40000e-07;-0.0062943769802728195
6.40250e-07;-0.0062965443500116805
6.40500e-07;-0.006296103257900865
6.40750e-07;-0.006295662165790049
6.41000e-07;-0.006295221073679234
6.41250e-07;-0.006294779981568418
6.41500e-07;-0.006294338889457603
6.41750e-07;-0.006293897797346787
6.42000e-07;-0.006293456705235972
6.42250e-07;-0.0062930156131251564
6.42500e-07;-0.0062925745210143415
6.42750e-07;-0.0062887284756127145
6.43000e-07;-0.006266546278879218
6.43250e-07;-0.00624436408214572
6.43500e-07;-0.006222181885412224
6.43750e-07;-0.006199999688678727
6.44000e-07;-0.006177817491945239
6.44250e-07;-0.006155635295211743
6.44500e-07;-0.006133453098478245
6.44750e-07;-0.0061112709017447486
6.45000e-07;-0.006089088705011251
6.45250e-07;-0.0060669065082777545
6.45500e-07;-0.006034679083541095
6.45750e-07;-0.005997198349644538
6.46000e-07;-0.00595971761574798
6.46250e-07;-0.005922236881851423
6.46500e-07;-0.005884756147954865
6.46750e-07;-0.005847275414058324
6.47000e-07;-0.005809794680161766
6.47250e-07;-0.005772313946265209
6.47500e-07;-0.005734833212368651
6.47750e-07;-0.005697680620156611
6.48000e-07;-0.005662295116968052
6.48250e-07;-0.0056269096137795075
6.48500e-07;-0.005591524110590948
6.48750e-07;-0.005556138607402389
6.49000e-07;-0.00552075310421383
6.49250e-07;-0.005485367601025271
6.49500e-07;-0.005449982097836712
6.49750e-07;-0.005414596594648168
6.50000e-07;-0.005379211091459609
6.50250e-07;-0.005359970178385669
6.50500e-07;-0.00534917233132332
6.50750e-07;-0.00533837448426097
6.51000e-07;-0.005327576637198625
6.51250e-07;-0.005316778790136276
6.51500e-07;-0.005305980943073926
6.51750e-07;-0.005295183096011577
6.52000e-07;-0.005284385248949228
6.52250e-07;-0.0052735874018868785
6.52500e-07;-0.005262789554824534
6.52750e-07;-0.005275907822094805
6.53000e-07;-0.005301533395565994
6.53250e-07;-0.005327158969037182
6.53500e-07;-0.005352784542508371
6.53750e-07;-0.005378410115979559
6.54000e-07;-0.0054040356894507376
6.54250e-07;-0.005429661262921926
6.54500e-07;-0.005455286836393115
6.54750e-07;-0.005480912409864303
6.55000e-07;-0.005506537983335492
6.55250e-07;-0.0055489044186283676
6.55500e-07;-0.005600025749551872
6.55750e-07;-0.005651147080475376
6.56000e-07;-0.00570226841139888
6.56250e-07;-0.005753389742322385
6.56500e-07;-0.0058045110732458894
6.56750e-07;-0.005855632404169372
6.57000e-07;-0.005906753735092876
6.57250e-07;-0.00595787506601638
6.57500e-07;-0.006011674137138668
6.57750e-07;-0.006066873574395984
6.58000e-07;-0.006122073011653278
6.58250e-07;-0.006177272448910594
6.58500e-07;-0.006232471886167911
6.58750e-07;-0.006287671323425227
6.59000e-07;-0.006342870760682543
6.59250e-07;-0.0063980701979398594
6.59500e-07;-0.006453269635197152
6.59750e-07;-0.006495146623359425
6.60000e-07;-0.006530056428313674
6.60250e-07;-0.006564966233267923
6.60500e-07;-0.006599876038222172
6.60750e-07;-0.006634785843176422
6.61000e-07;-0.006669695648130656
6.61250e-07;-0.006704605453084905
6.61500e-07;-0.006739515258039154
6.61750e-07;-0.006768473532472429
6.62000e-07;-0.006765381979794152
6.62250e-07;-0.006762290427115877
6.62500e-07;-0.006759198874437601
6.62750e-07;-0.006756107321759325
6.63000e-07;-0.006753015769081048
6.63250e-07;-0.006749924216402772
6.63500e-07;-0.006746832663724495
6.63750e-07;-0.00674374111104622
6.64000e-07;-0.006716259307101393
6.64250e-07;-0.006676022239627134
6.64500e-07;-0.006635785172152875
6.64750e-07;-0.006595548104678616
6.65000e-07;-0.006555311037204356
6.65250e-07;-0.0065150739697301145
6.65500e-07;-0.006474836902255855
6.65750e-07;-0.0064345998347815955
6.66000e-07;-0.006394362767307336
6.66250e-07;-0.006341156704778334
6.66500e-07;-0.006281168303362084
6.66750e-07;-0.006221179901945809
6.67000e-07;-0.0061611915005295335
6.67250e-07;-0.006101203099113259
6.67500e-07;-0.006041214697696983
6.67750e-07;-0.0059812262962807075
6.68000e-07;-0.005921237894864458
6.68250e-07;-0.005861249493448183
6.68500e-07;-0.005807431289307027
6.68750e-07;-0.005756839886374809
6.69000e-07;-0.00570624848344259
6.69250e-07;-0.005655657080510372
6.69500e-07;-0.005605065677578175
6.69750e-07;-0.005554474274645957
6.70000e-07;-0.005503882871713738
6.70250e-07;-0.00545329146878152
6.70500e-07;-0.005402700065849302
6.70750e-07;-0.005357496120652704
6.71000e-07;-0.005341304391455327
6.71250e-07;-0.0053251126622579515
6.71500e-07;-0.005308920933060575
6.71750e-07;-0.005292729203863198
6.72000e-07;-0.005276537474665823
6.72250e-07;-0.005260345745468453
6.72500e-07;-0.0052441540162710765
6.72750e-07;-0.0052279622870737
6.73000e-07;-0.005211770557876324
6.73250e-07;-0.005219451731140961
6.73500e-07;-0.005239617612282973
6.73750e-07;-0.005259783493424992
6.74000e-07;-0.005279949374567013
6.74250e-07;-0.005300115255709033
6.74500e-07;-0.0053202811368510535
6.74750e-07;-0.005340447017993074
6.75000e-07;-0.005360612899135086
6.75250e-07;-0.005380778780277105
6.75500e-07;-0.005400944661419126
6.75750e-07;-0.005435698147125387
6.76000e-07;-0.005478080448888087
6.76250e-07;-0.005520462750650787
6.76500e-07;-0.005562845052413469
6.76750e-07;-0.005605227354176169
6.77000e-07;-0.005647609655938869
6.77250e-07;-0.005689991957701569
6.77500e-07;-0.00573237425946427
6.77750e-07;-0.005774756561226951
6.78000e-07;-0.0058171388629896514
6.78250e-07;-0.005857709975834594
6.78500e-07;-0.0058973338990956515
6.78750e-07;-0.005936957822356708
6.79000e-07;-0.005976581745617765
6.79250e-07;-0.006016205668878806
6.79500e-07;-0.006055829592139864
6.79750e-07;-0.0060954535154009205
6.80000e-07;-0.006135077438661978
6.80250e-07;-0.006174701361923035
6.80500e-07;-0.006214325285184092
6.80750e-07;-0.006253949208445133
6.81000e-07;-0.0062750566670544084
6.81250e-07;-0.006286480650750241
6.81500e-07;-0.006297904634446073
6.81750e-07;-0.006309328618141905
6.82000e-07;-0.006320752601837732
6.82250e-07;-0.0063321765855335645
6.82500e-07;-0.006343600569229397
6.82750e-07;-0.006355024552925229
6.83000e-07;-0.006366448536621061
6.83250e-07;-0.0063778725203168934
6.83500e-07;-0.0063892965040127205
6.83750e-07;-0.006380861766438793
6.84000e-07;-0.006362041599850963
6.84250e-07;-0.006343221433263133
6.84500e-07;-0.006324401266675304
6.84750e-07;-0.006305581100087473
6.85000e-07;-0.0062867609334996515
6.85250e-07;-0.006267940766911821
6.85500e-07;-0.006249120600323991
6.85750e-07;-0.006230300433736162
6.86000e-07;-0.006211480267148331
6.86250e-07;-0.006190503974876948
6.86500e-07;-0.006157916643201602
6.86750e-07;-0.006125329311526254
6.87000e-07;-0.0060927419798509075
6.87250e-07;-0.00606015464817556
6.87500e-07;-0.0060275673165002125
6.87750e-07;-0.00599497998482488
6.88000e-07;-0.005962392653149532
6.88250e-07;-0.005929805321474185
6.88500e-07;-0.005897217989798838
6.88750e-07;-0.005864630658123491
6.89000e-07;-0.005839760832548225
6.89250e-07;-0.005818926997542473
6.89500e-07;-0.005798093162536714
6.89750e-07;-0.005777259327530954
6.90000e-07;-0.005756425492525194
6.90250e-07;-0.005735591657519435
6.90500e-07;-0.005714757822513683
6.90750e-07;-0.0056939239875079236
6.91000e-07;-0.005673090152502163
6.91250e-07;-0.005652256317496404
6.91500e-07;-0.0056314224824906434
6.91750e-07;-0.005610588647484884
6.92000e-07;-0.005593721088847668
6.92250e-07;-0.005598212485096009
6.92500e-07;-0.00560270388134435
6.92750e-07;-0.005607195277592691
6.93000e-07;-0.005611686673841031
6.93250e-07;-0.00561617807008937
6.93500e-07;-0.005620669466337711
6.93750e-07;-0.005625160862586051
6.94000e-07;-0.005629652258834392
6.94250e-07;-0.005634143655082732
6.94500e-07;-0.005638635051331073
6.94750e-07;-0.005643126447579412
6.95000e-07;-0.005647617843827753
6.95250e-07;-0.005662845897644663
6.95500e-07;-0.005683688854531713
