Time(s);Current(A)
1.32500e-05;0.00042570585975457007
1.32503e-05;0.0003950578964691239
1.32505e-05;0.0003654114183462838
1.32508e-05;0.00033620295961925604
1.32510e-05;0.00030865449074434084
1.32513e-05;0.0002818320513494496
1.32515e-05;0.0002566182529387883
1.32518e-05;0.0002333742935126558
1.32520e-05;0.00021214579203628599
1.32523e-05;0.00019155656366619858
1.32525e-05;0.00017093378439901467
1.32528e-05;0.00014975122508405794
1.32530e-05;0.0001277926412798896
1.32533e-05;0.00010559892237456175
1.32535e-05;8.315790227801947e-05
1.32538e-05;6.063736592609423e-05
1.32540e-05;3.816783967301423e-05
1.32543e-05;1.539202929335917e-05
1.32545e-05;-8.314986292054493e-06
1.32548e-05;-3.325700039038077e-05
1.32550e-05;-5.93368083598722e-05
1.32553e-05;-8.634775304174023e-05
1.32555e-05;-0.0001140813221005707
1.32558e-05;-0.00014232902977434766
1.32560e-05;-0.00017117998762105203
1.32563e-05;-0.0002002348072270997
1.32565e-05;-0.00023050241987796405
1.32568e-05;-0.0002613004716170756
1.32570e-05;-0.00029330082119946685
1.32573e-05;-0.00032582701958599195
1.32575e-05;-0.0003583532179725171
1.32578e-05;-0.00039140539669283857
1.32580e-05;-0.00042468762334288293
1.32583e-05;-0.00045796984999292725
1.32585e-05;-0.000491252076642746
1.32588e-05;-0.0005245343032927903
1.32590e-05;-0.0005572681701954009
1.32593e-05;-0.0005897622010880297
1.32595e-05;-0.0006222562319808786
1.32598e-05;-0.0006547502628737276
1.32600e-05;-0.0006872442937663563
1.32603e-05;-0.0007176027894826583
1.32605e-05;-0.0007470272665408106
1.32608e-05;-0.0007764517435987636
1.32610e-05;-0.0008033642836976469
1.32613e-05;-0.0008291781783544441
1.32615e-05;-0.0008549920730110664
1.32618e-05;-0.000877339946058994
1.32620e-05;-0.0008981718858233149
1.32623e-05;-0.0009190038255876357
1.32625e-05;-0.0009383079340419385
1.32628e-05;-0.0009569438151753161
1.32630e-05;-0.0009755796963086936
1.32633e-05;-0.000992254963184036
1.32635e-05;-0.0010080727165337772
1.32638e-05;-0.0010238904698835186
1.32640e-05;-0.0010397082232331525
1.32643e-05;-0.0010555259765828938
1.32645e-05;-0.0010713437299326352
1.32648e-05;-0.0010871614832822694
1.32650e-05;-0.0011025634120123747
1.32653e-05;-0.0011162565236506028
1.32655e-05;-0.0011299496352887382
1.32658e-05;-0.0011436427469269663
1.32660e-05;-0.0011573358585651944
1.32663e-05;-0.0011710289702033297
1.32665e-05;-0.0011847220818415579
1.32668e-05;-0.0011984151934797858
1.32670e-05;-0.0012110605992247919
1.32673e-05;-0.0012232477700208882
1.32675e-05;-0.0012354349408169845
1.32678e-05;-0.0012476221116129982
1.32680e-05;-0.0012598092824090946
1.32683e-05;-0.0012719964532051909
1.32685e-05;-0.0012841836240012046
1.32688e-05;-0.001296370794797301
1.32690e-05;-0.0013085579655933972
1.32693e-05;-0.001320745136389411
1.32695e-05;-0.0013329323071855073
1.32698e-05;-0.0013451194779816036
1.32700e-05;-0.0013543395575564047
1.32703e-05;-0.0013622619209463088
1.32705e-05;-0.0013701842843362132
1.32708e-05;-0.0013781066477261176
1.32710e-05;-0.0013860290111159682
1.32713e-05;-0.0013939513745058723
1.32715e-05;-0.0014018737378957767
1.32718e-05;-0.0014097961012856273
1.32720e-05;-0.0014177184646755317
1.32723e-05;-0.0014256408280654358
1.32725e-05;-0.0014335631914552866
1.32728e-05;-0.0014414855548451908
1.32730e-05;-0.0014441484627929504
1.32733e-05;-0.0014445110436043839
1.32735e-05;-0.00144487362441582
1.32738e-05;-0.001445236205227256
1.32740e-05;-0.0014455987860386894
1.32743e-05;-0.0014459613668501253
1.32745e-05;-0.0014463239476615614
1.32748e-05;-0.001446686528472995
1.32750e-05;-0.0014470491092844308
1.32753e-05;-0.0014474116900958667
1.32755e-05;-0.0014477742709073003
1.32758e-05;-0.0014436532060837313
1.32760e-05;-0.00143757112992772
1.32763e-05;-0.0014314890537717498
1.32765e-05;-0.0014254069776157383
1.32768e-05;-0.001419324901459727
1.32770e-05;-0.0014132428253037569
1.32773e-05;-0.0014071607491477453
1.32775e-05;-0.001401078672991734
1.32778e-05;-0.0013949965968357639
1.32780e-05;-0.0013889145206797523
1.32783e-05;-0.001382832444523741
1.32785e-05;-0.001375116699780909
1.32788e-05;-0.0013666864376846828
1.32790e-05;-0.0013582561755884565
1.32793e-05;-0.0013498259134922302
1.32795e-05;-0.0013413956513960612
1.32798e-05;-0.0013333915039142389
1.32800e-05;-0.0013255737261092086
1.32803e-05;-0.0013177559483042312
1.32805e-05;-0.0013099381704992008
1.32808e-05;-0.0013021203926941705
1.32810e-05;-0.0012983477717948431
1.32813e-05;-0.0018962296405693989
1.32815e-05;-0.008304496062529055
1.32818e-05;-0.013885534711636283
1.32820e-05;-0.012966436781675172
1.32823e-05;-0.010861597996952606
1.32825e-05;-0.006190036100421256
1.32828e-05;-0.0011314428135231341
1.32830e-05;-0.00046200573545205725
1.32833e-05;-0.0017448268663264991
1.32835e-05;-0.004698336708600424
1.32838e-05;-0.00865017893109818
1.32840e-05;-0.008907519475335525
1.32843e-05;-0.006742773340053779
1.32845e-05;-0.004240601882234946
1.32848e-05;-0.0011304935783428521
1.32850e-05;0.0005988394390639965
1.32853e-05;-0.000970724531097438
1.32855e-05;-0.001978392541974492
1.32858e-05;-0.004031561273451333
1.32860e-05;-0.004889975340823459
1.32863e-05;-0.003968638594898796
1.32865e-05;-0.00266120452511733
1.32868e-05;-0.0009318800281613029
1.32870e-05;-1.6386294609794312e-05
1.32873e-05;-0.00029547294121155896
1.32875e-05;-0.0010365191771923598
1.32878e-05;-0.0023245530853541006
1.32880e-05;-0.002850427211118696
1.32883e-05;-0.002261201782007037
1.32885e-05;-0.0014300888252378732
1.32888e-05;-0.000334849469277443
1.32890e-05;0.0002503216146578748
1.32893e-05;8.683614012819973e-05
1.32895e-05;-0.0003664850420448198
1.32898e-05;-0.0011630086864153582
1.32900e-05;-0.001482822147687243
1.32903e-05;-0.001105023968358562
1.32905e-05;-0.0005767537945577871
1.32908e-05;0.00011578490439828777
1.32910e-05;0.0004875283368105236
1.32913e-05;0.00038894715464482136
1.32915e-05;0.00010736386086301111
1.32918e-05;-0.00039074238994993554
1.32920e-05;-0.0005919807605552083
1.32923e-05;-0.0003586103720008983
1.32925e-05;-3.4196230632400286e-05
1.32928e-05;0.00038956326982237326
1.32930e-05;0.0006089487062446734
1.32933e-05;0.0005305071932004904
1.32935e-05;0.0003344291594207056
1.32938e-05;-7.747277828187545e-08
1.32940e-05;-0.0001512331779714241
1.32943e-05;-3.258323207666803e-05
1.32945e-05;0.00014084414835579363
1.32948e-05;0.00037443938844535754
1.32950e-05;0.0004781522539255419
1.32953e-05;0.00039365482141461987
1.32955e-05;0.0002340267581542429
1.32958e-05;-1.3551749192839487e-05
1.32960e-05;-0.00014732260958750184
1.32963e-05;-0.00011294626897187639
1.32965e-05;-4.49279491489553e-05
1.32968e-05;6.030327937826081e-05
1.32970e-05;8.389994162629254e-05
1.32973e-05;-1.0467517288516363e-05
1.32975e-05;-0.0001517606621966051
1.32978e-05;-0.00034780712038884684
1.32980e-05;-0.00047202852530694723
1.32983e-05;-0.0004901965896056772
1.32985e-05;-0.00048637273650039555
1.32988e-05;-0.00045812393485705294
1.32990e-05;-0.00047969653917321714
1.32993e-05;-0.0005736432295179643
1.32995e-05;-0.0006952626642965243
1.32998e-05;-0.0008492567212444737
1.33000e-05;-0.0009561390176220262
1.33003e-05;-0.0009942756105688491
1.33005e-05;-0.0010161278079668242
1.33008e-05;-0.0010199742762590821
1.33010e-05;-0.0010521238196850831
1.33013e-05;-0.0011265015362354072
1.33015e-05;-0.0012149050474168227
1.33018e-05;-0.001320079499284214
1.33020e-05;-0.0013920317819710966
1.33023e-05;-0.0014170273672352968
1.33025e-05;-0.001427862786452892
1.33028e-05;-0.0014235690268875028
1.33030e-05;-0.0014333515724500904
1.33033e-05;-0.0014661394593417241
1.33035e-05;-0.0015044741437183382
1.33038e-05;-0.0015502830947152686
1.33040e-05;-0.0015724599495634437
1.33043e-05;-0.0015626125481317886
1.33045e-05;-0.0015414950417966177
1.33048e-05;-0.0015087102107116377
1.33050e-05;-0.0014827609910954376
1.33053e-05;-0.0014694483798864243
1.33055e-05;-0.001458044086611622
1.33058e-05;-0.0014499639769919403
1.33060e-05;-0.0014259321519458968
1.33063e-05;-0.0013809021441610946
1.33065e-05;-0.0013280842050228871
1.33068e-05;-0.0012674389359594177
1.33070e-05;-0.001210765275367133
1.33073e-05;-0.0011619050665640546
1.33075e-05;-0.0011143464988789987
1.33078e-05;-0.0010691848352240294
1.33080e-05;-0.0010145546160487476
1.33083e-05;-0.000947504502527352
1.33085e-05;-0.0008765188776779973
1.33088e-05;-0.0008017819954223694
1.33090e-05;-0.000730893474855075
1.33093e-05;-0.0006664680188884552
1.33095e-05;-0.0006046349234188324
1.33098e-05;-0.0005462888070479373
1.33100e-05;-0.0004842058894250367
1.33103e-05;-0.0004167466129825631
1.33105e-05;-0.0003494344984976481
1.33108e-05;-0.0002825938123400949
1.33110e-05;-0.00022119339914436015
1.33113e-05;-0.00016707933951640183
1.33115e-05;-0.00011803523052309882
1.33118e-05;-7.482974244791125e-05
1.33120e-05;-3.309857872135844e-05
1.33123e-05;8.293816347581172e-06
1.33125e-05;4.628850657952916e-05
1.33128e-05;8.102630647214759e-05
1.33130e-05;0.0001095835588627656
1.33133e-05;0.0001309647027287322
1.33135e-05;0.00014671753673625392
1.33138e-05;0.0001565199781850739
1.33140e-05;0.0001632651214603836
1.33143e-05;0.00016782339783048017
1.33145e-05;0.00016843787041870276
1.33148e-05;0.0001653560243335289
1.33150e-05;0.00015690580741262183
1.33153e-05;0.00014262302695084827
1.33155e-05;0.00012363665123936673
1.33158e-05;9.990429385553879e-05
1.33160e-05;7.339747155266297e-05
1.33163e-05;4.482061029811583e-05
1.33165e-05;1.3232365431865484e-05
1.33168e-05;-2.105302097326571e-05
1.33170e-05;-5.89236425093955e-05
1.33173e-05;-0.00010051093815777569
1.33175e-05;-0.00014494845260362363
1.33178e-05;-0.00019210344976878282
1.33180e-05;-0.00024058181161459215
1.33183e-05;-0.00029033251274206845
1.33185e-05;-0.00034018603553825227
1.33188e-05;-0.0003918570872156162
1.33190e-05;-0.0004436870947938625
1.33193e-05;-0.0004972660639418394
1.33195e-05;-0.0005509979922881539
1.33198e-05;-0.0006046029560262779
1.33200e-05;-0.0006581968158012697
1.33203e-05;-0.0007087383418313765
1.33205e-05;-0.0007590129194440546
1.33208e-05;-0.0008092874970567328
1.33210e-05;-0.0008558646497350643
1.33213e-05;-0.0009021184361573765
1.33215e-05;-0.0009440604573700097
1.33218e-05;-0.0009856253838750985
1.33220e-05;-0.0010207404333285204
1.33223e-05;-0.0010552913949011973
1.33225e-05;-0.0010819930318294927
1.33228e-05;-0.0011080081891749988
1.33230e-05;-0.0011261833889955081
1.33233e-05;-0.0011436729284549153
1.33235e-05;-0.0011532087132735003
1.33238e-05;-0.0011620488853594114
1.33240e-05;-0.0011622786409928247
1.33243e-05;-0.0011617553541212143
1.33245e-05;-0.0011524278852477685
1.33248e-05;-0.0011423304276860923
1.33250e-05;-0.001124117458718673
1.33253e-05;-0.001105194730232314
1.33255e-05;-0.0010787680294011125
1.33258e-05;-0.0010516850525161563
1.33260e-05;-0.0010173693750552561
1.33263e-05;-0.0009824211461968448
1.33265e-05;-0.0009408017621711789
1.33268e-05;-0.0008985989379101394
1.33270e-05;-0.0008508388962845234
1.33273e-05;-0.0008025928362524528
1.33275e-05;-0.0007508475416841269
1.33278e-05;-0.0006968113482539094
1.33280e-05;-0.0006407637353486907
1.33283e-05;-0.0005829373417828307
1.33285e-05;-0.0005236747953128068
1.33288e-05;-0.00046329567078936726
1.33290e-05;-0.0004022287382835791
1.33293e-05;-0.000340861980973879
1.33295e-05;-0.0002795232907916446
1.33298e-05;-0.0002185848149991399
1.33300e-05;-0.00015833941562629083
1.33303e-05;-9.91181155780348e-05
1.33305e-05;-4.1320798521972216e-05
1.33308e-05;1.4667036319719198e-05
1.33310e-05;6.839161812208973e-05
1.33313e-05;0.00011942471265644043
1.33315e-05;0.00016737575721884371
1.33318e-05;0.0002118264772869329
1.33320e-05;0.0002525629947115589
1.33323e-05;0.00029011807695619425
1.33325e-05;0.0003255959048807358
1.33328e-05;0.00035954749248202027
1.33330e-05;0.00039181664313588555
1.33333e-05;0.00042215492750986676
1.33335e-05;0.00045033280522667864
1.33338e-05;0.0004761034392529704
1.33340e-05;0.0004993479529085496
1.33343e-05;0.000520415280634861
1.33345e-05;0.0005400121184434401
1.33348e-05;0.0005584986763875098
1.33350e-05;0.0005751736266954039
1.33353e-05;0.0005916977629946713
1.33355e-05;0.0006055074687592778
1.33358e-05;0.0006190797781582096
1.33360e-05;0.0006297318212712718
1.33363e-05;0.000640128466210009
1.33365e-05;0.0006486941872871194
1.33368e-05;0.0006570997809766505
1.33370e-05;0.000663672042116858
1.33373e-05;0.0006700839652123984
1.33375e-05;0.0006764958883079823
1.33378e-05;0.000680320541740949
1.33380e-05;0.0006839189199360416
1.33383e-05;0.0006875172981311584
1.33385e-05;0.0006894973414628762
1.33388e-05;0.0006913358498353817
1.33390e-05;0.0006931743582078748
1.33393e-05;0.000693490643711548
1.33395e-05;0.0006936737999373785
1.33398e-05;0.0006938569561632078
1.33400e-05;0.0006940401123890384
1.33403e-05;0.000694223268614869
1.33405e-05;0.0006934694774150617
1.33408e-05;0.0006926337434611972
1.33410e-05;0.0006917980095073327
1.33413e-05;0.0006909622755534739
1.33415e-05;0.0006901265415996093
1.33418e-05;0.0006893801146513025
1.33420e-05;0.0006886414982394212
1.33423e-05;0.0006879028818275349
1.33425e-05;0.0006892168420781402
1.33428e-05;0.0006907103148392975
1.33430e-05;0.0006922037876004651
1.33433e-05;0.0006964322628739161
1.33435e-05;0.0007008999336796381
1.33438e-05;0.0007053676044853904
1.33440e-05;0.0007124230445333686
1.33443e-05;0.0007197048035110405
1.33445e-05;0.0007269865624887616
1.33448e-05;0.0007376707089115721
1.33450e-05;0.0007486524184526297
1.33453e-05;0.0007596341279937618
1.33455e-05;0.0007734834962956337
1.33458e-05;0.0007875836618675555
1.33460e-05;0.0008016838274395729
1.33463e-05;0.0008191378819744901
1.33465e-05;0.0008368852580884999
1.33468e-05;0.0008546326342026299
1.33470e-05;0.0008723800103167599
1.33473e-05;0.0008901273864308899
1.33475e-05;0.000910765134339114
1.33478e-05;0.0009316556659349103
1.33480e-05;0.0009525461975307066
1.33483e-05;0.0009734367291263613
1.33485e-05;0.0009943272607221578
1.33488e-05;0.0010161889431098347
1.33490e-05;0.0010381355595804997
1.33493e-05;0.0010600742006184845
1.33495e-05;0.0010820121441478222
1.33498e-05;0.0011036238443005533
1.33500e-05;0.0011248278311556837
1.33503e-05;0.0011455401488237725
1.33505e-05;0.0011656978710593536
1.33508e-05;0.0011851994325893212
1.33510e-05;0.0012039023489543385
1.33513e-05;0.001221658405957196
1.33515e-05;0.001238319067010022
1.33518e-05;0.0012537358932148287
1.33520e-05;0.0012677504991267553
1.33523e-05;0.0012801688364291062
1.33525e-05;0.001290806125052734
1.33528e-05;0.0012995711552299927
1.33530e-05;0.001306440541877851
1.33533e-05;0.0013114011556871763
1.33535e-05;0.0013135500028627085
1.33538e-05;0.001315466373682969
1.33540e-05;0.001313776028967205
1.33543e-05;0.0013117702511797947
1.33545e-05;0.0013051526570564817
1.33548e-05;0.0012981317266072979
1.33550e-05;0.0012911107961581616
1.33553e-05;0.0012789476206425403
1.33555e-05;0.0012663347190145229
1.33557e-05;0.0012537218173865909
1.33560e-05;0.0012365329085808634
1.33563e-05;0.0012189437952162465
1.33565e-05;0.0012013546818516294
1.33568e-05;0.0011785719380817251
1.33570e-05;0.0011553349741837817
1.33573e-05;0.0011320980102858382
1.33575e-05;0.001108861046388052
1.33578e-05;0.0010856240824901086
1.33580e-05;0.0010606378146755008
1.33583e-05;0.0010332316371075218
1.33585e-05;0.001005825459539357
1.33588e-05;0.0009784192819711922
1.33590e-05;0.0009510131044032132
1.33593e-05;0.0009236069268350485
1.33595e-05;0.0008957842360585962
1.33598e-05;0.0008679251182230249
1.33600e-05;0.0008400660003872648
1.33603e-05;0.0008132184243608387
1.33605e-05;0.0007864593149012026
1.33608e-05;0.000761709372197385
1.33610e-05;0.0007371351454976156
1.33613e-05;0.0007125609187980125
1.33615e-05;0.000691667916375633
1.33618e-05;0.0006710968633475263
1.33620e-05;0.0006505258103195591
1.33623e-05;0.0006320889973899858
1.33625e-05;0.0006138388390229281
1.33628e-05;0.0005955886806559941
1.33630e-05;0.0005766120129925804
1.33633e-05;0.0005575718068945827
1.33635e-05;0.000538531600796714
1.33638e-05;0.0005194913946987163
1.33640e-05;0.000499938619843928
1.33642e-05;0.0004803410171851558
1.33645e-05;0.00046074341452625073
1.33648e-05;0.00044114581186734564
1.33650e-05;0.0004194348934697957
1.33653e-05;0.0003975391504947687
1.33655e-05;0.0003756434075195933
1.33658e-05;0.0003528303737953458
1.33660e-05;0.00032993711643397464
1.33663e-05;0.00030704385907244833
1.33665e-05;0.000282731862313601
1.33668e-05;0.00025829578664653683
1.33670e-05;0.000233859710979307
1.33673e-05;0.00020838789734208612
1.33675e-05;0.00018282550101103475
1.33678e-05;0.00015711458677632344
1.33680e-05;0.00013139068358861762
1.33683e-05;0.00010566678040108611
1.33685e-05;7.985593250606583e-05
1.33688e-05;5.393435538406855e-05
1.33690e-05;2.8034908234337523e-05
1.33693e-05;2.3146300311335077e-06
1.33695e-05;-2.306850064349728e-05
1.33698e-05;-4.7956540693687997e-05
1.33700e-05;-7.221076085818544e-05
1.33703e-05;-9.578568424021575e-05
1.33705e-05;-0.00011870426441314868
1.33708e-05;-0.0001409107230013362
1.33710e-05;-0.00016226295560080745
1.33713e-05;-0.00018260509253015099
1.33715e-05;-0.00020178067101195564
1.33718e-05;-0.00021963325561673923
1.33720e-05;-0.00023606391398531672
1.33723e-05;-0.0002508967267904956
1.33725e-05;-0.0002655998509700004
1.33727e-05;-0.0002790696601048824
1.33730e-05;-0.00029243160701736476
1.33733e-05;-0.00030438269183372373
1.33735e-05;-0.0003162103866679337
1.33738e-05;-0.00032631293917879863
1.33740e-05;-0.0003362646156536828
1.33743e-05;-0.0003444686821010787
1.33745e-05;-0.00035251990755091406
1.33748e-05;-0.00036057113300080396
1.33750e-05;-0.00036718704817376
1.33753e-05;-0.0003736774351962113
1.33755e-05;-0.0003801678222187066
1.33758e-05;-0.0003849492185075973
1.33760e-05;-0.000389581151332416
1.33763e-05;-0.0003942130841572661
1.33765e-05;-0.0003967569649149073
1.33768e-05;-0.000399118230583431
1.33770e-05;-0.0004014794962519707
1.33773e-05;-0.0004038407619205104
1.33775e-05;-0.0004062020275890341
1.33778e-05;-0.0004085632932575738
1.33780e-05;-0.0004109245589261135
1.33783e-05;-0.0004132858245946372
1.33785e-05;-0.00041477524206782524
1.33788e-05;-0.000415058583265232
1.33790e-05;-0.0004153419244626369
1.33793e-05;-0.00041562526566004364
1.33795e-05;-0.0004159086068574504
1.33798e-05;-0.00041619194805485527
1.33800e-05;-0.00041647528925226203
1.33803e-05;-0.0004167586304496688
1.33805e-05;-0.00041704197164707367
1.33808e-05;-0.0004168806013876311
1.33810e-05;-0.000416680337930258
1.33812e-05;-0.00041648007447288624
1.33815e-05;-0.00041627981101551313
1.33818e-05;-0.00041682085467228925
1.33820e-05;-0.0004174267309387809
1.33823e-05;-0.0004180326072052685
1.33825e-05;-0.0004186384834717602
1.33828e-05;-0.00042233661302053087
1.33830e-05;-0.00042630518223775373
1.33833e-05;-0.00043276887096756363
1.33835e-05;-0.0004394507757464021
1.33838e-05;-0.00044835517672734017
1.33840e-05;-0.0004574539508987745
1.33843e-05;-0.000469116264696916
1.33845e-05;-0.0004810027783723985
1.33848e-05;-0.0004960747147111639
1.33850e-05;-0.0005114252390472636
1.33853e-05;-0.0005296025190564103
1.33855e-05;-0.0005480270190691806
1.33858e-05;-0.0005693547461311548
1.33860e-05;-0.0005909363811653412
1.33863e-05;-0.0006125180161996739
1.33865e-05;-0.0006375847904843695
1.33868e-05;-0.0006629563651257134
1.33870e-05;-0.0006883279397672292
1.33873e-05;-0.0007171128747636422
1.33875e-05;-0.000746196332538859
1.33878e-05;-0.000775279790314273
1.33880e-05;-0.000804363248089687
1.33883e-05;-0.0008334467058649039
1.33885e-05;-0.0008632378185435943
1.33888e-05;-0.0008940078697520038
1.33890e-05;-0.0009247779209602047
1.33893e-05;-0.000955547972168614
1.33895e-05;-0.0009863180233770233
1.33897e-05;-0.0010170880745852243
1.33900e-05;-0.0010460204332768941
1.33903e-05;-0.0010747920726127947
1.33905e-05;-0.0011035637119486952
1.33908e-05;-0.0011323353512844008
1.33910e-05;-0.0011569961634990509
1.33913e-05;-0.0011812974544767971
1.33915e-05;-0.0012055987454543786
1.33918e-05;-0.0012299000364321248
1.33920e-05;-0.0012495849078054302
1.33923e-05;-0.0012688660402624566
1.33925e-05;-0.0012881471727196135
1.33928e-05;-0.001306218055548049
1.33930e-05;-0.001324183093389277
1.33933e-05;-0.0013421481312306269
1.33935e-05;-0.0013601131690719767
1.33938e-05;-0.001378078206913205
