Time(s);Current(A)
9.50000e-06;-0.005311840301349522
9.50025e-06;-0.005285409807834695
9.50050e-06;-0.005258979314320048
9.50075e-06;-0.0052168715789606855
9.50100e-06;-0.005168456501000895
9.50125e-06;-0.005120041423041434
9.50150e-06;-0.005071626345081644
9.50175e-06;-0.005023211267121854
9.50200e-06;-0.004974796189162392
9.50225e-06;-0.004926381111202602
9.50250e-06;-0.004877966033242812
9.50275e-06;-0.004828694316318544
9.50300e-06;-0.004776259376208309
9.50325e-06;-0.004723824436098074
9.50350e-06;-0.00467138949598784
9.50375e-06;-0.004618954555877961
9.50400e-06;-0.004566519615767726
9.50425e-06;-0.004514084675657491
9.50450e-06;-0.004461649735547611
9.50475e-06;-0.004409214795437377
9.50500e-06;-0.00437349328261807
9.50525e-06;-0.004344495995464037
9.50550e-06;-0.004315498708309808
9.50575e-06;-0.004286501421155579
9.50600e-06;-0.004257504134001546
9.50625e-06;-0.004228506846847317
9.50650e-06;-0.004199509559693088
9.50675e-06;-0.004170512272539055
9.50700e-06;-0.004141514985384826
9.50725e-06;-0.004112517698230597
9.50750e-06;-0.0040835204110765645
9.50775e-06;-0.004054523123922335
9.50800e-06;-0.0040333368673765736
9.50825e-06;-0.00404099360553857
9.50850e-06;-0.004048650343700619
9.50875e-06;-0.004056307081862668
9.50900e-06;-0.004063963820024666
9.50925e-06;-0.0040716205581867145
9.50950e-06;-0.004079277296348763
9.50975e-06;-0.004086934034510761
9.51000e-06;-0.00409459077267281
9.51025e-06;-0.004102247510834859
9.51050e-06;-0.004109904248996855
9.51075e-06;-0.004117560987158905
9.51100e-06;-0.004125217725320954
9.51125e-06;-0.004147719922973463
9.51150e-06;-0.004176194816590466
9.51175e-06;-0.004204669710207468
9.51200e-06;-0.004233144603824471
9.51225e-06;-0.00426161949744128
9.51250e-06;-0.0042900943910582825
9.51275e-06;-0.0043185692846752855
9.51300e-06;-0.004347044178292095
9.51325e-06;-0.004375519071909097
9.51350e-06;-0.004404393091720247
9.51375e-06;-0.0044347409240515735
9.51400e-06;-0.004465088756383105
9.51425e-06;-0.004495436588714637
9.51450e-06;-0.004525784421045963
9.51475e-06;-0.004556132253377495
9.51500e-06;-0.004586480085709027
9.51525e-06;-0.004616827918040353
9.51550e-06;-0.004647175750371885
9.51575e-06;-0.004677523582703417
9.51600e-06;-0.004697453037816795
9.51625e-06;-0.0047131909217891935
9.51650e-06;-0.004728928805761593
9.51675e-06;-0.004744666689733885
9.51700e-06;-0.004760404573706285
9.51725e-06;-0.004776142457678684
9.51750e-06;-0.004791880341650977
9.51775e-06;-0.0048076182256233755
9.51800e-06;-0.004823356109595774
9.51825e-06;-0.004839093993568067
9.51850e-06;-0.004854831877540466
9.51875e-06;-0.004870569761512866
9.51900e-06;-0.004886307645485158
9.51925e-06;-0.0049020455294575575
9.51950e-06;-0.004917783413429956
9.51975e-06;-0.004933521297402248
9.52000e-06;-0.0049464691239530754
9.52025e-06;-0.004949114390505842
9.52050e-06;-0.004951759657058608
9.52075e-06;-0.004954404923611357
9.52100e-06;-0.0049570501901641225
9.52125e-06;-0.004959695456716888
9.52150e-06;-0.004962340723269637
9.52175e-06;-0.004964985989822403
9.52200e-06;-0.0049676312563751695
9.52225e-06;-0.004970276522927917
9.52250e-06;-0.004972921789480684
9.52275e-06;-0.00497556705603345
9.52300e-06;-0.004978212322586198
9.52325e-06;-0.004980857589138964
9.52350e-06;-0.00498350285569173
9.52375e-06;-0.004986148122244479
9.52400e-06;-0.0049887933887972444
9.52425e-06;-0.004990067097112109
9.52450e-06;-0.00499078899358429
9.52475e-06;-0.004991510890056477
9.52500e-06;-0.004992232786528663
9.52525e-06;-0.004992954683000844
9.52550e-06;-0.00499367657947303
9.52575e-06;-0.004994398475945216
9.52600e-06;-0.004995120372417398
9.52625e-06;-0.004995842268889584
9.52650e-06;-0.0049965641653617705
9.52675e-06;-0.004997286061833952
9.52700e-06;-0.004996450222129899
9.52725e-06;-0.004989862289190772
9.52750e-06;-0.004983274356251691
9.52775e-06;-0.004976686423312565
9.52800e-06;-0.004970098490373438
9.52825e-06;-0.0049635105574343565
9.52850e-06;-0.00495692262449523
9.52875e-06;-0.004950334691556104
9.52900e-06;-0.004943746758616977
9.52925e-06;-0.0049371588256778955
9.52950e-06;-0.004930570892738769
9.52975e-06;-0.004923982959799642
9.53000e-06;-0.004909213224244138
9.53025e-06;-0.004891151746891866
9.53050e-06;-0.004873090269539593
9.53075e-06;-0.004855028792187443
9.53100e-06;-0.004836967314835171
9.53125e-06;-0.004818905837482898
9.53150e-06;-0.004800844360130748
9.53175e-06;-0.004782782882778476
9.53200e-06;-0.004764721405426203
9.53225e-06;-0.004746659928074054
9.53250e-06;-0.004728598450721782
9.53275e-06;-0.0047092736215547494
9.53300e-06;-0.004689440514668627
9.53325e-06;-0.0046696074077823705
9.53350e-06;-0.004649774300896113
9.53375e-06;-0.004629941194009991
9.53400e-06;-0.004610108087123734
9.53425e-06;-0.004590274980237477
9.53450e-06;-0.0045704418733513545
9.53475e-06;-0.004550608766465098
9.53500e-06;-0.004530775659578841
9.53525e-06;-0.004510942552692718
9.53550e-06;-0.004502184057748868
9.53575e-06;-0.004497881153428604
9.53600e-06;-0.004493578249108367
9.53625e-06;-0.0044892753447881035
9.53650e-06;-0.004484972440467839
9.53675e-06;-0.0044806695361476025
9.53700e-06;-0.004476366631827338
9.53725e-06;-0.004472063727507073
9.53750e-06;-0.004467760823186808
9.53775e-06;-0.004463457918866573
9.53800e-06;-0.004459155014546308
9.53825e-06;-0.004454852110226043
9.53850e-06;-0.0044693339996353535
9.53875e-06;-0.004491373476727903
9.53900e-06;-0.004513412953820452
9.53925e-06;-0.004535452430912852
9.53950e-06;-0.004557491908005401
9.53975e-06;-0.0045795313850979505
9.54000e-06;-0.0046015708621903505
9.54025e-06;-0.0046236103392829
9.54050e-06;-0.004645649816375449
9.54075e-06;-0.004667689293467849
9.54100e-06;-0.004689728770560398
9.54125e-06;-0.0047117682476529475
9.54150e-06;-0.004744737964404078
9.54175e-06;-0.004782105187234731
9.54200e-06;-0.004819472410065384
9.54225e-06;-0.004856839632895784
9.54250e-06;-0.0048942068557264375
9.54275e-06;-0.004931574078557091
9.54300e-06;-0.004968941301387491
9.54325e-06;-0.005006308524218144
9.54350e-06;-0.005043675747048797
9.54375e-06;-0.005081042969879197
9.54400e-06;-0.005115932764329508
9.54425e-06;-0.0051498258279939445
9.54450e-06;-0.005183718891658151
9.54475e-06;-0.005217611955322587
9.54500e-06;-0.005251505018987024
9.54525e-06;-0.005285398082651231
9.54550e-06;-0.0053192911463156665
9.54575e-06;-0.005353184209980103
9.54600e-06;-0.00538707727364454
9.54625e-06;-0.005420970337308746
9.54650e-06;-0.005438153052487239
9.54675e-06;-0.005448612780671453
9.54700e-06;-0.005459072508855596
9.54725e-06;-0.00546953223703981
9.54750e-06;-0.005479991965224024
9.54775e-06;-0.005490451693408167
9.54800e-06;-0.0055009114215923815
9.54825e-06;-0.005511371149776595
9.54850e-06;-0.005521830877960738
9.54875e-06;-0.005532290606144952
9.54900e-06;-0.00553671986936367
9.54925e-06;-0.0055188810506774195
9.54950e-06;-0.005501042231991047
9.54975e-06;-0.005483203413304675
9.55000e-06;-0.005465364594618424
9.55025e-06;-0.005447525775932052
9.55050e-06;-0.00542968695724568
9.55075e-06;-0.005411848138559428
9.55100e-06;-0.005394009319873057
9.55125e-06;-0.005376170501186685
9.55150e-06;-0.005358331682500433
9.55175e-06;-0.005329723191497606
9.55200e-06;-0.0052967817946320255
9.55225e-06;-0.005263840397766669
9.55250e-06;-0.005230899000901089
9.55275e-06;-0.0051979576040355096
9.55300e-06;-0.005165016207170152
9.55325e-06;-0.005132074810304573
9.55350e-06;-0.005099133413438993
9.55375e-06;-0.005066192016573636
9.55400e-06;-0.005036015678060694
9.55425e-06;-0.005006951790994383
9.55450e-06;-0.004977887903928072
9.55475e-06;-0.004948824016861957
9.55500e-06;-0.004919760129795646
9.55525e-06;-0.004890696242729335
9.55550e-06;-0.0048616323556632205
9.55575e-06;-0.004832568468596908
9.55600e-06;-0.004803504581530597
9.55625e-06;-0.004789557735486116
9.55650e-06;-0.004781692849389563
9.55675e-06;-0.00477382796329301
9.55700e-06;-0.00476596307719651
9.55725e-06;-0.004758098191099957
9.55750e-06;-0.004750233305003403
9.55775e-06;-0.004742368418906903
9.55800e-06;-0.004734503532810351
9.55825e-06;-0.004726638646713797
9.55850e-06;-0.004718773760617297
9.55875e-06;-0.004710908874520744
9.55900e-06;-0.00470304398842419
9.55925e-06;-0.0046951791023276904
9.55950e-06;-0.004687314216231138
9.55975e-06;-0.004693106900689287
9.56000e-06;-0.004704394363985958
9.56025e-06;-0.004715681827282706
9.56050e-06;-0.004726969290579454
9.56075e-06;-0.004738256753876125
9.56100e-06;-0.004749544217172874
9.56125e-06;-0.004760831680469622
9.56150e-06;-0.004772119143766293
9.56175e-06;-0.004783406607063041
9.56200e-06;-0.004794694070359789
9.56225e-06;-0.00480598153365646
9.56250e-06;-0.004817268996953208
9.56275e-06;-0.004828556460249956
9.56300e-06;-0.004839843923546627
9.56325e-06;-0.004854874819127789
9.56350e-06;-0.004871411790216288
9.56375e-06;-0.004887948761304787
9.56400e-06;-0.004904485732393174
9.56425e-06;-0.004921022703481673
9.56450e-06;-0.004937559674570172
9.56475e-06;-0.004954096645658558
9.56500e-06;-0.0049706336167470565
9.56525e-06;-0.004986490562684635
9.56550e-06;-0.005002073917664282
9.56575e-06;-0.005017657272644036
9.56600e-06;-0.005033240627623789
9.56625e-06;-0.005048823982603438
9.56650e-06;-0.005064407337583191
9.56675e-06;-0.005079990692562945
9.56700e-06;-0.0050955740475425925
9.56725e-06;-0.0051195597335606845
9.56750e-06;-0.005146925885424563
9.56775e-06;-0.005174292037288255
9.56800e-06;-0.005201658189152134
9.56825e-06;-0.005229024341016013
9.56850e-06;-0.0052563904928797055
9.56875e-06;-0.005283756644743584
9.56900e-06;-0.005311122796607462
9.56925e-06;-0.0053384889484711555
9.56950e-06;-0.005365855100335034
9.56975e-06;-0.005393221252198912
9.57000e-06;-0.005432204052292612
9.57025e-06;-0.005475860517636065
9.57050e-06;-0.0055195169829795184
9.57075e-06;-0.005563173448322677
9.57100e-06;-0.00560682991366613
9.57125e-06;-0.005650486379009584
9.57150e-06;-0.0056941428443527415
9.57175e-06;-0.005737799309696196
9.57200e-06;-0.005781455775039649
9.57225e-06;-0.005825112240383103
9.57250e-06;-0.00586876870572626
9.57275e-06;-0.0059147847349135625
9.57300e-06;-0.005961750075065946
9.57325e-06;-0.0060087154152180106
9.57350e-06;-0.006055680755370393
9.57375e-06;-0.006102646095522776
9.57400e-06;-0.006149611435674841
9.57425e-06;-0.006196576775827223
9.57450e-06;-0.0062435421159796065
9.57475e-06;-0.0062905074561316705
9.57500e-06;-0.006337472796284054
9.57525e-06;-0.006372094860166243
9.57550e-06;-0.006401750918343394
9.57575e-06;-0.006431406976520746
9.57600e-06;-0.006461063034698098
9.57625e-06;-0.006490719092875249
9.57650e-06;-0.0065203751510526
9.57675e-06;-0.006550031209229952
9.57700e-06;-0.006579687267407103
9.57725e-06;-0.006609343325584455
9.57750e-06;-0.0066389993837618075
9.57775e-06;-0.006645951077830313
9.57800e-06;-0.006643768243979927
9.57825e-06;-0.00664158541012954
9.57850e-06;-0.006639402576279168
9.57875e-06;-0.006637219742428781
9.57900e-06;-0.006635036908578394
9.57925e-06;-0.006632854074728023
9.57950e-06;-0.006630671240877636
9.57975e-06;-0.006628488407027249
9.58000e-06;-0.006626305573176877
9.58025e-06;-0.006605385607828277
9.58050e-06;-0.006576927230481842
9.58075e-06;-0.006548468853135407
9.58100e-06;-0.006520010475789165
9.58125e-06;-0.00649155209844273
9.58150e-06;-0.006463093721096295
9.58175e-06;-0.006434635343750053
9.58200e-06;-0.006406176966403618
9.58225e-06;-0.0063777185890571825
9.58250e-06;-0.00634926021171094
9.58275e-06;-0.006314670948759426
9.58300e-06;-0.006277615078706999
9.58325e-06;-0.006240559208654822
9.58350e-06;-0.006203503338602395
9.58375e-06;-0.006166447468549968
9.58400e-06;-0.006129391598497793
9.58425e-06;-0.006092335728445366
9.58450e-06;-0.0060552798583929385
9.58475e-06;-0.006024859204140836
9.58500e-06;-0.00599710806151607
9.58525e-06;-0.0059693569188913045
9.58550e-06;-0.005941605776266727
9.58575e-06;-0.0059138546336419615
9.58600e-06;-0.005886103491017196
9.58625e-06;-0.005858352348392618
9.58650e-06;-0.005830601205767853
9.58675e-06;-0.005809989829799915
9.58700e-06;-0.005792250958763998
9.58725e-06;-0.005774512087727961
9.58750e-06;-0.005756773216691924
9.58775e-06;-0.005739034345656007
9.58800e-06;-0.00572129547461997
9.58825e-06;-0.005703556603583932
9.58850e-06;-0.0056858177325480146
9.58875e-06;-0.005668078861511977
9.58900e-06;-0.00565033999047594
9.58925e-06;-0.0056326011194399025
9.58950e-06;-0.005614862248403986
9.58975e-06;-0.005597123377367948
9.59000e-06;-0.005579384506331911
9.59025e-06;-0.005561645635295994
9.59050e-06;-0.005544489550973383
9.59075e-06;-0.005529485463613708
9.59100e-06;-0.005514481376254135
9.59125e-06;-0.0054994772888944604
9.59150e-06;-0.005484473201534786
9.59175e-06;-0.005469469114175214
9.59200e-06;-0.005454465026815539
9.59225e-06;-0.005439460939455865
9.59250e-06;-0.005424456852096291
9.59275e-06;-0.005409452764736617
9.59300e-06;-0.005394448677376942
9.59325e-06;-0.00537944459001737
9.59350e-06;-0.005364440502657695
9.59375e-06;-0.005349436415298021
9.59400e-06;-0.005334432327938448
9.59425e-06;-0.005319428240578773
9.59450e-06;-0.005311933388250153
9.59475e-06;-0.005307459687130756
9.59500e-06;-0.00530298598601133
9.59525e-06;-0.0052985122848919035
9.59550e-06;-0.005294038583772508
9.59575e-06;-0.005289564882653082
9.59600e-06;-0.005285091181533655
9.59625e-06;-0.005280617480414259
9.59650e-06;-0.005276143779294832
9.59675e-06;-0.005271670078175406
9.59700e-06;-0.005267196377056011
9.59725e-06;-0.005262722675936584
9.59750e-06;-0.005258248974817158
9.59775e-06;-0.005253775273697731
9.59800e-06;-0.005249301572578335
9.59825e-06;-0.005244827871458909
9.59850e-06;-0.005240354170339482
9.59875e-06;-0.005239019633511886
9.59900e-06;-0.00524927676799203
9.59925e-06;-0.005259533902472174
9.59950e-06;-0.005269791036952248
9.59975e-06;-0.005280048171432392
9.60000e-06;-0.005290305305912535
9.60025e-06;-0.0053005624403926095
9.60050e-06;-0.005310819574872753
9.60075e-06;-0.005321076709352897
9.60100e-06;-0.005331333843832971
9.60125e-06;-0.005341590978313115
9.60150e-06;-0.0053518481127932584
9.60175e-06;-0.005362105247273333
9.60200e-06;-0.005372362381753476
9.60225e-06;-0.00538261951623362
9.60250e-06;-0.005392876650713694
9.60275e-06;-0.005403133785193838
9.60300e-06;-0.005413390919673982
9.60325e-06;-0.005417323750048881
9.60350e-06;-0.005434786915466534
9.60375e-06;-0.0241868762847407
9.60400e-06;-0.041251075921498764
9.60425e-06;-0.028472184723578278
9.60450e-06;-0.016037888482067227
9.60475e-06;0.0024969286319851576
9.60500e-06;0.011511242374263845
9.60525e-06;0.008811224246019435
9.60550e-06;-0.0008921430035019554
9.60575e-06;-0.014896950825565079
9.60600e-06;-0.02137023530679952
9.60625e-06;-0.017769528984704536
9.60650e-06;-0.009372941088516613
9.60675e-06;0.001139022973909584
9.60700e-06;0.006181126184227291
9.60725e-06;0.004279418226846734
9.60750e-06;-0.0019414272176694952
9.60775e-06;-0.010815708865631555
9.60800e-06;-0.014947785113037125
9.60825e-06;-0.012755490934567574
9.60850e-06;-0.007551431797520585
9.60875e-06;-0.001018445237633816
9.60900e-06;0.0020900682141919437
9.60925e-06;0.0008499582431745222
9.60950e-06;-0.0030950448777847597
9.60975e-06;-0.008701702989257216
9.61000e-06;-0.011337611200961932
9.61025e-06;-0.010012052176625893
9.61050e-06;-0.006800262216697111
9.61075e-06;-0.0027564061504050537
9.61100e-06;-0.0008578330907283622
9.61125e-06;-0.0016830748854078834
9.61150e-06;-0.004202157396911297
9.61175e-06;-0.007761323456308899
9.61200e-06;-0.009458726084085683
9.61225e-06;-0.008673825049118521
9.61250e-06;-0.006706555262643639
9.61275e-06;-0.004217164490875262
9.61300e-06;-0.003070463941401207
9.61325e-06;-0.003628546940592388
9.61350e-06;-0.005245952910188911
9.61375e-06;-0.007512931204159715
9.61400e-06;-0.008611632749323637
9.61425e-06;-0.008153315123179648
9.61450e-06;-0.006952200742020427
9.61475e-06;-0.005421756102857859
9.61500e-06;-0.00472991151280116
9.61525e-06;-0.005103233284254801
9.61550e-06;-0.006137165825803694
9.61575e-06;-0.007574831775454928
9.61600e-06;-0.008277392504301873
9.61625e-06;-0.008001434667973461
9.61650e-06;-0.007257400474102649
9.61675e-06;-0.006304765270557941
9.61700e-06;-0.00587537698586487
9.61725e-06;-0.006111238946636434
9.61750e-06;-0.006758998738880439
9.61775e-06;-0.007657829020248514
9.61800e-06;-0.008094482236305534
9.61825e-06;-0.007916643739416364
9.61850e-06;-0.007444205166575188
9.61875e-06;-0.006839830922752181
9.61900e-06;-0.006562050235454541
9.61925e-06;-0.006699889472854165
9.61950e-06;-0.007094727532494434
9.61975e-06;-0.007645912507735163
9.62000e-06;-0.007906782937794603
9.62025e-06;-0.0077820687638161575
9.62050e-06;-0.007472284411577801
9.62075e-06;-0.007079444289634828
9.62100e-06;-0.006890873659440181
9.62125e-06;-0.006962425931886947
9.62150e-06;-0.007194830445286706
9.62175e-06;-0.007525135680797541
9.62200e-06;-0.007673665875946879
9.62225e-06;-0.00758087167859903
9.62250e-06;-0.007372479913686023
9.62275e-06;-0.007112507966658791
9.62300e-06;-0.00698104050999445
9.62325e-06;-0.007013158928438802
9.62350e-06;-0.007146776574895449
9.62375e-06;-0.00734256049964467
9.62400e-06;-0.007425432500748463
9.62425e-06;-0.00735821136906093
9.62450e-06;-0.007219769824861636
9.62475e-06;-0.007050320584201598
9.62500e-06;-0.006962773952282069
9.62525e-06;-0.006979203897336867
9.62550e-06;-0.007060819275171792
9.62575e-06;-0.00718308479420703
9.62600e-06;-0.007236424363545184
9.62625e-06;-0.007197289235347319
9.62650e-06;-0.007108735626747529
9.62675e-06;-0.007008759778176723
9.62700e-06;-0.006959328300742743
9.62725e-06;-0.006971696164705759
9.62750e-06;-0.007031307989551506
9.62775e-06;-0.007105140449299548
9.62800e-06;-0.007135402759138533
9.62825e-06;-0.0071106613700137
9.62850e-06;-0.007054345719772529
9.62875e-06;-0.006990653733048011
9.62900e-06;-0.0069582180148775605
9.62925e-06;-0.006964056221838606
9.62950e-06;-0.006999057914994679
9.62975e-06;-0.00704281447634863
9.63000e-06;-0.007059015018770659
9.63025e-06;-0.007040492669763342
9.63050e-06;-0.007001965547720319
9.63075e-06;-0.006958740538725832
9.63100e-06;-0.006934984780918017
9.63125e-06;-0.006935107904973526
9.63150e-06;-0.006947720349733971
9.63175e-06;-0.006963004750167308
9.63200e-06;-0.00697828915060054
9.63225e-06;-0.006968824709724156
9.63250e-06;-0.006945509821936592
9.63275e-06;-0.006921333619222258
9.63300e-06;-0.00689715741650776
9.63325e-06;-0.006890390564454291
9.63350e-06;-0.006895941363579573
9.63375e-06;-0.006903355467375674
9.63400e-06;-0.0069107695711717754
9.63425e-06;-0.006903151886689541
9.63450e-06;-0.006887675401159584
9.63475e-06;-0.006871946138976438
9.63500e-06;-0.006856216876793399
9.63525e-06;-0.006852059954719403
9.63550e-06;-0.006856722585813843
9.63575e-06;-0.006862932334300493
9.63600e-06;-0.006869142082787184
9.63625e-06;-0.006866706026632049
9.63650e-06;-0.006859962749578284
9.63675e-06;-0.0068531780646221944
9.63700e-06;-0.006846393379666106
9.63725e-06;-0.006846922843326512
9.63750e-06;-0.006853054149181098
9.63775e-06;-0.006860176749011344
9.63800e-06;-0.006867299348841543
9.63825e-06;-0.006869045161946069
9.63850e-06;-0.006870274207526856
9.63875e-06;-0.006872533316696091
9.63900e-06;-0.006874792425865342
9.63925e-06;-0.006877051535034593
9.63950e-06;-0.006879310644203829
9.63975e-06;-0.006882996228229892
9.64000e-06;-0.0068873784734725055
9.64025e-06;-0.006891760718715119
9.64050e-06;-0.006896142963957703
9.64075e-06;-0.006900525209200316
9.64100e-06;-0.006906449298865887
9.64125e-06;-0.006913126393890205
9.64150e-06;-0.006919803488914568
9.64175e-06;-0.006926480583938931
9.64200e-06;-0.006933157678963248
9.64225e-06;-0.006939834773987612
9.64250e-06;-0.006946511869011974
9.64275e-06;-0.0069531889640362925
9.64300e-06;-0.006959866059060655
9.64325e-06;-0.006966543154085018
9.64350e-06;-0.0069732975009328185
9.64375e-06;-0.0069804240699711684
9.64400e-06;-0.006987550639009519
9.64425e-06;-0.0069946772080478215
9.64450e-06;-0.0070018037770861715
9.64475e-06;-0.007008930346124521
9.64500e-06;-0.007016056915162824
9.64525e-06;-0.007023183484201174
9.64550e-06;-0.0070303100532395245
9.64575e-06;-0.007037436622277827
9.64600e-06;-0.007044563191316177
9.64625e-06;-0.007057756738149316
9.64650e-06;-0.007073913273156658
