Time(s);Current(A)
0.00000e+00;-1.4338483235623078e-21
2.50000e-10;-1.0299691508929276e-15
5.00000e-10;-1.3658875132017188e-16
7.50000e-10;4.5902041726533193e-07
1.00000e-09;3.069213485029171e-06
1.25000e-09;9.073638847252787e-06
1.50000e-09;1.725083309581419e-05
1.75000e-09;2.5891371303793267e-05
2.00000e-09;3.4495570712249257e-05
2.25000e-09;4.3020128053442814e-05
2.50000e-09;5.1421741154229814e-05
2.75000e-09;5.994463004969291e-05
3.00000e-09;6.960538066964501e-05
3.25000e-09;8.11391903835946e-05
3.50000e-09;9.373749101860391e-05
3.75000e-09;0.0001062861272386943
4.00000e-09;0.00011842879795851678
4.25000e-09;0.0001298991080813833
4.50000e-09;0.00014112625265007625
4.75000e-09;0.00015203392071726804
5.00000e-09;0.00016279757223402222
5.25000e-09;0.0001740586285327123
5.50000e-09;0.0001855439095256412
5.75000e-09;0.00019630286820012017
6.00000e-09;0.00020603747020723036
6.25000e-09;0.0002143525208468094
6.50000e-09;0.00022216927856258224
6.75000e-09;0.00022939266116059418
7.00000e-09;0.00023634855667528732
7.25000e-09;0.00024378786464138998
7.50000e-09;0.0002514450897105143
7.75000e-09;0.0002584205405643983
8.00000e-09;0.000265088654978216
8.25000e-09;0.00027175676939203376
8.50000e-09;0.0002776444561376423
8.75000e-09;0.0002831803345339249
9.00000e-09;0.0002887162129302075
9.25000e-09;0.00029460707190394315
9.50000e-09;0.00030065795228143444
9.75000e-09;0.00030670883265892574
1.00000e-08;0.00031224463032960594
1.02500e-08;0.00031754823428877226
1.05000e-08;0.00032285183824793865
1.07500e-08;0.0003281554422071049
1.10000e-08;0.00033345596492551603
1.12500e-08;0.00033874329014218027
1.15000e-08;0.00034403061535884444
1.17500e-08;0.0003493179405755086
1.20000e-08;0.00035460526579217285
1.22500e-08;0.000359526670350599
1.25000e-08;0.00036428312183521316
1.27500e-08;0.00036903957331982736
1.30000e-08;0.00037379602480444157
1.32500e-08;0.0003785524762890557
1.35000e-08;0.0003833089277736699
1.37500e-08;0.0003880653792582841
1.40000e-08;0.00039231553047832984
1.42500e-08;0.00039633744701680673
1.45000e-08;0.0004003593635552837
1.47500e-08;0.0004043812800937606
1.50000e-08;0.0004084031966322376
1.52500e-08;0.0004124251131707145
1.55000e-08;0.00041644702970919145
1.57500e-08;0.00041995835156276334
1.60000e-08;0.00042323950285654027
1.62500e-08;0.00042607237799556263
1.65000e-08;0.00042870317509395345
1.67500e-08;0.0004302503840496277
1.70000e-08;0.00043130912319398274
1.72500e-08;0.00043089245884985074
1.75000e-08;0.0004298106985756044
1.77500e-08;0.00042725640349138754
1.80000e-08;0.00042403830564629507
1.82500e-08;0.0004194166115487284
1.85000e-08;0.0004141621914461545
1.87500e-08;0.0004072684319051849
1.90000e-08;0.00039963567588151717
1.92500e-08;0.0003902804589548863
1.95000e-08;0.00038014877528862715
1.97500e-08;0.000368458687033447
2.00000e-08;0.00035606608685007183
2.02500e-08;0.00034232054365376194
2.05000e-08;0.0003279651083848085
2.07500e-08;0.00031227131422377014
2.10000e-08;0.00029597420235398026
2.12500e-08;0.0002784489249563797
2.15000e-08;0.00026037000382645267
2.17500e-08;0.0002413279439452965
2.20000e-08;0.0002218517115353536
2.22500e-08;0.0002015718094773559
2.25000e-08;0.00018092962183697428
2.27500e-08;0.00016028743419659294
2.30000e-08;0.00013907711313463738
2.32500e-08;0.00011761068367291205
2.35000e-08;9.613594973483684e-05
2.37500e-08;7.462564624869826e-05
2.40000e-08;5.311534276255939e-05
2.42500e-08;3.188587186980813e-05
2.45000e-08;1.106180323409644e-05
2.47500e-08;-9.303846073355614e-06
2.50000e-08;-2.9119691783511104e-05
2.52500e-08;-4.8266278238662404e-05
2.55000e-08;-6.661256882049768e-05
2.57500e-08;-8.402521202579104e-05
2.60000e-08;-0.0001003664638079046
2.62500e-08;-0.00011549654795699107
2.65000e-08;-0.00012925585922915128
2.67500e-08;-0.00014146086953957445
2.70000e-08;-0.00015196525475576265
2.72500e-08;-0.00016070269940620112
2.75000e-08;-0.00016765569075756482
2.77500e-08;-0.000172815504217195
2.80000e-08;-0.0001761706350082379
2.82500e-08;-0.0001777083141906176
2.85000e-08;-0.00017740338066896022
2.87500e-08;-0.00017521567128730498
2.90000e-08;-0.0001711283324653894
2.92500e-08;-0.00016517465451616612
2.95000e-08;-0.0001574184798540342
2.97500e-08;-0.00014792914768448447
3.00000e-08;-0.00013677426699724318
3.02500e-08;-0.00012402064069910935
3.05000e-08;-0.00010972731059911684
3.07500e-08;-9.394391751277273e-05
3.10000e-08;-7.67347150451591e-05
3.12500e-08;-5.8195348621507165e-05
3.15000e-08;-3.8440600002013634e-05
3.17500e-08;-1.758868188771898e-05
3.20000e-08;4.243278556557921e-06
3.22500e-08;2.693866003361826e-05
3.25000e-08;5.0385724972781744e-05
3.27500e-08;7.447861740457611e-05
3.30000e-08;9.922374884717052e-05
3.32500e-08;0.00012417697654108404
3.35000e-08;0.00014941051976412784
3.37500e-08;0.0001747704261949497
3.40000e-08;0.00020000184391319643
3.42500e-08;0.00022517534030994292
3.45000e-08;0.00025000091916346307
3.47500e-08;0.0002743083575147276
3.50000e-08;0.00029798835893130114
3.52500e-08;0.0003208819136200349
3.55000e-08;0.00034282253543302664
3.57500e-08;0.0003631805403052334
3.60000e-08;0.0003829659063263306
3.62500e-08;0.00040072743971471855
3.65000e-08;0.00041757665124827245
3.67500e-08;0.0004326381946095065
3.70000e-08;0.0004468938764995695
3.72500e-08;0.0004596401119120362
3.75000e-08;0.00047170590518321305
3.77500e-08;0.00048208541700390487
3.80000e-08;0.0004917047713907188
3.82500e-08;0.0004994678600794282
3.85000e-08;0.0005063941642745044
3.87500e-08;0.0005113565002760771
3.90000e-08;0.0005154335006643319
3.92500e-08;0.0005195105010525866
3.95000e-08;0.0005215235106523495
3.97500e-08;0.0005226060955351254
4.00000e-08;0.0005236886804179013
4.02500e-08;0.0005227000660379643
4.05000e-08;0.0005207777774388508
4.07500e-08;0.0005188554888397371
4.10000e-08;0.000515358329169541
4.12500e-08;0.0005111512346591446
4.15000e-08;0.0005069441401487482
4.17500e-08;0.000500937320991987
4.20000e-08;0.000494119205435995
4.22500e-08;0.00048730108988000333
4.25000e-08;0.0004804829743240116
4.27500e-08;0.0004736648587680199
4.30000e-08;0.00046684674321202814
4.32500e-08;0.0004588941087675826
4.35000e-08;0.00045043004548266373
4.37500e-08;0.00044196598219774507
4.40000e-08;0.0004335019189128264
4.42500e-08;0.00042503785562790773
4.45000e-08;0.00041657379234298907
4.47500e-08;0.00040826424985797603
4.50000e-08;0.0004000243636777886
4.52500e-08;0.0003917844774976013
4.55000e-08;0.0003854490432679562
4.57500e-08;0.0003799721153732121
4.60000e-08;0.00037449518747846794
4.62500e-08;0.0003690182595837238
4.65000e-08;0.0003635413316889795
4.67500e-08;0.00035806440379423536
4.70000e-08;0.0003525874758994912
4.72500e-08;0.0003471105480047471
4.75000e-08;0.00034163362011000294
4.77500e-08;0.0003361566922152588
4.80000e-08;0.0003314910010253867
4.82500e-08;0.00033029998081391575
4.85000e-08;0.00032910896060244475
4.87500e-08;0.0003279179403909738
4.90000e-08;0.0003267269201795028
4.92500e-08;0.0003255358999680318
4.95000e-08;0.00032434487975656085
4.97500e-08;0.00032315385954508985
5.00000e-08;0.00032196283933361885
5.02500e-08;0.0003207718191221479
5.05000e-08;0.0003195807989106769
5.07500e-08;0.0003202970741329948
5.10000e-08;0.0003218731375016971
5.12500e-08;0.0003234492008703995
5.15000e-08;0.0003250252642391018
5.17500e-08;0.0003266013276078041
5.20000e-08;0.0003281773909765064
5.22500e-08;0.0003297534543452087
5.25000e-08;0.000331329517713911
5.27500e-08;0.0003336512419051892
5.30000e-08;0.0003363091019279259
5.32500e-08;0.00033896696195066263
5.35000e-08;0.00034162482197339935
5.37500e-08;0.00034428268199613606
5.40000e-08;0.0003469405420188728
5.42500e-08;0.00034959840204160954
5.45000e-08;0.00035225626206434625
5.47500e-08;0.0003547792866740486
5.50000e-08;0.0003572415289383492
5.52500e-08;0.00035970377120264976
5.55000e-08;0.00036216601346695035
5.57500e-08;0.000364628255731251
5.60000e-08;0.00036709049799555157
5.62500e-08;0.000369227642098807
5.65000e-08;0.0003699723330024844
5.67500e-08;0.0003707170239061618
5.70000e-08;0.00037146171480983915
5.72500e-08;0.0003722064057135166
5.75000e-08;0.00037295109661719396
5.77500e-08;0.0003736957875208714
5.80000e-08;0.00037298576985138294
5.82500e-08;0.00037161998529570934
5.85000e-08;0.00037025420074003574
5.87500e-08;0.00036786298063539466
5.90000e-08;0.000365009505279541
5.92500e-08;0.00036215602992368737
5.95000e-08;0.00035827594212511595
5.97500e-08;0.0003539330685443622
6.00000e-08;0.0003495901949636083
6.02500e-08;0.0003439191340316194
6.05000e-08;0.00033764934061144907
6.07500e-08;0.0003313795471912791
6.10000e-08;0.00032510975377110876
6.12500e-08;0.0003188399603509384
6.15000e-08;0.0003125701669307684
6.17500e-08;0.0003059678300300239
6.20000e-08;0.0002979411503029904
6.22500e-08;0.0002899144705759564
6.25000e-08;0.00028188779084892246
6.27500e-08;0.00027386111112188895
6.30000e-08;0.000265834431394855
6.32500e-08;0.00025780775166782144
6.35000e-08;0.0002495690006764255
6.37500e-08;0.00024123465025346986
6.40000e-08;0.00023290029983051382
6.42500e-08;0.00022456594940755775
6.45000e-08;0.00021623159898460215
6.47500e-08;0.0002085514797853351
6.50000e-08;0.0002011662809435327
6.52500e-08;0.00019378108210172992
6.55000e-08;0.00018639588325992755
6.57500e-08;0.00017901068441812478
6.60000e-08;0.00017254786602282436
6.62500e-08;0.0001665008467535073
6.65000e-08;0.00016123204178972094
6.67500e-08;0.0001563140474153119
6.70000e-08;0.00015234559064503925
6.72500e-08;0.00014880517515359612
6.75000e-08;0.00014625428323449273
6.77500e-08;0.00014414945783607362
6.80000e-08;0.00014279318199943532
6.82500e-08;0.00014227693467665985
6.85000e-08;0.0001424988674802492
6.87500e-08;0.00014347783455163077
6.90000e-08;0.00014522308851498382
6.92500e-08;0.00014796918199053808
6.95000e-08;0.0001510589464952316
6.97500e-08;0.00015510068096259388
7.00000e-08;0.0001595715531896964
7.02500e-08;0.00016491908253806506
7.05000e-08;0.00017066179943208413
7.07500e-08;0.0001772213273971292
7.10000e-08;0.00018414906495585508
7.12500e-08;0.00019195027332975613
7.15000e-08;0.00020014523289699457
7.17500e-08;0.00020834019246423346
7.20000e-08;0.0002173213839256774
7.22500e-08;0.00022665700021872975
7.25000e-08;0.0002359926165117826
7.27500e-08;0.0002459075696956446
7.30000e-08;0.00025608368168199736
7.32500e-08;0.00026625979366835003
7.35000e-08;0.00027643590565470217
7.37500e-08;0.00028661201764105485
7.40000e-08;0.0002967161029120999
7.42500e-08;0.00030651168496103346
7.45000e-08;0.0003163072670099665
7.47500e-08;0.00032610284905890005
7.50000e-08;0.0003358984311078336
7.52500e-08;0.0003456940131567667
7.55000e-08;0.0003546255685677378
7.57500e-08;0.00036316763011828005
7.60000e-08;0.00037072573493766105
7.62500e-08;0.00037784028270813143
7.65000e-08;0.00038495483047860143
7.67500e-08;0.0003904902476250427
7.70000e-08;0.0003953138097708965
7.72500e-08;0.00040013737191675055
7.75000e-08;0.00040318476735193824
7.77500e-08;0.0004054314860504299
7.80000e-08;0.0004076782047489216
7.82500e-08;0.00040809554241592107
7.85000e-08;0.00040768821490612546
7.87500e-08;0.00040728088739632986
7.90000e-08;0.0004050155121305658
7.92500e-08;0.0004019125490387602
7.95000e-08;0.0003988095859469547
7.97500e-08;0.00039400271474599656
8.00000e-08;0.00038842774020413404
8.02500e-08;0.00038285276566227126
8.05000e-08;0.0003757590832914269
8.07500e-08;0.00036798078386228347
8.10000e-08;0.00036020248443314
8.12500e-08;0.00035114601152214163
8.15000e-08;0.0003415133518341705
8.17500e-08;0.0003318806921462
8.20000e-08;0.00032108991016318607
8.22500e-08;0.0003097770591793733
8.25000e-08;0.0002984642081955599
8.27500e-08;0.0002871513572117465
8.30000e-08;0.00027583850622793363
8.32500e-08;0.00026397052382372987
8.35000e-08;0.0002518522941812201
8.37500e-08;0.00023973406453870968
8.40000e-08;0.00022761583489619926
8.42500e-08;0.0002154976052536895
8.45000e-08;0.00020375045556018484
8.47500e-08;0.000192170584692953
8.50000e-08;0.0001805907138257205
8.52500e-08;0.00016965798740946813
8.55000e-08;0.00015901698671021624
8.57500e-08;0.0001491485532325611
8.60000e-08;0.00013962838469994422
8.62500e-08;0.0001308237508503052
8.65000e-08;0.00012290504665180436
8.67500e-08;0.00011524030551846465
8.70000e-08;0.00010777603084956843
8.72500e-08;0.00010040212429398326
8.75000e-08;9.319916740667179e-05
8.77500e-08;8.607327278030247e-05
8.80000e-08;7.928482401753924e-05
8.82500e-08;7.264849219924023e-05
8.85000e-08;6.633084114178055e-05
8.87500e-08;6.015684792347844e-05
8.90000e-08;5.3982854705176655e-05
8.92500e-08;4.775341833992267e-05
8.95000e-08;4.1498988803866296e-05
8.97500e-08;3.529047943855561e-05
9.00000e-08;2.9102670389403773e-05
9.02500e-08;2.3032183771853298e-05
9.05000e-08;1.71016795719167e-05
9.07500e-08;1.1210436736129885e-05
9.10000e-08;5.278916425253877e-06
9.12500e-08;-7.114320151844697e-07
9.15000e-08;-6.724727736688397e-06
9.17500e-08;-1.2740102956847e-05
9.20000e-08;-1.8667872976313717e-05
9.22500e-08;-2.4556150859373062e-05
9.25000e-08;-3.030654744812951e-05
9.27500e-08;-3.5994788641161715e-05
9.30000e-08;-4.168302983419391e-05
9.32500e-08;-4.731130628457611e-05
9.35000e-08;-5.291255127773473e-05
9.37500e-08;-5.831998702965624e-05
9.40000e-08;-6.364005567246374e-05
9.42500e-08;-6.896012431527097e-05
9.45000e-08;-7.393364957204409e-05
9.47500e-08;-7.875095681966913e-05
9.50000e-08;-8.356826406729392e-05
9.52500e-08;-8.809670408127258e-05
9.55000e-08;-9.249492587159724e-05
9.57500e-08;-9.666333240957932e-05
9.60000e-08;-0.00010054445502003569
9.62500e-08;-0.00010413442378987959
9.65000e-08;-0.00010728558712776591
9.67500e-08;-0.00010963652020402096
9.70000e-08;-0.00011082288836787329
9.72500e-08;-0.00011070511205769992
9.75000e-08;-0.00010929948050809936
9.77500e-08;-0.00010665335292718234
9.80000e-08;-0.00010281409855340416
9.82500e-08;-9.782794768752173e-05
9.85000e-08;-9.167054318480499e-05
9.87500e-08;-8.418364072397673e-05
9.90000e-08;-7.520719454536697e-05
9.92500e-08;-6.472194567283218e-05
9.95000e-08;-5.2806275822224654e-05
9.97500e-08;-3.955802705636841e-05
1.00000e-07;-2.5075036669713892e-05
1.00250e-07;-9.454428671864811e-06
1.00500e-07;7.250897231565708e-06
1.00750e-07;2.5071901764056823e-05
1.01000e-07;4.4040677078096326e-05
1.01250e-07;6.410111334155866e-05
1.01500e-07;8.51359446105675e-05
1.01750e-07;0.0001070157346003563
1.02000e-07;0.00012979940725482047
1.02250e-07;0.0001528778207603933
1.02500e-07;0.0001766072186671498
1.02750e-07;0.0002006300732989152
1.03000e-07;0.00022514089415847602
1.03250e-07;0.0002498716849141862
1.03500e-07;0.000274736651587783
1.03750e-07;0.00029966210331350436
1.04000e-07;0.000324431141847664
1.04250e-07;0.0003488885615871059
1.04500e-07;0.0003729109244603492
1.04750e-07;0.00039639963510980245
1.05000e-07;0.0004192565583152141
1.05250e-07;0.0004413489566364696
1.05500e-07;0.0004621296464478247
1.05750e-07;0.00048243247857444107
1.06000e-07;0.0005009520759409993
1.06250e-07;0.0005186678103706558
1.06500e-07;0.0005342793925125998
1.06750e-07;0.0005489424455682041
1.07000e-07;0.0005636054986238076
1.07250e-07;0.0005766861912844709
1.07500e-07;0.0005890535729987546
1.07750e-07;0.0006014209547130391
1.08000e-07;0.0006118449237530819
1.08250e-07;0.0006213928233854862
1.08500e-07;0.0006309407230178904
1.08750e-07;0.0006388922465206901
1.09000e-07;0.000646124140935562
1.09250e-07;0.0006533560353504336
1.09500e-07;0.0006582772617320715
1.09750e-07;0.0006621568639635951
1.10000e-07;0.0006660364661951186
1.10250e-07;0.0006699160684266422
1.10500e-07;0.0006737956706581656
1.10750e-07;0.0006776752728896892
1.11000e-07;0.0006815548751212127
1.11250e-07;0.0006854344773527363
1.11500e-07;0.0006886487195275377
1.11750e-07;0.0006890131063328162
1.12000e-07;0.0006893774931380945
1.12250e-07;0.000689741879943373
1.12500e-07;0.0006901062667486514
1.12750e-07;0.0006904706535539297
1.13000e-07;0.0006908350403592082
1.13250e-07;0.0006911994271644866
1.13500e-07;0.000691563813969765
1.13750e-07;0.0006909789911238405
1.14000e-07;0.0006899662748367144
1.14250e-07;0.0006889535585495883
1.14500e-07;0.0006879408422624622
1.14750e-07;0.000686928125975336
1.15000e-07;0.00068591540968821
1.15250e-07;0.0006848885104940128
1.15500e-07;0.0006838552177987537
1.15750e-07;0.0006828219251034947
1.16000e-07;0.0006817886324082356
1.16250e-07;0.0006807553397129766
1.16500e-07;0.0006797220470177175
1.16750e-07;0.0006792950752714704
1.17000e-07;0.0006791414264492125
1.17250e-07;0.0006789877776269545
1.17500e-07;0.000680055848421648
1.17750e-07;0.0006816746572018
1.18000e-07;0.0006832934659819521
1.18250e-07;0.0006849122747621042
1.18500e-07;0.0006865310835422563
1.18750e-07;0.0006881498923224083
1.19000e-07;0.0006902520002266628
1.19250e-07;0.0006944241641704947
1.19500e-07;0.0006985963281143263
1.19750e-07;0.000702768492058158
1.20000e-07;0.00070694065600199
1.20250e-07;0.0007111128199458217
1.20500e-07;0.0007152849838896533
1.20750e-07;0.0007208495582878931
1.21000e-07;0.0007270418162544007
1.21250e-07;0.0007332340742209083
1.21500e-07;0.000739426332187416
1.21750e-07;0.0007456185901539242
1.22000e-07;0.000752014808964214
1.22250e-07;0.0007592846283159737
1.22500e-07;0.0007665544476677343
1.22750e-07;0.0007738242670194941
1.23000e-07;0.0007810940863712538
1.23250e-07;0.0007883639057230136
1.23500e-07;0.0007958052421413971
1.23750e-07;0.0008033238965977592
1.24000e-07;0.0008107537223235546
1.24250e-07;0.0008181435050186551
1.24500e-07;0.00082533360361618
1.24750e-07;0.0008324336867829134
1.25000e-07;0.0008392477045255548
1.25250e-07;0.0008459327670699751
1.25500e-07;0.0008523266888360044
1.25750e-07;0.000857767548876647
1.26000e-07;0.0008605664170463614
1.26250e-07;-0.0013380157233113046
1.26500e-07;-0.04973022097738491
1.26750e-07;-0.026699825128369836
1.27000e-07;0.0023774547884777455
1.27250e-07;0.022726730702699864
1.27500e-07;0.039946634739812914
1.27750e-07;0.024718921939752857
1.28000e-07;0.005555838977879198
1.28250e-07;-0.013245775376110309
1.28500e-07;-0.030223008705060863
1.28750e-07;-0.015768976170728786
1.29000e-07;0.0023646110978888506
1.29250e-07;0.015054601474428473
1.29500e-07;0.025789095201863156
1.29750e-07;0.016201144005426785
1.30000e-07;0.004151245670191857
1.30250e-07;-0.007669153534662987
1.30500e-07;-0.018343865099455174
1.30750e-07;-0.009328221572425265
1.31000e-07;0.001993053599559578
1.31250e-07;0.009905210316149675
1.31500e-07;0.01659334314686854
1.31750e-07;0.010553004888855404
1.32000e-07;0.002972598393800344
1.32250e-07;-0.00446192630981398
1.32500e-07;-0.011176736801251539
1.32750e-07;-0.005556095514652699
1.33000e-07;0.0015095901898436938
1.33250e-07;0.00644063231923694
1.33500e-07;0.010605902941862543
1.33750e-07;0.00679943455977677
1.34000e-07;0.002030045689600641
1.34250e-07;-0.0026461346448701634
1.34500e-07;-0.006869665575808461
1.34750e-07;-0.0033648169996039253
1.35000e-07;0.0010463045384599048
1.35250e-07;0.004121434638984308
1.35500e-07;0.006718147323488073
1.35750e-07;0.004322918576584738
1.36000e-07;0.001326354245115834
1.36250e-07;-0.0016099277685613434
1.36500e-07;-0.004260926139851667
1.36750e-07;-0.0020699985065089875
1.37000e-07;0.0006884446319304553
1.37250e-07;0.0026095331677379536
1.37500e-07;0.0042305033761104545
1.37750e-07;0.0027242579935439796
1.38000e-07;0.0008412410293556123
1.38250e-07;-0.0010040809216209756
1.38500e-07;-0.002670760894405085
1.38750e-07;-0.0013046537210285845
1.39000e-07;0.0004166189505057748
1.39250e-07;0.001613075269110862
1.39500e-07;0.0026212919676157757
1.39750e-07;0.0016704986773093899
1.40000e-07;0.0004836913022031892
1.40250e-07;-0.0006794761925961312
1.40500e-07;-0.0017306982037096292
1.40750e-07;-0.0008822097966787947
1.41000e-07;0.00018865762287902874
1.41250e-07;0.0009307142489580931
1.41500e-07;0.001554837141171753
1.41750e-07;0.0009519053624619159
1.42000e-07;0.00020129036755175316
1.42250e-07;-0.0005343283343572793
1.42500e-07;-0.0011996130546082062
1.42750e-07;-0.000674740447562273
1.43000e-07;-1.0421872137885401e-05
1.43250e-07;0.0004481091678102237
1.43500e-07;0.0008329867857024609
1.43750e-07;0.0004495258977008701
1.44000e-07;-2.6088499197158347e-05
1.44250e-07;-0.0004919215522731419
1.44500e-07;-0.0009132831683788175
1.44750e-07;-0.0005887243744180112
1.45000e-07;-0.000176417920731197
