Time(s);Current(A)
4.50000e-06;0.0007824640606813554
4.50025e-06;0.0007759929265356348
4.50050e-06;0.000769521792389936
4.50075e-06;0.0007630506582442373
4.50100e-06;0.0007565795240985165
4.50125e-06;0.0007501083899528177
4.50150e-06;0.0007431840177551397
4.50175e-06;0.0007359110924828847
4.50200e-06;0.0007286381672106544
4.50225e-06;0.000721365241938424
4.50250e-06;0.000714092316666169
4.50275e-06;0.0007068193913939388
4.50300e-06;0.0006995464661217084
4.50325e-06;0.0006922735408494534
4.50350e-06;0.000685000615577223
4.50375e-06;0.0006777276903049927
4.50400e-06;0.0006705211954512404
4.50425e-06;0.0006642658626050458
4.50450e-06;0.0006580105297588301
4.50475e-06;0.0006517551969126356
4.50500e-06;0.0006454998640664411
4.50525e-06;0.0006393062584724717
4.50550e-06;0.0006339964741532199
4.50575e-06;0.0006286866898339682
4.50600e-06;0.0006233769055146984
4.50625e-06;0.0006180671211954466
4.50650e-06;0.0006125726159218227
4.50675e-06;0.0006044332446707286
4.50700e-06;0.000596293873419662
4.50725e-06;0.0005879824017274572
4.50750e-06;0.0005772067667084759
4.50775e-06;0.0005664311316895312
4.50800e-06;0.0005554935407215579
4.50825e-06;0.0005422370369867753
4.50850e-06;0.0005287567825390135
4.50875e-06;0.0005120728274053748
4.50900e-06;0.0004953888722717927
4.50925e-06;0.00047852497115026185
4.50950e-06;0.00045908457283150295
4.50975e-06;0.0004395280027251123
4.51000e-06;0.00041830806524505745
4.51025e-06;0.00039695112677249744
4.51050e-06;0.0003736325848377837
4.51075e-06;0.0003501732815833819
4.51100e-06;0.0003246985338628106
4.51125e-06;0.0002992237861423257
4.51150e-06;0.0002736557598231185
4.51175e-06;0.0002467521546956307
4.51200e-06;0.00021984854956823402
4.51225e-06;0.00019289078857186756
4.51250e-06;0.00016515761465195073
4.51275e-06;0.0001374244407321279
4.51300e-06;0.00010969067948042897
4.51325e-06;8.195646655382121e-05
4.51350e-06;5.426074835065722e-05
4.51375e-06;2.715328495564689e-05
4.51400e-06;6.189814946202271e-07
4.51425e-06;-2.5264747068556334e-05
4.51450e-06;-5.043677128260754e-05
4.51475e-06;-7.476694366882881e-05
4.51500e-06;-9.80793264983827e-05
4.51525e-06;-0.00012019666044143606
4.51550e-06;-0.00014094170602029318
4.51575e-06;-0.00016013694347092813
4.51600e-06;-0.00017760060516599878
4.51625e-06;-0.00019315934985977384
4.51650e-06;-0.00020669338627612362
4.51675e-06;-0.0002181501971158311
4.51700e-06;-0.00022750377339963992
4.51725e-06;-0.00023472866477784998
4.51750e-06;-0.0002397994354525768
4.51775e-06;-0.00024269046753259448
4.51800e-06;-0.00024337355487237498
4.51825e-06;-0.00024182569776137994
4.51850e-06;-0.00023805748459856417
4.51875e-06;-0.00023212163084202056
4.51900e-06;-0.00022408745741152598
4.51925e-06;-0.00021402463982715162
4.51950e-06;-0.00020200286626090197
4.51975e-06;-0.00018809168873589157
4.52000e-06;-0.00017235903857194416
4.52025e-06;-0.00015487611013010737
4.52050e-06;-0.00013573514882298679
4.52075e-06;-0.00011506868896407695
4.52100e-06;-9.327537150685343e-05
4.52125e-06;-0.0015786027982332852
4.52150e-06;-0.00956251556653602
4.52175e-06;-0.01400975248193723
4.52200e-06;-0.011657430673244006
4.52225e-06;-0.009117127492873271
4.52250e-06;-0.0033934788467022744
4.52275e-06;0.0013312311288906844
4.52300e-06;0.0007686301161409735
4.52325e-06;-0.0005800534007194411
4.52350e-06;-0.004338143574231354
4.52375e-06;-0.00806238879875341
4.52400e-06;-0.007146631557068884
4.52425e-06;-0.004985790777262606
4.52450e-06;-0.002136643531750978
4.52475e-06;0.001417174450689903
4.52500e-06;0.0019258316764673136
4.52525e-06;0.0014822604284184012
4.52550e-06;0.0002890158981297137
4.52575e-06;-0.001953309868907731
4.52600e-06;-0.0033872668735051613
4.52625e-06;-0.0030288193766532987
4.52650e-06;-0.0015707237770850725
4.52675e-06;0.00032417280598686553
4.52700e-06;0.0016234767631856442
4.52725e-06;0.001723400498025191
4.52750e-06;0.0008798991289709046
4.52775e-06;-0.000535715460791309
4.52800e-06;-0.0014440977296491745
4.52825e-06;-0.001229015404557666
4.52850e-06;-0.00032457319098747495
4.52875e-06;0.0008539084967317217
4.52900e-06;0.0016596836837945348
4.52925e-06;0.0017145393333022872
4.52950e-06;0.001178821105941483
4.52975e-06;0.0002851223397745682
4.53000e-06;-0.00029048859197605914
4.53025e-06;-0.0001620804266866951
4.53050e-06;0.00039834731425971646
4.53075e-06;0.0011305895456065963
4.53100e-06;0.0016295102442822013
4.53125e-06;0.0016582141427603893
4.53150e-06;0.0013171670456773531
4.53175e-06;0.0007520816997253533
4.53200e-06;0.000386438994691208
4.53225e-06;0.000461949425163498
4.53250e-06;0.000808194838089365
4.53275e-06;0.0012621616343091403
4.53300e-06;0.001570071727008385
4.53325e-06;0.0015835523294161708
4.53350e-06;0.001365558017167966
4.53375e-06;0.0010073796130663328
4.53400e-06;0.0007742858512427871
4.53425e-06;0.0008176664224257618
4.53450e-06;0.0010307526307798917
4.53475e-06;0.0013114239146536926
4.53500e-06;0.001500717389725433
4.53525e-06;0.0015057077162372052
4.53550e-06;0.0013658475522985495
4.53575e-06;0.0011383376003235694
4.53600e-06;0.000989374481698326
4.53625e-06;0.0010138587481385694
4.53650e-06;0.001144981450048683
4.53675e-06;0.0013187941461732754
4.53700e-06;0.0014357099023341554
4.53725e-06;0.0014375083613913423
4.53750e-06;0.0013488922386768248
4.53775e-06;0.001205679111587776
4.53800e-06;0.0011119551146416941
4.53825e-06;0.0011271389920463467
4.53850e-06;0.001209354359177443
4.53875e-06;0.0013185204848453437
4.53900e-06;0.0013922372932870604
4.53925e-06;0.001394021363132287
4.53950e-06;0.00133933314805339
4.53975e-06;0.001250593705033139
4.54000e-06;0.001192983482162685
4.54025e-06;0.0012036987065263936
4.54050e-06;0.0012564840316422214
4.54075e-06;0.0013262112185484945
4.54100e-06;0.001373774076375792
4.54125e-06;0.0013763035067113477
4.54150e-06;0.001343468716993438
4.54175e-06;0.0012892978486647268
4.54200e-06;0.0012546009408185104
4.54225e-06;0.0012626559581317433
4.54250e-06;0.0012969944521493276
4.54275e-06;0.0013418554718133172
4.54300e-06;0.0013727243498065068
4.54325e-06;0.001375258879296414
4.54350e-06;0.0013545663328243067
4.54375e-06;0.0013210844131519666
4.54400e-06;0.0013009519552787407
4.54425e-06;0.0013062693863244979
4.54450e-06;0.001327969283295062
4.54475e-06;0.0013559123365778592
4.54500e-06;0.0013746357149726732
4.54525e-06;0.0013755019948039746
4.54550e-06;0.0013614439444586167
4.54575e-06;0.0013391096067583827
4.54600e-06;0.0013246904199099728
4.54625e-06;0.0013249423145629362
4.54650e-06;0.0013331906227296861
4.54675e-06;0.001343674229913828
4.54700e-06;0.0013470667651011628
4.54725e-06;0.0013368711962654589
4.54750e-06;0.0013152431688493358
4.54775e-06;0.0012870907426101373
4.54800e-06;0.0012628954576835594
4.54825e-06;0.0012460787037781
4.54850e-06;0.0012327530538864932
4.54875e-06;0.001219866285213878
4.54900e-06;0.001201849427028872
4.54925e-06;0.0011740979704440964
4.54950e-06;0.0011382360035986847
4.54975e-06;0.001097707522703821
4.55000e-06;0.0010592843604341011
4.55025e-06;0.0010248507035951863
4.55050e-06;0.0009922210778234497
4.55075e-06;0.0009596663479816898
4.55100e-06;0.0009238378503086944
4.55125e-06;0.0008808988803141818
4.55150e-06;0.0008341513183043406
4.55175e-06;0.0007857883807264296
4.55200e-06;0.0007373627449809459
4.55225e-06;0.0006923745104354505
4.55250e-06;0.0006492684893056308
4.55275e-06;0.0006067702320614809
4.55300e-06;0.0005627884776499003
4.55325e-06;0.0005160954880351027
4.55350e-06;0.0004675819463461258
4.55375e-06;0.00041835060070393744
4.55400e-06;0.00037109082535641296
4.55425e-06;0.0003273743610556001
4.55450e-06;0.0002863672786791768
4.55475e-06;0.0002473423010719174
4.55500e-06;0.00020908919701785443
4.55525e-06;0.00017102005488344777
4.55550e-06;0.00013377835527850915
4.55575e-06;9.815674659497414e-05
4.55600e-06;6.578490609837278e-05
4.55625e-06;3.72643689912357e-05
4.55650e-06;1.157478574749591e-05
4.55675e-06;-1.2008946575180003e-05
4.55700e-06;-3.432310587912107e-05
4.55725e-06;-5.578118914041966e-05
4.55750e-06;-7.602534862052182e-05
4.55775e-06;-9.46043342594183e-05
4.55800e-06;-0.00011054265403383723
4.55825e-06;-0.00012350889955964356
4.55850e-06;-0.00013418758979047665
4.55875e-06;-0.00014307824824991348
4.55900e-06;-0.00015075000043659177
4.55925e-06;-0.0001575070979125806
4.55950e-06;-0.0001631706143023212
4.55975e-06;-0.00016750313881174728
4.56000e-06;-0.00016993891557188004
4.56025e-06;-0.0001703156731990453
4.56050e-06;-0.00016910749350344863
4.56075e-06;-0.00016667256487117024
4.56100e-06;-0.00016341262335827292
4.56125e-06;-0.00015956344589852808
4.56150e-06;-0.0001550581690855859
4.56175e-06;-0.00014979329336840306
4.56200e-06;-0.00014345965245851272
4.56225e-06;-0.00013586115374207818
4.56250e-06;-0.00012758973598691025
4.56275e-06;-0.00011899481821309032
4.56300e-06;-0.00011000769361124562
4.56325e-06;-0.00010102056900940094
4.56350e-06;-9.200037614524726e-05
4.56375e-06;-8.294009178959195e-05
4.56400e-06;-7.371523404287434e-05
4.56425e-06;-6.429084985426886e-05
4.56450e-06;-5.495522870881643e-05
4.56475e-06;-4.590760497159281e-05
4.56500e-06;-3.738582429702485e-05
4.56525e-06;-2.9555801463440574e-05
4.56550e-06;-2.246467850959351e-05
4.56575e-06;-1.6130527070553702e-05
4.56600e-06;-1.0328366748458043e-05
4.56625e-06;-4.610367305264464e-06
4.56650e-06;1.381463576267558e-06
4.56675e-06;7.739994788907975e-06
4.56700e-06;1.4324993908299979e-05
4.56725e-06;2.1000447953322316e-05
4.56750e-06;2.7704749669734128e-05
4.56775e-06;3.439450512957923e-05
4.56800e-06;4.117856587364026e-05
4.56825e-06;4.830535905505722e-05
4.56850e-06;5.596701691626654e-05
4.56875e-06;6.418959077321921e-05
4.56900e-06;7.291848028864815e-05
4.56925e-06;8.191952743538759e-05
4.56950e-06;9.108039574651432e-05
4.56975e-06;0.00010058107689642341
4.57000e-06;0.00011025882448106998
4.57025e-06;0.00012019452588830447
4.57050e-06;0.0001306528376726351
4.57075e-06;0.00014153685161724758
4.57100e-06;0.00015273930677113003
4.57125e-06;0.00016415461605461594
4.57150e-06;0.00017570640163711788
4.57175e-06;0.00018735882759352113
4.57200e-06;0.0001990725722003756
4.57225e-06;0.0002107863168071904
4.57250e-06;0.000222738966653226
4.57275e-06;0.00023470366194855305
4.57300e-06;0.00024657082905574945
4.57325e-06;0.00025831975437286806
4.57350e-06;0.0002700686796899469
4.57375e-06;0.0002814444033846743
4.57400e-06;0.00029236766273300945
4.57425e-06;0.0003032909220813075
4.57450e-06;0.00031381870627988364
4.57475e-06;0.0003238670220238334
4.57500e-06;0.0003334346821069725
4.57525e-06;0.0003424196020936601
4.57550e-06;0.00035078704175684194
4.57575e-06;0.0003584058570457209
4.57600e-06;0.00036612983302627093
4.57625e-06;0.00037398130433584766
4.57650e-06;0.0003830094401197068
4.57675e-06;0.0003943387279188386
4.57700e-06;0.0004075166423436039
4.57725e-06;0.0004223592503400368
4.57750e-06;0.00043868983239994246
4.57775e-06;0.00045635214138533496
4.57800e-06;0.0004759143532999888
4.57825e-06;0.0004969423946739983
4.57850e-06;0.0005201828491435661
4.57875e-06;0.0005461056018275484
4.57900e-06;0.0005739928230592673
4.57925e-06;0.000604261738056845
4.57950e-06;0.0006360728870860978
4.57975e-06;0.0006697538187512152
4.58000e-06;0.0007048919508338207
4.58025e-06;0.0007417967720061773
4.58050e-06;0.0007807274909703408
4.58075e-06;0.000822114379643249
4.58100e-06;0.0008635012683162974
4.58125e-06;0.0009067742790237552
4.58150e-06;0.0009523339972973353
4.58175e-06;0.0009978937155710698
4.58200e-06;0.0010434534338446498
4.58225e-06;0.00108901315211823
4.58250e-06;0.0011353072745659072
4.58275e-06;0.0011824917782031613
4.58300e-06;0.0012296762818404157
4.58325e-06;0.0012768607854778298
4.58350e-06;0.001324045289115084
4.58375e-06;0.0013692904379659864
4.58400e-06;0.0014121843406187879
4.58425e-06;0.001455078243271444
4.58450e-06;0.0014979721459241003
4.58475e-06;0.0015408660485769017
4.58500e-06;0.001583759951229558
4.58525e-06;0.0016152924058556318
4.58550e-06;0.00164625202354081
4.58575e-06;0.0016772116412259886
4.58600e-06;0.0017081712589112718
4.58625e-06;0.0017391308765964501
4.58650e-06;0.0017637349109022996
4.58675e-06;0.001780633526188111
4.58700e-06;0.001793583971837433
4.58725e-06;0.0018017477126958687
4.58750e-06;0.0018059519706585694
4.58775e-06;0.0018053558077954937
4.58800e-06;0.001800664481854765
4.58825e-06;0.0017910082383628145
4.58850e-06;0.0017771338592956056
4.58875e-06;0.001758145472567736
4.58900e-06;0.0017352128889989889
4.58925e-06;0.0017074984172005987
4.58950e-06;0.0016753329320845327
4.58975e-06;0.0016377711016408922
4.59000e-06;0.0016002092711972515
4.59025e-06;0.0015578150828977437
4.59050e-06;0.0015095622125690193
4.59075e-06;0.001461309342240295
4.59100e-06;0.0014092093673912193
4.59125e-06;0.0013524452176632985
4.59150e-06;0.001295681067935378
4.59175e-06;0.0012359815922269664
4.59200e-06;0.0011727233689913593
4.59225e-06;0.001109465145755752
4.59250e-06;0.0010462069225199307
4.59275e-06;0.0009816575867215326
4.59300e-06;0.0009155429243900035
4.59325e-06;0.0008494282620582506
4.59350e-06;0.0007833135997267216
4.59375e-06;0.0007179022998271701
4.59400e-06;0.0006533437465505866
4.59425e-06;0.0005901257750363513
4.59450e-06;0.0005285331058099134
4.59475e-06;0.0004683878628716775
4.59500e-06;0.000411220014533721
4.59525e-06;0.0003569509925409602
4.59550e-06;0.0003060101102907555
4.59575e-06;0.00025881079098670403
4.59600e-06;0.00021558136066199436
4.59625e-06;0.00017615302400048172
4.59650e-06;0.00014019246312843548
4.59675e-06;0.00010760500687517469
4.59700e-06;7.850867286590152e-05
4.59725e-06;5.3058935450907585e-05
4.59750e-06;3.1411294133371665e-05
4.59775e-06;1.3711257244817299e-05
4.59800e-06;-1.1609176511262587e-08
4.59825e-06;-9.976479451759186e-06
4.59850e-06;-1.6505579130426685e-05
4.59875e-06;-1.977162854386143e-05
4.59900e-06;-1.9814114551907806e-05
4.59925e-06;-1.6649058467596984e-05
4.59950e-06;-1.0292473462202687e-05
4.59975e-06;-7.666330383674397e-07
4.60000e-06;1.1833564042270572e-05
4.60025e-06;2.7257416641165812e-05
4.60050e-06;4.518969600383382e-05
4.60075e-06;6.540884118542236e-05
4.60100e-06;8.777676232995797e-05
4.60125e-06;0.00011217007633832355
4.60150e-06;0.00013846539562959476
4.60175e-06;0.00016653543855321234
4.60200e-06;0.00019620744287178444
4.60225e-06;0.0002274059706469927
4.60250e-06;0.00025947181434463003
4.60275e-06;0.0002922409706736472
4.60300e-06;0.00032586281324757335
4.60325e-06;0.00035948465582138567
4.60350e-06;0.0003931064983951979
4.60375e-06;0.00042658020422077313
4.60400e-06;0.00046004644108617093
4.60425e-06;0.0004935126779515688
4.60450e-06;0.0005259660342014569
4.60475e-06;0.0005571913883793342
4.60500e-06;0.000587102852193695
4.60525e-06;0.0006154213739933106
4.60550e-06;0.0006420041260969355
4.60575e-06;0.00066648245567535
4.60600e-06;0.0006887434127404119
4.60625e-06;0.0007083160588647003
4.60650e-06;0.0007252871815475077
4.60675e-06;0.0007391042541606725
4.60700e-06;0.0007502381505410193
4.60725e-06;0.0007581190021674421
4.60750e-06;0.0007632769759138185
4.60775e-06;0.0007651337711931277
4.60800e-06;0.000764190613724663
4.60825e-06;0.0007598528333142391
4.60850e-06;0.000752699090578626
4.60875e-06;0.0007421313151167675
4.60900e-06;0.0007289210780006049
4.60925e-06;0.0007125071579072771
4.60950e-06;0.0006936505209609987
4.60975e-06;0.000671832368797821
4.61000e-06;0.0006477478287674457
4.61025e-06;0.0006209155522777692
4.61050e-06;0.0005920314583541034
4.61075e-06;0.0005606597701165834
4.61100e-06;0.0005275694925513687
4.61125e-06;0.0004923956216954263
4.61150e-06;0.0004558528398861723
4.61175e-06;0.000417650409880987
4.61200e-06;0.0003784139742853727
4.61225e-06;0.00033792392499849003
4.61250e-06;0.0002966797483170196
4.61275e-06;0.00025452127829359613
4.61300e-06;0.00021236280827002988
4.61325e-06;0.00017008665897305083
4.61350e-06;0.00012766783699629788
4.61375e-06;8.551058974283382e-05
4.61400e-06;4.398825944945922e-05
4.61425e-06;3.2752734129590195e-06
4.61450e-06;-3.638342796717229e-05
4.61475e-06;-7.472281761574631e-05
4.61500e-06;-0.0001114667352646477
4.61525e-06;-0.00014633751728890338
4.61550e-06;-0.0001790575354687692
4.61575e-06;-0.00020932755099481334
4.61600e-06;-0.0002366230138575025
4.61625e-06;-0.000260014419508175
4.61650e-06;-0.0002786042898914619
4.61675e-06;-0.00029203780864601894
4.61700e-06;-0.00030032631109132497
4.61725e-06;-0.0003035379452433584
4.61750e-06;-0.00030174085632415134
4.61775e-06;-0.0002949896559033924
4.61800e-06;-0.00028319784556509776
4.61825e-06;-0.0002660252731935141
4.61850e-06;-0.00024315190457166664
4.61875e-06;-0.00021459769436775862
4.61900e-06;-0.0001806118960407937
4.61925e-06;-0.00014147933143338152
4.61950e-06;-9.748484113143247e-05
4.61975e-06;-4.8904769760215385e-05
4.62000e-06;4.0729463643642145e-06
4.62025e-06;6.141926445888075e-05
4.62050e-06;0.0001230925237862153
4.62075e-06;0.00018883810848897565
4.62100e-06;0.0002582577751087739
4.62125e-06;0.0003309310249259116
4.62150e-06;0.0004064373907111533
4.62175e-06;0.0004847897311800606
4.62200e-06;0.0005648632745386548
4.62225e-06;0.0006467490103517
4.62250e-06;0.0007308318225556333
4.62275e-06;0.0008149146347595667
4.62300e-06;0.0008989974469637849
4.62325e-06;0.0009834331338373222
4.62350e-06;0.001067886612426157
4.62375e-06;0.0011523400910147057
4.62400e-06;0.0012346224311102552
4.62425e-06;0.001314272513735974
4.62450e-06;0.0013939225963614226
4.62475e-06;0.0014695535076842713
4.62500e-06;0.0015403116328083894
4.62525e-06;0.0016110697579322676
4.62550e-06;0.0016768282819002221
4.62575e-06;0.0017365253604413457
4.62600e-06;0.0017917822214941496
4.62625e-06;0.0018416558259333486
4.62650e-06;0.0018878230487648943
4.62675e-06;0.0019294967071805695
4.62700e-06;0.0019662201042827663
4.62725e-06;0.001996941874882355
4.62750e-06;0.0020276636454818393
4.62775e-06;0.002051963554061273
4.62800e-06;0.002068477688344196
4.62825e-06;0.0020849918226270633
4.62850e-06;0.0020960736630502986
4.62875e-06;0.002100569467558826
4.62900e-06;0.002105065272067353
4.62925e-06;0.0021044092463073233
4.62950e-06;0.002097507214706848
4.62975e-06;0.0020906051831063727
4.63000e-06;0.002079021882664631
4.63025e-06;0.0020617630783731442
4.63050e-06;0.0020445042740816575
4.63075e-06;0.0020222238647830374
4.63100e-06;0.0019938553329015164
4.63125e-06;0.001965486801019995
4.63150e-06;0.0019371182691383779
4.63175e-06;0.0019087497372568566
4.63200e-06;0.0018803812053753354
4.63225e-06;0.001848228151466747
4.63250e-06;0.001811486796808789
4.63275e-06;0.0017747454421507066
4.63300e-06;0.0017380040874927487
4.63325e-06;0.0017012627328347907
4.63350e-06;0.0016645213781767082
4.63375e-06;0.0016280366272148296
4.63400e-06;0.0015918629789292236
4.63425e-06;0.001555689330643495
4.63450e-06;0.001519515682357889
4.63475e-06;0.001483342034072283
4.63500e-06;0.0014471683857865544
4.63525e-06;0.0014199190491282333
4.63550e-06;0.0013931196705502832
4.63575e-06;0.001366320291972242
4.63600e-06;0.001339520913394292
4.63625e-06;0.0013127215348163418
4.63650e-06;0.0012913605492128576
4.63675e-06;0.00127659299400336
4.63700e-06;0.0012618254387938123
4.63725e-06;0.0012506229196109703
4.63750e-06;0.0012437425994680157
4.63775e-06;0.0012397849677822231
4.63800e-06;0.001239370762067163
4.63825e-06;0.0012419412572562312
4.63850e-06;0.0012481303614258594
4.63875e-06;0.0012578691278674742
4.63900e-06;0.0012719114544270972
4.63925e-06;0.001285953780986768
4.63950e-06;0.0013038626989384464
4.63975e-06;0.001326459417371449
4.64000e-06;0.0013490561358045282
4.64025e-06;0.0013750621268545655
4.64050e-06;0.0014052014715989498
4.64075e-06;0.0014353408163434362
4.64100e-06;0.0014691489896912742
4.64125e-06;0.0015074051987246347
4.64150e-06;0.0015456614077578657
4.64175e-06;0.0015839176167910967
4.64200e-06;0.0016221738258244572
4.64225e-06;0.0016604300348576882
4.64250e-06;0.0017007150445434809
4.64275e-06;0.0017434597433226623
4.64300e-06;0.0017862044421016988
4.64325e-06;0.0018289491408807353
4.64350e-06;0.001871693839659917
4.64375e-06;0.0019144385384389534
4.64400e-06;0.0019531933338050194
4.64425e-06;0.001987110826947682
4.64450e-06;0.00202102832009023
4.64475e-06;0.002054945813232778
4.64500e-06;0.002088863306375441
4.64525e-06;0.0021227807995179886
4.64550e-06;0.0021566982926606512
