Time(s);Current(A)
3.50000e-06;-0.0020000461859733497
3.50025e-06;-0.002045805383150612
3.50050e-06;-0.0020918788342750064
3.50075e-06;-0.0021380099805749886
3.50100e-06;-0.0021839100366660637
3.50125e-06;-0.00222920704367033
3.50150e-06;-0.0022734793515464687
3.50175e-06;-0.002316345171534713
3.50200e-06;-0.002357475411488286
3.50225e-06;-0.0023965560240647166
3.50250e-06;-0.002433273006244207
3.50275e-06;-0.002467312163372011
3.50300e-06;-0.002498352310912447
3.50325e-06;-0.002526082287805515
3.50350e-06;-0.002550270955348865
3.50375e-06;-0.0025707996333336207
3.50400e-06;-0.002587611521006393
3.50425e-06;-0.0025985708764749166
3.50450e-06;-0.0026060554503458096
3.50475e-06;-0.002613540024216715
3.50500e-06;-0.0026146418750429864
3.50525e-06;-0.0026103985365623994
3.50550e-06;-0.0026061551980818055
3.50575e-06;-0.002595714181586845
3.50600e-06;-0.002580082941104704
3.50625e-06;-0.00256445170062259
3.50650e-06;-0.0025440848532793992
3.50675e-06;-0.0025197521883724206
3.50700e-06;-0.002491942548043464
3.50725e-06;-0.002461221126689945
3.50750e-06;-0.0024273663155794808
3.50775e-06;-0.002390887458069689
3.50800e-06;-0.002351751973135621
3.50825e-06;-0.002310391704766304
3.50850e-06;-0.0022668738096545808
3.50875e-06;-0.002221549017500524
3.50900e-06;-0.002174564142072148
3.50925e-06;-0.002126189035655505
3.50950e-06;-0.0020769007630595843
3.50975e-06;-0.002026444304465402
3.51000e-06;-0.0019754069333312117
3.51025e-06;-0.001924083793394603
3.51050e-06;-0.0018727701566710975
3.51075e-06;-0.0018217611993584725
3.51100e-06;-0.001771350946927677
3.51125e-06;-0.0017218350143857772
3.51150e-06;-0.0016735212025508945
3.51175e-06;-0.0016267346921483225
3.51200e-06;-0.0015818101622385812
3.51225e-06;-0.0015390840634007406
3.51250e-06;-0.0014988927622586947
3.51275e-06;-0.0014615746837611757
3.51300e-06;-0.001427646559474837
3.51325e-06;-0.0013980168763280186
3.51350e-06;-0.0013736415127943743
3.51375e-06;-0.0013549917062356956
3.51400e-06;-0.0013421171940146488
3.51425e-06;-0.0013349627628083582
3.51450e-06;-0.0013334730844422001
3.51475e-06;-0.001337593969606103
3.51500e-06;-0.0013490614009861984
3.51525e-06;-0.0013645489461561013
3.51550e-06;-0.0013852075094387948
3.51575e-06;-0.0014136043767336028
3.51600e-06;-0.0014480990231306992
3.51625e-06;-0.0014883906092770405
3.51650e-06;-0.001534178413798427
3.51675e-06;-0.0015851623267306588
3.51700e-06;-0.0016411122405558716
3.51725e-06;-0.001701951952751781
3.51750e-06;-0.0017676235745909
3.51775e-06;-0.001837879017830357
3.51800e-06;-0.0019123050763341569
3.51825e-06;-0.00199044726468614
3.51850e-06;-0.0020718509707555307
3.51875e-06;-0.0021560623632949608
3.51900e-06;-0.002242671309999505
3.51925e-06;-0.002331363841289684
3.51950e-06;-0.002421837998461648
3.51975e-06;-0.0025136723634293975
3.52000e-06;-0.002606341992488231
3.52025e-06;-0.0026992966007106374
3.52050e-06;-0.0027919855024286983
3.52075e-06;-0.0028838584745084182
3.52100e-06;-0.002974392900050225
3.52125e-06;-0.003063126419675276
3.52150e-06;-0.0031496042209868355
3.52175e-06;-0.003233296588919938
3.52200e-06;-0.0033136092124156228
3.52225e-06;-0.003389931568330425
3.52250e-06;-0.003460161472507898
3.52275e-06;-0.0035269185582410137
3.52300e-06;-0.003589234499890843
3.52325e-06;-0.0036455276826186838
3.52350e-06;-0.00369733297123671
3.52375e-06;-0.003746995398282115
3.52400e-06;-0.0037939728139131895
3.52425e-06;-0.003836681470887184
3.52450e-06;-0.00387550565082711
3.52475e-06;-0.00391013113222602
3.52500e-06;-0.003940472740513147
3.52525e-06;-0.003967017673058225
3.52550e-06;-0.003990535118832546
3.52575e-06;-0.004011425159772249
3.52600e-06;-0.004029669263659549
3.52625e-06;-0.004045133956742075
3.52650e-06;-0.00405768563542603
3.52675e-06;-0.004067193148011146
3.52700e-06;-0.004073668453752728
3.52725e-06;-0.004077482441441039
3.52750e-06;-0.004079182065949938
3.52775e-06;-0.004079082713232384
3.52800e-06;-0.004077238464043182
3.52825e-06;-0.004073630821772295
3.52850e-06;-0.004067750224674868
3.52875e-06;-0.0040606426036160406
3.52900e-06;-0.004052140745761137
3.52925e-06;-0.0040417989433663044
3.52950e-06;-0.004030436648929344
3.52975e-06;-0.00401831670698255
3.53000e-06;-0.004005380282841026
3.53025e-06;-0.0039920227888146035
3.53050e-06;-0.003978092292989408
3.53075e-06;-0.003963681938792407
3.53100e-06;-0.003948976847270317
3.53125e-06;-0.003934024928996153
3.53150e-06;-0.003919256239514784
3.53175e-06;-0.003905245252329638
3.53200e-06;-0.003891740298895568
3.53225e-06;-0.0038782353454614982
3.53250e-06;-0.003865753715120452
3.53275e-06;-0.0038541290631594234
3.53300e-06;-0.0038431029459167674
3.53325e-06;-0.003832541449085345
3.53350e-06;-0.0038213817315272056
3.53375e-06;-0.0038097467186025344
3.53400e-06;-0.0037973117164350036
3.53425e-06;-0.0037842067660467534
3.53450e-06;-0.0037711018156584807
3.53475e-06;-0.003757524516817047
3.53500e-06;-0.003743551651399471
3.53525e-06;-0.00372864300131052
3.53550e-06;-0.003712950681589542
3.53575e-06;-0.0036971521511727267
3.53600e-06;-0.003679058695589894
3.53625e-06;-0.0036609652400070307
3.53650e-06;-0.003641821171307436
3.53675e-06;-0.0036217972702919546
3.53700e-06;-0.0036017733692764397
3.53725e-06;-0.0035816442898110724
3.53750e-06;-0.003559242589216509
3.53775e-06;-0.003536840888621908
3.53800e-06;-0.0035144391880273075
3.53825e-06;-0.003491134932062619
3.53850e-06;-0.0034670748342291854
3.53875e-06;-0.003443014736395711
3.53900e-06;-0.003418643597338144
3.53925e-06;-0.0033940119778847555
3.53950e-06;-0.0033693803584313254
3.53975e-06;-0.0033446150976914986
3.54000e-06;-0.0033197379195192282
3.54025e-06;-0.003294860741347
3.54050e-06;-0.003270363663660279
3.54075e-06;-0.0032461848998087558
3.54100e-06;-0.0032226134773153912
3.54125e-06;-0.003199550670738901
3.54150e-06;-0.0031774421913510413
3.54175e-06;-0.003156132909962159
3.54200e-06;-0.00313482362857324
3.54225e-06;-0.0031148970107463167
3.54250e-06;-0.0030961282997307347
3.54275e-06;-0.0030784357727657715
3.54300e-06;-0.0030622707141867963
3.54325e-06;-0.003046818000088417
3.54350e-06;-0.003031230136789059
3.54375e-06;-0.0030153973037746304
3.54400e-06;-0.0029992709372204424
3.54425e-06;-0.0029828987520199896
3.54450e-06;-0.0029665489952402585
3.54475e-06;-0.0029502180210637325
3.54500e-06;-0.0029338717778211406
3.54525e-06;-0.002917512747552082
3.54550e-06;-0.002900259304811431
3.54575e-06;-0.0028822568394441138
3.54600e-06;-0.0028642543740768273
3.54625e-06;-0.002845421835393921
3.54650e-06;-0.0028258941546876882
3.54675e-06;-0.0028063664739814555
3.54700e-06;-0.002786838793275256
3.54725e-06;-0.0027664475233366375
3.54750e-06;-0.0027453330435862427
3.54775e-06;-0.002724218563835884
3.54800e-06;-0.002703104084085489
3.54825e-06;-0.0026813635937454534
3.54850e-06;-0.0026590988530051938
3.54875e-06;-0.0026368341122649723
3.54900e-06;-0.0026145130681635366
3.54925e-06;-0.0025921448730072804
3.54950e-06;-0.002569776677851062
3.54975e-06;-0.0025474011332688156
3.55000e-06;-0.0025250194339352275
3.55025e-06;-0.002502637734601677
3.55050e-06;-0.002480840230158126
3.55075e-06;-0.0024595319577019963
3.55100e-06;-0.0024382236852458668
3.55125e-06;-0.002417859560600992
3.55150e-06;-0.0023982861092707274
3.55175e-06;-0.002378712657940463
3.55200e-06;-0.0023601919907642395
3.55225e-06;-0.002342552974031666
3.55250e-06;-0.0023257633228578865
3.55275e-06;-0.002310743033843783
3.55300e-06;-0.0022966088167901554
3.55325e-06;-0.002284386147422189
3.55350e-06;-0.0022737642970433775
3.55375e-06;-0.002265385732233732
3.55400e-06;-0.0022588857991548412
3.55425e-06;-0.0022551880670440227
3.55450e-06;-0.0022538370284291153
3.55475e-06;-0.0022524859898142057
3.55500e-06;-0.002254302232791508
3.55525e-06;-0.0022587709047690295
3.55550e-06;-0.0022634841678426127
3.55575e-06;-0.002273482381342407
3.55600e-06;-0.002283480594842202
3.55625e-06;-0.0022954517490775227
3.55650e-06;-0.002310120908331656
3.55675e-06;-0.0023266589057635238
3.55700e-06;-0.0023449873841045817
3.55725e-06;-0.0023650674280725954
3.55750e-06;-0.002386859904106904
3.55775e-06;-0.0024102694186075822
3.55800e-06;-0.0024351541234661237
3.55825e-06;-0.002461360689404848
3.55850e-06;-0.0024887358077437874
3.55875e-06;-0.00251712640263361
3.55900e-06;-0.0025463907819089984
3.55925e-06;-0.002576412156901737
3.55950e-06;-0.002607073506863671
3.55975e-06;-0.0026382228259491497
3.56000e-06;-0.0026696790556014947
3.56025e-06;-0.0027012536029992927
3.56050e-06;-0.0027327578753211313
3.56075e-06;-0.0027640036598884812
3.56100e-06;-0.002794810031655127
3.56125e-06;-0.002825011532259372
3.56150e-06;-0.002854442531760379
3.56175e-06;-0.002882915423656597
3.56200e-06;-0.0029102243981678206
3.56225e-06;-0.0029361592298206263
3.56250e-06;-0.002959995952412214
3.56275e-06;-0.00298263663703176
3.56300e-06;-0.003003772970179729
3.56325e-06;-0.003022943817788568
3.56350e-06;-0.0030410690524547176
3.56375e-06;-0.0030583824596203007
3.56400e-06;-0.0030748362382455856
3.56425e-06;-0.0030903062895975618
3.56450e-06;-0.003104668388228891
3.56475e-06;-0.003117799469718253
3.56500e-06;-0.003129670792489942
3.56525e-06;-0.003140487575157065
3.56550e-06;-0.0031505640180867667
3.56575e-06;-0.003160054108479133
3.56600e-06;-0.0031687420034474095
3.56625e-06;-0.003176975826329585
3.56650e-06;-0.003184359460010419
3.56675e-06;-0.0031910311056889988
3.56700e-06;-0.003196867767875195
3.56725e-06;-0.0032020051760274088
3.56750e-06;-0.003206661513562919
3.56775e-06;-0.00321091498017651
3.56800e-06;-0.0032145962686339663
3.56825e-06;-0.003217798388476133
3.56850e-06;-0.0032210005083183045
3.56875e-06;-0.003223533576966947
3.56900e-06;-0.003225506351010623
3.56925e-06;-0.0032270494793004796
3.56950e-06;-0.003228232802241743
3.56975e-06;-0.0032294161251830065
3.57000e-06;-0.003230260529767144
3.57025e-06;-0.0032308211083468485
3.57050e-06;-0.0032313816869265527
3.57075e-06;-0.0032315794403956263
3.57100e-06;-0.0032314733472323344
3.57125e-06;-0.003231367254069043
3.57150e-06;-0.0032311490610403715
3.57175e-06;-0.0032308369903676607
3.57200e-06;-0.0032305249196949498
3.57225e-06;-0.0032301959115519988
3.57250e-06;-0.0032298423286154752
3.57275e-06;-0.003229464965139247
3.57300e-06;-0.00322877276034587
3.57325e-06;-0.003226800575721973
3.57350e-06;-0.0032223618139084246
3.57375e-06;-0.003214879758110327
3.57400e-06;-0.0032043718997706383
3.57425e-06;-0.0031903033207877278
3.57450e-06;-0.003174377704761803
3.57475e-06;-0.0031564204793067658
3.57500e-06;-0.0031353528272090652
3.57525e-06;-0.003111337243622831
3.57550e-06;-0.003082805494270286
3.57575e-06;-0.003051731567322328
3.57600e-06;-0.0030169680384562842
3.57625e-06;-0.0029791146652416818
3.57650e-06;-0.002937507298155479
3.57675e-06;-0.0028927561619022774
3.57700e-06;-0.002848005025649
3.57725e-06;-0.0028004230510093263
3.57750e-06;-0.002748209628432402
3.57775e-06;-0.0026941029300609322
3.57800e-06;-0.0026375220727729996
3.57825e-06;-0.002578869239668866
3.57850e-06;-0.002518506397879904
3.57875e-06;-0.0024567115152396616
3.57900e-06;-0.002393775317428975
3.57925e-06;-0.00232988332918145
3.57950e-06;-0.0022652444871962157
3.57975e-06;-0.0021996678445303417
3.58000e-06;-0.0021337315481098334
3.58025e-06;-0.002067829441267126
3.58050e-06;-0.0020023558535941168
3.58075e-06;-0.00193770435596075
3.58100e-06;-0.001874224280977165
3.58125e-06;-0.001812161384181465
3.58150e-06;-0.001751727375008821
3.58175e-06;-0.0016932277175691337
3.58200e-06;-0.0016370594507160948
3.58225e-06;-0.0015836433952403706
3.58250e-06;-0.0015334002864139634
3.58275e-06;-0.0014867512190538357
3.58300e-06;-0.001444140625558538
3.58325e-06;-0.0014060320511418284
3.58350e-06;-0.00137279315953253
3.58375e-06;-0.0013446107587536935
3.58400e-06;-0.0013215599240124895
3.58425e-06;-0.0013036924292303851
3.58450e-06;-0.0012910597933367125
3.58475e-06;-0.0012851803056608817
3.58500e-06;-0.0012829492060180666
3.58525e-06;-0.001286639019366352
3.58550e-06;-0.0012952872807942386
3.58575e-06;-0.0013082923579770796
3.58600e-06;-0.0013277260191632305
3.58625e-06;-0.0013521699918034383
3.58650e-06;-0.0013814447104132297
3.58675e-06;-0.0014153707892805884
3.58700e-06;-0.0014537777554495955
3.58725e-06;-0.0014965027644829837
3.58750e-06;-0.001543345296617983
3.58775e-06;-0.0015940340119440521
3.58800e-06;-0.0016482536827875259
3.58825e-06;-0.0017056799333024298
3.58850e-06;-0.0017659882933888896
3.58875e-06;-0.001828854460857258
3.58900e-06;-0.0018939599005791618
3.58925e-06;-0.001960990830502996
3.58950e-06;-0.0020296098054742974
3.58975e-06;-0.0020994351013209813
3.59000e-06;-0.0021700575235238354
3.59025e-06;-0.002241062061759346
3.59050e-06;-0.0023120338118207636
3.59075e-06;-0.0023825579962152175
3.59100e-06;-0.0024522234915651136
3.59125e-06;-0.0025206220190377706
3.59150e-06;-0.0025873306215467157
3.59175e-06;-0.002651898806195658
3.59200e-06;-0.0027138585515767005
3.59225e-06;-0.0027727385435465726
3.59250e-06;-0.0028280673649724933
3.59275e-06;-0.002879374715424828
3.59300e-06;-0.002925072913951967
3.59325e-06;-0.0029676902349663713
3.59350e-06;-0.003005549056081369
3.59375e-06;-0.003039422887934582
3.59400e-06;-0.0030696581203520945
3.59425e-06;-0.0030943237198734833
3.59450e-06;-0.0031116114610687667
3.59475e-06;-0.0031244897120203427
3.59500e-06;-0.003137367962971918
3.59525e-06;-0.0031450028208611486
3.59550e-06;-0.0031458135772434504
3.59575e-06;-0.0031422275001253244
3.59600e-06;-0.0031343490519522817
3.59625e-06;-0.003121141231186069
3.59650e-06;-0.0031050950088867177
3.59675e-06;-0.003084692287618143
3.59700e-06;-0.0030606412313747043
3.59725e-06;-0.0030326980838559668
3.59750e-06;-0.003001495517977337
3.59775e-06;-0.0029669982551135377
3.59800e-06;-0.0029297418596693266
3.59825e-06;-0.0028896601801463783
3.59850e-06;-0.002847212476255876
3.59875e-06;-0.0028024117522636905
3.59900e-06;-0.0027556404997358575
3.59925e-06;-0.002707159682023026
3.59950e-06;-0.0026572471948663368
3.59975e-06;-0.0026063516586265927
3.60000e-06;-0.002554632871336437
3.60025e-06;-0.002502577467664564
3.60050e-06;-0.0024502401657696305
3.60075e-06;-0.002398050612679833
3.60100e-06;-0.0023463119674860585
3.60125e-06;-0.002295379007799561
3.60150e-06;-0.0022456339847053254
3.60175e-06;-0.0021974497356589038
3.60200e-06;-0.002151178699499477
3.60225e-06;-0.002107166629732944
3.60250e-06;-0.002065759533293463
3.60275e-06;-0.002027303756062466
3.60300e-06;-0.0019921824971677097
3.60325e-06;-0.0019608369096982257
3.60350e-06;-0.0019336432224566563
3.60375e-06;-0.0019119928970982606
3.60400e-06;-0.0018933474699084933
3.60425e-06;-0.0018795438255530146
3.60450e-06;-0.0018697949154649143
3.60475e-06;-0.001864968885325487
3.60500e-06;-0.001864265503951008
3.60525e-06;-0.0018673638665977423
3.60550e-06;-0.0018762021296398243
3.60575e-06;-0.0018896688065079138
3.60600e-06;-0.0019076169337201045
3.60625e-06;-0.0019298813503950693
3.60650e-06;-0.0019562968837889385
3.60675e-06;-0.001986698826819255
3.60700e-06;-0.0020209366232027664
3.60725e-06;-0.0020588824769565703
3.60750e-06;-0.00210038315758109
3.60775e-06;-0.0021452122621263506
3.60800e-06;-0.00219309290071049
3.60825e-06;-0.0022437365755683435
3.60850e-06;-0.0022968548301301847
3.60875e-06;-0.0023521596734876527
3.60900e-06;-0.0024093719435334935
3.60925e-06;-0.0024682267900736194
3.60950e-06;-0.002528443383868468
3.60975e-06;-0.0025896951672647424
3.61000e-06;-0.0026516236647554023
3.61025e-06;-0.0027138633734254862
3.61050e-06;-0.002776049214825744
3.61075e-06;-0.0028378158570783406
3.61100e-06;-0.0028988038383565254
3.61125e-06;-0.0029586625918477886
3.61150e-06;-0.003017031429236376
3.61175e-06;-0.0030735210334192874
3.61200e-06;-0.0031277225013742775
3.61225e-06;-0.0031792224113966947
3.61250e-06;-0.0032276072768614252
3.61275e-06;-0.0032724678782316105
3.61300e-06;-0.0033137505305716125
3.61325e-06;-0.0033522762907958518
3.61350e-06;-0.003389254614653654
3.61375e-06;-0.0034252652740918536
3.61400e-06;-0.0034602108001747277
3.61425e-06;-0.0034938109709238387
3.61450e-06;-0.0035252333642953318
3.61475e-06;-0.003555394245874254
3.61500e-06;-0.003583969425438963
3.61525e-06;-0.0036106173059824056
3.61550e-06;-0.003636437853770803
3.61575e-06;-0.0036619858946376114
3.61600e-06;-0.0036871311109317444
3.61625e-06;-0.003711527542041301
3.61650e-06;-0.0037347486746268027
3.61675e-06;-0.00375727410807774
3.61700e-06;-0.0037788960689890488
3.61725e-06;-0.003799430062210043
3.61750e-06;-0.0038195260774520822
3.61775e-06;-0.003839487696270425
3.61800e-06;-0.00385921685781332
3.61825e-06;-0.0038784913311929424
3.61850e-06;-0.0038970010916926654
3.61875e-06;-0.003915052800741115
3.61900e-06;-0.0039324884885060625
3.61925e-06;-0.003949152328613175
3.61950e-06;-0.003965404646228044
3.61975e-06;-0.003981491846720664
3.62000e-06;-0.003997313961020708
3.62025e-06;-0.004012655582754796
3.62050e-06;-0.004027080335178753
3.62075e-06;-0.0040409185468740835
3.62100e-06;-0.004054756758569437
3.62125e-06;-0.004067669280494889
3.62150e-06;-0.004079806586728136
3.62175e-06;-0.004091943892961363
3.62200e-06;-0.004103535905576733
3.62225e-06;-0.0041143212792059845
3.62250e-06;-0.004124413395757941
3.62275e-06;-0.0041337220817256074
3.62300e-06;-0.004142255924573122
3.62325e-06;-0.004150265217158267
3.62350e-06;-0.004158102410287088
3.62375e-06;-0.004165937142682786
3.62400e-06;-0.004173746439915307
3.62425e-06;-0.004181455837374345
3.62450e-06;-0.004188914759513571
3.62475e-06;-0.004196214931514695
3.62500e-06;-0.0042033075455887555
3.62525e-06;-0.0042102167107132445
3.62550e-06;-0.004217258463798853
3.62575e-06;-0.00422441800609121
3.62600e-06;-0.004231700714625979
3.62625e-06;-0.004239086568303967
3.62650e-06;-0.004246457723129978
3.62675e-06;-0.00425381656845329
3.62700e-06;-0.004261132077506132
3.62725e-06;-0.004268411294749326
3.62750e-06;-0.004275828250372681
3.62775e-06;-0.004283360554525514
3.62800e-06;-0.004290985866931384
3.62825e-06;-0.004298689068776672
3.62850e-06;-0.004306336389641589
3.62875e-06;-0.004313936913173026
3.62900e-06;-0.004321537436704463
3.62925e-06;-0.004329068351879401
3.62950e-06;-0.004336540973777257
3.62975e-06;-0.004344013595675113
3.63000e-06;-0.004351412512122685
3.63025e-06;-0.0043587497041961375
3.63050e-06;-0.004365898218764491
3.63075e-06;-0.004372888726009555
3.63100e-06;-0.004379619342345957
3.63125e-06;-0.004386132313940886
3.63150e-06;-0.004392396418766147
3.63175e-06;-0.004398452110976941
3.63200e-06;-0.004404276296269097
3.63225e-06;-0.004409715775246726
3.63250e-06;-0.004414778254712847
3.63275e-06;-0.0044194112510378605
3.63300e-06;-0.0044233650120783004
3.63325e-06;-0.0044262421628327
3.63350e-06;-0.004427186393572502
3.63375e-06;-0.006901771255489766
3.63400e-06;-0.012665578810211077
3.63425e-06;-0.014709180059752651
3.63450e-06;-0.013617947948729834
3.63475e-06;-0.01101183169012224
3.63500e-06;-0.007133628049955817
3.63525e-06;-0.004781868680711496
3.63550e-06;-0.004694708876472119
3.63575e-06;-0.006356034517933865
3.63600e-06;-0.008997968960249743
3.63625e-06;-0.010546964525891498
3.63650e-06;-0.01014665497191905
3.63675e-06;-0.008382180533971257
3.63700e-06;-0.006114736858868368
3.63725e-06;-0.004548347036898738
3.63750e-06;-0.004324150346023924
3.63775e-06;-0.005327836426225804
3.63800e-06;-0.007086427030537679
3.63825e-06;-0.00819522366313019
3.63850e-06;-0.007903232621080261
3.63875e-06;-0.0065619329976103645
3.63900e-06;-0.0050614963374728495
3.63925e-06;-0.0036433597645063502
3.63950e-06;-0.0031448101929700627
3.63975e-06;-0.0036740740929876656
3.64000e-06;-0.004579237008719221
3.64025e-06;-0.005544653779693499
3.64050e-06;-0.005669510093538994
3.64075e-06;-0.004888378602484248
3.64100e-06;-0.003928473269787914
3.64125e-06;-0.003022032391184878
3.64150e-06;-0.002693628920032185
3.64175e-06;-0.0030111277099581905
3.64200e-06;-0.003566259382474537
3.64225e-06;-0.00416142236503385
3.64250e-06;-0.004232502534921051
3.64275e-06;-0.0037386945816804476
3.64300e-06;-0.003135459123388034
3.64325e-06;-0.0025672113098212713
3.64350e-06;-0.00236086153939918
3.64375e-06;-0.002558089476515713
3.64400e-06;-0.00290312427124615
3.64425e-06;-0.00327223634351991
3.64450e-06;-0.003312135484611153
3.64475e-06;-0.0029973504472659658
