Time(s);Current(A)
6.50000e-06;0.004161975940277308
6.50025e-06;0.004196323606998897
6.50050e-06;0.004230671273720602
6.50075e-06;0.004265018940442191
6.50100e-06;0.004312290647059719
6.50125e-06;0.004362046904854685
6.50150e-06;0.004411803162649482
6.50175e-06;0.00446155942044428
6.50200e-06;0.004511315678239246
6.50225e-06;0.0045610719360340436
6.50250e-06;0.004610828193828841
6.50275e-06;0.004660584451623807
6.50300e-06;0.0047050430349131886
6.50325e-06;0.004748483179422413
6.50350e-06;0.00479192332393149
6.50375e-06;0.004835363468440567
6.50400e-06;0.004878803612949791
6.50425e-06;0.004922243757458868
6.50450e-06;0.004965683901967945
6.50475e-06;0.0050091240464771696
6.50500e-06;0.005025336477719367
6.50525e-06;0.005036314582266032
6.50550e-06;0.005047292686812736
6.50575e-06;0.005058270791359402
6.50600e-06;0.005069248895906068
6.50625e-06;0.005080227000452771
6.50650e-06;0.005091205104999438
6.50675e-06;0.005102183209546104
6.50700e-06;0.005113161314092807
6.50725e-06;0.0051241394186394736
6.50750e-06;0.005098051358036052
6.50775e-06;0.0050648376010575405
6.50800e-06;0.005031623844079029
6.50825e-06;0.004998410087100404
6.50850e-06;0.004965196330121892
6.50875e-06;0.0049319825731433805
6.50900e-06;0.004898768816164756
6.50925e-06;0.004865555059186244
6.50950e-06;0.004832341302207732
6.50975e-06;0.004799127545229109
6.51000e-06;0.00474334188348634
6.51025e-06;0.0046832169398326115
6.51050e-06;0.004623091996178679
6.51075e-06;0.00456296705252495
6.51100e-06;0.004502842108871221
6.51125e-06;0.004442717165217288
6.51150e-06;0.004382592221563559
6.51175e-06;0.004321032153202129
6.51200e-06;0.004256670747332789
6.51225e-06;0.0041923093414634495
6.51250e-06;0.004127947935593892
6.51275e-06;0.0040635865297245525
6.51300e-06;0.003999225123855213
6.51325e-06;0.0039348637179856556
6.51350e-06;0.003870502312116316
6.51375e-06;0.0038245628543991934
6.51400e-06;0.003782164880097104
6.51425e-06;0.0037397669057951583
6.51450e-06;0.0036973689314932128
6.51475e-06;0.0036549709571911232
6.51500e-06;0.0036125729828891777
6.51525e-06;0.003570175008587232
6.51550e-06;0.0035277770342851426
6.51575e-06;0.003485379059983197
6.51600e-06;0.0034429810856811075
6.51625e-06;0.003400583111379162
6.51650e-06;0.0033681676028195166
6.51675e-06;0.0033552376870855153
6.51700e-06;0.003342307771351558
6.51725e-06;0.0033293778556176003
6.51750e-06;0.003316447939883599
6.51775e-06;0.0033035180241496416
6.51800e-06;0.003290588108415684
6.51825e-06;0.003277658192681683
6.51850e-06;0.0032647282769477253
6.51875e-06;0.003251798361213768
6.51900e-06;0.0032388684454797666
6.51925e-06;0.003225938529745809
6.51950e-06;0.0032274762238170837
6.51975e-06;0.0032317952089738135
6.52000e-06;0.003236114194130528
6.52025e-06;0.003240433179287258
6.52050e-06;0.003244752164443973
6.52075e-06;0.0032490711496006874
6.52100e-06;0.003253390134757417
6.52125e-06;0.003257709119914132
6.52150e-06;0.003262028105070847
6.52175e-06;0.0032663470902275765
6.52200e-06;0.003274905542947307
6.52225e-06;0.003284279001980975
6.52250e-06;0.003293652461014675
6.52275e-06;0.003303025920048343
6.52300e-06;0.003312399379082011
6.52325e-06;0.0033217728381157107
6.52350e-06;0.003331146297149379
6.52375e-06;0.003340519756183047
6.52400e-06;0.003349893215216747
6.52425e-06;0.0033592666742504147
6.52450e-06;0.0033699145109947776
6.52475e-06;0.003380807337437695
6.52500e-06;0.0033917001638806123
6.52525e-06;0.0034025929903235665
6.52550e-06;0.0034134858167664834
6.52575e-06;0.0034243786432094007
6.52600e-06;0.003435271469652355
6.52625e-06;0.003446164296095272
6.52650e-06;0.003457057122538189
6.52675e-06;0.0034679499489811434
6.52700e-06;0.0034788427754240603
6.52725e-06;0.0034897356018669776
6.52750e-06;0.003512027126950013
6.52775e-06;0.0035365099676221484
6.52800e-06;0.0035609928082942837
6.52825e-06;0.0035854756489665024
6.52850e-06;0.0036099584896386377
6.52875e-06;0.003634441330310856
6.52900e-06;0.0036589241709829913
6.52925e-06;0.0036834070116551266
6.52950e-06;0.003707889852327345
6.52975e-06;0.00373237269299948
6.53000e-06;0.0037568555336716155
6.53025e-06;0.003781338374343834
6.53050e-06;0.0038122544565412256
6.53075e-06;0.0038444072818868214
6.53100e-06;0.003876560107232526
6.53125e-06;0.0039087129325781214
6.53150e-06;0.003940865757923718
6.53175e-06;0.0039730185832694215
6.53200e-06;0.004005171408615018
6.53225e-06;0.004037324233960613
6.53250e-06;0.004069477059306318
6.53275e-06;0.004097501496888077
6.53300e-06;0.004124732282426922
6.53325e-06;0.004151963067965675
6.53350e-06;0.004179193853504427
6.53375e-06;0.0042064246390432726
6.53400e-06;0.004233655424582026
6.53425e-06;0.004260886210120779
6.53450e-06;0.004288116995659624
6.53475e-06;0.004315347781198377
6.53500e-06;0.0043219782002733576
6.53525e-06;0.004324648351111767
6.53550e-06;0.0043273185019501665
6.53575e-06;0.004329988652788566
6.53600e-06;0.0043326588036269745
6.53625e-06;0.004335328954465374
6.53650e-06;0.004337999105303774
6.53675e-06;0.004340669256142183
6.53700e-06;0.004343339406980583
6.53725e-06;0.00433358450820082
6.53750e-06;0.004299576136998245
6.53775e-06;0.0042655677657956696
6.53800e-06;0.004231559394592979
6.53825e-06;0.004197551023390403
6.53850e-06;0.004163542652187828
6.53875e-06;0.004129534280985138
6.53900e-06;0.004095525909782563
6.53925e-06;0.004061517538579987
6.53950e-06;0.004027509167377296
6.53975e-06;0.003973170338736097
6.54000e-06;0.00391492312987473
6.54025e-06;0.003856675921013164
6.54050e-06;0.003798428712151796
6.54075e-06;0.003740181503290428
6.54100e-06;0.0036819342944288624
6.54125e-06;0.0036236870855674945
6.54150e-06;0.0035603091036711465
6.54175e-06;0.003495944768570581
6.54200e-06;0.003431580433470015
6.54225e-06;0.0033672160983692317
6.54250e-06;0.003302851763268666
6.54275e-06;0.0032384874281681003
6.54300e-06;0.0031741230930673165
6.54325e-06;0.0031213509528918854
6.54350e-06;0.0030708073265354294
6.54375e-06;0.003020263700178802
6.54400e-06;0.002969720073822346
6.54425e-06;0.00291917644746589
6.54450e-06;0.002868632821109263
6.54475e-06;0.002818089194752807
6.54500e-06;0.0027675455683963505
6.54525e-06;0.0027170019420397233
6.54550e-06;0.002691065251330089
6.54575e-06;0.0026698590621760943
6.54600e-06;0.0026486528730221715
6.54625e-06;0.0026274466838682483
6.54650e-06;0.0026062404947142536
6.54675e-06;0.002585034305560331
6.54700e-06;0.0025638281164064077
6.54725e-06;0.002542621927252413
6.54750e-06;0.0025214157380984903
6.54775e-06;0.002521968237575779
6.54800e-06;0.0025267036841656286
6.54825e-06;0.002531439130755462
6.54850e-06;0.0025361745773452957
6.54875e-06;0.0025409100239351455
6.54900e-06;0.002545645470524979
6.54925e-06;0.0025503809171148126
6.54950e-06;0.0025551163637046624
6.54975e-06;0.002565433618589124
6.55000e-06;0.002586646462438579
6.55025e-06;0.0026078593062879617
6.55050e-06;0.002629072150137344
6.55075e-06;0.002650284993986799
6.55100e-06;0.0026714978378361816
6.55125e-06;0.0026927106816855644
6.55150e-06;0.0027139235255350187
6.55175e-06;0.0027351363693844015
6.55200e-06;0.0027589548952639464
6.55225e-06;0.0027832743442601907
6.55250e-06;0.0028075937932563527
6.55275e-06;0.002831913242252514
6.55300e-06;0.0028562326912487585
6.55325e-06;0.0028805521402449205
6.55350e-06;0.002904871589241082
6.55375e-06;0.0029291910382373263
6.55400e-06;0.0029535104872334883
6.55425e-06;0.002977829936229732
6.55450e-06;0.0029988909606726336
6.55475e-06;0.0030135915992464254
6.55500e-06;0.003028292237820267
6.55525e-06;0.003042992876394059
6.55550e-06;0.0030576935149678507
6.55575e-06;0.0030723941535416924
6.55600e-06;0.003087094792115484
6.55625e-06;0.0031017954306892755
6.55650e-06;0.0031164960692631172
6.55675e-06;0.003131196707836909
6.55700e-06;0.003145897346410701
6.55725e-06;0.0031534387973401966
6.55750e-06;0.003159603947345348
6.55775e-06;0.0031657690973504993
6.55800e-06;0.0031719342473556715
6.55825e-06;0.0031780993973608224
6.55850e-06;0.0031842645473659946
6.55875e-06;0.003190429697371146
6.55900e-06;0.0031965948473762973
6.55925e-06;0.0032027599973814694
6.55950e-06;0.0032089251473866208
6.55975e-06;0.0032150902973917717
6.56000e-06;0.003221255447396944
6.56025e-06;0.003227420597402095
6.56050e-06;0.0032335857474072465
6.56075e-06;0.0032397508974124187
6.56100e-06;0.00324591604741757
6.56125e-06;0.003252081197422721
6.56150e-06;0.00325464274439888
6.56175e-06;0.003256511525320367
6.56200e-06;0.0032583803062418543
6.56225e-06;0.003260249087163348
6.56250e-06;0.003262117868084835
6.56275e-06;0.0032639866490063287
6.56300e-06;0.0032658554299278162
6.56325e-06;0.0032677242108493034
6.56350e-06;0.003269592991770797
6.56375e-06;0.003271461772692284
6.56400e-06;0.0032733305536137712
6.56425e-06;0.003275199334535265
6.56450e-06;0.003277068115456752
6.56475e-06;0.0032789368963782395
6.56500e-06;0.003280805677299733
6.56525e-06;0.0032826744582212203
6.56550e-06;0.0032845432391427074
6.56575e-06;0.0032908979502411463
6.56600e-06;0.003298115048268614
6.56625e-06;0.0033053321462960814
6.56650e-06;0.0033125492443235737
6.56675e-06;0.0033197663423510416
6.56700e-06;0.0033269834403785335
6.56725e-06;0.0033342005384060015
6.56750e-06;0.003341417636433469
6.56775e-06;0.0033486347344609613
6.56800e-06;0.003355851832488429
6.56825e-06;0.003363068930515897
6.56850e-06;0.003370286028543389
6.56875e-06;0.0033775031265708567
6.56900e-06;0.0033847202245983242
6.56925e-06;0.0033919373226258165
6.56950e-06;0.0034047834142273466
6.56975e-06;0.0034187116382495366
6.57000e-06;0.0034326398622717734
6.57025e-06;0.0034465680862939634
6.57050e-06;0.003460496310316153
6.57075e-06;0.00347442453433839
6.57100e-06;0.0034883527583605797
6.57125e-06;0.0035022809823828166
6.57150e-06;0.0035162092064050065
6.57175e-06;0.0035301374304271965
6.57200e-06;0.0035440656544494333
6.57225e-06;0.003557993878471623
6.57250e-06;0.003571922102493813
6.57275e-06;0.0035858503265160497
6.57300e-06;0.0035997785505382397
6.57325e-06;0.0036117759102873045
6.57350e-06;0.0036234020756475563
6.57375e-06;0.0036350282410077686
6.57400e-06;0.003646654406367981
6.57425e-06;0.0036582805717282328
6.57450e-06;0.003669906737088445
6.57475e-06;0.0036815329024486574
6.57500e-06;0.003693159067808909
6.57525e-06;0.003707939841863907
6.57550e-06;0.0037233270661302647
6.57575e-06;0.0037387142903965703
6.57600e-06;0.003754101514662876
6.57625e-06;0.003769488738929234
6.57650e-06;0.0037848759631955394
6.57675e-06;0.003800263187461845
6.57700e-06;0.0038156504117282026
6.57725e-06;0.0038443226174775425
6.57750e-06;0.003875548762750448
6.57775e-06;0.0039067749080234585
6.57800e-06;0.003938001053296364
6.57825e-06;0.003969227198569269
6.57850e-06;0.00400045334384228
6.57875e-06;0.004031679489115185
6.57900e-06;0.00406290563438809
6.57925e-06;0.004094131779661101
6.57950e-06;0.004125357924934007
6.57975e-06;0.004156584070207018
6.58000e-06;0.004197762871773827
6.58025e-06;0.004240854997969907
6.58050e-06;0.004283947124166135
6.58075e-06;0.004327039250362215
6.58100e-06;0.004370131376558296
6.58125e-06;0.004413223502754523
6.58150e-06;0.004456315628950604
6.58175e-06;0.004499407755146685
6.58200e-06;0.004542499881342912
6.58225e-06;0.004585592007538993
6.58250e-06;0.004628684133735074
6.58275e-06;0.0046661081582425904
6.58300e-06;0.004702442532083757
6.58325e-06;0.004738776905924924
6.58350e-06;0.004775111279766213
6.58375e-06;0.00481144565360738
6.58400e-06;0.0048477800274486695
6.58425e-06;0.004884114401289837
6.58450e-06;0.004920448775131003
6.58475e-06;0.004956783148972293
6.58500e-06;0.0049842000811584
6.58525e-06;0.0049942103283261855
6.58550e-06;0.005004220575494006
6.58575e-06;0.005014230822661793
6.58600e-06;0.005024241069829578
6.58625e-06;0.005034251316997399
6.58650e-06;0.005044261564165185
6.58675e-06;0.005054271811332971
6.58700e-06;0.005064282058500792
6.58725e-06;0.0050742923056685775
6.58750e-06;0.005057021480715312
6.58775e-06;0.005034506071236225
6.58800e-06;0.005011990661757212
6.58825e-06;0.004989475252278125
6.58850e-06;0.004966959842799113
6.58875e-06;0.004944444433320101
6.58900e-06;0.004921929023841014
6.58925e-06;0.004899413614362001
6.58950e-06;0.00487689820488299
6.58975e-06;0.004847223815371848
6.59000e-06;0.004803575226165471
6.59025e-06;0.004759926636959093
6.59050e-06;0.004716278047752568
6.59075e-06;0.004672629458546192
6.59100e-06;0.004628980869339814
6.59125e-06;0.004585332280133289
6.59150e-06;0.004541683690926912
6.59175e-06;0.004498035101720536
6.59200e-06;0.004454386512514011
6.59225e-06;0.004409869988581033
6.59250e-06;0.004365186610610224
6.59275e-06;0.0043205032326395654
6.59300e-06;0.004275819854668907
6.59325e-06;0.004231136476698097
6.59350e-06;0.004186453098727438
6.59375e-06;0.00414176972075678
6.59400e-06;0.0040970863427859695
6.59425e-06;0.004057438129960743
6.59450e-06;0.00402761846853805
6.59475e-06;0.003997798807115255
6.59500e-06;0.003967979145692562
6.59525e-06;0.003938159484269868
6.59550e-06;0.003908339822847074
6.59575e-06;0.0038785201614243807
6.59600e-06;0.0038487005000016872
6.59625e-06;0.003818880838578893
6.59650e-06;0.0038022603926270823
6.59675e-06;0.0037881773983149867
6.59700e-06;0.0037740944040029387
6.59725e-06;0.0037600114096908908
6.59750e-06;0.003745928415378795
6.59775e-06;0.003731845421066747
6.59800e-06;0.003717762426754699
6.59825e-06;0.0037036794324426035
6.59850e-06;0.0036895964381305556
6.59875e-06;0.0036755134438185076
6.59900e-06;0.003661430449506412
6.59925e-06;0.003647347455194364
6.59950e-06;0.003633264460882316
6.59975e-06;0.0036191814665702204
6.60000e-06;0.0036134225802925413
6.60025e-06;0.0036092639422739587
6.60050e-06;0.0036051053042553617
6.60075e-06;0.0036009466662367796
6.60100e-06;0.003596788028218197
6.60125e-06;0.0035926293901996
6.60150e-06;0.003588470752181018
6.60175e-06;0.003584312114162421
6.60200e-06;0.0035801534761438383
6.60225e-06;0.003575994838125256
6.60250e-06;0.003571836200106659
6.60275e-06;0.0035676775620880766
6.60300e-06;0.003563518924069494
6.60325e-06;0.0035593602860508975
6.60350e-06;0.003555936186547943
6.60375e-06;0.0035526532966467703
6.60400e-06;0.0035493704067455865
6.60425e-06;0.003546087516844414
6.60450e-06;0.0035428046269432413
6.60475e-06;0.003539521737042058
6.60500e-06;0.0035362388471408854
6.60525e-06;0.003532955957239713
6.60550e-06;0.003529673067338529
6.60575e-06;0.0035263901774373564
6.60600e-06;0.003523107287536173
6.60625e-06;0.0035198243976350004
6.60650e-06;0.003516541507733828
6.60675e-06;0.003513258617832644
6.60700e-06;0.0035099757279314714
6.60725e-06;0.003506692838030299
6.60750e-06;0.0035034099481291154
6.60775e-06;0.003500127058227943
6.60800e-06;0.0034968441683267703
6.60825e-06;0.0034935612784255865
6.60850e-06;0.003490278388524414
6.60875e-06;0.003483237088573652
6.60900e-06;0.0034754732620635997
6.60925e-06;0.003467709435553573
6.60950e-06;0.003459945609043547
6.60975e-06;0.003452181782533494
6.61000e-06;0.003444417956023468
6.61025e-06;0.003436654129513415
6.61050e-06;0.003428890303003389
6.61075e-06;0.0034211264764933626
6.61100e-06;0.00341336264998331
6.61125e-06;0.0034055988234732836
6.61150e-06;0.0033978349969632574
6.61175e-06;0.0033900711704532046
6.61200e-06;0.0033823073439431784
6.61225e-06;0.0033745435174331517
6.61250e-06;0.0033667796909230994
6.61275e-06;0.0033590158644130727
6.61300e-06;0.0033512520379030465
6.61325e-06;0.0033434882113929938
6.61350e-06;0.0033357243848829675
6.61375e-06;0.0033279605583729412
6.61400e-06;0.0033234169356963984
6.61425e-06;0.0033194923734110554
6.61450e-06;0.0033155678111256993
6.61475e-06;0.0033116432488403563
6.61500e-06;0.0033077186865550132
6.61525e-06;0.003303794124269657
6.61550e-06;0.003299869561984314
6.61575e-06;0.0033021372916040687
6.61600e-06;0.003316492263152042
6.61625e-06;0.003330847234699967
6.61650e-06;0.003345202206247892
6.61675e-06;0.003359557177795865
6.61700e-06;0.0033739121493437897
6.61725e-06;0.0033882671208917145
6.61750e-06;0.003402622092439688
6.61775e-06;0.0034380393973233747
6.61800e-06;0.0034775057801494425
6.61825e-06;0.0035169721629756444
6.61850e-06;0.0035564385458017123
6.61875e-06;0.003595904928627914
6.61900e-06;0.003635371311453982
6.61925e-06;0.00367483769428005
6.61950e-06;0.003714304077106252
6.61975e-06;0.003759786012143453
6.62000e-06;0.003817010196418138
6.62025e-06;0.0038742343806930164
6.62050e-06;0.003931458564967702
6.62075e-06;0.003988682749242386
6.62100e-06;0.004045906933517265
6.62125e-06;0.00410313111779195
6.62150e-06;0.004160355302066635
6.62175e-06;0.004217579486341514
6.62200e-06;0.0042749397748464025
6.62225e-06;0.004332326228383795
6.62250e-06;0.00438971268192138
6.62275e-06;0.004447099135458771
6.62300e-06;0.004504485588996358
6.62325e-06;0.004561872042533749
6.62350e-06;0.00461925849607114
6.62375e-06;0.004676644949608726
6.62400e-06;0.004727558612252409
6.62425e-06;0.004765837504012162
6.62450e-06;0.004804116395772044
6.62475e-06;0.004842395287531796
6.62500e-06;0.004880674179291549
6.62525e-06;0.0049189530710514314
6.62550e-06;0.004957231962811184
6.62575e-06;0.0049955108545709365
6.62600e-06;0.005033789746330819
6.62625e-06;0.005056919004827741
6.62650e-06;0.005077135858279912
6.62675e-06;0.0050973527117321536
6.62700e-06;0.005117569565184326
6.62725e-06;0.0051377864186365665
6.62750e-06;0.005158003272088739
6.62775e-06;0.005178220125540912
6.62800e-06;0.005187862249320959
6.62825e-06;0.005195605236851811
6.62850e-06;0.005203348224382661
6.62875e-06;0.005211091211913538
6.62900e-06;0.005218834199444389
6.62925e-06;0.00522657718697524
6.62950e-06;0.005234320174506117
6.62975e-06;0.005239430877077324
6.63000e-06;-7.300385868182126e-05
6.63025e-06;-0.016580284135592427
6.63050e-06;-0.01222196163179868
6.63075e-06;-0.008614653436408496
6.63100e-06;-0.002512922506287706
6.63125e-06;0.010501809741686388
6.63150e-06;0.009466053396777044
6.63175e-06;0.008669879171959063
6.63200e-06;0.0040506932271900924
6.63225e-06;-0.0022454451202555507
6.63250e-06;-0.0030482475211780096
6.63275e-06;-0.0003861142430991657
6.63300e-06;0.0038432575650378152
6.63325e-06;0.008280748922746044
6.63350e-06;0.009415593701727239
6.63375e-06;0.008084152095599408
6.63400e-06;0.004917979449535485
6.63425e-06;0.001318883572185489
6.63450e-06;0.0007881598669452606
6.63475e-06;0.0023873681267483444
6.63500e-06;0.004980507002417391
6.63525e-06;0.007712564215947451
6.63550e-06;0.008381650080054714
6.63575e-06;0.007510066508334146
6.63600e-06;0.005492365654143351
6.63625e-06;0.003205814941174309
6.63650e-06;0.0028428638081906886
6.63675e-06;0.00381500882079554
6.63700e-06;0.00541018346517823
6.63725e-06;0.007092493363010965
6.63750e-06;0.007482531875872262
6.63775e-06;0.006907433674457889
6.63800e-06;0.0056143390815313
6.63825e-06;0.004152763714434725
6.63850e-06;0.0038959972398387704
6.63875e-06;0.004475323427748456
6.63900e-06;0.005444685013404136
6.63925e-06;0.006468429466325526
6.63950e-06;0.006682598352584291
6.63975e-06;0.006292248117660181
6.64000e-06;0.005452318857342104
6.64025e-06;0.004507142346281268
6.64050e-06;0.004317010601107316
6.64075e-06;0.0046510013214733
6.64100e-06;0.005229772015883934
6.64125e-06;0.005843163144410525
6.64150e-06;0.005950121221676017
6.64175e-06;0.0056792430035505935
6.64200e-06;0.005127722861125105
6.64225e-06;0.004511377069634965
6.64250e-06;0.004369184551222869
6.64275e-06;0.004556572787598961
6.64300e-06;0.004898652644769487
6.64325e-06;0.005263886510252255
6.64350e-06;0.005313487051701534
6.64375e-06;0.005128146287877151
6.64400e-06;0.004768880081938541
6.64425e-06;0.004370999890966564
6.64450e-06;0.004272225392014626
6.64475e-06;0.004382101454856847
6.64500e-06;0.004591393765607004
6.64525e-06;0.004818246535348842
6.64550e-06;0.004850776539055252
6.64575e-06;0.004739503398384972
6.64600e-06;0.004522485040316366
6.64625e-06;0.004284299980001359
6.64650e-06;0.004236301492946119
6.64675e-06;0.00432162777276669
6.64700e-06;0.004471658663789506
6.64725e-06;0.004634930238190977
6.64750e-06;0.004678538230115557
6.64775e-06;0.004633950418390225
6.64800e-06;0.0045248279002035995
6.64825e-06;0.0044039672362530995
6.64850e-06;0.004403569320764595
6.64875e-06;0.00448781927806257
6.64900e-06;0.004613543025195909
6.64925e-06;0.004748314777438261
6.64950e-06;0.004808699606355698
