Time(s);Current(A)
1.10000e-05;-0.004333048075723446
1.10003e-05;-0.004376835198509641
1.10005e-05;-0.004416244113254495
1.10008e-05;-0.004454651812167915
1.10010e-05;-0.00448637312472039
1.10013e-05;-0.004517126759048746
1.10015e-05;-0.004541417980101155
1.10018e-05;-0.004565034992152436
1.10020e-05;-0.004584149456673844
1.10023e-05;-0.004602413796427854
1.10025e-05;-0.004615000776244126
1.10028e-05;-0.004627587756060483
1.10030e-05;-0.004639255979297604
1.10033e-05;-0.004644788501052089
1.10035e-05;-0.004649759404343616
1.10038e-05;-0.00465097966974701
1.10040e-05;-0.0046516613826365506
1.10043e-05;-0.0046487464981984266
1.10045e-05;-0.004645831613760303
1.10047e-05;-0.0046422696495971305
1.10050e-05;-0.00463438631444385
1.10053e-05;-0.004626502979290571
1.10055e-05;-0.004618187698356925
1.10058e-05;-0.004606987768295029
1.10060e-05;-0.004595787838233133
1.10062e-05;-0.004584357046524279
1.10065e-05;-0.004571384499162031
1.10068e-05;-0.004558411951799782
1.10070e-05;-0.0045453014332693204
1.10073e-05;-0.004531269506478542
1.10075e-05;-0.00451723757968767
1.10078e-05;-0.004503315059484684
1.10080e-05;-0.0044901231856562035
1.10083e-05;-0.004476931311827633
1.10085e-05;-0.004463895684029688
1.10088e-05;-0.004452001695852152
1.10090e-05;-0.004440863311405371
1.10093e-05;-0.004430360995590673
1.10095e-05;-0.004419346846508554
1.10098e-05;-0.004405825706913238
1.10100e-05;-0.004388469944081622
1.10103e-05;-0.0043665109875868436
1.10105e-05;-0.004343583513922419
1.10108e-05;-0.004314188024279402
1.10110e-05;-0.004284792534636584
1.10113e-05;-0.00425440570446165
1.10115e-05;-0.0042173984378060855
1.10118e-05;-0.004178967136863101
1.10120e-05;-0.004131025755130479
1.10123e-05;-0.004083084373397856
1.10125e-05;-0.004033729378496963
1.10128e-05;-0.003974933897818484
1.10130e-05;-0.003916138417140005
1.10132e-05;-0.003856138523972318
1.10135e-05;-0.003788095242958551
1.10138e-05;-0.003720051961944784
1.10140e-05;-0.0036508286079710833
1.10143e-05;-0.003573724412018668
1.10145e-05;-0.0034966202160662523
1.10147e-05;-0.003418906536269541
1.10150e-05;-0.0033371225607950047
1.10153e-05;-0.0032551189685764647
1.10155e-05;-0.0031715021644937056
1.10158e-05;-0.0030867777380909353
1.10160e-05;-0.0030011218300687033
1.10163e-05;-0.002914991037924781
1.10165e-05;-0.0028289028326432828
1.10168e-05;-0.0027433752829724794
1.10170e-05;-0.0026589236452378737
1.10173e-05;-0.00257603330120846
1.10175e-05;-0.002495030378601821
1.10178e-05;-0.002416110946384951
1.10180e-05;-0.002339607174762977
1.10183e-05;-0.0022660273852345824
1.10185e-05;-0.0021959175959829886
1.10188e-05;-0.002129824027698629
1.10190e-05;-0.002068289262270602
1.10193e-05;-0.0020117812439782766
1.10195e-05;-0.001960364770722252
1.10198e-05;-0.001913672175349489
1.10200e-05;-0.0018714821065490138
1.10203e-05;-0.0018338988848333735
1.10205e-05;-0.0018011062135799237
1.10208e-05;-0.0017732877506817662
1.10210e-05;-0.0017506246366675443
1.10213e-05;-0.0017332516776032002
1.10215e-05;-0.001721343972093286
1.10217e-05;-0.0017155902612273311
1.10220e-05;-0.0017109860397123196
1.10223e-05;-0.0017140584146783256
1.10225e-05;-0.0017182539204375223
1.10228e-05;-0.0017299499931985312
1.10230e-05;-0.001742733832164936
1.10232e-05;-0.001762782063982582
1.10235e-05;-0.001783560148117864
1.10238e-05;-0.0018096339660054162
1.10240e-05;-0.001838915990841392
1.10243e-05;-0.0018711894704768223
1.10245e-05;-0.001906268823727501
1.10248e-05;-0.0019439683833165648
1.10250e-05;-0.0019841017038440606
1.10253e-05;-0.002026464019470427
1.10255e-05;-0.0020707511059893497
1.10258e-05;-0.0021165532671613956
1.10260e-05;-0.0021634962254774427
1.10263e-05;-0.0022112856582152665
1.10265e-05;-0.0022596472605529785
1.10268e-05;-0.0023083064948390374
1.10270e-05;-0.002356988135740265
1.10273e-05;-0.0024054059247097816
1.10275e-05;-0.002453211279212911
1.10278e-05;-0.0024999892106625857
1.10280e-05;-0.002545346993612784
1.10283e-05;-0.0025889423540961464
1.10285e-05;-0.0026304453710903055
1.10288e-05;-0.002669526093249622
1.10290e-05;-0.0027058556403019257
1.10293e-05;-0.002738927270072767
1.10295e-05;-0.0027678404122321526
1.10298e-05;-0.0027957272308416145
1.10300e-05;-0.002816759987036087
1.10302e-05;-0.002837792743230417
1.10305e-05;-0.002857520090019867
1.10308e-05;-0.0028685295646152797
1.10310e-05;-0.002879539039210618
1.10313e-05;-0.0028886931374500517
1.10315e-05;-0.002885456537506189
1.10317e-05;-0.0028822199375623486
1.10320e-05;-0.002878983337618486
1.10323e-05;-0.0028757467376746234
1.10325e-05;-0.002872510137730761
1.10328e-05;-0.002859107617135581
1.10330e-05;-0.002839740721863584
1.10333e-05;-0.002820373826591587
1.10335e-05;-0.002801006931319721
1.10338e-05;-0.002781640036047724
1.10340e-05;-0.0027609911566053792
1.10343e-05;-0.002731780844934479
1.10345e-05;-0.002702570533263381
1.10348e-05;-0.002672706834614798
1.10350e-05;-0.002638479643454907
1.10353e-05;-0.0026042524522947846
1.10355e-05;-0.002569651879819928
1.10358e-05;-0.002532557767334532
1.10360e-05;-0.0024953081719557174
1.10363e-05;-0.002457020220344735
1.10365e-05;-0.002418686677601908
1.10368e-05;-0.002380055973041595
1.10370e-05;-0.0023415098542766766
1.10373e-05;-0.0023032698906451606
1.10375e-05;-0.0022655816006067297
1.10378e-05;-0.002228719440599869
1.10380e-05;-0.0021929568988268795
1.10383e-05;-0.002158552276496351
1.10385e-05;-0.002125759733701397
1.10387e-05;-0.002094832913983154
1.10390e-05;-0.002066028069744101
1.10393e-05;-0.002039638683333359
1.10395e-05;-0.002016136835346489
1.10398e-05;-0.001996089700992856
1.10400e-05;-0.001979803743438847
1.10402e-05;-0.0019673215519768056
1.10405e-05;-0.0019588800420802517
1.10408e-05;-0.001955373787209795
1.10410e-05;-0.0019528587566303693
1.10413e-05;-0.00195696338625499
1.10415e-05;-0.001962389418315731
1.10418e-05;-0.0019766401283014567
1.10420e-05;-0.0019908908382870855
1.10423e-05;-0.002006407416050316
1.10425e-05;-0.0020303777964757693
1.10428e-05;-0.002055040458607562
1.10430e-05;-0.002084758288191689
1.10433e-05;-0.0021177800642505715
1.10435e-05;-0.0021540172291288286
1.10438e-05;-0.0021934174560614018
1.10440e-05;-0.0022358267047803138
1.10443e-05;-0.002280987428735035
1.10445e-05;-0.002328621597814335
1.10448e-05;-0.0023784510400454107
1.10450e-05;-0.002430198412996694
1.10453e-05;-0.0024835950920667482
1.10455e-05;-0.0025384165301579375
1.10458e-05;-0.0025944619587041644
1.10460e-05;-0.0026514662687793763
1.10463e-05;-0.0027090992891289586
1.10465e-05;-0.002767018323368394
1.10468e-05;-0.002824880847298322
1.10470e-05;-0.0028823444677675597
1.10472e-05;-0.002939072658005385
1.10475e-05;-0.0029947561941294507
1.10478e-05;-0.0030491007758365733
1.10480e-05;-0.0031017719660381585
1.10483e-05;-0.003152394686434528
1.10485e-05;-0.0032005860724771545
1.10487e-05;-0.003245735636458614
1.10490e-05;-0.0032866308256172326
1.10493e-05;-0.0033268741995583343
1.10495e-05;-0.003362457644833536
1.10498e-05;-0.0033956387417163887
1.10500e-05;-0.0034264652861055174
1.10503e-05;-0.0034567577759432137
1.10505e-05;-0.0034834837070361296
1.10508e-05;-0.0035095698612752175
1.10510e-05;-0.003531383415033183
1.10513e-05;-0.003552582072232245
1.10515e-05;-0.003569674286198197
1.10518e-05;-0.0035862560523279813
1.10520e-05;-0.003599428911653897
1.10523e-05;-0.003612601770979902
1.10525e-05;-0.003625122799926859
1.10528e-05;-0.003633290731736825
1.10530e-05;-0.0036414586635468466
1.10533e-05;-0.0036490120323548463
1.10535e-05;-0.003652461185509919
1.10538e-05;-0.0036559103386650154
1.10540e-05;-0.0036589550493043637
1.10543e-05;-0.00365929878494461
1.10545e-05;-0.0036596425205848585
1.10548e-05;-0.003659579418166004
1.10550e-05;-0.0036567993426705686
1.10553e-05;-0.003654019267175114
1.10555e-05;-0.0036509659481205993
1.10557e-05;-0.003646087835695226
1.10560e-05;-0.003641209723269819
1.10563e-05;-0.003636179084476416
1.10565e-05;-0.0036301298339134714
1.10568e-05;-0.0036240805833504855
1.10570e-05;-0.0036179226034210024
1.10572e-05;-0.0036110384997801353
1.10575e-05;-0.0036041543961392213
1.10578e-05;-0.0035973312727221657
1.10580e-05;-0.0035909153915056396
1.10583e-05;-0.003584499510289157
1.10585e-05;-0.003578083629072631
1.10588e-05;-0.003571770089106981
1.10590e-05;-0.00356618607245655
1.10593e-05;-0.0035608737919064276
1.10595e-05;-0.0035551166259167543
1.10598e-05;-0.003547525927901787
1.10600e-05;-0.0035368474996765676
1.10603e-05;-0.003525471174874892
1.10605e-05;-0.0035094341105809806
1.10608e-05;-0.00349339704628696
1.10610e-05;-0.003476757795965102
1.10613e-05;-0.003456096986724007
1.10615e-05;-0.0034343173930362065
1.10618e-05;-0.0034050662583922546
1.10620e-05;-0.003375815123748501
1.10623e-05;-0.0033465639891045486
1.10625e-05;-0.0033173128544605967
1.10628e-05;-0.003281503186700393
1.10630e-05;-0.0032418456088281165
1.10633e-05;-0.0032021880309558402
1.10635e-05;-0.003162530453083833
1.10638e-05;-0.003121871376365572
1.10640e-05;-0.0030745240232151246
1.10642e-05;-0.003027176670064998
1.10645e-05;-0.002979271913396679
1.10648e-05;-0.002927644667354586
1.10650e-05;-0.0028760174213128434
1.10653e-05;-0.002824127918866407
1.10655e-05;-0.0027704869981975667
1.10657e-05;-0.002716690367211171
1.10660e-05;-0.002661853861187168
1.10663e-05;-0.002606989973192945
1.10665e-05;-0.0025519821562580355
1.10668e-05;-0.0024973161407402886
1.10670e-05;-0.0024433200066384404
1.10673e-05;-0.0023903032048729345
1.10675e-05;-0.0023384778241310406
1.10678e-05;-0.0022879759750954417
1.10680e-05;-0.0022390145612527315
1.10683e-05;-0.002192261930391676
1.10685e-05;-0.002149685742790984
1.10688e-05;-0.0021071095551902915
1.10690e-05;-0.00206548443873178
1.10693e-05;-0.0020302108290488623
1.10695e-05;-0.0019954447258382518
1.10698e-05;-0.00196406788622306
1.10700e-05;-0.0019326910466076553
1.10703e-05;-0.0019017825306636713
1.10705e-05;-0.00187400160511926
1.10708e-05;-0.0018462206795746602
1.10710e-05;-0.001819039059340802
1.10713e-05;-0.0017958597598324271
1.10715e-05;-0.0017726804603238953
1.10718e-05;-0.0017497984738811371
1.10720e-05;-0.0017289020233979056
1.10723e-05;-0.0017080055729145323
1.10725e-05;-0.001687109122431159
1.10727e-05;-0.0016680302188589158
1.10730e-05;-0.0016500176752508805
1.10733e-05;-0.0016320051316428452
1.10735e-05;-0.0016143845399359104
1.10738e-05;-0.0015993815075744427
1.10740e-05;-0.001584378475212975
1.10742e-05;-0.001569375442851609
1.10745e-05;-0.0015543724104901413
1.10748e-05;-0.0015393693781286736
1.10750e-05;-0.0015243663457673077
1.10753e-05;-0.00150936331340584
1.10755e-05;-0.001496426674354659
1.10758e-05;-0.0014847023941612111
1.10760e-05;-0.0014729781139678425
1.10763e-05;-0.0014612538337743944
1.10765e-05;-0.0014495295535809462
1.10768e-05;-0.0014378052733875777
1.10770e-05;-0.0014260809931941297
1.10773e-05;-0.0014146561326716482
1.10775e-05;-0.0014052308765808523
1.10778e-05;-0.001395805620489993
1.10780e-05;-0.0013864911330096594
1.10783e-05;-0.0013779163878575719
1.10785e-05;-0.0013694265707818716
1.10788e-05;-0.0013615714561187595
1.10790e-05;-0.0013542451652325184
1.10793e-05;-0.0013475542121887559
1.10795e-05;-0.0013418153365571338
1.10798e-05;-0.0013375028847819738
1.10800e-05;-0.0013348777686772574
1.10803e-05;-0.0013339481191276712
1.10805e-05;-0.0013347702407936095
1.10808e-05;-0.0013376735807123221
1.10810e-05;-0.0013409839886414697
1.10812e-05;-0.0013470129053282224
1.10815e-05;-0.0013536409807626644
1.10818e-05;-0.0013642703981373945
1.10820e-05;-0.0013748998155120526
1.10823e-05;-0.0013862187298989376
1.10825e-05;-0.0014021422892541767
1.10827e-05;-0.0014180658486093079
1.10830e-05;-0.0014345686190125493
1.10833e-05;-0.0014549395152973282
1.10835e-05;-0.001475310411581969
1.10838e-05;-0.0014961447671697377
1.10840e-05;-0.0015200742276095687
1.10843e-05;-0.0015443063528223669
1.10845e-05;-0.00157055975412399
1.10848e-05;-0.001597034993353177
1.10850e-05;-0.001624991725436289
1.10853e-05;-0.0016530720326842366
1.10855e-05;-0.0016820493831783976
1.10858e-05;-0.0017115651231676655
1.10860e-05;-0.0017415125286817602
1.10863e-05;-0.0017717224563022665
1.10865e-05;-0.0018020126602816674
1.10868e-05;-0.0018322012240787327
1.10870e-05;-0.0018621061190879046
1.10873e-05;-0.0018915521339180716
1.10875e-05;-0.0019203962332919604
1.10878e-05;-0.0019485195986992767
1.10880e-05;-0.0019756903598896463
1.10883e-05;-0.0020014221041341667
1.10885e-05;-0.0020268866088403938
1.10888e-05;-0.002050353728761134
1.10890e-05;-0.0020721680947036825
1.10893e-05;-0.0020922590473844674
1.10895e-05;-0.0021111835732704923
1.10897e-05;-0.002130044172966518
1.10900e-05;-0.002149458904059582
1.10903e-05;-0.00216939238447511
1.10905e-05;-0.002189689163004855
1.10908e-05;-0.002209977223576347
1.10910e-05;-0.0022302070632961787
1.10912e-05;-0.0022504710774127632
1.10915e-05;-0.002270963317267993
1.10918e-05;-0.0022917579969979757
1.10920e-05;-0.0023145724508877473
1.10923e-05;-0.0023373869047776737
1.10925e-05;-0.0023604476216790363
1.10928e-05;-0.0023851529486619435
1.10930e-05;-0.002409858275644683
1.10933e-05;-0.0024345636026275896
1.10935e-05;-0.0024604378497390554
1.10938e-05;-0.002486997905629129
1.10940e-05;-0.002513557961519383
1.10943e-05;-0.002540334842240066
1.10945e-05;-0.002568559737016815
1.10948e-05;-0.0025968297680757074
1.10950e-05;-0.0026254012312657265
1.10953e-05;-0.0026539777432905837
1.10955e-05;-0.002682587972782771
1.10958e-05;-0.0027112298143501566
1.10960e-05;-0.0027400827697881577
1.10963e-05;-0.002768916848951237
1.10965e-05;-0.002797580564923484
1.10968e-05;-0.0028258803418316825
1.10970e-05;-0.002853634610798263
1.10973e-05;-0.0028806806247757485
1.10975e-05;-0.002906952005925324
1.10978e-05;-0.0029324665843879737
1.10980e-05;-0.002957167592214237
1.10983e-05;-0.002980895757952692
1.10985e-05;-0.0030034698787162256
1.10988e-05;-0.00302470837692596
1.10990e-05;-0.0030444273000270164
1.10993e-05;-0.003062393673166679
1.10995e-05;-0.003078132829306662
1.10997e-05;-0.0030907998526750902
1.11000e-05;-0.0030992724433823618
1.11003e-05;-0.003106705676563939
1.11005e-05;-0.0031071978029344064
1.11008e-05;-0.0031076899293048773
1.11010e-05;-0.003106934654812291
1.11013e-05;-0.003097848904604945
1.11015e-05;-0.0030887631543976605
1.11018e-05;-0.00307790607879225
1.11020e-05;-0.003055219619668162
1.11023e-05;-0.0030325331605442272
1.11025e-05;-0.003009846701420139
1.11028e-05;-0.0029871602422960504
1.11030e-05;-0.0029625894487748904
1.11033e-05;-0.0029254345674912495
1.11035e-05;-0.0028882796862076086
1.11038e-05;-0.0028511248049242197
1.11040e-05;-0.002813969923640579
1.11043e-05;-0.0027756257612165814
1.11045e-05;-0.0027293392620891498
1.11048e-05;-0.002683052762961404
1.11050e-05;-0.0026362805750008156
1.11053e-05;-0.0025862648274540046
1.11055e-05;-0.0025359766550786082
1.11058e-05;-0.002483869157028872
1.11060e-05;-0.0024316325119020797
1.11063e-05;-0.002378500638940834
1.11065e-05;-0.002325157851181341
1.11068e-05;-0.00227191556448786
1.11070e-05;-0.0022190854892561386
1.11073e-05;-0.0021669710415253753
1.11075e-05;-0.002115838687665096
1.11078e-05;-0.0020659301580873094
1.11080e-05;-0.0020175318845781203
1.11082e-05;-0.00197097879678622
1.11085e-05;-0.0019268005505984126
1.11088e-05;-0.001886021136477351
1.11090e-05;-0.0018460269602392503
1.11093e-05;-0.0018112768120509275
1.11095e-05;-0.0017771006921466187
1.11098e-05;-0.0017467580862503245
1.11100e-05;-0.001716987914136267
1.11103e-05;-0.0016910406075206562
1.11105e-05;-0.0016650933009050453
1.11108e-05;-0.001639997690811463
1.11110e-05;-0.0016205899372892657
1.11113e-05;-0.0016011821837670682
1.11115e-05;-0.001582466595709285
1.11118e-05;-0.0015683734732642382
1.11120e-05;-0.0015542803508191913
1.11123e-05;-0.001541001471903581
1.11125e-05;-0.0015331603284851293
1.11128e-05;-0.0015253191850666775
1.11130e-05;-0.0015174780416482788
1.11133e-05;-0.001509636898229827
1.11135e-05;-0.0015017957548113753
1.11138e-05;-0.0014980946557945584
1.11140e-05;-0.0014968225326568985
1.11143e-05;-0.0014955504095192386
1.11145e-05;-0.0014942782863815874
1.11148e-05;-0.0014930061632439276
1.11150e-05;-0.001492231107080561
1.11153e-05;-0.0014947755967697266
1.11155e-05;-0.0014973200864589094
1.11158e-05;-0.0015000548702274387
1.11160e-05;-0.0015040604886208328
1.11163e-05;-0.001508066107014254
1.11165e-05;-0.0015122012515266926
1.11167e-05;-0.0015172014060144472
1.11170e-05;-0.001522201560502236
1.11173e-05;-0.0015272595314792159
1.11175e-05;-0.0015327036163942011
1.11178e-05;-0.001538147701309223
1.11180e-05;-0.0015435350765367294
1.11183e-05;-0.0015485437293430114
1.11185e-05;-0.0015534980427356476
1.11188e-05;-0.00155804616130828
1.11190e-05;-0.0015622640719717864
1.11193e-05;-0.0015662671359065793
1.11195e-05;-0.0015709295188478865
1.11198e-05;-0.001577745706045555
1.11200e-05;-0.0015875463451739368
1.11203e-05;-0.0016003122439425584
1.11205e-05;-0.0016159960496738234
1.11208e-05;-0.0016349660427807157
1.11210e-05;-0.001654380105944943
1.11213e-05;-0.0016770883104079185
1.11215e-05;-0.0017029057130819392
1.11218e-05;-0.001734835292645378
1.11220e-05;-0.001766764872208817
1.11223e-05;-0.0017995949334830867
1.11225e-05;-0.0018388257443540206
1.11228e-05;-0.0018809891828563256
1.11230e-05;-0.0019257843312013964
1.11233e-05;-0.0019729682635438502
1.11235e-05;-0.0020225960123935478
1.11238e-05;-0.002074965821172344
1.11240e-05;-0.0021301153296415737
1.11243e-05;-0.002187748990816978
1.11245e-05;-0.0022474991651118123
1.11248e-05;-0.0023089982129405676
1.11250e-05;-0.0023718804050865206
1.11252e-05;-0.002435816756050233
1.11255e-05;-0.0025006643597427157
1.11258e-05;-0.002566433268239807
1.11260e-05;-0.002632969848936443
1.11263e-05;-0.00269991183766064
1.11265e-05;-0.002766851952969529
1.11268e-05;-0.0028333826600227406
1.11270e-05;-0.002899098497832688
1.11273e-05;-0.002963616133542368
1.11275e-05;-0.00302666896154937
1.11278e-05;-0.0030880865688168333
1.11280e-05;-0.0031475957825226283
1.11283e-05;-0.0032047928200151406
1.11285e-05;-0.0032592455779427323
1.11288e-05;-0.003310522216108817
1.11290e-05;-0.0033581916025636673
1.11293e-05;-0.003401833757754133
1.11295e-05;-0.0034411097915216936
1.11298e-05;-0.003475829682144318
1.11300e-05;-0.0035059016608591145
1.11303e-05;-0.003530929106974458
1.11305e-05;-0.0035496592845185152
1.11308e-05;-0.0035667658547649246
1.11310e-05;-0.003573029542350744
1.11313e-05;-0.003579293229936563
1.11315e-05;-0.0035836100382205423
1.11318e-05;-0.0035749250671611604
1.11320e-05;-0.003566240096101779
1.11323e-05;-0.0035557485012657143
1.11325e-05;-0.003533191790898262
1.11328e-05;-0.0035106350805308097
1.11330e-05;-0.003486692300698606
1.11333e-05;-0.003453492979220001
1.11335e-05;-0.0034192990675654083
1.11337e-05;-0.0033784630173905547
1.11340e-05;-0.003336770484661748
1.11343e-05;-0.003289358132956614
1.11345e-05;-0.00324123098447377
1.11348e-05;-0.0031883302324211054
1.11350e-05;-0.003134857582299349
1.11353e-05;-0.003077565644307372
1.11355e-05;-0.0030198632496740646
1.11358e-05;-0.002959419716089589
1.11360e-05;-0.0028987829925476378
1.11363e-05;-0.002836789444245921
1.11365e-05;-0.0027743305895358917
1.11368e-05;-0.002711763246257382
1.11370e-05;-0.002649445011956129
1.11373e-05;-0.002587734737189304
1.11375e-05;-0.0025270040251995783
1.11378e-05;-0.002467647004210624
1.11380e-05;-0.002410073233079853
1.11383e-05;-0.002354886762286806
1.11385e-05;-0.002303208021867709
1.11388e-05;-0.002252403791223409
1.11390e-05;-0.0022074397701516172
1.11393e-05;-0.0021631420740094143
1.11395e-05;-0.002123597188440796
1.11398e-05;-0.002086075249647435
1.11400e-05;-0.002048930305697456
1.11403e-05;-0.0020143030338813216
1.11405e-05;-0.001979675762065187
1.11408e-05;-0.0019456179548706317
1.11410e-05;-0.001915363184334656
1.11413e-05;-0.00188554157503617
1.11415e-05;-0.0018586127320373113
1.11418e-05;-0.0018318681740434098
1.11420e-05;-0.001806354320476068
1.11422e-05;-0.0017808404669088988
1.11425e-05;-0.00175572561281693
1.11428e-05;-0.001733275383663893
1.11430e-05;-0.0017108251545110082
1.11433e-05;-0.001688374925357971
1.11435e-05;-0.001666265113527016
1.11438e-05;-0.0016464286993872982
1.11440e-05;-0.0016265922852477146
1.11443e-05;-0.001606755871107997
1.11445e-05;-0.0015872077973344142
