Time(s);Current(A)
1.38000e-05;-0.006644666257572877
1.38003e-05;-0.006638835077601857
1.38005e-05;-0.006633003897630798
1.38008e-05;-0.0066271727176597395
1.38010e-05;-0.0066035428496169675
1.38013e-05;-0.006574224038865927
1.38015e-05;-0.006544905228114886
1.38018e-05;-0.006515586417364044
1.38020e-05;-0.006486267606613003
1.38023e-05;-0.006456948795861962
1.38025e-05;-0.006414937011490107
1.38028e-05;-0.006368868209014178
1.38030e-05;-0.006322799406538249
1.38033e-05;-0.006276730604062632
1.38035e-05;-0.006230661801586703
1.38038e-05;-0.006184592999110773
1.38040e-05;-0.006133709474417591
1.38043e-05;-0.006081287034117207
1.38045e-05;-0.006028864593816821
1.38048e-05;-0.0059759378386239756
1.38050e-05;-0.005922849890733813
1.38053e-05;-0.005870443164931521
1.38055e-05;-0.005818254176156859
1.38058e-05;-0.005767907186500543
1.38060e-05;-0.005718148949645275
1.38063e-05;-0.005672910970561914
1.38065e-05;-0.005629117788274017
1.38068e-05;-0.005585324605986119
1.38070e-05;-0.005543911151188923
1.38073e-05;-0.0055093492382606146
1.38075e-05;-0.005474787325332305
1.38078e-05;-0.005440225412404231
1.38080e-05;-0.005411888488615648
1.38083e-05;-0.005385541239933694
1.38085e-05;-0.005359193991251919
1.38088e-05;-0.005332846742569965
1.38090e-05;-0.0053064994938880105
1.38093e-05;-0.005280152245206057
1.38095e-05;-0.0052538049965242814
1.38098e-05;-0.005234218852488961
1.38100e-05;-0.005216793740594865
1.38103e-05;-0.005199368628700886
1.38105e-05;-0.00518194351680679
1.38108e-05;-0.005164518404912693
1.38110e-05;-0.0051470932930187145
1.38113e-05;-0.0051296681811246175
1.38115e-05;-0.005115431683632486
1.38118e-05;-0.005104591555849428
1.38120e-05;-0.005094511246264691
1.38123e-05;-0.005084430936679954
1.38125e-05;-0.0050743506270952855
1.38128e-05;-0.005064270317510549
1.38130e-05;-0.005054190007925812
1.38133e-05;-0.005044109698341143
1.38135e-05;-0.005034029388756407
1.38138e-05;-0.00502394907917167
1.38140e-05;-0.005013868769587001
1.38143e-05;-0.005007094107385876
1.38145e-05;-0.005001376019608381
1.38148e-05;-0.004995657931830925
1.38150e-05;-0.004989939844053429
1.38153e-05;-0.004984221756275934
1.38155e-05;-0.004978503668498477
1.38158e-05;-0.004972785580720981
1.38160e-05;-0.004967067492943486
1.38163e-05;-0.0049613494051660295
1.38165e-05;-0.004955631317388534
1.38168e-05;-0.00495101154805093
1.38170e-05;-0.004946742831030209
1.38173e-05;-0.004944039695635671
1.38175e-05;-0.004941836962526266
1.38178e-05;-0.004939634229416861
1.38180e-05;-0.004942398542206254
1.38183e-05;-0.004946750457377013
1.38185e-05;-0.004951102372547772
1.38188e-05;-0.004962117643073652
1.38190e-05;-0.004975262702420804
1.38193e-05;-0.004988407761767957
1.38195e-05;-0.005001552821115021
1.38198e-05;-0.005014697880462173
1.38200e-05;-0.005037264588863537
1.38203e-05;-0.005062842711449411
1.38205e-05;-0.005088420834035458
1.38208e-05;-0.005113998956621504
1.38210e-05;-0.005139577079207377
1.38213e-05;-0.00517426118659539
1.38215e-05;-0.0052118558133246945
1.38218e-05;-0.0052494504400537444
1.38220e-05;-0.005287045066783049
1.38223e-05;-0.005324639693512355
1.38225e-05;-0.005362234320241405
1.38228e-05;-0.005401953888338832
1.38230e-05;-0.005447791436255465
1.38233e-05;-0.005493628984171787
1.38235e-05;-0.005539466532088419
1.38238e-05;-0.005585304080005052
1.38240e-05;-0.005631141627921374
1.38243e-05;-0.005676979175838006
1.38245e-05;-0.005723829687549206
1.38248e-05;-0.0057710039699208834
1.38250e-05;-0.00581726625100526
1.38253e-05;-0.005863237031780211
1.38255e-05;-0.005907620940900605
1.38258e-05;-0.0059514976428665335
1.38260e-05;-0.005993151418884959
1.38263e-05;-0.006034094687571492
1.38265e-05;-0.0060709146306451856
1.38268e-05;-0.006106416647189528
1.38270e-05;-0.00614191866373387
1.38273e-05;-0.006167346524887926
1.38275e-05;-0.006189554413161065
1.38278e-05;-0.006211762301434204
1.38280e-05;-0.006233970189707192
1.38283e-05;-0.006256178077980331
1.38285e-05;-0.00627838596625347
1.38288e-05;-0.006295741117097071
1.38290e-05;-0.006299124612010653
1.38293e-05;-0.006302508106924234
1.38295e-05;-0.006305891601837792
1.38298e-05;-0.006309275096751374
1.38300e-05;-0.006312658591664955
1.38303e-05;-0.006316042086578514
1.38305e-05;-0.006305725389582542
1.38308e-05;-0.006291029740236814
1.38310e-05;-0.006276334090891184
1.38313e-05;-0.006261638441545455
1.38315e-05;-0.006246942792199726
1.38318e-05;-0.006232247142854096
1.38320e-05;-0.006217551493508367
1.38323e-05;-0.006199516783027636
1.38325e-05;-0.00617186848557887
1.38328e-05;-0.006144220188129918
1.38330e-05;-0.006116571890680964
1.38333e-05;-0.006088923593232199
1.38335e-05;-0.006061275295783246
1.38338e-05;-0.006033626998334293
1.38340e-05;-0.006005978700885527
1.38343e-05;-0.005975398183788351
1.38345e-05;-0.005943880449883902
1.38348e-05;-0.0059123627159794545
1.38350e-05;-0.005880844982075219
1.38353e-05;-0.005849327248170771
1.38355e-05;-0.0058186691949685294
1.38358e-05;-0.005790486273206904
1.38360e-05;-0.005762303351445088
1.38363e-05;-0.005734120429683272
1.38365e-05;-0.005705937507921647
1.38368e-05;-0.005677754586159831
1.38370e-05;-0.005653801686092917
1.38373e-05;-0.005631200815513589
1.38375e-05;-0.005609250055350842
1.38378e-05;-0.00558750708808301
1.38380e-05;-0.0055657641208153264
1.38383e-05;-0.00554196009490344
1.38385e-05;-0.005517497298833081
1.38388e-05;-0.0054930345027628886
1.38390e-05;-0.005468571706692529
1.38393e-05;-0.00544410891062217
1.38395e-05;-0.005418413144547388
1.38398e-05;-0.0053891674990622475
1.38400e-05;-0.005359921853577107
1.38403e-05;-0.005330676208092164
1.38405e-05;-0.005301430562607023
1.38408e-05;-0.005272184917121881
1.38410e-05;-0.005238578654706985
1.38413e-05;-0.00520357862103036
1.38415e-05;-0.005168578587353736
1.38418e-05;-0.005133578553677349
1.38420e-05;-0.005098578520000725
1.38423e-05;-0.005063578486324101
1.38425e-05;-0.005027558957268983
1.38428e-05;-0.004988604169739552
1.38430e-05;-0.00494964938221012
1.38433e-05;-0.0049106945946806885
1.38435e-05;-0.00487173980715152
1.38438e-05;-0.004832785019622089
1.38440e-05;-0.0047938302320926565
1.38443e-05;-0.004754676930659132
1.38445e-05;-0.004715460178805506
1.38448e-05;-0.004676243426951881
1.38450e-05;-0.004638602842926177
1.38453e-05;-0.004601466044822527
1.38455e-05;-0.004564329246718876
1.38458e-05;-0.004529094318586009
1.38460e-05;-0.004494467279600518
1.38463e-05;-0.004461899962617253
1.38465e-05;-0.004429990988565994
1.38468e-05;-0.0044000813951663095
1.38470e-05;-0.004373299321144934
1.38473e-05;-0.004347312627345615
1.38475e-05;-0.0043258794118254135
1.38478e-05;-0.004305901611277337
1.38480e-05;-0.00429166223786647
1.38483e-05;-0.00427925702117255
1.38485e-05;-0.00427262869481578
1.38488e-05;-0.0042678468190564325
1.38490e-05;-0.004270283439074146
1.38493e-05;-0.004275027285828389
1.38495e-05;-0.004279771132582601
1.38498e-05;-0.00429742864852746
1.38500e-05;-0.004319213722864449
1.38503e-05;-0.004340998797201291
1.38505e-05;-0.004362783871538279
1.38508e-05;-0.004384568945875269
1.38510e-05;-0.004411229480136257
1.38513e-05;-0.004451927091327313
1.38515e-05;-0.00449262470251837
1.38518e-05;-0.004533322313709425
1.38520e-05;-0.004574019924900205
1.38523e-05;-0.004614717536091262
1.38525e-05;-0.004663116448714507
1.38528e-05;-0.004713976905836488
1.38530e-05;-0.004767640765639292
1.38533e-05;-0.004822200668858634
1.38535e-05;-0.004878840760736586
1.38538e-05;-0.004936145737244608
1.38540e-05;-0.004994761461975493
1.38543e-05;-0.005053796137334819
1.38545e-05;-0.005113091586132878
1.38548e-05;-0.005172470385183924
1.38550e-05;-0.005231372099405579
1.38553e-05;-0.005289454393681104
1.38555e-05;-0.00534642863191095
1.38558e-05;-0.005401997172763689
1.38560e-05;-0.005454973090426452
1.38563e-05;-0.005507234722362287
1.38565e-05;-0.00555552000045504
1.38568e-05;-0.005602534328174848
1.38570e-05;-0.005642937161168384
1.38573e-05;-0.005681226781398719
1.38575e-05;-0.005719516401629315
1.38578e-05;-0.005749056761299322
1.38580e-05;-0.005775800620351799
1.38583e-05;-0.005802544479404457
1.38585e-05;-0.005815312023120417
1.38588e-05;-0.005823612357956425
1.38590e-05;-0.00583191269279249
1.38593e-05;-0.005840213027628554
1.38595e-05;-0.005848513362464562
1.38598e-05;-0.005856813697300628
1.38600e-05;-0.005847206295502812
1.38603e-05;-0.005831875096110101
1.38605e-05;-0.005816543896717494
1.38608e-05;-0.005801212697324783
1.38610e-05;-0.005785881497932072
1.38613e-05;-0.005770550298539465
1.38615e-05;-0.005740761876185992
1.38618e-05;-0.005706352533852318
1.38620e-05;-0.005671943191518877
1.38623e-05;-0.005637533849185202
1.38625e-05;-0.005603124506851528
1.38628e-05;-0.005568715164518086
1.38630e-05;-0.005525594671950632
1.38633e-05;-0.00547968985985805
1.38635e-05;-0.005433785047765778
1.38638e-05;-0.005387880235673196
1.38640e-05;-0.005341975423580614
1.38643e-05;-0.0052960706114883425
1.38645e-05;-0.005247978631286292
1.38648e-05;-0.0051991875729247615
1.38650e-05;-0.00515070721958715
1.38653e-05;-0.005102326175989094
1.38655e-05;-0.0050551639570945855
1.38658e-05;-0.005008391307583207
1.38660e-05;-0.004963843524821887
1.38663e-05;-0.004920006869726668
1.38665e-05;-0.004880363585611579
1.38668e-05;-0.004842060616424081
1.38670e-05;-0.0048037576472365826
1.38673e-05;-0.004770027564364586
1.38675e-05;-0.004737759099799309
1.38678e-05;-0.004705020137375118
1.38680e-05;-0.004672130791093654
1.38683e-05;-0.0046392414448119665
1.38685e-05;-0.004605362641532993
1.38688e-05;-0.004571167581001695
1.38690e-05;-0.004536972520470629
1.38693e-05;-0.004502430703017317
1.38695e-05;-0.004467778052661024
1.38698e-05;-0.004433125402304967
1.38700e-05;-0.0043946145048314395
1.38703e-05;-0.004354870407091981
1.38705e-05;-0.004315126309352792
1.38708e-05;-0.004275382211613334
1.38710e-05;-0.004235638113873876
1.38713e-05;-0.004192519840739642
1.38715e-05;-0.004148323089770948
1.38718e-05;-0.004104126338802253
1.38720e-05;-0.004059929587833858
1.38723e-05;-0.004015732836865163
1.38725e-05;-0.003969042611918613
1.38728e-05;-0.003921555405161866
1.38730e-05;-0.003874068198404798
1.38733e-05;-0.0038264043785139505
1.38735e-05;-0.003778684108282908
1.38738e-05;-0.0037306607198059586
1.38740e-05;-0.003682540446528795
1.38743e-05;-0.0036344025295822497
1.38745e-05;-0.00358654285988632
1.38748e-05;-0.003539281007117833
1.38750e-05;-0.003492911854914718
1.38753e-05;-0.0034476869962743696
1.38755e-05;-0.0034037008846862517
1.38758e-05;-0.0033609402524745016
1.38760e-05;-0.003319511069804432
1.38763e-05;-0.0032796676664867165
1.38765e-05;-0.003241701999283949
1.38768e-05;-0.0032059070819332154
1.38770e-05;-0.0031725759918211967
1.38773e-05;-0.003142184827583119
1.38775e-05;-0.003115837353161741
1.38778e-05;-0.003094962349532264
1.38780e-05;-0.003080326645569127
1.38783e-05;-0.003071988143223906
1.38785e-05;-0.0030698321011934284
1.38788e-05;-0.0030737380896410926
1.38790e-05;-0.0030835855586873705
1.38793e-05;-0.0030993685859120016
1.38795e-05;-0.003124150940001005
1.38798e-05;-0.003151349633715949
1.38800e-05;-0.0031916104360193336
1.38803e-05;-0.003236046241970889
1.38805e-05;-0.003280482047922143
1.38808e-05;-0.0033364755455582086
1.38810e-05;-0.003396163194458062
1.38813e-05;-0.003464009717321786
1.38815e-05;-0.003534464037260803
1.38818e-05;-0.0036110285364560637
1.38820e-05;-0.0036934265631302565
1.38823e-05;-0.0037805417798186113
1.38825e-05;-0.003871834412540033
1.38828e-05;-0.003966762431555447
1.38830e-05;-0.004064784160001098
1.38833e-05;-0.004165403201593673
1.38835e-05;-0.0042682762761440006
1.38838e-05;-0.0043731407750666135
1.38840e-05;-0.004479571740343661
1.38843e-05;-0.004586969338318697
1.38845e-05;-0.00469469173142223
1.38848e-05;-0.00480209548854237
1.38850e-05;-0.004908537418652734
1.38853e-05;-0.005013402320515135
1.38855e-05;-0.005116172121481304
1.38858e-05;-0.005216378824027429
1.38860e-05;-0.005313452032726242
1.38863e-05;-0.0054067122844928105
1.38865e-05;-0.00549545431354226
1.38868e-05;-0.005578971471615687
1.38870e-05;-0.005654072656185519
1.38873e-05;-0.005726901615859162
1.38875e-05;-0.005788752566616915
1.38878e-05;-0.005847094648421985
1.38880e-05;-0.005905436730227056
1.38883e-05;-0.00595189932921894
1.38885e-05;-0.005994564923786795
1.38888e-05;-0.00603723051835465
1.38890e-05;-0.006066513742324022
1.38893e-05;-0.006091519598232019
1.38895e-05;-0.006116525454140015
1.38898e-05;-0.006129796034829005
1.38900e-05;-0.006139315703745887
1.38903e-05;-0.0061488353726627705
1.38905e-05;-0.006147716026371734
1.38908e-05;-0.006143196162696686
1.38910e-05;-0.006138676299021637
1.38913e-05;-0.006123994504967598
1.38915e-05;-0.00610606468276106
1.38918e-05;-0.006088134860554522
1.38920e-05;-0.006062528512908291
1.38923e-05;-0.0060344685398372715
1.38925e-05;-0.006006408566766252
1.38928e-05;-0.005971935943128858
1.38930e-05;-0.005935413662704025
1.38933e-05;-0.005898891382279192
1.38935e-05;-0.005857799391401015
1.38938e-05;-0.005815246797305547
1.38940e-05;-0.005772694203210078
1.38943e-05;-0.005728056009731016
1.38945e-05;-0.005682751202207436
1.38948e-05;-0.00563744639468355
1.38950e-05;-0.005591809415671354
1.38953e-05;-0.005546066265655992
1.38955e-05;-0.00550032311564032
1.38958e-05;-0.005456164602413056
1.38960e-05;-0.00541251258201855
1.38963e-05;-0.005371455063253796
1.38965e-05;-0.005331226817473924
1.38968e-05;-0.005294517248743464
1.38970e-05;-0.005258932344489981
1.38973e-05;-0.0052290818681393425
1.38975e-05;-0.005201064270245658
1.38978e-05;-0.005173046672351784
1.38980e-05;-0.00515303341928038
1.38983e-05;-0.0051355785715870555
1.38985e-05;-0.005118123723893612
1.38988e-05;-0.005112675104719168
1.38990e-05;-0.005111064001330779
1.38993e-05;-0.005109452897942378
1.38995e-05;-0.005107841794553978
1.38998e-05;-0.005106230691165589
1.39000e-05;-0.00510973432563548
1.39003e-05;-0.00512796394904536
1.39005e-05;-0.005146193572455116
1.39008e-05;-0.005164423195864996
1.39010e-05;-0.005182652819274876
1.39013e-05;-0.0052008824426846316
1.39015e-05;-0.005229117267220112
1.39018e-05;-0.005260550024995101
1.39020e-05;-0.0052919827827698765
1.39023e-05;-0.005328174979259719
1.39025e-05;-0.005365888421257486
1.39028e-05;-0.005406629693413135
1.39030e-05;-0.0054483387420863625
1.39033e-05;-0.005492406396525867
1.39035e-05;-0.005537227925243742
1.39038e-05;-0.005583693138230898
1.39040e-05;-0.005630683717225053
1.39043e-05;-0.0056784837877852075
1.39045e-05;-0.00572654259377212
1.39048e-05;-0.005774545292889703
1.39050e-05;-0.00582253005873226
1.39053e-05;-0.005869594707199467
1.39055e-05;-0.005916365261235369
1.39058e-05;-0.00596132363395605
1.39060e-05;-0.006005702784450682
1.39063e-05;-0.0060481211939315115
1.39065e-05;-0.006088276270681861
1.39068e-05;-0.006126025657625763
1.39070e-05;-0.006161044083099701
1.39073e-05;-0.006192843375228916
1.39075e-05;-0.006220386168307723
1.39078e-05;-0.006239944135450425
1.39080e-05;-0.006257301892765524
1.39083e-05;-0.006262770463251248
1.39085e-05;-0.006264438927643675
1.39088e-05;-0.006266107392036103
1.39090e-05;-0.006253841121346137
1.39093e-05;-0.00623712093194356
1.39095e-05;-0.0062204007425409845
1.39098e-05;-0.006188247870498353
1.39100e-05;-0.006151162295136306
1.39103e-05;-0.00611407671977426
1.39105e-05;-0.006062539802681245
1.39108e-05;-0.006006383845399655
1.39110e-05;-0.005950227888118066
1.39113e-05;-0.005881585505787823
1.39115e-05;-0.005808952123855341
1.39118e-05;-0.005736318741922367
1.39120e-05;-0.005652425405234113
1.39123e-05;-0.0055649330820646
1.39125e-05;-0.005477440758894494
1.39128e-05;-0.005382943134293492
1.39130e-05;-0.005286206425638194
1.39133e-05;-0.005185582110800036
1.39135e-05;-0.005083715211741813
1.39138e-05;-0.004979540344250543
1.39140e-05;-0.004873525411059694
1.39143e-05;-0.004766527543735131
1.39145e-05;-0.004659174271646228
1.39148e-05;-0.004552094350317288
1.39150e-05;-0.004445916422486899
1.39153e-05;-0.004341243724009265
1.39155e-05;-0.004238595855101812
1.39158e-05;-0.004138449224211675
1.39160e-05;-0.0040413743652835945
1.39163e-05;-0.003948040537093488
1.39165e-05;-0.003859139726824682
1.39168e-05;-0.003779953432489095
1.39170e-05;-0.0037035159858898894
1.39173e-05;-0.003627078539290684
1.39175e-05;-0.0035598178005526006
1.39178e-05;-0.0034954901861706912
1.39180e-05;-0.003435179094384063
1.39183e-05;-0.0033761517919951196
1.39185e-05;-0.003317124489605776
1.39188e-05;-0.0032649671028879873
1.39190e-05;-0.003215005527270933
1.39193e-05;-0.00316504395165354
1.39195e-05;-0.003121796027606322
1.39198e-05;-0.0030806939684208173
1.39200e-05;-0.003039591909235591
1.39203e-05;-0.002998489850050086
1.39205e-05;-0.002957387790864581
1.39208e-05;-0.002922360764743368
1.39210e-05;-0.0028892754837140247
1.39213e-05;-0.0028561902026846813
1.39215e-05;-0.0028231049216555617
1.39218e-05;-0.0027900196406262182
1.39220e-05;-0.002761113051041417
1.39223e-05;-0.00273354208441043
1.39225e-05;-0.0027059711177792557
1.39228e-05;-0.0026784001511480815
1.39230e-05;-0.0026508291845170943
1.39233e-05;-0.0026270723205397022
1.39235e-05;-0.0026045345470646513
1.39238e-05;-0.002581996773589753
1.39240e-05;-0.002559459000114702
1.39243e-05;-0.002536921226639651
1.39245e-05;-0.0025162295103254573
1.39248e-05;-0.002496127843874957
1.39250e-05;-0.002477532682161785
1.39253e-05;-0.002459419040162246
1.39255e-05;-0.0024423969237885607
1.39258e-05;-0.0024261728963964196
1.39260e-05;-0.002410484137459906
1.39263e-05;-0.0023953893653887817
1.39265e-05;-0.002380995620275343
1.39268e-05;-0.0023674114575935705
1.39270e-05;-0.002354745729296612
1.39273e-05;-0.0023431423345917995
1.39275e-05;-0.0023328614949592826
1.39278e-05;-0.002324212921973935
1.39280e-05;-0.0023173617843470044
1.39283e-05;-0.0023123289178496134
1.39285e-05;-0.002309100782030215
1.39288e-05;-0.002307662532121487
1.39290e-05;-0.0023079992669622794
1.39293e-05;-0.002310833237911413
1.39295e-05;-0.002314328258703313
1.39298e-05;-0.0023208089412817662
1.39300e-05;-0.00232824392222554
1.39303e-05;-0.0023401713539522996
1.39305e-05;-0.0023535346946148847
1.39308e-05;-0.0023668980352773796
1.39310e-05;-0.0023802613759399648
1.39313e-05;-0.002395434307711475
1.39315e-05;-0.0024158172853195143
1.39318e-05;-0.0024362002629276917
1.39320e-05;-0.002456583240535869
1.39323e-05;-0.002476966218143908
1.39325e-05;-0.0025007956121706988
1.39328e-05;-0.002525726574221653
1.39330e-05;-0.002550657536272439
1.39333e-05;-0.002577312108416272
1.39335e-05;-0.002604517593025081
1.39338e-05;-0.0026317230776337058
1.39340e-05;-0.0026598332708124305
1.39343e-05;-0.0026882326333516823
1.39345e-05;-0.0027166319958907416
1.39348e-05;-0.002744960195628876
1.39350e-05;-0.0027732656498085204
1.39353e-05;-0.0028009284333192106
1.39355e-05;-0.002828385801879346
1.39358e-05;-0.0028547538502723046
1.39360e-05;-0.002880773722438345
1.39363e-05;-0.0029046126311870505
1.39365e-05;-0.0029277544449619543
1.39368e-05;-0.0029508962587368576
1.39370e-05;-0.0029707780516614974
1.39373e-05;-0.0029896178536336086
1.39375e-05;-0.0030084576556057194
1.39378e-05;-0.0030269398792051594
1.39380e-05;-0.0030453078110727985
1.39383e-05;-0.0030636757429404375
1.39385e-05;-0.003082472043504136
1.39388e-05;-0.003101405262304495
1.39390e-05;-0.0031203384811048546
1.39393e-05;-0.0031392716999050856
1.39395e-05;-0.003158682915599046
1.39398e-05;-0.0031794703459053215
1.39400e-05;-0.0032002577762114564
1.39403e-05;-0.0032210452065177322
1.39405e-05;-0.0032418326368240076
1.39408e-05;-0.003264871924169585
1.39410e-05;-0.0032886309660107985
1.39413e-05;-0.003312390007852012
1.39415e-05;-0.003336149049693065
1.39418e-05;-0.0033599080915342784
1.39420e-05;-0.0033836671333754916
1.39423e-05;-0.0034080323634033097
1.39425e-05;-0.00343414288728513
1.39428e-05;-0.0034602534111669507
1.39430e-05;-0.0034863639350485942
1.39433e-05;-0.0035124744589304147
1.39435e-05;-0.0035385849828122357
1.39438e-05;-0.0035646955066938792
1.39440e-05;-0.0035901573882034105
1.39443e-05;-0.0036154119460439366
1.39445e-05;-0.003640666503884292
1.39448e-05;-0.003665921061724818
1.39450e-05;-0.003691175619565344
1.39453e-05;-0.00371643017740587
1.39455e-05;-0.003741684735246225
1.39458e-05;-0.003766939293086751
1.39460e-05;-0.003786687636543041
