Time(s);Current(A)
5.50000e-07;0.00031283845105540013
5.50250e-07;0.00031564102773320275
5.50500e-07;0.0003187875301553716
5.50750e-07;0.00032334948469703306
5.51000e-07;0.00032854950974048114
5.51250e-07;0.0003349980719412254
5.51500e-07;0.0003420094611846419
5.51750e-07;0.00035012099866937657
5.52000e-07;0.0003587284710788708
5.52250e-07;0.0003688531133310448
5.52500e-07;0.0003796616793341513
5.52750e-07;0.0003922032681927706
5.53000e-07;0.0004055260850052039
5.53250e-07;0.0004203041944653325
5.53500e-07;0.0004357383341063343
5.53750e-07;0.0004526728996016563
5.54000e-07;0.0004702838408391159
5.54250e-07;0.00048789478207657543
5.54500e-07;0.0005074124383011527
5.54750e-07;0.0005277896210133103
5.55000e-07;0.0005481668037254678
5.55250e-07;0.00057026725979831
5.55500e-07;0.0005931445488581924
5.55750e-07;0.0006160218379180748
5.56000e-07;0.0006388991269779571
5.56250e-07;0.0006617764160378395
5.56500e-07;0.0006846537050977121
5.56750e-07;0.0007079220706012838
5.57000e-07;0.0007313667291346434
5.57250e-07;0.0007548113876680029
5.57500e-07;0.0007782560462013626
5.57750e-07;0.0008017007047347221
5.58000e-07;0.0008251453632680717
5.58250e-07;0.0008453950695536452
5.58500e-07;0.0008642045259318667
5.58750e-07;0.0008830139823100882
5.59000e-07;0.0009018234386883097
5.59250e-07;0.0009206328950665312
5.59500e-07;0.0009394423514447448
5.59750e-07;0.0009582518078229663
5.60000e-07;0.0009770612642011878
5.60250e-07;0.0009912550469378478
5.60500e-07;0.0010033681339335165
5.60750e-07;0.00101548122092918
5.61000e-07;0.0010275943079248488
5.61250e-07;0.0010397073949205175
5.61500e-07;0.0010518204819161862
5.61750e-07;0.0010639335689118549
5.62000e-07;0.0010760466559075236
5.62250e-07;0.0010847330774390181
5.62500e-07;0.0010918747952520995
5.62750e-07;0.0010990165130651806
5.63000e-07;0.001106158230878262
5.63250e-07;0.001113299948691343
5.63500e-07;0.0011204416665044211
5.63750e-07;0.0011275833843175024
5.64000e-07;0.0011347251021305836
5.64250e-07;0.001141866819943665
5.64500e-07;0.001149008537756746
5.64750e-07;0.0011561502555698273
5.65000e-07;0.0011632919733829054
5.65250e-07;0.0011704336911959868
5.65500e-07;0.0011775754090090679
5.65750e-07;0.0011847171268221492
5.66000e-07;0.0011918588446352303
5.66250e-07;0.0011990005624483114
5.66500e-07;0.0012061422802613897
5.66750e-07;0.001210415475585842
5.67000e-07;0.0012133955720067362
5.67250e-07;0.0012163756684276303
5.67500e-07;0.0012193557648485242
5.67750e-07;0.001222335861269417
5.68000e-07;0.0012253159576903112
5.68250e-07;0.0012282960541112053
5.68500e-07;0.0012312761505320993
5.68750e-07;0.0012342562469529934
5.69000e-07;0.0012372363433738875
5.69250e-07;0.0012402164397947804
5.69500e-07;0.0012431965362156743
5.69750e-07;0.0012461766326365684
5.70000e-07;0.0012491567290574626
5.70250e-07;0.0012521368254783565
5.70500e-07;0.0012551169218992506
5.70750e-07;0.0012580970183201435
5.71000e-07;0.0012610771147410374
5.71250e-07;0.001258717699622816
5.71500e-07;0.0012539512904704954
5.71750e-07;0.0012491848813181749
5.72000e-07;0.0012444184721658565
5.72250e-07;0.001239652063013536
5.72500e-07;0.0012348856538612154
5.72750e-07;0.0012301192447088946
5.73000e-07;0.001225352835556574
5.73250e-07;0.0012205864264042536
5.73500e-07;0.0012158200172519352
5.73750e-07;0.0012097852512551767
5.74000e-07;0.00119831788748111
5.74250e-07;0.0011868505237070434
5.74500e-07;0.0011753831599329767
5.74750e-07;0.0011639157961589102
5.75000e-07;0.0011524484323848483
5.75250e-07;0.0011409810686107817
5.75500e-07;0.001129513704836715
5.75750e-07;0.0011180463410626483
5.76000e-07;0.0011065789772885816
5.76250e-07;0.00109511161351452
5.76500e-07;0.001082538962332753
5.76750e-07;0.0010694680595456042
5.77000e-07;0.0010563971567584551
5.77250e-07;0.0010433262539713062
5.77500e-07;0.0010302553511841572
5.77750e-07;0.001017184448397014
5.78000e-07;0.0010041135456098649
5.78250e-07;0.000991042642822716
5.78500e-07;0.000977971740035567
5.78750e-07;0.000964900837248418
5.79000e-07;0.0009541226585620343
5.79250e-07;0.0009443780150954872
5.79500e-07;0.0009346333716289401
5.79750e-07;0.0009248887281623929
5.80000e-07;0.0009151440846958458
5.80250e-07;0.0009053994412292986
5.80500e-07;0.0008956547977627557
5.80750e-07;0.0008859101542962086
5.81000e-07;0.0008761655108296614
5.81250e-07;0.0008664208673631143
5.81500e-07;0.0008562635416045906
5.81750e-07;0.000845920183133617
5.82000e-07;0.0008355768246626477
5.82250e-07;0.0008252334661916741
5.82500e-07;0.0008148901077207004
5.82750e-07;0.0008045467492497268
5.83000e-07;0.0007942033907787532
5.83250e-07;0.0007838600323077839
5.83500e-07;0.0007735166738368103
5.83750e-07;0.0007631733153658365
5.84000e-07;0.0007528299568948629
5.84250e-07;0.0007408688461106585
5.84500e-07;0.0007281784700859653
5.84750e-07;0.0007154880940612773
5.85000e-07;0.0007027977180365841
5.85250e-07;0.0006901073420118908
5.85500e-07;0.0006774169659871976
5.85750e-07;0.0006647265899625043
5.86000e-07;0.0006520362139378111
5.86250e-07;0.0006393458379131233
5.86500e-07;0.00062665546188843
5.86750e-07;0.0006139650858637368
5.87000e-07;0.0006013802181205914
5.87250e-07;0.0005888429123692834
5.87500e-07;0.0005763056066179808
5.87750e-07;0.0005637683008666729
5.88000e-07;0.000551230995115365
5.88250e-07;0.0005390814529461135
5.88500e-07;0.0005285927711122615
5.88750e-07;0.0005181040892784095
5.89000e-07;0.0005076154074445619
5.89250e-07;0.0004971267256107098
5.89500e-07;0.00048663804377685786
5.89750e-07;0.0004781978129921404
5.90000e-07;0.00047068100177837386
5.90250e-07;0.00046316419056460735
5.90500e-07;0.00045786317605908466
5.90750e-07;0.0004535610187371398
5.91000e-07;0.00045120923180482967
5.91250e-07;0.0004497366507432951
5.91500e-07;0.00045017090837642937
5.91750e-07;0.0004514647482632134
5.92000e-07;0.00045473206845327225
5.92250e-07;0.0004588890122131532
5.92500e-07;0.0004651999724462829
5.92750e-07;0.00047248194000145565
5.93000e-07;0.0004817861353339888
5.93250e-07;0.0004920019290702635
5.93500e-07;0.0005040303063542982
5.93750e-07;0.0005168757766914954
5.94000e-07;0.0005318029112838863
5.94250e-07;0.0005476684376011946
5.94500e-07;0.0005635339639185029
5.94750e-07;0.000581608987887719
5.95000e-07;0.0006006800294940856
5.95250e-07;0.0006197510711004522
5.95500e-07;0.0006408524550328466
5.95750e-07;0.0006628690953197393
5.96000e-07;0.0006848857356066226
5.96250e-07;0.0007069023758935152
5.96500e-07;0.0007289190161804079
5.96750e-07;0.0007509356564673005
5.97000e-07;0.0007734079819900047
5.97250e-07;0.0007960857254869988
5.97500e-07;0.0008187634689839834
5.97750e-07;0.0008414412124809775
5.98000e-07;0.0008641189559779717
5.98250e-07;0.0008867966994749658
5.98500e-07;0.000905252259075035
5.98750e-07;0.0009218045038537505
5.99000e-07;0.0009383567486324731
5.99250e-07;0.0009549089934111956
5.99500e-07;0.000971461238189918
5.99750e-07;0.0009880134829686406
6.00000e-07;0.001004565727747363
6.00250e-07;0.0010211179725260785
6.00500e-07;0.0010376702173048012
6.00750e-07;0.0010542224620835236
6.01000e-07;0.0010643885951743778
6.01250e-07;0.001071675938207036
6.01500e-07;0.001078963281239694
6.01750e-07;0.001086250624272349
6.02000e-07;0.001093537967305007
6.02250e-07;0.0011008253103376652
6.02500e-07;0.0011081126533703232
6.02750e-07;0.0011153999964029814
6.03000e-07;0.0011226873394356363
6.03250e-07;0.0011299746824682945
6.03500e-07;0.001132786880137787
6.03750e-07;0.001133581730693701
6.04000e-07;0.0011343765812496147
6.04250e-07;0.0011351714318055283
6.04500e-07;0.001135966282361442
6.04750e-07;0.0011367611329173555
6.05000e-07;0.0011375559834732693
6.05250e-07;0.0011383508340291832
6.05500e-07;0.001139145684585097
6.05750e-07;0.0011399405351410106
6.06000e-07;0.0011401405241795739
6.06250e-07;0.0011377926156202743
6.06500e-07;0.0011354447070609746
6.06750e-07;0.0011330967985016748
6.07000e-07;0.0011307488899423752
6.07250e-07;0.0011284009813830765
6.07500e-07;0.0011260530728237769
6.07750e-07;0.001123705164264477
6.08000e-07;0.0011213572557051774
6.08250e-07;0.0011190093471458776
6.08500e-07;0.001116661438586578
6.08750e-07;0.0011143156323180044
6.09000e-07;0.0011119707737393442
6.09250e-07;0.001109625915160684
6.09500e-07;0.001107281056582024
6.09750e-07;0.0011049361980033636
6.10000e-07;0.0011020320526616782
6.10250e-07;0.001096732382717253
6.10500e-07;0.0010914327127728256
6.10750e-07;0.0010861330428283981
6.11000e-07;0.0010808333728839707
6.11250e-07;0.0010755337029395432
6.11500e-07;0.0010669179597787798
6.11750e-07;0.001056807366688325
6.12000e-07;0.0010466967735978702
6.12250e-07;0.0010337655674019248
6.12500e-07;0.0010195628593339316
6.12750e-07;0.0010053601512659382
6.13000e-07;0.000988151469326803
6.13250e-07;0.0009695877268878509
6.13500e-07;0.0009510239844488988
6.13750e-07;0.0009301184909228694
6.14000e-07;0.0009081573613419346
6.14250e-07;0.0008861962317609997
6.14500e-07;0.0008611340722542096
6.14750e-07;0.0008346740020065314
6.15000e-07;0.0008082139317588531
6.15250e-07;0.0007817538615111748
6.15500e-07;0.0007552937912634965
6.15750e-07;0.0007282734647086393
6.16000e-07;0.0006988534608210359
6.16250e-07;0.0006694334569334324
6.16500e-07;0.000640013453045829
6.16750e-07;0.0006105934491582255
6.17000e-07;0.0005811734452706221
6.17250e-07;0.0005519540309471308
6.17500e-07;0.0005228250402289673
6.17750e-07;0.0004936960495108037
6.18000e-07;0.0004645670587926402
6.18250e-07;0.00043741258651838093
6.18500e-07;0.00041114820579655104
6.18750e-07;0.00038488382507471003
6.19000e-07;0.000358619444352869
6.19250e-07;0.00033488082974587603
6.19500e-07;0.00031228080317747815
6.19750e-07;0.00029140216426496704
6.20000e-07;0.00027260479713046214
6.20250e-07;0.0002557704787338875
6.20500e-07;0.00024096168564749599
6.20750e-07;0.0002282157794593532
6.21000e-07;0.0002175686159675786
6.21250e-07;0.00020905695232283615
6.21500e-07;0.00020271751205039088
6.21750e-07;0.00019858680902546904
6.22000e-07;0.00019669071476951649
6.22250e-07;0.00019702233938979156
6.22500e-07;0.000199538286517809
6.22750e-07;0.0002041794188742333
6.23000e-07;0.00021088565039507058
6.23250e-07;0.0002195974682686061
6.23500e-07;0.0002302553551615559
6.23750e-07;0.00024279963325512456
6.24000e-07;0.0002571639825097618
6.24250e-07;0.00027326156815424973
6.24500e-07;0.0002914880563003313
6.24750e-07;0.00031043558125023964
6.25000e-07;0.0003312394621711113
6.25250e-07;0.00035288016827999435
6.25500e-07;0.00037635822620053343
6.25750e-07;0.00040066454243966156
6.26000e-07;0.00042497085867880004
6.26250e-07;0.0004509175864884963
6.26500e-07;0.00047760379408677973
6.26750e-07;0.0005042900016850632
6.27000e-07;0.0005309762092833354
6.27250e-07;0.0005576715149274197
6.27500e-07;0.0005844057891185795
6.27750e-07;0.0006111400633097392
6.28000e-07;0.000637874337500899
6.28250e-07;0.0006646086116920587
6.28500e-07;0.0006896588445432088
6.28750e-07;0.0007139499297777416
6.29000e-07;0.0007382410150122744
6.29250e-07;0.0007598880479514537
6.29500e-07;0.0007803431707215744
6.29750e-07;0.0008007982934916951
6.30000e-07;0.0008186193809371246
6.30250e-07;0.0008352530737555081
6.30500e-07;0.0008518867665738914
6.30750e-07;0.0008660186641289793
6.31000e-07;0.0008790227794459962
6.31250e-07;0.0008920268947630075
6.31500e-07;0.0009050310100800243
6.31750e-07;0.0009180351253970412
6.32000e-07;0.000931039240714058
6.32250e-07;0.0009440433560310748
6.32500e-07;0.0009570474713480917
6.32750e-07;0.000970051586665103
6.33000e-07;0.0009803916870723265
6.33250e-07;0.000989530878379868
6.33500e-07;0.0009986700696874094
6.33750e-07;0.0010078092609949506
6.34000e-07;0.001016948452302492
6.34250e-07;0.0010260876436100296
6.34500e-07;0.001035226834917571
6.34750e-07;0.0010443660262251125
6.35000e-07;0.001053505217532654
6.35250e-07;0.0010600468483059123
6.35500e-07;0.0010654175268930025
6.35750e-07;0.0010707882054800948
6.36000e-07;0.001076158884067187
6.36250e-07;0.0010815295626542794
6.36500e-07;0.0010869002412413717
6.36750e-07;0.001092270919828464
6.37000e-07;0.0010976415984155542
6.37250e-07;0.0011030122770026465
6.37500e-07;0.0011083829555897388
6.37750e-07;0.0011137536341768312
6.38000e-07;0.0011191243127639235
6.38250e-07;0.0011244949913510136
6.38500e-07;0.001129865669938106
6.38750e-07;0.0011352363485251983
6.39000e-07;0.0011406070271122906
6.39250e-07;0.0011459777056993829
6.39500e-07;0.0011513483842864754
6.39750e-07;0.0011567190628735654
6.40000e-07;0.0011620897414606577
6.40250e-07;0.00116746042004775
6.40500e-07;0.0011728310986348425
6.40750e-07;0.0011772125806849868
6.41000e-07;0.0011773571581666672
6.41250e-07;0.0011775017356483476
6.41500e-07;0.001177646313130028
6.41750e-07;0.0011777908906117087
6.42000e-07;0.001177935468093389
6.42250e-07;0.0011780800455750695
6.42500e-07;0.00117822462305675
6.42750e-07;0.0011783692005384303
6.43000e-07;0.0011785137780201107
6.43250e-07;0.0011786583555017912
6.43500e-07;0.0011788029329834716
6.43750e-07;0.0011789475104651522
6.44000e-07;0.0011790920879468324
6.44250e-07;0.001179236665428513
6.44500e-07;0.0011793812429101934
6.44750e-07;0.0011795258203918739
6.45000e-07;0.0011796703978735543
6.45250e-07;0.0011798149753552347
6.45500e-07;0.001179959552836915
6.45750e-07;0.0011801041303185955
6.46000e-07;0.001180248707800276
6.46250e-07;0.0011803932852819563
6.46500e-07;0.0011792436108889047
6.46750e-07;0.0011775105017530674
6.47000e-07;0.0011757773926172293
6.47250e-07;0.001174044283481391
6.47500e-07;0.001172311174345553
6.47750e-07;0.001170578065209715
6.48000e-07;0.001168844956073877
6.48250e-07;0.0011671118469380396
6.48500e-07;0.001165339943073565
6.48750e-07;0.0011634018744917105
6.49000e-07;0.0011614638059098557
6.49250e-07;0.0011595257373280012
6.49500e-07;0.0011575876687461464
6.49750e-07;0.0011556496001642927
6.50000e-07;0.001153711531582438
6.50250e-07;0.0011517734630005834
6.50500e-07;0.0011498353944187287
6.50750e-07;0.0011425139663296402
6.51000e-07;0.0011327657780165474
6.51250e-07;0.0011230175897034508
6.51500e-07;0.001113269401390354
6.51750e-07;0.0011035212130772571
6.52000e-07;0.0010937730247641605
6.52250e-07;0.0010840248364510636
6.52500e-07;0.0010742766481379711
6.52750e-07;0.0010645284598248743
6.53000e-07;0.0010547802715117774
6.53250e-07;0.0010372516854244118
6.53500e-07;0.001016215780195484
6.53750e-07;0.0009951798749665564
6.54000e-07;0.0009741439697376374
6.54250e-07;0.0009531080645087097
6.54500e-07;0.000932072159279782
6.54750e-07;0.0009110362540508543
6.55000e-07;0.0008900003488219266
6.55250e-07;0.0008689644435930078
6.55500e-07;0.0008479285383640801
6.55750e-07;0.0008232683344852001
6.56000e-07;0.0007969743359857155
6.56250e-07;0.000770680337486231
6.56500e-07;0.0007443863389867464
6.56750e-07;0.000718092340487273
6.57000e-07;0.0006918521276509592
6.57250e-07;0.0006658422883688411
6.57500e-07;0.000639832449086723
6.57750e-07;0.0006138226098046049
6.58000e-07;0.0005878127705224979
6.58250e-07;0.0005618029312403798
6.58500e-07;0.0005377082044712567
6.58750e-07;0.0005144767897036536
6.59000e-07;0.0004912453749360505
6.59250e-07;0.00047000328507246637
6.59500e-07;0.00044965796135339073
6.59750e-07;0.00043134116446792925
6.60000e-07;0.0004139388055327147
6.60250e-07;0.000397764481730655
6.60500e-07;0.0003821437428806798
6.60750e-07;0.0003671405923999105
6.61000e-07;0.00035241584407438257
6.61250e-07;0.0003385782797164997
6.61500e-07;0.0003251406482929146
6.61750e-07;0.0003130295533285472
6.62000e-07;0.00030151644664838244
6.62250e-07;0.00029000333996822257
6.62500e-07;0.00027916062139051015
6.62750e-07;0.0002686201065165485
6.63000e-07;0.0002580795916425869
6.63250e-07;0.00024825467832046344
6.63500e-07;0.00023875235043591605
6.63750e-07;0.00022925002255137265
6.64000e-07;0.00022053436789607145
6.64250e-07;0.000212173337021608
6.64500e-07;0.0002038123061471446
6.64750e-07;0.00019624873446567203
6.65000e-07;0.0001890446487608015
6.65250e-07;0.00018184056305593402
6.65500e-07;0.0001746364773510635
6.65750e-07;0.00016743239164619298
6.66000e-07;0.00016022830594132246
6.66250e-07;0.00015302422023645194
6.66500e-07;0.00014582013453158445
6.66750e-07;0.00013861604882671393
6.67000e-07;0.0001327234980864325
6.67250e-07;0.00012742217311887885
6.67500e-07;0.00012212084815132522
6.67750e-07;0.00011681952318377158
6.68000e-07;0.0001115181982162202
6.68250e-07;0.00010621687324866656
6.68500e-07;0.00010091554828111293
6.68750e-07;9.56142233135593e-05
6.69000e-07;9.031289834600567e-05
6.69250e-07;8.584131634957451e-05
6.69500e-07;8.174377350765748e-05
6.69750e-07;7.806465902289413e-05
6.70000e-07;7.457416751462073e-05
6.70250e-07;7.144856238476553e-05
6.70500e-07;6.848744408664846e-05
6.70750e-07;6.583814913716153e-05
6.71000e-07;6.332942077966392e-05
6.71250e-07;6.116937101772708e-05
6.71500e-07;5.916650179436617e-05
6.71750e-07;5.7546117188781514e-05
6.72000e-07;5.6098152510845116e-05
6.72250e-07;5.498166564151093e-05
6.72500e-07;5.401460538208399e-05
6.72750e-07;5.332832455517644e-05
6.73000e-07;5.2768616058737166e-05
6.73250e-07;5.249531527185342e-05
6.73500e-07;5.23511239818344e-05
6.73750e-07;5.249706040537294e-05
6.74000e-07;5.277378326333437e-05
6.74250e-07;5.3291223104241524e-05
6.74500e-07;5.391717555677913e-05
6.74750e-07;5.473464113750509e-05
6.75000e-07;5.563843876446573e-05
6.75250e-07;5.676167358066561e-05
6.75500e-07;5.7983828307716026e-05
6.75750e-07;5.920598303476644e-05
6.76000e-07;6.0681993318201825e-05
6.76250e-07;6.227243894003001e-05
6.76500e-07;6.386288456185752e-05
6.76750e-07;6.545333018368572e-05
6.77000e-07;6.70437758055139e-05
6.77250e-07;6.865711251043553e-05
6.77500e-07;7.036849579247309e-05
6.77750e-07;7.207987907450992e-05
6.78000e-07;7.379126235654747e-05
6.78250e-07;7.550264563858503e-05
6.78500e-07;7.721402892062258e-05
6.78750e-07;7.847305687101447e-05
6.79000e-07;7.952816793186481e-05
6.79250e-07;8.058327899271471e-05
6.79500e-07;8.163839005356504e-05
6.79750e-07;8.269350111441539e-05
6.80000e-07;8.374861217526573e-05
6.80250e-07;8.480372323611606e-05
6.80500e-07;8.585883429696641e-05
6.80750e-07;8.691394535781629e-05
6.81000e-07;8.796905641866664e-05
6.81250e-07;8.902416747951698e-05
6.81500e-07;9.007927854036733e-05
6.81750e-07;9.091037212381436e-05
6.82000e-07;9.078195903892e-05
6.82250e-07;9.065354595402559e-05
6.82500e-07;9.052513286913116e-05
6.82750e-07;9.039671978423675e-05
6.83000e-07;9.026830669934234e-05
6.83250e-07;9.013989361444791e-05
6.83500e-07;9.001148052955356e-05
6.83750e-07;8.988306744465914e-05
6.84000e-07;8.975465435976472e-05
6.84250e-07;8.962624127487031e-05
6.84500e-07;8.94978281899759e-05
6.84750e-07;8.936941510508147e-05
6.85000e-07;8.878908297813186e-05
6.85250e-07;8.800503063626584e-05
6.85500e-07;8.722097829439983e-05
6.85750e-07;8.643692595253382e-05
6.86000e-07;8.565287361066779e-05
6.86250e-07;8.48688212688021e-05
6.86500e-07;8.408476892693608e-05
6.86750e-07;8.327542782491942e-05
6.87000e-07;8.235777046883108e-05
6.87250e-07;8.144011311274274e-05
6.87500e-07;8.052245575665441e-05
6.87750e-07;7.960479840056646e-05
6.88000e-07;7.868714104447813e-05
6.88250e-07;7.776948368838979e-05
6.88500e-07;7.685182633230147e-05
6.88750e-07;7.599303639916943e-05
6.89000e-07;7.516078326342868e-05
6.89250e-07;7.437156030542911e-05
6.89500e-07;7.363609383097172e-05
6.89750e-07;7.295822338322578e-05
6.90000e-07;7.24631149691016e-05
6.90250e-07;7.247998253001784e-05
6.90500e-07;7.332927211924497e-05
6.90750e-07;7.512137401041106e-05
6.91000e-07;7.783256976496897e-05
6.91250e-07;8.141426326201352e-05
6.91500e-07;8.581786339581184e-05
6.91750e-07;9.099696292133683e-05
6.92000e-07;9.697749390570125e-05
6.92250e-07;0.00010391320925041846
6.92500e-07;0.00011195233966114363
6.92750e-07;0.00012111153676044581
6.93000e-07;0.00013132344776191357
6.93250e-07;0.0001425051290095257
6.93500e-07;0.00015457366467752333
6.93750e-07;0.00016771080815864052
6.94000e-07;0.0001812090555851094
6.94250e-07;0.00019584300882394495
6.94500e-07;0.00021098892595597613
6.94750e-07;0.00022721099373012546
6.95000e-07;0.0002439181785710505
6.95250e-07;0.00026156444772530674
6.95500e-07;0.00027963404592821085
6.95750e-07;0.0002977036441311149
6.96000e-07;0.0003165492655664016
6.96250e-07;0.00033574470987916794
6.96500e-07;0.00035494015419194246
6.96750e-07;0.0003741355985047169
