Time(s);Current(A)
5.75000e-06;-0.0011752451594392772
5.75025e-06;-0.0011940358835339651
5.75050e-06;-0.0012128266076285893
5.75075e-06;-0.0012316173317232135
5.75100e-06;-0.0012464493158772995
5.75125e-06;-0.001253002101512294
5.75150e-06;-0.0012595548871473109
5.75175e-06;-0.0012636276772275098
5.75200e-06;-0.0012625138736359306
5.75225e-06;-0.001259328872414458
5.75250e-06;-0.0012518122261223974
5.75275e-06;-0.001242175238329411
5.75300e-06;-0.001228103827341837
5.75325e-06;-0.0012116109540997561
5.75350e-06;-0.0011900539021008824
5.75375e-06;-0.0011684968501019359
5.75400e-06;-0.0011443431062526334
5.75425e-06;-0.001114758713347398
5.75450e-06;-0.0010851743204420626
5.75475e-06;-0.0010533179555402526
5.75500e-06;-0.0010167100516462156
5.75525e-06;-0.0009801021477520546
5.75550e-06;-0.0009418169064246289
5.75575e-06;-0.0009000237282784032
5.75600e-06;-0.000858230550132319
5.75625e-06;-0.000815244415500386
5.75650e-06;-0.0007697633648803763
5.75675e-06;-0.0007242823142605207
5.75700e-06;-0.0006788012636406652
5.75725e-06;-0.0006330834704242746
5.75750e-06;-0.0005868705603318388
5.75775e-06;-0.0005406576502394031
5.75800e-06;-0.0004944447401468107
5.75825e-06;-0.0004489067957038737
5.75850e-06;-0.000404780455632203
5.75875e-06;-0.0003612806763798201
5.75900e-06;-0.00031963683185492017
5.75925e-06;-0.0002797781142083495
5.75950e-06;-0.00024200926580165695
5.75975e-06;-0.00020663494125516368
5.76000e-06;-0.0001739060600115495
5.76025e-06;-0.00014372742423212674
5.76050e-06;-0.00011536650202683489
5.76075e-06;-8.798418319124401e-05
5.76100e-06;-6.135273038882996e-05
5.76125e-06;-3.5645954256603507e-05
5.76150e-06;-1.106612368917309e-05
5.76175e-06;1.2184527326624453e-05
5.76200e-06;3.3937432951447395e-05
5.76225e-06;5.424084922776354e-05
5.76250e-06;7.354223996986583e-05
5.76275e-06;9.235578770038516e-05
5.76300e-06;0.0001108126710540919
5.76325e-06;0.00012879254097713345
5.76350e-06;0.00014615723623395756
5.76375e-06;0.00016276863004527093
5.76400e-06;0.00017839501280323222
5.76425e-06;0.00019315939326994085
5.76450e-06;0.00020767776017716454
5.76475e-06;0.00022168162117420064
5.76500e-06;0.00023544890276014368
5.76525e-06;0.00024872140875099413
5.76550e-06;0.0002619939147418446
5.76575e-06;0.00027476886728200077
5.76600e-06;0.000286503250385128
5.76625e-06;0.0002982376334882553
5.76650e-06;0.0003096556003570735
5.76675e-06;0.0003204118231211036
5.76700e-06;0.0003311680458851337
5.76725e-06;0.0003416211331851081
5.76750e-06;0.00035144025141353865
5.76775e-06;0.0003612593696419692
5.76800e-06;0.0003704339845168928
5.76825e-06;0.00037826070301863945
5.76850e-06;0.0003860874215204126
5.76875e-06;0.00039391414002215927
5.76900e-06;0.0004017408585239059
5.76925e-06;0.0004095675770256791
5.76950e-06;0.00041739429552742574
5.76975e-06;0.0004241204629942511
5.77000e-06;0.000428544968661761
5.77025e-06;0.00043296947432925584
5.77050e-06;0.0004373939799967507
5.77075e-06;0.00044181848566426056
5.77100e-06;0.00044624299133175547
5.77125e-06;0.0004506674969992503
5.77150e-06;0.00045401902949376074
5.77175e-06;0.00045512657576179174
5.77200e-06;0.00045623412202982274
5.77225e-06;0.00045666377472793057
5.77250e-06;0.00045567569968392446
5.77275e-06;0.000454687624639915
5.77300e-06;0.00045305613519016654
5.77325e-06;0.0004500790267625327
5.77350e-06;0.00044710191833488875
5.77375e-06;0.00044354213807928873
5.77400e-06;0.00043876377418213404
5.77425e-06;0.0004339854102849631
5.77450e-06;0.0004284693910414726
5.77475e-06;0.0004214106599403077
5.77500e-06;0.0004143519288391189
5.77525e-06;0.00040729319773795397
5.77550e-06;0.00040023446663678907
5.77575e-06;0.00039317573553560026
5.77600e-06;0.00038611700443443535
5.77625e-06;0.0003776496839546716
5.77650e-06;0.0003688804222322583
5.77675e-06;0.0003601111605098747
5.77700e-06;0.0003513418987874614
5.77725e-06;0.0003425726370650778
5.77750e-06;0.00033380337534269424
5.77775e-06;0.0003251303069905218
5.77800e-06;0.00031665841477521026
5.77825e-06;0.00030818652255989873
5.77850e-06;0.0002997146303445585
5.77875e-06;0.00029124273812924695
5.77900e-06;0.0002827708459139354
5.77925e-06;0.00027493931230334836
5.77950e-06;0.00026844700685336217
5.77975e-06;0.0002619547014033759
5.78000e-06;0.0002554623959533677
5.78025e-06;0.00024897009050338153
5.78050e-06;0.00024247778505339531
5.78075e-06;0.0002360118070881188
5.78100e-06;0.00022960088969156272
5.78125e-06;0.0002231899722949849
5.78150e-06;0.0002167790548984288
5.78175e-06;0.00021036813750187268
5.78200e-06;0.00020344277493201997
5.78225e-06;0.00019640713734719726
5.78250e-06;0.00018937149976237455
5.78275e-06;0.00018233586217752802
5.78300e-06;0.0001749198020751305
5.78325e-06;0.00016670813690920945
5.78350e-06;0.00015849647174326058
5.78375e-06;0.00015009424854985632
5.78400e-06;0.00014129349760229893
5.78425e-06;0.00013249274665471172
5.78450e-06;0.0001234885605575804
5.78475e-06;0.00011405891585161988
5.78500e-06;0.00010443677176263351
5.78525e-06;9.441203982266455e-05
5.78550e-06;8.438730788266162e-05
5.78575e-06;7.428550918938686e-05
5.78600e-06;6.402253523354748e-05
5.78625e-06;5.3759561277673344e-05
5.78650e-06;4.3401570533675845e-05
5.78675e-06;3.302321225921745e-05
5.78700e-06;2.262912747525514e-05
5.78725e-06;1.2223145354328118e-05
5.78750e-06;1.9029019213296958e-06
5.78775e-06;-8.26717248000806e-06
5.78800e-06;-1.8225460928434773e-05
5.78825e-06;-2.792821733863853e-05
5.78850e-06;-3.736386759762239e-05
5.78875e-06;-4.65242971009159e-05
5.78900e-06;-5.5367725686219714e-05
5.78925e-06;-6.383086942823904e-05
5.78950e-06;-7.18489457690104e-05
5.78975e-06;-7.935717407420113e-05
5.79000e-06;-8.63374402794654e-05
5.79025e-06;-9.306607159253762e-05
5.79050e-06;-0.00010034054344871133
5.79075e-06;-0.00010898958704479138
5.79100e-06;-0.00011926027744179597
5.79125e-06;-0.00013103482897108254
5.79150e-06;-0.00014417016184960668
5.79175e-06;-0.00015852322604344456
5.79200e-06;-0.00017398018909697588
5.79225e-06;-0.00019061166025573288
5.79250e-06;-0.00020881465857496324
5.79275e-06;-0.00022900576571493447
5.79300e-06;-0.00025123716697719836
5.79325e-06;-0.00027533250070393164
5.79350e-06;-0.00030109958873522554
5.79375e-06;-0.0003285426422550409
5.79400e-06;-0.00035730937759560695
5.79425e-06;-0.00038694981470591296
5.79450e-06;-0.00041841748737617303
5.79475e-06;-0.0004508545276106106
5.79500e-06;-0.00048531887618384823
5.79525e-06;-0.0005206274762933416
5.79550e-06;-0.0005577017205641893
5.79575e-06;-0.0005947759648349114
5.79600e-06;-0.0006325238705286349
5.79625e-06;-0.0006716806529696089
5.79650e-06;-0.00071083743541045
5.79675e-06;-0.0007499942178512912
5.79700e-06;-0.000789151000292265
5.79725e-06;-0.0008281220640902323
5.79750e-06;-0.0008667047210884196
5.79775e-06;-0.0009052873780867377
5.79800e-06;-0.000943870035084925
5.79825e-06;-0.000982452692083243
5.79850e-06;-0.0010198300940743512
5.79875e-06;-0.0010546868592949139
5.79900e-06;-0.0010895436245155945
5.79925e-06;-0.001122786914228645
5.79950e-06;-0.0011526558261804253
5.79975e-06;-0.001182524738132307
5.80000e-06;-0.0012100433679864556
5.80025e-06;-0.001232646683287695
5.80050e-06;-0.0012552499985890111
5.80075e-06;-0.0012750060447827701
5.80100e-06;-0.0012888073916262114
5.80125e-06;-0.0013026087384696995
5.80150e-06;-0.0013134210709713663
5.80175e-06;-0.0013179822620856528
5.80200e-06;-0.0013225434531999548
5.80225e-06;-0.0013240292547548494
5.80250e-06;-0.0013190832721968007
5.80275e-06;-0.0013141372896387689
5.80300e-06;-0.0013062579263625512
5.80325e-06;-0.0012922437723107626
5.80350e-06;-0.0012782296182590218
5.80375e-06;-0.0012615679589730562
5.80400e-06;-0.0012393693809406266
5.80425e-06;-0.001217170802908272
5.80450e-06;-0.0011926587724378397
5.80475e-06;-0.0011633084519395917
5.80500e-06;-0.001133958131441443
5.80525e-06;-0.0011027904291670046
5.80550e-06;-0.0010678219052373697
5.80575e-06;-0.0010328533813078532
5.80600e-06;-0.000996408352889804
5.80625e-06;-0.0009568754040869421
5.80650e-06;-0.0009173424552842143
5.80675e-06;-0.0008778095064813526
5.80700e-06;-0.0008382765576786248
5.80725e-06;-0.0007974600723358606
5.80750e-06;-0.0007563684517240581
5.80775e-06;-0.0007152768311123949
5.80800e-06;-0.0006741852105007316
5.80825e-06;-0.0006338291161024117
5.80850e-06;-0.0005950112807515804
5.80875e-06;-0.000556193445400749
5.80900e-06;-0.0005185196517525053
5.80925e-06;-0.00048323847507366897
5.80950e-06;-0.0004489069142653286
5.80975e-06;-0.0004173116638241954
5.81000e-06;-0.0003880822773569616
5.81025e-06;-0.00036118021269308077
5.81050e-06;-0.00033606822570444853
5.81075e-06;-0.0003121155217539297
5.81100e-06;-0.00028915495852074483
5.81125e-06;-0.00026732692360655595
5.81150e-06;-0.00024679375817757165
5.81175e-06;-0.00022771776574187985
5.81200e-06;-0.000210235186934831
5.81225e-06;-0.00019431393345650973
5.81250e-06;-0.00017960949766498686
5.81275e-06;-0.00016571885583108878
5.81300e-06;-0.00015252939190307785
5.81325e-06;-0.0001401211643980307
5.81350e-06;-0.000128587958486157
5.81375e-06;-0.0001180235154667379
5.81400e-06;-0.00010850526274385753
5.81425e-06;-0.00010000516476375841
5.81450e-06;-9.229952295045287e-05
5.81475e-06;-8.512799236228053e-05
5.81500e-06;-7.841214758572632e-05
5.81525e-06;-7.219426538514814e-05
5.81550e-06;-6.652520727300105e-05
5.81575e-06;-6.145581314886058e-05
5.81600e-06;-5.7026691768269775e-05
5.81625e-06;-5.32123942501641e-05
5.81650e-06;-4.986491377872816e-05
5.81675e-06;-4.681329392647959e-05
5.81700e-06;-4.400055657359249e-05
5.81725e-06;-4.144532864213608e-05
5.81750e-06;-3.917161009335032e-05
5.81775e-06;-3.720338141425815e-05
5.81800e-06;-3.555821842452303e-05
5.81825e-06;-3.421231474895924e-05
5.81850e-06;-3.306509829964988e-05
5.81875e-06;-3.2001635893279406e-05
5.81900e-06;-3.099499025511477e-05
5.81925e-06;-3.005127611835253e-05
5.81950e-06;-2.9107561981587098e-05
5.81975e-06;-2.820168505588286e-05
5.82000e-06;-2.7387144587465675e-05
5.82025e-06;-2.655764868430784e-05
5.82050e-06;-2.552625747322081e-05
5.82075e-06;-2.4101247353663097e-05
5.82100e-06;-2.2224713851443905e-05
5.82125e-06;-1.9922102772075318e-05
5.82150e-06;-1.722460825903707e-05
5.82175e-06;-1.4163419187009934e-05
5.82200e-06;-1.0763085175087418e-05
5.82225e-06;-7.00647117829656e-06
5.82250e-06;-2.803173889564124e-06
5.82275e-06;1.9401976187260115e-06
5.82300e-06;7.2332053280129294e-06
5.82325e-06;1.3033199942658332e-05
5.82350e-06;1.9293933319055792e-05
5.82375e-06;2.596916480665106e-05
5.82400e-06;3.301681593045139e-05
5.82425e-06;4.042092180571162e-05
5.82450e-06;4.821140697767425e-05
5.82475e-06;5.642006749188439e-05
5.82500e-06;6.507573462916705e-05
5.82525e-06;7.40799613694144e-05
5.82550e-06;8.32463875973801e-05
5.82575e-06;9.275203331859958e-05
5.82600e-06;0.00010240970023878219
5.82625e-06;0.00011238530006229802
5.82650e-06;0.00012236089988581386
5.82675e-06;0.00013233649970936348
5.82700e-06;0.00014231209953287932
5.82725e-06;0.00015231616883596742
5.82750e-06;0.00016232634077634835
5.82775e-06;0.00017233651271669536
5.82800e-06;0.0001823466846570763
5.82825e-06;0.0001921160699351132
5.82850e-06;0.00020138188069081556
5.82875e-06;0.0002106476914465493
5.82900e-06;0.00021963616099385016
5.82925e-06;0.000228044606858766
5.82950e-06;0.0002362248820609135
5.82975e-06;0.00024374774034600244
5.83000e-06;0.00025064456330240104
5.83025e-06;0.0002565046882668729
5.83050e-06;0.000260404771275635
5.83075e-06;0.00026142984972249536
5.83100e-06;0.00025929424542893334
5.83125e-06;0.0002540968778637466
5.83150e-06;0.0002459629375837542
5.83175e-06;0.00023501758561179196
5.83200e-06;0.0002213560494577626
5.83225e-06;0.00020488712984796992
5.83250e-06;0.00018519850458108088
5.83275e-06;0.0001618831162075061
5.83300e-06;0.00013492819071625115
5.83325e-06;0.0001045617888252075
5.83350e-06;7.10284153444052e-05
5.83375e-06;3.4572580113684175e-05
5.83400e-06;-4.579973939884216e-06
5.83425e-06;-4.6320306192595215e-05
5.83450e-06;-9.074061442312675e-05
5.83475e-06;-0.00013792978029780422
5.83500e-06;-0.0001877297176642876
5.83525e-06;-0.00023983146934119105
5.83550e-06;-0.0002941499254751545
5.83575e-06;-0.00035015317495833755
5.83600e-06;-0.00040709491860893365
5.83625e-06;-0.0004659994028337498
5.83650e-06;-0.0005249038870587656
5.83675e-06;-0.0005844436248574409
5.83700e-06;-0.0006453119142955172
5.83725e-06;-0.0007061802037337997
5.83750e-06;-0.000767048493171876
5.83775e-06;-0.0008270713856381117
5.83800e-06;-0.000885326238412862
5.83825e-06;-0.000943581091187415
5.83850e-06;-0.001001835943961968
5.83875e-06;-0.001058098416019546
5.83900e-06;-0.0011101940785115628
5.83925e-06;-0.0011622897410035798
5.83950e-06;-0.0012120838008174847
5.83975e-06;-0.0012570643528649757
5.84000e-06;-0.001299322171268271
5.84025e-06;-0.0013358857403273695
5.84050e-06;-0.001372449309386344
5.84075e-06;-0.0014065062523068064
5.84100e-06;-0.0014353209071042196
5.84125e-06;-0.0014641355619015352
5.84150e-06;-0.0014901858331531819
5.84175e-06;-0.0015104547496160405
5.84200e-06;-0.001530723666078899
5.84225e-06;-0.0015483125281214615
5.84250e-06;-0.001560296398960541
5.84275e-06;-0.00157228026979962
5.84300e-06;-0.001582125748333785
5.84325e-06;-0.001587499052733136
5.84350e-06;-0.0015928723571324874
5.84375e-06;-0.0015960461751730716
5.84400e-06;-0.0015946200486755843
5.84425e-06;-0.001593193922178097
5.84450e-06;-0.001589127649921036
5.84475e-06;-0.0015795398503229722
5.84500e-06;-0.0015699520507249085
5.84525e-06;-0.0015603642511268121
5.84550e-06;-0.0015507764515287484
5.84575e-06;-0.0015411886519306522
5.84600e-06;-0.0015316008523325886
5.84625e-06;-0.0015198508676587516
5.84650e-06;-0.0015035789493118572
5.84675e-06;-0.0014873070309650179
5.84700e-06;-0.0014710351126181785
5.84725e-06;-0.0014547631942712841
5.84750e-06;-0.0014384912759244448
5.84775e-06;-0.0014222193575776057
5.84800e-06;-0.0014060115064842417
5.84825e-06;-0.0013899376438613505
5.84850e-06;-0.0013738637812384592
5.84875e-06;-0.0013577899186155138
5.84900e-06;-0.0013417160559926226
5.84925e-06;-0.0013256421933697314
5.84950e-06;-0.0013095683307467857
5.84975e-06;-0.0012946108328885388
5.85000e-06;-0.0012819880692196439
5.85025e-06;-0.0012693653055507916
5.85050e-06;-0.0012567425418819394
5.85075e-06;-0.0012441197782130445
5.85100e-06;-0.0012314970145441923
5.85125e-06;-0.00121887425087534
5.85150e-06;-0.0012055727602252476
5.85175e-06;-0.001190851798862417
5.85200e-06;-0.0011761308374995862
5.85225e-06;-0.0011614098761367057
5.85250e-06;-0.001146688914773875
5.85275e-06;-0.0011319679534110443
5.85300e-06;-0.0011172469920481638
5.85325e-06;-0.0011025260306853331
5.85350e-06;-0.0010878050693225022
5.85375e-06;-0.0010730841079596217
5.85400e-06;-0.001058363146596791
5.85425e-06;-0.0010402317365845542
5.85450e-06;-0.0010213692724297912
5.85475e-06;-0.001002506808275028
5.85500e-06;-0.000983644344120201
5.85525e-06;-0.000964781879965438
5.85550e-06;-0.0009459194158106749
5.85575e-06;-0.0009270569516558479
5.85600e-06;-0.0009081944875010848
5.85625e-06;-0.0008893320233463217
5.85650e-06;-0.0008704695591914948
5.85675e-06;-0.0008514148659291354
5.85700e-06;-0.0008319581500628329
5.85725e-06;-0.0008125014341964645
5.85750e-06;-0.0007930447183301621
5.85775e-06;-0.0007735880024638596
5.85800e-06;-0.0007541312865974912
5.85825e-06;-0.0007356020624458354
5.85850e-06;-0.0007190125686445828
5.85875e-06;-0.0007024230748433864
5.85900e-06;-0.0006858335810421899
5.85925e-06;-0.0006692440872409373
5.85950e-06;-0.0006526545934397409
5.85975e-06;-0.00063718717409449
5.86000e-06;-0.0006240664300275117
5.86025e-06;-0.0006109456859605779
5.86050e-06;-0.0005967012167559368
5.86075e-06;-0.0005801066200830775
5.86100e-06;-0.0005617864427603053
5.86125e-06;-0.0005398574341069179
5.86150e-06;-0.0005168332797048857
5.86175e-06;-0.0004908991127144297
5.86200e-06;-0.00046308011799199545
5.86225e-06;-0.00043325145422106815
5.86250e-06;-0.00040070582679647694
5.86275e-06;-0.00036469976081182127
5.86300e-06;-0.0003251381090575962
5.86325e-06;-0.00028233270592791616
5.86350e-06;-0.00023662360528494384
5.86375e-06;-0.00018835082847055903
5.86400e-06;-0.00013782169627615467
5.86425e-06;-8.513755935591084e-05
5.86450e-06;-3.003493318023167e-05
5.86475e-06;2.7772273865916565e-05
5.86500e-06;8.81640366254832e-05
5.86525e-06;0.00015076540775453887
5.86550e-06;0.00021518381039152212
5.86575e-06;0.0002811608911261848
5.86600e-06;0.00034820267052882825
5.86625e-06;0.0004159315899203311
5.86650e-06;0.0004850975747544111
5.86675e-06;0.0005542635595882567
5.86700e-06;0.0006234295444223367
5.86725e-06;0.0006926577872455871
5.86750e-06;0.0007618993755156463
5.86775e-06;0.0008311409637859399
5.86800e-06;0.0008990729884863368
5.86825e-06;0.000964266228396244
5.86850e-06;0.0010294594683063721
5.86875e-06;0.0010930447559008001
5.86900e-06;0.0011532672167891263
5.86925e-06;0.0012116030049242603
5.86950e-06;0.001265993058189057
5.86975e-06;0.0013179081432562747
5.87000e-06;0.0013646471487401201
5.87025e-06;0.0014080832530158182
5.87050e-06;0.0014446117616603693
5.87075e-06;0.0014771538927070313
5.87100e-06;0.0015013590246289485
5.87125e-06;0.0015215047786508455
5.87150e-06;0.0015331608627487674
5.87175e-06;0.0015407416395538784
5.87200e-06;0.001539799432146669
5.87225e-06;0.0015346159391998837
5.87250e-06;0.001520562339756597
5.87275e-06;0.0015021920443507079
5.87300e-06;0.0014747939311893824
5.87325e-06;0.0014433860547257288
5.87350e-06;0.00140359227092678
5.87375e-06;0.0013601314693758178
5.87400e-06;0.0013090015689911235
5.87425e-06;0.0012544533263735896
5.87450e-06;0.001192756057980699
5.87475e-06;0.0011279458360316844
5.87500e-06;0.0010566252696827111
5.87525e-06;0.0009827366253880264
5.87550e-06;0.0009034771743746994
5.87575e-06;0.0008222168617167091
5.87600e-06;0.0007367720027205115
5.87625e-06;0.00064983449749117
5.87650e-06;0.0005597753134875486
5.87675e-06;0.00046867380241295316
5.87700e-06;0.00037539239752127534
5.87725e-06;0.0002821109926299135
5.87750e-06;0.00018869249014609145
5.87775e-06;9.521426177378009e-05
5.87800e-06;2.6114918963162064e-06
5.87825e-06;-8.8591572408967e-05
5.87850e-06;-0.0001778987003784864
5.87875e-06;-0.00026479352904383455
5.87900e-06;-0.0003486965649723657
5.87925e-06;-0.0004289944994419527
5.87950e-06;-0.0005050719606307638
5.87975e-06;-0.0005763136533246317
5.88000e-06;-0.0006421474993238049
5.88025e-06;-0.0007022909784196848
5.88050e-06;-0.0007570338713026208
5.88075e-06;-0.0008068652592581566
5.88100e-06;-0.0008518767197333114
5.88125e-06;-0.0008918671331266092
5.88150e-06;-0.0009266135640964862
5.88175e-06;-0.0009558930773017847
5.88200e-06;-0.000979509851261207
5.88225e-06;-0.0009974495310788524
5.88250e-06;-0.0010100560683533666
5.88275e-06;-0.0010177984505648301
5.88300e-06;-0.00102015379556943
5.88325e-06;-0.0010178334053747755
5.88350e-06;-0.0010125567383100357
5.88375e-06;-0.0010010973961060014
5.88400e-06;-0.0009867843954600457
5.88425e-06;-0.00096650333299861
5.88450e-06;-0.000943836975782065
5.88475e-06;-0.0009161820795245262
5.88500e-06;-0.0008865154854924372
5.88525e-06;-0.0008526416827429971
5.88550e-06;-0.0008169868853915975
5.88575e-06;-0.0007776073655155048
5.88600e-06;-0.0007367212564804639
5.88625e-06;-0.0006926843088238919
5.88650e-06;-0.0006474896181772771
5.88675e-06;-0.0005998736560742678
5.88700e-06;-0.0005522576939710973
5.88725e-06;-0.0005040652485266215
5.88750e-06;-0.00045466716187197835
5.88775e-06;-0.00040526907521716777
5.88800e-06;-0.0003561722285675035
5.88825e-06;-0.00030770538687709695
5.88850e-06;-0.00025923854518685466
5.88875e-06;-0.0002115602649231052
5.88900e-06;-0.0001661266670496987
5.88925e-06;-0.00012264173809600182
5.88950e-06;-8.143851244707135e-05
5.88975e-06;-4.284999484652384e-05
5.89000e-06;-7.2175621283983155e-06
5.89025e-06;2.5075298118479426e-05
5.89050e-06;5.3607585819365325e-05
5.89075e-06;7.805842302860382e-05
5.89100e-06;9.829851874679267e-05
5.89125e-06;0.00011429177238299598
5.89150e-06;0.00012600757355331433
5.89175e-06;0.00013341535317612255
5.89200e-06;0.000136479304056459
5.89225e-06;0.00013513723404058467
5.89250e-06;0.0001293035110765441
5.89275e-06;0.00011895518890964837
5.89300e-06;0.00010418937397349253
5.89325e-06;8.516151278856724e-05
