Time(s);Current(A)
1.10000e-05;0.00314660898536733
1.10003e-05;0.003181781819873593
1.10005e-05;0.0032189064888359822
1.10008e-05;0.0032578245733009496
1.10010e-05;0.003296742657765653
1.10013e-05;0.00333566074223062
1.10015e-05;0.0033745788266955875
1.10018e-05;0.003413496911160291
1.10020e-05;0.003452414995625258
1.10023e-05;0.0034913330800902254
1.10025e-05;0.003530251164554929
1.10028e-05;0.0035691692490198964
1.10030e-05;0.0036009716921844496
1.10033e-05;0.0036262360289118383
1.10035e-05;0.003651500365639398
1.10038e-05;0.0036767647023669575
1.10040e-05;0.0037020290390943457
1.10043e-05;0.0037272933758219053
1.10045e-05;0.003752557712549465
1.10047e-05;0.003777822049276853
1.10050e-05;0.0038030863860044127
1.10053e-05;0.0038283507227319723
1.10055e-05;0.003845463112038889
1.10058e-05;0.003855085199676819
1.10060e-05;0.00386470728731475
1.10062e-05;0.003874329374952615
1.10065e-05;0.0038839514625905454
1.10068e-05;0.003893573550228476
1.10070e-05;0.0039031956378664063
1.10073e-05;0.003912817725504272
1.10075e-05;0.003922439813142202
1.10078e-05;0.0039320619007801325
1.10080e-05;0.003941683988417998
1.10083e-05;0.003951306076055928
1.10085e-05;0.003960928163693859
1.10088e-05;0.003970550251331724
1.10090e-05;0.003979982328009412
1.10093e-05;0.003980620155514739
1.10095e-05;0.0039812579830200605
1.10098e-05;0.0039818958105253864
1.10100e-05;0.003982533638030712
1.10103e-05;0.003983171465536034
1.10105e-05;0.00398380929304136
1.10108e-05;0.003984447120546686
1.10110e-05;0.003985084948052008
1.10113e-05;0.003985722775557334
1.10115e-05;0.00398636060306266
1.10118e-05;0.003986998430567982
1.10120e-05;0.003987636258073308
1.10123e-05;0.003988274085578634
1.10125e-05;0.003988911913083955
1.10128e-05;0.003989772178191102
1.10130e-05;0.003990836826944822
1.10132e-05;0.003991901475698534
1.10135e-05;0.003992966124452255
1.10138e-05;0.003994030773205974
1.10140e-05;0.0039950954219596865
1.10143e-05;0.003996160070713407
1.10145e-05;0.003997224719467126
1.10147e-05;0.003998289368220839
1.10150e-05;0.0039996822212025225
1.10153e-05;0.004016265301949172
1.10155e-05;0.0040328483826958215
1.10158e-05;0.004049431463442358
1.10160e-05;0.004066014544189008
1.10163e-05;0.0040825976249356565
1.10165e-05;0.004099180705682193
1.10168e-05;0.004115763786428843
1.10170e-05;0.004132346867175492
1.10173e-05;0.004148929947922029
1.10175e-05;0.004175085925746427
1.10178e-05;0.004210037824751036
1.10180e-05;0.00424498972375541
1.10183e-05;0.0042799416227600195
1.10185e-05;0.00431489352176463
1.10188e-05;0.004349845420769003
1.10190e-05;0.004384797319773613
1.10193e-05;0.004419749218778223
1.10195e-05;0.0044547011177825955
1.10198e-05;0.00448981058317987
1.10200e-05;0.004532212670645582
1.10203e-05;0.004574614758111008
1.10205e-05;0.004617016845576721
1.10208e-05;0.004659418933042434
1.10210e-05;0.004701821020507859
1.10213e-05;0.0047442231079735725
1.10215e-05;0.0047866251954392855
1.10217e-05;0.0048290272829047114
1.10220e-05;0.004871429370370424
1.10223e-05;0.004907114439306027
1.10225e-05;0.004936627670699811
1.10228e-05;0.004966140902093795
1.10230e-05;0.0049956541334877785
1.10232e-05;0.005025167364881563
1.10235e-05;0.005054680596275547
1.10238e-05;0.005084193827669531
1.10240e-05;0.005113707059063515
1.10243e-05;0.005143220290457298
1.10245e-05;0.005172733521851282
1.10248e-05;0.005202246753245266
1.10250e-05;0.005214985632857718
1.10253e-05;0.005212311636414616
1.10255e-05;0.005209637639971515
1.10258e-05;0.005206963643528431
1.10260e-05;0.00520428964708533
1.10263e-05;0.005201615650642228
1.10265e-05;0.005198941654199145
1.10268e-05;0.005196267657756043
1.10270e-05;0.005193593661312942
1.10273e-05;0.005190919664869858
1.10275e-05;0.005188245668426757
1.10278e-05;0.00517118748253539
1.10280e-05;0.005140912587466748
1.10283e-05;0.005110637692397902
1.10285e-05;0.005080362797329056
1.10288e-05;0.005050087902260415
1.10290e-05;0.005019813007191568
1.10293e-05;0.0049895381121227225
1.10295e-05;0.0049592632170540815
1.10298e-05;0.004928988321985235
1.10300e-05;0.004898504576184132
1.10302e-05;0.004858354622772022
1.10305e-05;0.004818204669359639
1.10308e-05;0.0047780547159472575
1.10310e-05;0.004737904762535147
1.10313e-05;0.004697754809122765
1.10315e-05;0.004657604855710383
1.10317e-05;0.0046174549022982726
1.10320e-05;0.004577304948885891
1.10323e-05;0.004537154995473508
1.10325e-05;0.004503851656068811
1.10328e-05;0.00447683923118056
1.10330e-05;0.0044498268062921256
1.10333e-05;0.004422814381403691
1.10335e-05;0.00439580195651544
1.10338e-05;0.004368789531627006
1.10340e-05;0.004341777106738572
1.10343e-05;0.004314764681850321
1.10345e-05;0.004287752256961886
1.10348e-05;0.004260739832073452
1.10350e-05;0.004233727407185201
1.10353e-05;0.004206714982296767
1.10355e-05;0.004179702557408333
1.10358e-05;0.004153057466103148
1.10360e-05;0.004143413620843005
1.10363e-05;0.004133769775582862
1.10365e-05;0.004124125930322784
1.10368e-05;0.004114482085062641
1.10370e-05;0.004104838239802498
1.10373e-05;0.0040951943945424195
1.10375e-05;0.004085550549282276
1.10378e-05;0.004075906704022133
1.10380e-05;0.004066262858762055
1.10383e-05;0.004056619013501911
1.10385e-05;0.004046975168241768
1.10387e-05;0.004037331322981691
1.10390e-05;0.0040276874777215475
1.10393e-05;0.004022196104174946
1.10395e-05;0.004020520170575483
1.10398e-05;0.004018844236976008
1.10400e-05;0.004017168303376533
1.10402e-05;0.00401549236977707
1.10405e-05;0.004013816436177595
1.10408e-05;0.004012140502578121
1.10410e-05;0.0040104645689786455
1.10413e-05;0.004008788635379182
1.10415e-05;0.0040071127017797074
1.10418e-05;0.004005436768180232
1.10420e-05;0.004003760834580769
1.10423e-05;0.004002157817090989
1.10425e-05;0.00400392956515694
1.10428e-05;0.0040057013132228795
1.10430e-05;0.004007473061288831
1.10433e-05;0.0040092448093547815
1.10435e-05;0.004011016557420722
1.10438e-05;0.004012788305486672
1.10440e-05;0.004014560053552624
1.10443e-05;0.004016331801618563
1.10445e-05;0.004018103549684514
1.10448e-05;0.004019875297750466
1.10450e-05;0.004021647045816405
1.10453e-05;0.0040234187938823565
1.10455e-05;0.00403192610900622
1.10458e-05;0.004046622304727746
1.10460e-05;0.0040613185004493724
1.10463e-05;0.0040760146961709995
1.10465e-05;0.004090710891892526
1.10468e-05;0.004105407087614152
1.10470e-05;0.004120103283335778
1.10472e-05;0.004134799479057305
1.10475e-05;0.004149495674778931
1.10478e-05;0.004164191870500557
1.10480e-05;0.004178888066222085
1.10483e-05;0.004193584261943711
1.10485e-05;0.004208517186841334
1.10487e-05;0.004234406613310962
1.10490e-05;0.004260296039780765
1.10493e-05;0.004286185466250567
1.10495e-05;0.004312074892720371
1.10498e-05;0.004337964319189998
1.10500e-05;0.0043638537456598
1.10503e-05;0.004389743172129604
1.10505e-05;0.004415632598599231
1.10508e-05;0.0044415220250690335
1.10510e-05;0.004467411451538837
1.10513e-05;0.004493300878008464
1.10515e-05;0.0045191903044782674
1.10518e-05;0.004543664583118425
1.10520e-05;0.004566838573175082
1.10523e-05;0.004590012563231896
1.10525e-05;0.00461318655328871
1.10528e-05;0.004636360543345366
1.10530e-05;0.00465953453340218
1.10533e-05;0.004682708523458994
1.10535e-05;0.00470588251351565
1.10538e-05;0.004728644817695484
1.10540e-05;0.0047323531250528855
1.10543e-05;0.004736061432410261
1.10545e-05;0.0047397697397676625
1.10548e-05;0.004743478047125064
1.10550e-05;0.00474718635448244
1.10553e-05;0.004750894661839842
1.10555e-05;0.0047546029691972426
1.10557e-05;0.004758311276554619
1.10560e-05;0.004745041709190744
1.10563e-05;0.004716172261581933
1.10565e-05;0.0046873028139733175
1.10568e-05;0.004658433366364507
1.10570e-05;0.004629563918755696
1.10572e-05;0.004600694471147082
1.10575e-05;0.004571825023538271
1.10578e-05;0.004542955575929461
1.10580e-05;0.00451408612832065
1.10583e-05;0.004471418407673693
1.10585e-05;0.004416072338851018
1.10588e-05;0.004360726270028342
1.10590e-05;0.0043053802012060416
1.10593e-05;0.004250034132383366
1.10595e-05;0.004194688063560692
1.10598e-05;0.004139341994738391
1.10600e-05;0.004083995925915716
1.10603e-05;0.00402864985709304
1.10605e-05;0.0039691656229896045
1.10608e-05;0.0039058790942000333
1.10610e-05;0.003842592565410462
1.10613e-05;0.0037793060366213198
1.10615e-05;0.003716019507831748
1.10618e-05;0.003652732979042177
1.10620e-05;0.0035894464502530346
1.10623e-05;0.0035317835233532996
1.10625e-05;0.0034792877635745107
1.10628e-05;0.0034267920037960773
1.10630e-05;0.0033742962440172883
1.10633e-05;0.003321800484238499
1.10635e-05;0.0032693047244600655
1.10638e-05;0.0032168089646812765
1.10640e-05;0.0031736362352944372
1.10642e-05;0.0031390298406262515
1.10645e-05;0.0031044234459578312
1.10648e-05;0.003076747277692069
1.10650e-05;0.003055438850015655
1.10653e-05;0.0030341304223390963
1.10655e-05;0.003020125865926605
1.10657e-05;0.0030128323684039493
1.10660e-05;0.0030055388708812446
1.10663e-05;0.0030055346838790604
1.10665e-05;0.0030122281768330517
1.10668e-05;0.0030189216697869975
1.10670e-05;0.0030323599823407583
1.10673e-05;0.0030519956770631374
1.10675e-05;0.0030716313717853833
1.10678e-05;0.0031011350604666713
1.10680e-05;0.003139705815938457
1.10683e-05;0.0031782765714099817
1.10685e-05;0.0032168473268817674
1.10688e-05;0.0032554180823535536
1.10690e-05;0.003293988837825078
1.10693e-05;0.0033325595932968636
1.10695e-05;0.0033714643473510167
1.10698e-05;0.003425827508676103
1.10700e-05;0.003480190670001558
1.10703e-05;0.0035345538313270126
1.10705e-05;0.003588916992652099
1.10708e-05;0.0036432801539775534
1.10710e-05;0.003697643315303008
1.10713e-05;0.0037520064766280946
1.10715e-05;0.0038055282523135423
1.10718e-05;0.0038582769326943804
1.10720e-05;0.003911025613074861
1.10723e-05;0.0039637742934557
1.10725e-05;0.004016522973836538
1.10727e-05;0.004069271654217018
1.10730e-05;0.004122020334597857
1.10733e-05;0.004167251077670762
1.10735e-05;0.004205574070293354
1.10738e-05;0.004243897062916206
1.10740e-05;0.004282220055539058
1.10742e-05;0.004320543048161651
1.10745e-05;0.004358866040784504
1.10748e-05;0.004397189033407356
1.10750e-05;0.004432328149048521
1.10753e-05;0.004464541804320657
1.10755e-05;0.0044967554595927925
1.10758e-05;0.004528969114864928
1.10760e-05;0.004561182770136845
1.10763e-05;0.004593396425408981
1.10765e-05;0.004625610080681117
1.10768e-05;0.004657823735953034
1.10770e-05;0.00469003739122517
1.10773e-05;0.004722251046497305
1.10775e-05;0.0047544647017692225
1.10778e-05;0.004786678357041358
1.10780e-05;0.004818892012313494
1.10783e-05;0.004851105667585412
1.10785e-05;0.004883319322857547
1.10788e-05;0.004915532978129683
1.10790e-05;0.0049477466334016005
1.10793e-05;0.004979960288673736
1.10795e-05;0.005012173943945872
1.10798e-05;0.005044387599217789
1.10800e-05;0.005076601254489925
1.10803e-05;0.0051088149097620605
1.10805e-05;0.005141028565033978
1.10808e-05;0.005173242220306113
1.10810e-05;0.005202097167466265
1.10812e-05;0.005239795372506874
1.10815e-05;-0.004767890099475944
1.10818e-05;-0.01158825521168616
1.10820e-05;-0.008882406058591657
1.10823e-05;-0.00626014497954757
1.10825e-05;0.0013926671409421046
1.10827e-05;0.008132505173223828
1.10830e-05;0.007592614369682363
1.10833e-05;0.006762998032482566
1.10835e-05;0.0017109543193215408
1.10838e-05;-0.006478823706682674
1.10840e-05;-0.002838905967481415
1.10843e-05;0.0005217944585547999
1.10845e-05;0.004635280536784537
1.10848e-05;0.008269813301754714
1.10850e-05;0.008942051274440787
1.10853e-05;0.0072388446041624244
1.10855e-05;0.004030583590431465
1.10858e-05;0.0012177663616416239
1.10860e-05;0.0010760250033687718
1.10863e-05;0.002908054907078647
1.10865e-05;0.0055797383635949275
1.10868e-05;0.007800196127344844
1.10870e-05;0.00816882578920832
1.10873e-05;0.0070526914636643
1.10875e-05;0.004996559411485157
1.10878e-05;0.003190488066000658
1.10880e-05;0.0030594945497056745
1.10883e-05;0.0041663854205437395
1.10885e-05;0.005800466621737436
1.10888e-05;0.007152972917392356
1.10890e-05;0.007346532428351647
1.10893e-05;0.006611103745108554
1.10895e-05;0.005287965364508837
1.10897e-05;0.00412258266345194
1.10900e-05;0.004007545576819369
1.10903e-05;0.00466894928354441
1.10905e-05;0.005661616324638814
1.10908e-05;0.006478994452255285
1.10910e-05;0.006571615599621787
1.10912e-05;0.006083669064614148
1.10915e-05;0.005229066788921109
1.10918e-05;0.004474878051616088
1.10920e-05;0.004380288392482418
1.10923e-05;0.004773779895988794
1.10925e-05;0.005376574298616108
1.10928e-05;0.00587147826381275
1.10930e-05;0.0059144485536285615
1.10933e-05;0.005595962637463861
1.10935e-05;0.005050162419910602
1.10938e-05;0.004569739030142316
1.10940e-05;0.004504974662980655
1.10943e-05;0.004748243830579896
1.10945e-05;0.0051246415576020055
1.10948e-05;0.005435292422802703
1.10950e-05;0.005464595123030897
1.10953e-05;0.005269144806103081
1.10955e-05;0.00493288258099669
1.10958e-05;0.004639051703880854
1.10960e-05;0.004606952897873202
1.10963e-05;0.004769047910538767
1.10965e-05;0.005015662291800836
1.10968e-05;0.005222117454920771
1.10970e-05;0.005253270110153027
1.10973e-05;0.00514448503344414
1.10975e-05;0.004948252108748001
1.10978e-05;0.004779257304929232
1.10980e-05;0.0047747608619648375
1.10983e-05;0.004892342990624562
1.10985e-05;0.005063195897155468
1.10988e-05;0.0052091192246499236
1.10990e-05;0.0052453648067261665
1.10993e-05;0.005193993966119882
1.10995e-05;0.005087792776974175
1.10997e-05;0.004998501800732834
1.11000e-05;0.0050119948472277746
1.11003e-05;0.005102506628543756
1.11005e-05;0.005226383939668734
1.11008e-05;0.005330392558149569
1.11010e-05;0.00536732878275039
1.11013e-05;0.005346752782022011
1.11015e-05;0.005290016843607272
1.11018e-05;0.005250425256218231
1.11020e-05;0.005269467916065129
1.11023e-05;0.005335396790450815
1.11025e-05;0.005420858209526832
1.11028e-05;0.005493272464078219
1.11030e-05;0.005521724466211727
1.11033e-05;0.005512340070692005
1.11035e-05;0.005478516763088293
1.11038e-05;0.0054546938020531
1.11040e-05;0.005465378746265956
1.11043e-05;0.005504335262445314
1.11045e-05;0.005555069758189251
1.11048e-05;0.005597563140424263
1.11050e-05;0.005612308018270203
1.11053e-05;0.005603202730562469
1.11055e-05;0.005578658422600326
1.11058e-05;0.005560331927808288
1.11060e-05;0.00556347674639317
1.11063e-05;0.005582492304019535
1.11065e-05;0.005604443266662412
1.11068e-05;0.005626394229305142
1.11070e-05;0.005640450974755797
1.11073e-05;0.005632102848857166
1.11075e-05;0.005617284730592955
1.11078e-05;0.005602466612328644
1.11080e-05;0.005593896296296347
1.11082e-05;0.005601748359496794
1.11085e-05;0.005611431165084664
1.11088e-05;0.005621113970672533
1.11090e-05;0.005625857973369723
1.11093e-05;0.005616603072120378
1.11095e-05;0.0056033458504911255
1.11098e-05;0.005590088628861873
1.11100e-05;0.005580773874927776
1.11103e-05;0.005581859553944643
1.11105e-05;0.005584195000520926
1.11108e-05;0.005586530447097193
1.11110e-05;0.005585822744238803
1.11113e-05;0.005576993096224108
1.11115e-05;0.005566962752095529
1.11118e-05;0.005556932407966881
1.11120e-05;0.005546902063838234
1.11123e-05;0.005543301787659939
1.11125e-05;0.005541465219542793
1.11128e-05;0.005539628651425648
1.11130e-05;0.005535572229752132
1.11133e-05;0.005525939870803699
1.11135e-05;0.0055163075118552654
1.11138e-05;0.005507910251421178
1.11140e-05;0.005502615372143619
1.11143e-05;0.005497320492866059
1.11145e-05;0.005487502845393421
1.11148e-05;0.005466324686461987
1.11150e-05;0.005445146527530553
1.11153e-05;0.005423968368599262
1.11155e-05;0.005402790209667828
1.11158e-05;0.005381612050736393
1.11160e-05;0.005360433891805103
1.11163e-05;0.005339255732873669
1.11165e-05;0.005318077573942235
1.11167e-05;0.005296899415010944
1.11170e-05;0.00527572125607951
1.11173e-05;0.005254543097148076
1.11175e-05;0.00522720247331876
1.11178e-05;0.005184382667254591
1.11180e-05;0.005141562861190423
1.11183e-05;0.0050987430551262545
1.11185e-05;0.005055923249062376
1.11188e-05;0.005013103442998207
1.11190e-05;0.004970283636934039
1.11193e-05;0.00492746383087016
1.11195e-05;0.004884644024805992
1.11198e-05;0.004841824218741823
1.11200e-05;0.004799004412677945
1.11203e-05;0.004756184606613776
1.11205e-05;0.0047119337975048735
1.11208e-05;0.004664088524610029
1.11210e-05;0.0046162432517148615
1.11213e-05;0.004568397978819694
1.11215e-05;0.00452055270592485
1.11218e-05;0.004472707433029683
1.11220e-05;0.004424862160134514
1.11223e-05;0.004377016887239671
1.11225e-05;0.004329171614344503
1.11228e-05;0.004292011450954388
1.11230e-05;0.00425778211410033
1.11233e-05;0.00422355277724604
1.11235e-05;0.004189323440391751
1.11238e-05;0.004155094103537693
1.11240e-05;0.0041208647666834035
1.11243e-05;0.004086635429829114
1.11245e-05;0.004052406092975056
1.11248e-05;0.004026393433812111
1.11250e-05;0.004021019829555109
1.11252e-05;0.004015646225298144
1.11255e-05;0.004010272621041143
1.11258e-05;0.00400489901678414
1.11260e-05;0.003999525412527175
1.11263e-05;0.0039941518082701735
1.11265e-05;0.003988778204013172
1.11268e-05;0.00398340459975617
1.11270e-05;0.003978030995499205
1.11273e-05;0.003972657391242203
1.11275e-05;0.0039753526025139724
1.11278e-05;0.003998315461244942
1.11280e-05;0.004021278319976066
1.11283e-05;0.004044241178707191
1.11285e-05;0.004067204037438161
1.11288e-05;0.004090166896169285
1.11290e-05;0.00411312975490041
1.11293e-05;0.004136092613631379
1.11295e-05;0.004159055472362503
1.11298e-05;0.004182018331093628
1.11300e-05;0.004204981189824598
1.11303e-05;0.004230898749053533
1.11305e-05;0.004264238070228575
1.11308e-05;0.004297577391403392
1.11310e-05;0.0043309167125784335
1.11313e-05;0.004364256033753476
1.11315e-05;0.004397595354928292
1.11318e-05;0.004430934676103335
1.11320e-05;0.0044642739972783774
1.11323e-05;0.004497613318453194
1.11325e-05;0.004524392049459453
1.11328e-05;0.0045493712713679385
1.11330e-05;0.0045743504932762545
1.11333e-05;0.00459932971518474
1.11335e-05;0.004624308937093225
1.11337e-05;0.004649288159001541
1.11340e-05;0.004674267380910026
1.11343e-05;0.004699246602818511
1.11345e-05;0.004716213589904493
1.11348e-05;0.004713055051725525
1.11350e-05;0.004709896513546557
1.11353e-05;0.004706737975367589
1.11355e-05;0.004703579437188642
1.11358e-05;0.004700420899009674
1.11360e-05;0.004697262360830706
1.11363e-05;0.00469410382265176
1.11365e-05;0.004690945284472792
1.11368e-05;0.004687786746293824
1.11370e-05;0.0046846282081148775
1.11373e-05;0.004672550086806546
1.11375e-05;0.004638067318154389
1.11378e-05;0.004603584549502466
1.11380e-05;0.00456910178085031
1.11383e-05;0.004534619012198153
1.11385e-05;0.00450013624354623
1.11388e-05;0.004465653474894074
1.11390e-05;0.004431170706241917
1.11393e-05;0.004396687937589994
1.11395e-05;0.004362205168937838
1.11398e-05;0.004327722400285681
1.11400e-05;0.004289638134068219
1.11403e-05;0.004242507449234246
1.11405e-05;0.004195376764400272
1.11408e-05;0.004148246079566618
1.11410e-05;0.004101115394732644
1.11413e-05;0.00405398470989867
1.11415e-05;0.004006854025065017
1.11418e-05;0.003959723340231043
1.11420e-05;0.003914598046828903
1.11422e-05;0.003874509994200613
1.11425e-05;0.003834421941572051
1.11428e-05;0.003794333888943489
1.11430e-05;0.0037542458363151988
1.11433e-05;0.003714157783686637
1.11435e-05;0.003674069731058075
1.11438e-05;0.003633981678429513
1.11440e-05;0.0035997597988757734
1.11443e-05;0.0035802728612038632
1.11445e-05;0.0035607859235319526
1.11448e-05;0.0035412989858601743
1.11450e-05;0.003521812048188264
1.11453e-05;0.0035023251105163536
1.11455e-05;0.0034828381728445753
1.11458e-05;0.003463351235172665
1.11460e-05;0.0034438642975007545
1.11463e-05;0.0034243773598289762
1.11465e-05;0.003404890422157066
1.11468e-05;0.0033854034844851555
1.11470e-05;0.003365916546813377
1.11473e-05;0.0033605396835934623
1.11475e-05;0.003359033083064505
1.11478e-05;0.003357526482535558
1.11480e-05;0.003356019882006601
1.11483e-05;0.003354513281477644
1.11485e-05;0.003353006680948697
1.11488e-05;0.00335150008041974
1.11490e-05;0.003349993479890783
1.11493e-05;0.003348486879361836
1.11495e-05;0.003346980278832879
1.11498e-05;0.003345473678303922
1.11500e-05;0.003343967077774975
1.11503e-05;0.0033443922643155034
1.11505e-05;0.003349669808575528
