Time(s);Current(A)
1.02500e-05;0.0067851580522790235
1.02503e-05;0.0068025736254180395
1.02505e-05;0.0068199891985570565
1.02508e-05;0.006837404771695955
1.02510e-05;0.006854820344834971
1.02513e-05;0.006872235917973987
1.02515e-05;0.006889651491112885
1.02518e-05;0.006907067064251901
1.02520e-05;0.006924482637390918
1.02522e-05;0.006941898210529816
1.02525e-05;0.006959313783668832
1.02528e-05;0.006976729356807848
1.02530e-05;0.006994144929946746
1.02533e-05;0.007011560503085762
1.02535e-05;0.007024602031866487
1.02537e-05;0.007031119154661386
1.02540e-05;0.007037636277456328
1.02543e-05;0.00704415340025127
1.02545e-05;0.007050670523046168
1.02548e-05;0.00705718764584111
1.02550e-05;0.007063704768636052
1.02553e-05;0.007070221891430994
1.02555e-05;0.0070767390142258925
1.02558e-05;0.007083256137020834
1.02560e-05;0.007089773259815776
1.02563e-05;0.007096290382610675
1.02565e-05;0.007102807505405617
1.02568e-05;0.007109324628200559
1.02570e-05;0.007115841750995457
1.02573e-05;0.007122358873790399
1.02575e-05;0.007128875996585341
1.02578e-05;0.0071353931193802395
1.02580e-05;0.007141910242175181
1.02583e-05;0.007148427364970123
1.02585e-05;0.007154944487765022
1.02588e-05;0.007155917880524067
1.02590e-05;0.007156284498506553
1.02593e-05;0.007156651116489035
1.02595e-05;0.007157017734471521
1.02598e-05;0.007157384352454005
1.02600e-05;0.007157750970436488
1.02603e-05;0.007158117588418974
1.02605e-05;0.007158484206401459
1.02607e-05;0.007158850824383941
1.02610e-05;0.007159217442366426
1.02613e-05;0.007159584060348912
1.02615e-05;0.0071599506783313945
1.02618e-05;0.007160317296313879
1.02620e-05;0.0071606839142963645
1.02622e-05;0.007161050532278847
1.02625e-05;0.007161417150261333
1.02628e-05;0.007161783768243818
1.02630e-05;0.0071621503862263
1.02633e-05;0.007162517004208785
1.02635e-05;0.007162883622191271
1.02638e-05;0.007163250240173756
1.02640e-05;0.007163616858156238
1.02643e-05;0.007163983476138724
1.02645e-05;0.007164350094121209
1.02648e-05;0.007164545069812615
1.02650e-05;0.007164484020667519
1.02653e-05;0.007164422971522424
1.02655e-05;0.007164361922377329
1.02658e-05;0.007164300873232234
1.02660e-05;0.007164239824087139
1.02663e-05;0.007164178774942044
1.02665e-05;0.007164117725796949
1.02668e-05;0.007164056676651854
1.02670e-05;0.007163995627506759
1.02673e-05;0.0071639345783616635
1.02675e-05;0.007163873529216568
1.02678e-05;0.007163812480071473
1.02680e-05;0.007163751430926378
1.02683e-05;0.007163690381781283
1.02685e-05;0.007163629332636188
1.02688e-05;0.007163568283491093
1.02690e-05;0.007163507234345998
1.02692e-05;0.007163446185200903
1.02695e-05;0.007163385136055808
1.02698e-05;0.0071633240869107126
1.02700e-05;0.0071632630377656175
1.02703e-05;0.007163201988620522
1.02705e-05;0.007163140939475427
1.02707e-05;0.007163079890330332
1.02710e-05;0.007168855332177761
1.02713e-05;0.007175269592203142
1.02715e-05;0.00718168385222848
1.02718e-05;0.00718809811225386
1.02720e-05;0.007194512372279241
1.02723e-05;0.007200926632304623
1.02725e-05;0.0072073408923299595
1.02728e-05;0.007213755152355341
1.02730e-05;0.007220169412380721
1.02733e-05;0.007226583672406059
1.02735e-05;0.007232997932431439
1.02738e-05;0.00723941219245682
1.02740e-05;0.007245826452482158
1.02743e-05;0.007252606312986128
1.02745e-05;0.007259931509969766
1.02748e-05;0.007267256706953353
1.02750e-05;0.007274581903936992
1.02753e-05;0.007281907100920629
1.02755e-05;0.007289232297904217
1.02758e-05;0.007296557494887854
1.02760e-05;0.007303882691871492
1.02763e-05;0.00731120788885508
1.02765e-05;0.0073185330858387175
1.02768e-05;0.007325858282822355
1.02770e-05;0.007333183479805943
1.02773e-05;0.007340508676789581
1.02775e-05;0.0073478338737732185
1.02777e-05;0.007341598334528168
1.02780e-05;0.007333878539618995
1.02783e-05;0.007326158744709821
1.02785e-05;0.0073184389498007
1.02788e-05;0.007310719154891527
1.02790e-05;0.007302999359982353
1.02792e-05;0.007295279565073232
1.02795e-05;0.0072740822571776284
1.02798e-05;0.007232781640019178
1.02800e-05;0.007191481022861008
1.02803e-05;0.007150180405702557
1.02805e-05;0.007108879788544107
1.02808e-05;0.007067579171385657
1.02810e-05;0.007026278554227486
1.02813e-05;0.006984977937069036
1.02815e-05;0.006913234923241284
1.02818e-05;0.006838159914828421
1.02820e-05;0.006763084906415051
1.02823e-05;0.00668800989800168
1.02825e-05;0.0066129348895888175
1.02828e-05;0.006537859881175447
1.02830e-05;0.006462784872762075
1.02833e-05;0.006387709864349213
1.02835e-05;0.0063055923823869256
1.02838e-05;0.0062129702157778625
1.02840e-05;0.006120348049169427
1.02843e-05;0.0060277258825603645
1.02845e-05;0.0059351037159513014
1.02848e-05;0.005842481549342866
1.02850e-05;0.005749859382733803
1.02853e-05;0.00565723721612474
1.02855e-05;0.005564615049516305
1.02858e-05;0.00547942661134103
1.02860e-05;0.005395051812879235
1.02862e-05;0.005310677014418012
1.02865e-05;0.005226302215956217
1.02868e-05;0.005141927417494422
1.02870e-05;0.0050575526190332
1.02873e-05;0.004995133183978817
1.02875e-05;0.004935116817015232
1.02877e-05;0.004875100450052053
1.02880e-05;0.004815084083088468
1.02883e-05;0.004755067716124883
1.02885e-05;0.004695051349161704
1.02888e-05;0.004663872410737375
1.02890e-05;0.004635849799223603
1.02893e-05;0.004607827187709831
1.02895e-05;0.004579804576196249
1.02898e-05;0.0045517819646824775
1.02900e-05;0.004523759353168706
1.02903e-05;0.004495736741655124
1.02905e-05;0.004467714130141352
1.02908e-05;0.00443969151862758
1.02910e-05;0.004411668907113998
1.02913e-05;0.004411479134191036
1.02915e-05;0.00441433573335803
1.02918e-05;0.0044171923325250035
1.02920e-05;0.004420048931691996
1.02923e-05;0.00442290553085899
1.02925e-05;0.004425762130025964
1.02928e-05;0.004428618729192957
1.02930e-05;0.00443147532835995
1.02933e-05;0.004434331927526924
1.02935e-05;0.0044371885266939175
1.02938e-05;0.004453662021860336
1.02940e-05;0.004471625919516206
1.02943e-05;0.004489589817172198
1.02945e-05;0.00450755371482819
1.02947e-05;0.004525517612484061
1.02950e-05;0.004543481510140052
1.02953e-05;0.004561445407796044
1.02955e-05;0.004579409305451914
1.02958e-05;0.004597220524091382
1.02960e-05;0.004614804003867484
1.02962e-05;0.004632387483643466
1.02965e-05;0.004649970963419569
1.02968e-05;0.00466755444319567
1.02970e-05;0.004685137922971653
1.02973e-05;0.004702721402747755
1.02975e-05;0.004720304882523858
1.02978e-05;0.004737888362299959
1.02980e-05;0.0047572652741915385
1.02983e-05;0.004776838481603986
1.02985e-05;0.004796411689016433
1.02988e-05;0.004815984896428748
1.02990e-05;0.0048355581038411945
1.02993e-05;0.004855131311253642
1.02995e-05;0.004874704518665957
1.02998e-05;0.004894277726078404
1.03000e-05;0.0049138509334908514
1.03003e-05;0.0049334241409031655
1.03005e-05;0.004958923628776465
1.03008e-05;0.004993262866912053
1.03010e-05;0.005027602105047408
1.03013e-05;0.005061941343182995
1.03015e-05;0.0050962805813185835
1.03018e-05;0.005130619819453938
1.03020e-05;0.005164959057589525
1.03023e-05;0.0051992982957251134
1.03025e-05;0.005233637533860468
1.03028e-05;0.005267976771996055
1.03030e-05;0.005302316010131643
1.03032e-05;0.005344455082909325
1.03035e-05;0.005387447866619685
1.03038e-05;0.005430440650330046
1.03040e-05;0.005473433434040114
1.03043e-05;0.005516426217750475
1.03045e-05;0.005559419001460836
1.03047e-05;0.005602411785170905
1.03050e-05;0.005645404568881266
1.03053e-05;0.0056883973525916265
1.03055e-05;0.005731390136301695
1.03058e-05;0.005766573703590107
1.03060e-05;0.005800902533087206
1.03063e-05;0.005835231362584304
1.03065e-05;0.005869560192081171
1.03068e-05;0.005903889021578269
1.03070e-05;0.005938217851075369
1.03073e-05;0.005972546680572235
1.03075e-05;0.006006875510069334
1.03078e-05;0.006041204339566433
1.03080e-05;0.006075533169063299
1.03083e-05;0.006081392316206756
1.03085e-05;0.0060841353871519035
1.03088e-05;0.006086878458097032
1.03090e-05;0.00608962152904218
1.03093e-05;0.006092364599987327
1.03095e-05;0.006095107670932456
1.03098e-05;0.006097850741877603
1.03100e-05;0.006100593812822751
1.03103e-05;0.006103336883767879
1.03105e-05;0.006106079954713027
1.03108e-05;0.006075725197805345
1.03110e-05;0.006041747802881961
1.03113e-05;0.006007770407958347
1.03115e-05;0.005973793013034734
1.03117e-05;0.00593981561811135
1.03120e-05;0.005905838223187736
1.03123e-05;0.005871860828264122
1.03125e-05;0.005837883433340739
1.03128e-05;0.005803906038417125
1.03130e-05;0.005769928643493511
1.03132e-05;0.005717564509637988
1.03135e-05;0.005663187902342862
1.03138e-05;0.005608811295047736
1.03140e-05;0.005554434687752979
1.03143e-05;0.005500058080457853
1.03145e-05;0.005445681473162728
1.03148e-05;0.005391304865867602
1.03150e-05;0.005336928258572844
1.03153e-05;0.005283365334298787
1.03155e-05;0.005229891469616769
1.03158e-05;0.0051764176049351115
1.03160e-05;0.005122943740253093
1.03163e-05;0.005069469875571074
1.03165e-05;0.005015996010889418
1.03168e-05;0.004962522146207399
1.03170e-05;0.00490904828152538
1.03173e-05;0.004876385443950929
1.03175e-05;0.004846000424072328
1.03178e-05;0.004815615404193727
1.03180e-05;0.004785230384315331
1.03183e-05;0.00475484536443673
1.03185e-05;0.004724460344558128
1.03188e-05;0.004694075324679733
1.03190e-05;0.00468070611440807
1.03193e-05;0.004692718002534623
1.03195e-05;0.004704729890661096
1.03198e-05;0.00471674177878765
1.03200e-05;0.004728753666914204
1.03202e-05;0.004740765555040676
1.03205e-05;0.00475277744316723
1.03208e-05;0.004764789331293784
1.03210e-05;0.00481645890602733
1.03213e-05;0.004872469111325992
1.03215e-05;0.004928479316624654
1.03217e-05;0.004984489521922936
1.03220e-05;0.005040499727221598
1.03223e-05;0.005096509932520261
1.03225e-05;0.005152520137818544
1.03228e-05;0.005208530343117206
1.03230e-05;0.005290490893110088
1.03232e-05;0.005375291771649194
1.03235e-05;0.0054600926501888756
1.03238e-05;0.005544893528728557
1.03240e-05;0.005629694407268238
1.03243e-05;0.005714495285807346
1.03245e-05;0.005799296164347027
1.03248e-05;0.0058840970428867085
1.03250e-05;0.005972484583437412
1.03253e-05;0.006061264692897568
1.03255e-05;0.006150044802357722
1.03258e-05;0.006238824911817276
1.03260e-05;0.006327605021277431
1.03263e-05;0.006416385130737587
1.03265e-05;0.006489640783048762
1.03268e-05;0.006561197245644621
1.03270e-05;0.006632753708240482
1.03273e-05;0.006704310170835857
1.03275e-05;0.006775866633431717
1.03278e-05;0.0068474230960275774
1.03280e-05;0.006895774650081744
1.03283e-05;0.006941586370274176
1.03285e-05;0.006987398090466609
1.03287e-05;0.007033209810658731
1.03290e-05;0.007079021530851163
1.03293e-05;0.007124833251043595
1.03295e-05;0.007170644971235717
1.03298e-05;0.0072164566914281495
1.03300e-05;0.007262268411620582
1.03302e-05;0.007308080131812704
1.03305e-05;0.007353891852005136
1.03308e-05;0.0073997035721975685
1.03310e-05;0.007439983092237202
1.03313e-05;0.007472010679531781
1.03315e-05;0.007504038266826359
1.03317e-05;0.007536065854120721
1.03320e-05;0.007568093441415299
1.03323e-05;0.007600121028709878
1.03325e-05;0.007632148616004457
1.03328e-05;0.007664176203298818
1.03330e-05;0.007696203790593397
1.03333e-05;0.007728231377887975
1.03335e-05;0.007760258965182337
1.03338e-05;0.007792286552476916
1.03340e-05;0.007824314139771494
1.03343e-05;0.007850587711629128
1.03345e-05;0.00787623149245665
1.03348e-05;0.007901875273284172
1.03350e-05;0.00792751905411152
1.03353e-05;0.007953162834939043
1.03355e-05;0.007978806615766564
1.03358e-05;0.008004450396593914
1.03360e-05;0.008027271075566951
1.03363e-05;0.008045880763252918
1.03365e-05;0.008064490450938757
1.03368e-05;0.008083100138624724
1.03370e-05;0.00810170982631069
1.03373e-05;0.008120319513996532
1.03375e-05;0.008138929201682498
1.03378e-05;0.008157538889368465
1.03380e-05;0.008153324893359891
1.03383e-05;0.00814661278947646
1.03385e-05;0.008139900685593027
1.03387e-05;0.008133188581709642
1.03390e-05;0.00812647647782621
1.03393e-05;0.00811976437394278
1.03395e-05;0.008113052270059392
1.03398e-05;0.008089089721058314
1.03400e-05;0.008039396086945549
1.03402e-05;0.007989702452833121
1.03405e-05;0.007940008818720356
1.03408e-05;0.007890315184607588
1.03410e-05;0.007840621550494822
1.03413e-05;0.007790927916382394
1.03415e-05;0.007741234282269628
1.03418e-05;0.007656218134298533
1.03420e-05;0.007567335850991523
1.03423e-05;0.007478453567683911
1.03425e-05;0.007389571284376299
1.03428e-05;0.007300689001069289
1.03430e-05;0.007211806717761677
1.03433e-05;0.007122924434454065
1.03435e-05;0.007034042151147056
1.03438e-05;0.0069279548973886235
1.03440e-05;0.006819984517629997
1.03443e-05;0.006712014137872102
1.03445e-05;0.006604043758113476
1.03448e-05;0.00649607337835485
1.03450e-05;0.006388102998596956
1.03453e-05;0.0062801326188383294
1.03455e-05;0.006172162239079703
1.03458e-05;0.006071722387196171
1.03460e-05;0.005972106769964282
1.03463e-05;0.005872491152732393
1.03465e-05;0.005772875535501178
1.03468e-05;0.0056732599182692895
1.03470e-05;0.005583898470753721
1.03472e-05;0.005509832333705892
1.03475e-05;0.005435766196657561
1.03478e-05;0.0053617000596092295
1.03480e-05;0.0052876339225614005
1.03483e-05;0.005213567785513069
1.03485e-05;0.005169262948092086
1.03487e-05;0.005128215557541962
1.03490e-05;0.005087168166991558
1.03493e-05;0.005046120776441156
1.03495e-05;0.005005073385890753
1.03498e-05;0.004964025995340628
1.03500e-05;0.0049229786047902254
1.03503e-05;0.004881931214239823
1.03505e-05;0.004840883823689698
1.03508e-05;0.004799836433139295
1.03510e-05;0.004787607807488479
1.03513e-05;0.004778533465982769
1.03515e-05;0.004769459124476997
1.03518e-05;0.004760384782971225
1.03520e-05;0.004751310441465513
1.03523e-05;0.004742236099959741
1.03525e-05;0.004733161758453969
1.03528e-05;0.004724087416948259
1.03530e-05;0.004715013075442487
1.03533e-05;0.004705938733936715
1.03535e-05;0.004712403629776486
1.03538e-05;0.0047205693330646375
1.03540e-05;0.004728735036352788
1.03543e-05;0.0047369007396408855
1.03545e-05;0.004745066442929037
1.03548e-05;0.004753232146217188
1.03550e-05;0.004761397849505285
1.03553e-05;0.004769563552793437
1.03555e-05;0.004777729256081588
1.03557e-05;0.004785894959369685
1.03560e-05;0.004794545636103214
1.03563e-05;0.004803919708257583
1.03565e-05;0.0048132937804118885
1.03568e-05;0.004822667852566257
1.03570e-05;0.004832041924720627
1.03572e-05;0.004841415996874932
1.03575e-05;0.004850790069029301
1.03578e-05;0.00486016414118367
1.03580e-05;0.00486953821333804
1.03583e-05;0.004878912285492345
1.03585e-05;0.004888286357646714
1.03588e-05;0.004897551442060936
1.03590e-05;0.004906804597500965
1.03593e-05;0.004916057752941057
1.03595e-05;0.004925310908381149
1.03598e-05;0.004934564063821178
1.03600e-05;0.00494381721926127
1.03603e-05;0.004953070374701362
1.03605e-05;0.004962323530141392
1.03608e-05;0.004971576685581484
1.03610e-05;0.004980829841021576
1.03613e-05;0.004990082996461606
1.03615e-05;0.004999336151901698
1.03618e-05;0.00500858930734179
1.03620e-05;0.00501784246278182
1.03623e-05;0.005027095618221912
1.03625e-05;0.005036348773662004
1.03628e-05;0.0050456019291020325
1.03630e-05;0.005054855084542125
1.03633e-05;0.005064108239982217
1.03635e-05;0.005073558708812199
1.03638e-05;0.0050830307740743035
1.03640e-05;0.005092502839336407
1.03642e-05;0.005101974904598448
1.03645e-05;0.0051114469698605525
1.03648e-05;0.005120919035122656
1.03650e-05;0.005130391100384697
1.03653e-05;0.005139863165646801
1.03655e-05;0.005149335230908905
1.03657e-05;0.005158807296170945
1.03660e-05;0.00516827936143305
1.03663e-05;0.0051777514266951544
1.03665e-05;0.005187223491957258
1.03668e-05;0.005196695557219299
1.03670e-05;0.005206167622481403
1.03673e-05;0.005215639687743507
1.03675e-05;0.005225111753005547
1.03678e-05;0.005234583818267652
1.03680e-05;0.005244055883529756
1.03683e-05;0.005253856394091759
1.03685e-05;0.00526369285379347
1.03688e-05;0.005273529313495182
1.03690e-05;0.005283365773196826
1.03693e-05;0.005293202232898538
1.03695e-05;0.005303038692600249
1.03698e-05;0.005312875152301894
1.03700e-05;0.005322711612003606
1.03703e-05;0.005332548071705317
1.03705e-05;0.005342384531406962
1.03708e-05;0.005352220991108674
1.03710e-05;0.005362057450810385
1.03713e-05;0.0053718939105120295
1.03715e-05;0.005381730370213741
1.03718e-05;0.005391566829915453
1.03720e-05;0.005401403289617098
1.03723e-05;0.0054132003046768245
1.03725e-05;0.005427921720613771
1.03727e-05;0.0054426431365506185
1.03730e-05;0.005457364552487565
1.03733e-05;0.005472085968424512
1.03735e-05;0.005486807384361359
1.03738e-05;0.005501528800298306
1.03740e-05;0.005516250216235253
1.03742e-05;0.0055309716321721
1.03745e-05;0.005545693048109047
1.03748e-05;0.005560414464045994
1.03750e-05;0.005575135879982941
1.03753e-05;0.005589857295919788
1.03755e-05;0.005604578711856735
1.03758e-05;0.005619300127793682
1.03760e-05;0.005634021543730529
1.03763e-05;0.005648742959667476
1.03765e-05;0.005656705479215075
1.03768e-05;0.005663928221057305
1.03770e-05;0.005671150962899582
1.03773e-05;0.00567837370474186
1.03775e-05;0.0056855964465840885
1.03778e-05;0.0056928191884263665
1.03780e-05;0.0057000419302686445
1.03783e-05;0.005707264672110873
1.03785e-05;0.00571448741395315
1.03788e-05;0.005721710155795428
1.03790e-05;0.005728932897637657
1.03793e-05;0.005736155639479935
1.03795e-05;0.005735715548140806
1.03798e-05;0.005723845432145472
1.03800e-05;0.005711975316150059
1.03803e-05;0.005700105200154645
1.03805e-05;0.005688235084159312
1.03808e-05;0.005676364968163899
1.03810e-05;0.005664494852168485
1.03812e-05;0.005652624736173152
1.03815e-05;0.005640754620177739
1.03818e-05;0.005628884504182325
1.03820e-05;0.005617014388186992
1.03823e-05;0.005605144272191579
1.03825e-05;0.005593274156196165
1.03827e-05;0.005569388234573157
1.03830e-05;0.005544187153698193
1.03833e-05;0.00551898607282323
1.03835e-05;0.005493784991948266
1.03838e-05;0.005468583911073474
1.03840e-05;0.005443382830198511
1.03843e-05;0.005418181749323548
1.03845e-05;0.005392980668448755
1.03848e-05;0.005367779587573792
1.03850e-05;0.005342578506698829
1.03853e-05;0.0053173774258240365
1.03855e-05;0.005294543995174975
1.03858e-05;0.005271969709621715
1.03860e-05;0.005249395424068608
1.03863e-05;0.005226821138515347
1.03865e-05;0.005204246852962087
1.03868e-05;0.00518167256740898
1.03870e-05;0.005159098281855719
1.03873e-05;0.005136523996302459
1.03875e-05;0.005113949710749352
1.03878e-05;0.005091375425196091
1.03880e-05;0.0050688011396428315
1.03883e-05;0.005065628839902768
1.03885e-05;0.005064580134863651
1.03888e-05;0.005063531429824533
1.03890e-05;0.005062482724785424
1.03893e-05;0.005061434019746306
1.03895e-05;0.005060385314707189
1.03897e-05;0.005059336609668079
1.03900e-05;0.005058287904628962
1.03903e-05;0.0050572391995898445
1.03905e-05;0.005056190494550735
1.03908e-05;0.0050551417895116175
1.03910e-05;0.0050540930844725
1.03912e-05;0.0050530443794333905
1.03915e-05;0.005072952541334315
1.03918e-05;0.0050951544834709935
1.03920e-05;0.0051173564256076715
1.03923e-05;0.005139558367744199
1.03925e-05;0.005161760309880876
1.03928e-05;0.005183962252017554
1.03930e-05;0.005206164194154081
1.03933e-05;0.005228366136290758
1.03935e-05;0.005250568078427436
1.03938e-05;0.005272770020563963
1.03940e-05;0.0052949719627006404
1.03943e-05;0.0053171739048373185
1.03945e-05;0.005339375846973846
1.03948e-05;0.005364054125125554
1.03950e-05;0.005389003444298112
1.03953e-05;0.0054139527634705
1.03955e-05;0.005438902082643057
1.03958e-05;0.005461453291520285
1.03960e-05;0.005501390572486709
1.03963e-05;-0.024143084760395735
1.03965e-05;-0.020995737027578378
1.03968e-05;-0.012722982507033088
1.03970e-05;-0.006962044819458881
1.03973e-05;0.007638916344491384
1.03975e-05;0.015391828917620271
1.03978e-05;0.014621764740655619
1.03980e-05;0.00954221636198905
1.03982e-05;0.001568072733632718
1.03985e-05;-0.004018107115486939
1.03988e-05;-0.0031607086872096858
1.03990e-05;0.0016874844225778886
1.03993e-05;0.007905371680142319
1.03995e-05;0.01235238093646047
1.03997e-05;0.012371972917669078
1.04000e-05;0.009016546241103056
1.04003e-05;0.0038919354992876525
1.04005e-05;0.0002933007346378914
1.04008e-05;0.0007513262791212934
