Time(s);Current(A)
1.02500e-05;0.005261395569793274
1.02503e-05;0.005259206275505237
1.02505e-05;0.005257016981217202
1.02508e-05;0.00525482768692918
1.02510e-05;0.005252638392641144
1.02513e-05;0.0052504490983531086
1.02515e-05;0.005248259804065087
1.02518e-05;0.005246070509777051
1.02520e-05;0.005243881215489015
1.02522e-05;0.005241691921200994
1.02525e-05;0.00519373658190638
1.02528e-05;0.005138910504244285
1.02530e-05;0.005084084426582563
1.02533e-05;0.005029258348920468
1.02535e-05;0.004974432271258373
1.02537e-05;0.004919606193596651
1.02540e-05;0.004864780115934556
1.02543e-05;0.0048099540382724616
1.02545e-05;0.004755127960610739
1.02548e-05;0.004690924949726048
1.02550e-05;0.004610719377959965
1.02553e-05;0.0045305138061938815
1.02555e-05;0.004450308234428342
1.02558e-05;0.004370102662662259
1.02560e-05;0.004289897090896176
1.02563e-05;0.004209691519130636
1.02565e-05;0.004129744197237853
1.02568e-05;0.004049835645732874
1.02570e-05;0.0039699270942284365
1.02573e-05;0.003890018542723458
1.02575e-05;0.003810109991218479
1.02578e-05;0.003730201439714042
1.02580e-05;0.0036610553977576826
1.02583e-05;0.003610276524492824
1.02585e-05;0.0035594976512283096
1.02588e-05;0.0035087187779634516
1.02590e-05;0.003457939904698593
1.02593e-05;0.0034071610314340786
1.02595e-05;0.00335638215816922
1.02598e-05;0.003305603284904362
1.02600e-05;0.0032548244116398476
1.02603e-05;0.003204045538374989
1.02605e-05;0.0031700360518417446
1.02607e-05;0.003164644997986355
1.02610e-05;0.0031592539441309283
1.02613e-05;0.003153862890275502
1.02615e-05;0.003148471836420112
1.02618e-05;0.0031430807825646857
1.02620e-05;0.003137689728709259
1.02622e-05;0.0031322986748538693
1.02625e-05;0.0031269076209984427
1.02628e-05;0.003121516567143016
1.02630e-05;0.0031280236200693064
1.02633e-05;0.003154835838198941
1.02635e-05;0.0031816480563285764
1.02638e-05;0.003208460274458211
1.02640e-05;0.003235272492587664
1.02643e-05;0.003262084710717299
1.02645e-05;0.0032888969288469337
1.02648e-05;0.0033157091469763872
1.02650e-05;0.0033546324536441415
1.02653e-05;0.003395373966816927
1.02655e-05;0.0034361154799894367
1.02658e-05;0.003476856993162222
1.02660e-05;0.003517598506335007
1.02663e-05;0.003558340019507517
1.02665e-05;0.0035990815326803023
1.02668e-05;0.003638806777653775
1.02670e-05;0.0036767976716029984
1.02673e-05;0.003714788565552479
1.02675e-05;0.00375277945950196
1.02678e-05;0.003790770353451183
1.02680e-05;0.0038287612474006637
1.02683e-05;0.003866752141350144
1.02685e-05;0.003904743035299367
1.02688e-05;0.003942733929248848
1.02690e-05;0.003968908244503583
1.02692e-05;0.0039933085672562586
1.02695e-05;0.004017708890009099
1.02698e-05;0.004042109212761939
1.02700e-05;0.004066509535514614
1.02703e-05;0.004090909858267455
1.02705e-05;0.004115310181020295
1.02707e-05;0.00413971050377297
1.02710e-05;0.004160185220614944
1.02713e-05;0.004173960545862164
1.02715e-05;0.00418773587110929
1.02718e-05;0.00420151119635651
1.02720e-05;0.004215286521603729
1.02723e-05;0.004229061846850949
1.02725e-05;0.0042428371720980755
1.02728e-05;0.004256612497345295
1.02730e-05;0.0042703878225925146
1.02733e-05;0.004284163147839641
1.02735e-05;0.004297938473086861
1.02738e-05;0.00431171379833408
1.02740e-05;0.004325489123581207
1.02743e-05;0.0043392644488284265
1.02745e-05;0.004353039774075646
1.02748e-05;0.004366815099322772
1.02750e-05;0.004380590424569992
1.02753e-05;0.004394365749817212
1.02755e-05;0.004401744141524727
1.02758e-05;0.004408162178087785
1.02760e-05;0.0044145802146508435
1.02763e-05;0.0044209982512138585
1.02765e-05;0.004427416287776917
1.02768e-05;0.004433834324339975
1.02770e-05;0.00444025236090299
1.02773e-05;0.004446670397466049
1.02775e-05;0.004453088434029107
1.02777e-05;0.004459506470592122
1.02780e-05;0.00446592450715518
1.02783e-05;0.004472342543718239
1.02785e-05;0.004478760580281254
1.02788e-05;0.004485178616844312
1.02790e-05;0.00449159665340737
1.02792e-05;0.0044980146899703845
1.02795e-05;0.004504432726533443
1.02798e-05;0.004505697072060796
1.02800e-05;0.004498166190761931
1.02803e-05;0.004490635309463014
1.02805e-05;0.004483104428164097
1.02808e-05;0.004475573546865181
1.02810e-05;0.004468042665566315
1.02813e-05;0.004460511784267398
1.02815e-05;0.004452980902968482
1.02818e-05;0.004445450021669616
1.02820e-05;0.0044379191403707
1.02823e-05;0.004430388259071783
1.02825e-05;0.004422857377772917
1.02828e-05;0.004415326496474001
1.02830e-05;0.0044077956151750836
1.02833e-05;0.004388660480614246
1.02835e-05;0.004367783229419642
1.02838e-05;0.004346905978225038
1.02840e-05;0.0043260287270305755
1.02843e-05;0.0043051514758359714
1.02845e-05;0.004284274224641367
1.02848e-05;0.004263396973446905
1.02850e-05;0.004242519722252301
1.02853e-05;0.004221642471057697
1.02855e-05;0.004200765219863234
1.02858e-05;0.004179887968668631
1.02860e-05;0.004159010717474027
1.02862e-05;0.004138133466279564
1.02865e-05;0.004117555976192896
1.02868e-05;0.0040974900547897574
1.02870e-05;0.004077424133386754
1.02873e-05;0.004057358211983615
1.02875e-05;0.004037292290580477
1.02877e-05;0.004017226369177474
1.02880e-05;0.0039971604477743354
1.02883e-05;0.003977094526371196
1.02885e-05;0.003957028604968194
1.02888e-05;0.003936962683565055
1.02890e-05;0.0039168967621619165
1.02893e-05;0.003910485081292752
1.02895e-05;0.0039061232763632613
1.02898e-05;0.0039017614714337407
1.02900e-05;0.0038973996665042205
1.02903e-05;0.0038930378615747298
1.02905e-05;0.003888676056645209
1.02908e-05;0.003884314251715689
1.02910e-05;0.003879952446786198
1.02913e-05;0.0038755906418566776
1.02915e-05;0.0038712288369271573
1.02918e-05;0.003874434919897496
1.02920e-05;0.003890556268884529
1.02923e-05;0.003906677617871563
1.02925e-05;0.003922798966858486
1.02928e-05;0.00393892031584552
1.02930e-05;0.003955041664832554
1.02933e-05;0.0039711630138194775
1.02935e-05;0.003987284362806511
1.02938e-05;0.004003405711793545
1.02940e-05;0.004019527060780469
1.02943e-05;0.004035648409767502
1.02945e-05;0.004061520666917463
1.02947e-05;0.004088856802778697
1.02950e-05;0.0041161929386401164
1.02953e-05;0.004143529074501536
1.02955e-05;0.00417086521036277
1.02958e-05;0.0041982013462241894
1.02960e-05;0.004225537482085609
1.02962e-05;0.004252873617946844
1.02965e-05;0.004280209753808263
1.02968e-05;0.004307545889669683
1.02970e-05;0.004331468187245728
1.02973e-05;0.0043495644696665324
1.02975e-05;0.004367660752087337
1.02978e-05;0.00438575703450814
1.02980e-05;0.004403853316928822
1.02983e-05;0.004421949599349625
1.02985e-05;0.004440045881770429
1.02988e-05;0.00445814216419111
1.02990e-05;0.0044762384466119146
1.02993e-05;0.004494334729032719
1.02995e-05;0.0045124310114534
1.02998e-05;0.004530527293874204
1.03000e-05;0.004548623576295008
1.03003e-05;0.004566719858715689
1.03005e-05;0.004584816141136493
1.03008e-05;0.004602912423557297
1.03010e-05;0.004621008705977979
1.03013e-05;0.004632273170162224
1.03015e-05;0.00463187853591715
1.03018e-05;0.0046314839016720795
1.03020e-05;0.0046310892674270064
1.03023e-05;0.0046306946331819325
1.03025e-05;0.004630299998936862
1.03028e-05;0.004629905364691789
1.03030e-05;0.004629510730446715
1.03032e-05;0.004629116096201645
1.03035e-05;0.004628721461956571
1.03038e-05;0.004628326827711498
1.03040e-05;0.004627932193466427
1.03043e-05;0.004627537559221353
1.03045e-05;0.00462714292497628
1.03047e-05;0.004626748290731209
1.03050e-05;0.004626353656486136
1.03053e-05;0.004625959022241063
1.03055e-05;0.0046233766779462246
1.03058e-05;0.004617060814121908
1.03060e-05;0.0046107449502975914
1.03063e-05;0.004604429086473275
1.03065e-05;0.004598113222649002
1.03068e-05;0.004591797358824685
1.03070e-05;0.004585481495000369
1.03073e-05;0.0045791656311760945
1.03075e-05;0.004572849767351779
1.03078e-05;0.004566533903527462
1.03080e-05;0.004560218039703188
1.03083e-05;0.004553902175878872
1.03085e-05;0.004547586312054555
1.03088e-05;0.004541270448230282
1.03090e-05;0.004533596123081748
1.03093e-05;0.00452360346425589
1.03095e-05;0.004513610805430101
1.03098e-05;0.0045036181466042435
1.03100e-05;0.0044936254877783865
1.03103e-05;0.004483632828952596
1.03105e-05;0.004473640170126739
1.03108e-05;0.004463647511300882
1.03110e-05;0.004453654852475093
1.03113e-05;0.004443662193649235
1.03115e-05;0.004433669534823378
1.03117e-05;0.004423676875997588
1.03120e-05;0.004413684217171731
1.03123e-05;0.004403691558345873
1.03125e-05;0.004390150478157562
1.03128e-05;0.004370553704957825
1.03130e-05;0.004350956931758088
1.03132e-05;0.004331360158558483
1.03135e-05;0.004311763385358746
1.03138e-05;0.004292166612159009
1.03140e-05;0.004272569838959405
1.03143e-05;0.004252973065759668
1.03145e-05;0.004233376292559931
1.03148e-05;0.004213779519360194
1.03150e-05;0.004194182746160589
1.03153e-05;0.004174585972960852
1.03155e-05;0.004154547754926926
1.03158e-05;0.004133756172474312
1.03160e-05;0.004112964590021559
1.03163e-05;0.004092173007568804
1.03165e-05;0.004071381425116191
1.03168e-05;0.004050589842663437
1.03170e-05;0.004029798260210682
1.03173e-05;0.004009006677758069
1.03175e-05;0.0039882150953053155
1.03178e-05;0.003967423512852561
1.03180e-05;0.003946631930399948
1.03183e-05;0.0039258403479471935
1.03185e-05;0.00391056219975923
1.03188e-05;0.0039046932118546093
1.03190e-05;0.003898824223949949
1.03193e-05;0.0038929552360452884
1.03195e-05;0.0038870862481406674
1.03198e-05;0.003881217260236007
1.03200e-05;0.0038753482723313465
1.03202e-05;0.003869479284426726
1.03205e-05;0.003863610296522065
1.03208e-05;0.0038577413086174047
1.03210e-05;0.003851872320712784
1.03213e-05;0.0038460033328081237
1.03215e-05;0.0038401343449034633
1.03217e-05;0.0038342653569988423
1.03220e-05;0.0038478506368862997
1.03223e-05;0.0038643565358630837
1.03225e-05;0.003880862434839756
1.03228e-05;0.00389736833381654
1.03230e-05;0.003913874232793324
1.03232e-05;0.003930380131769997
1.03235e-05;0.00394688603074678
1.03238e-05;0.003963391929723565
1.03240e-05;0.003979897828700348
1.03243e-05;0.003996403727677021
1.03245e-05;0.004012909626653805
1.03248e-05;0.004029415525630589
1.03250e-05;0.004045921424607261
1.03253e-05;0.004065219282545575
1.03255e-05;0.004089281863905915
1.03258e-05;0.004113344445266092
1.03260e-05;0.004137407026626432
1.03263e-05;0.004161469607986772
1.03265e-05;0.004185532189346949
1.03268e-05;0.004209594770707289
1.03270e-05;0.0042336573520676294
1.03273e-05;0.0042577199334278065
1.03275e-05;0.004281782514788147
1.03278e-05;0.004305845096148487
1.03280e-05;0.004329907677508664
1.03283e-05;0.004350154234234882
1.03285e-05;0.0043638884094376286
1.03287e-05;0.004377622584640283
1.03290e-05;0.0043913567598430295
1.03293e-05;0.004405090935045777
1.03295e-05;0.004418825110248431
1.03298e-05;0.004432559285451178
1.03300e-05;0.004446293460653925
1.03302e-05;0.004460027635856579
1.03305e-05;0.004473761811059327
1.03308e-05;0.004487495986262074
1.03310e-05;0.004501230161464728
1.03313e-05;0.00451041443109826
1.03315e-05;0.00451183388687263
1.03317e-05;0.004513253342646991
1.03320e-05;0.00451467279842136
1.03323e-05;0.004516092254195731
1.03325e-05;0.004517511709970101
1.03328e-05;0.004518931165744461
1.03330e-05;0.004520350621518831
1.03333e-05;0.004521770077293201
1.03335e-05;0.004523189533067562
1.03338e-05;0.004524608988841931
1.03340e-05;0.004526028444616302
1.03343e-05;0.004527447900390662
1.03345e-05;0.004528867356165032
1.03348e-05;0.004530286811939402
1.03350e-05;0.0045317062677137625
1.03353e-05;0.004528489034545771
1.03355e-05;0.004524575707215226
1.03358e-05;0.004520662379884708
1.03360e-05;0.004516749052554163
1.03363e-05;0.004512835725223618
1.03365e-05;0.0045089223978931
1.03368e-05;0.004505009070562555
1.03370e-05;0.00450109574323201
1.03373e-05;0.004497182415901492
1.03375e-05;0.004493269088570947
1.03378e-05;0.004489355761240402
1.03380e-05;0.004485442433909884
1.03383e-05;0.004481529106579339
1.03385e-05;0.004477615779248794
1.03387e-05;0.004473702451918275
1.03390e-05;0.004473273577804343
1.03393e-05;0.004478791229441744
1.03395e-05;0.004484308881079107
1.03398e-05;0.004489826532716507
1.03400e-05;0.004495344184353907
1.03402e-05;0.004500861835991269
1.03405e-05;0.00450637948762867
1.03408e-05;0.00451189713926607
1.03410e-05;0.00451741479090347
1.03413e-05;0.004522932442540833
1.03415e-05;0.004528450094178234
1.03418e-05;0.004533967745815634
1.03420e-05;0.004539485397452996
1.03423e-05;0.004545003049090396
1.03425e-05;0.004550520700727797
1.03428e-05;0.004561716752320692
1.03430e-05;0.004582603492657526
1.03433e-05;0.004603490232994361
1.03435e-05;0.004624376973331053
1.03438e-05;0.004645263713667888
1.03440e-05;0.004666150454004723
1.03443e-05;0.004687037194341415
1.03445e-05;0.00470792393467825
1.03448e-05;0.004728810675015084
1.03450e-05;0.004749697415351777
1.03453e-05;0.004770584155688611
1.03455e-05;0.004791470896025446
1.03458e-05;0.004812357636362138
1.03460e-05;0.004833244376698973
1.03463e-05;0.0048541311170358075
1.03465e-05;0.004873806231091791
1.03468e-05;0.004891413598378886
1.03470e-05;0.004909020965665981
1.03472e-05;0.0049266283329529575
1.03475e-05;0.004944235700240053
1.03478e-05;0.0049618430675271484
1.03480e-05;0.004979450434814125
1.03483e-05;0.00499705780210122
1.03485e-05;0.005014665169388316
1.03487e-05;0.005032272536675292
1.03490e-05;0.005049879903962387
1.03493e-05;0.005067487271249482
1.03495e-05;0.005085094638536578
1.03498e-05;0.005102702005823554
1.03500e-05;0.005120309373110649
1.03503e-05;0.005131551412710246
1.03505e-05;0.005131930460998112
1.03508e-05;0.00513230950928598
1.03510e-05;0.005132688557573849
1.03513e-05;0.005133067605861715
1.03515e-05;0.005133446654149584
1.03518e-05;0.005133825702437453
1.03520e-05;0.005134204750725319
1.03523e-05;0.005134583799013187
1.03525e-05;0.0051349628473010556
1.03528e-05;0.005135341895588922
1.03530e-05;0.005135720943876791
1.03533e-05;0.005136099992164659
1.03535e-05;0.005136479040452525
1.03538e-05;0.005136858088740394
1.03540e-05;0.005133557421007733
1.03543e-05;0.005123976994380117
1.03545e-05;0.0051143965677524356
1.03548e-05;0.005104816141124754
1.03550e-05;0.005095235714497138
1.03553e-05;0.005085655287869456
1.03555e-05;0.005076074861241775
1.03557e-05;0.005066494434614158
1.03560e-05;0.005056914007986477
1.03563e-05;0.0050473335813587955
1.03565e-05;0.005037753154731179
1.03568e-05;0.005028016445196695
1.03570e-05;0.005018256273312113
1.03572e-05;0.005008496101427597
1.03575e-05;0.004998735929543014
1.03578e-05;0.004988975757658432
1.03580e-05;0.004979215585773851
1.03583e-05;0.0049694554138893345
1.03585e-05;0.004959695242004752
1.03588e-05;0.00494993507012017
1.03590e-05;0.004940174898235654
1.03593e-05;0.004927079248944587
1.03595e-05;0.004908291314216296
1.03598e-05;0.004889503379488133
1.03600e-05;0.004870715444759842
1.03603e-05;0.0048519275100315515
1.03605e-05;0.004833139575303388
1.03608e-05;0.004814351640575097
1.03610e-05;0.004795563705846806
1.03613e-05;0.004776775771118643
1.03615e-05;0.004757987836390352
1.03618e-05;0.004739199901662061
1.03620e-05;0.004720411966933898
1.03623e-05;0.004683384208032786
1.03625e-05;0.004643618151326709
1.03628e-05;0.0046038520946209026
1.03630e-05;0.004564086037914827
1.03633e-05;0.004524319981208751
1.03635e-05;0.004484553924502944
1.03638e-05;0.004444787867796868
1.03640e-05;0.004405021811090792
1.03642e-05;0.004365255754384985
1.03645e-05;0.0043254896976789095
1.03648e-05;0.004285723640972833
1.03650e-05;0.004242785088111284
1.03653e-05;0.004194432391644093
1.03655e-05;0.004146079695176902
1.03657e-05;0.004097726998710039
1.03660e-05;0.004049374302242848
1.03663e-05;0.004001021605775657
1.03665e-05;0.003952668909308466
1.03668e-05;0.003904316212841602
1.03670e-05;0.0038587990072966316
1.03673e-05;0.0038181208162978986
1.03675e-05;0.003777442625299441
1.03678e-05;0.003736764434300708
1.03680e-05;0.003696086243301975
1.03683e-05;0.0036554080523035176
1.03685e-05;0.0036147298613047846
1.03688e-05;0.0035740516703060515
1.03690e-05;0.0035389821513353075
1.03693e-05;0.0035134843242772707
1.03695e-05;0.0034879864972192334
1.03698e-05;0.00346744245827633
1.03700e-05;0.0034553524942739318
1.03703e-05;0.0034432625302715336
1.03705e-05;0.0034362074173621125
1.03708e-05;0.003437744720491951
1.03710e-05;0.00343928202362179
1.03713e-05;0.003446135446592517
1.03715e-05;0.003462061295449121
1.03718e-05;0.0034779871443057254
1.03720e-05;0.0035026741175170468
1.03723e-05;0.0035423127196918653
1.03725e-05;0.003581951321866684
1.03727e-05;0.003621589924041234
1.03730e-05;0.0036612285262160524
1.03733e-05;0.003700867128390871
1.03735e-05;0.0037405057305654205
1.03738e-05;0.003780144332740239
1.03740e-05;0.0038283947866847657
1.03742e-05;0.0038913421228030077
1.03745e-05;0.0039542894589216756
1.03748e-05;0.004017236795040344
1.03750e-05;0.004080184131159012
1.03753e-05;0.004143131467277255
1.03755e-05;0.004206078803395923
1.03758e-05;0.004269026139514591
1.03760e-05;0.004333411505783901
1.03763e-05;0.00440025099693411
1.03765e-05;0.0044670904880843194
1.03768e-05;0.004533929979234076
1.03770e-05;0.004600769470384285
1.03773e-05;0.004667608961534494
1.03775e-05;0.004734448452684249
1.03778e-05;0.004795071872964372
1.03780e-05;0.004845087021804153
1.03783e-05;0.004895102170643594
1.03785e-05;0.004945117319483374
1.03788e-05;0.004995132468323154
1.03790e-05;0.005045147617162595
1.03793e-05;0.0050951627660023755
1.03795e-05;0.005128855762784824
1.03798e-05;0.005134693572079254
1.03800e-05;0.0051405313813737245
1.03803e-05;0.005146369190668194
1.03805e-05;0.005152206999962625
1.03808e-05;0.005158044809257095
1.03810e-05;0.005163882618551565
1.03812e-05;0.005169720427845996
1.03815e-05;0.0051755582371404655
1.03818e-05;0.005181396046434936
1.03820e-05;0.0051677823368238155
1.03823e-05;0.00512097290007036
1.03825e-05;0.005074163463316904
1.03827e-05;0.005027354026563766
1.03830e-05;0.004980544589810311
1.03833e-05;0.004933735153056855
1.03835e-05;0.004886925716303399
1.03838e-05;0.004840116279550261
1.03840e-05;0.004793306842796805
1.03843e-05;0.00474649740604335
1.03845e-05;0.004689655391837283
1.03848e-05;0.004615691902167263
1.03850e-05;0.004541728412497243
1.03853e-05;0.004467764922827724
1.03855e-05;0.004393801433157704
1.03858e-05;0.004319837943487685
1.03860e-05;0.0042458744538181655
1.03863e-05;0.004169877199681281
1.03865e-05;0.0040935746217249155
1.03868e-05;0.004017272043769068
1.03870e-05;0.003940969465812703
1.03873e-05;0.003864666887856339
1.03875e-05;0.003788364309900491
1.03878e-05;0.003720496747155717
1.03880e-05;0.00366702427945756
1.03883e-05;0.0036135518117597657
1.03885e-05;0.003560079344061609
1.03888e-05;0.003506606876363452
1.03890e-05;0.003453134408665658
1.03893e-05;0.003399661940967501
1.03895e-05;0.003346189473269344
1.03897e-05;0.0032927170055715494
1.03900e-05;0.0032392445378733926
1.03903e-05;0.0031968695545707376
1.03905e-05;0.003173433404057307
1.03908e-05;0.0031499972535437176
1.03910e-05;0.003126561103030128
1.03912e-05;0.0031031249525166975
1.03915e-05;0.003079688802003108
1.03918e-05;0.0030562526514895188
1.03920e-05;0.0030328165009759294
1.03923e-05;0.003009380350462499
1.03925e-05;0.00298594419994891
1.03928e-05;0.002967323723987353
1.03930e-05;0.0029599689556886553
1.03933e-05;0.0029517926759413692
1.03935e-05;-0.017773363312425003
1.03938e-05;-0.019970186721861977
1.03940e-05;-0.014272719514772129
1.03943e-05;-0.009706456600555961
1.03945e-05;0.005982837522322328
1.03948e-05;0.010479843713736073
1.03950e-05;0.009092563463558296
1.03953e-05;0.006033957983659544
1.03955e-05;-0.0005507354218717807
1.03958e-05;-0.005475690856388878
1.03960e-05;-0.005195596261723388
1.03963e-05;-0.0017326661273483939
1.03965e-05;0.0035588246577835238
1.03968e-05;0.007548440837563988
1.03970e-05;0.00805023679829538
1.03973e-05;0.005906068949828595
1.03975e-05;0.0016597425858966431
1.03978e-05;-0.0015176545226704707
1.03980e-05;-0.0014128901542154195
1.03982e-05;0.0007015474848549793
1.03985e-05;0.003973026757677198
1.03988e-05;0.006437492064282124
1.03990e-05;0.0067235345565975916
1.03993e-05;0.005357324822036646
1.03995e-05;0.002678958648332427
1.03997e-05;0.0006741857797112846
1.04000e-05;0.0007285227397580798
1.04003e-05;0.002044130899944363
