Time(s);Current(A)
1.75000e-06;0.01340354901242098
1.75025e-06;0.013381898914729884
1.75050e-06;0.013360248817038786
1.75075e-06;0.013322439679471476
1.75100e-06;0.013272328937021715
1.75125e-06;0.013222218194571913
1.75150e-06;0.013172107452122153
1.75175e-06;0.013121996709672349
1.75200e-06;0.013071885967222589
1.75225e-06;0.013021775224772828
1.75250e-06;0.012971664482323026
1.75275e-06;0.012911507675048561
1.75300e-06;0.012843702967834268
1.75325e-06;0.012775898260620032
1.75350e-06;0.012708093553405795
1.75375e-06;0.0126402888461915
1.75400e-06;0.012572484138977264
1.75425e-06;0.01250467943176297
1.75450e-06;0.012436874724548734
1.75475e-06;0.012368494754153643
1.75500e-06;0.012299676845588383
1.75525e-06;0.012230858937023179
1.75550e-06;0.01216468772380031
1.75575e-06;0.012100531395161917
1.75600e-06;0.012036375066523467
1.75625e-06;0.011985257245748325
1.75650e-06;0.011944065421394668
1.75675e-06;0.011902873597040974
1.75700e-06;0.011861681772687316
1.75725e-06;0.011820489948333622
1.75750e-06;0.011779298123979964
1.75775e-06;0.011738106299626306
1.75800e-06;0.011696914475272612
1.75825e-06;0.011655722650918954
1.75850e-06;0.011614530826565262
1.75875e-06;0.011573339002211603
1.75900e-06;0.011532147177857945
1.75925e-06;0.011490955353504253
1.75950e-06;0.011465000466704282
1.75975e-06;0.011450645203819543
1.76000e-06;0.011436289940934817
1.76025e-06;0.011421934678050078
1.76050e-06;0.01140757941516535
1.76075e-06;0.011393224152280623
1.76100e-06;0.011378868889395884
1.76125e-06;0.011364513626511157
1.76150e-06;0.011350158363626418
1.76175e-06;0.011335803100741691
1.76200e-06;0.011321447837856964
1.76225e-06;0.011307092574972226
1.76250e-06;0.011292737312087499
1.76275e-06;0.011285255876414262
1.76300e-06;0.011283007369617274
1.76325e-06;0.011280758862820286
1.76350e-06;0.011278510356023298
1.76375e-06;0.01127626184922631
1.76400e-06;0.01127401334242932
1.76425e-06;0.011271764835632333
1.76450e-06;0.011269516328835346
1.76475e-06;0.011267267822038357
1.76500e-06;0.0112651865268294
1.76525e-06;0.011265405436651412
1.76550e-06;0.011265624346473425
1.76575e-06;0.011265843256295436
1.76600e-06;0.011266062166117448
1.76625e-06;0.01126628107593946
1.76650e-06;0.011266499985761473
1.76675e-06;0.011266718895583486
1.76700e-06;0.011266937805405499
1.76725e-06;0.01126715671522751
1.76750e-06;0.011269511231483844
1.76775e-06;0.011273491548947323
1.76800e-06;0.011277471866410801
1.76825e-06;0.011281452183874281
1.76850e-06;0.01128543250133776
1.76875e-06;0.011289412818801237
1.76900e-06;0.011293393136264717
1.76925e-06;0.011297373453728195
1.76950e-06;0.011301353771191677
1.76975e-06;0.011305334088655153
1.77000e-06;0.011309314406118634
1.77025e-06;0.011313294723582112
1.77050e-06;0.011321567857157745
1.77075e-06;0.011333109039333034
1.77100e-06;0.011344650221508313
1.77125e-06;0.0113561914036836
1.77150e-06;0.011367732585858879
1.77175e-06;0.011379273768034158
1.77200e-06;0.011390814950209447
1.77225e-06;0.011402356132384725
1.77250e-06;0.011413897314560014
1.77275e-06;0.011425438496735293
1.77300e-06;0.011436979678910572
1.77325e-06;0.011448520861085859
1.77350e-06;0.011461535430850501
1.77375e-06;0.011475671665769743
1.77400e-06;0.011489807900688974
1.77425e-06;0.011503944135608218
1.77450e-06;0.011518080370527449
1.77475e-06;0.011532216605446679
1.77500e-06;0.011546352840365922
1.77525e-06;0.011560292682111529
1.77550e-06;0.01157153088953125
1.77575e-06;0.011582769096950964
1.77600e-06;0.011594007304370676
1.77625e-06;0.011605245511790398
1.77650e-06;0.011616483719210112
1.77675e-06;0.011627721926629834
1.77700e-06;0.011638960134049546
1.77725e-06;0.011642880577567521
1.77750e-06;0.011641230130684905
1.77775e-06;0.01163957968380229
1.77800e-06;0.011637929236919673
1.77825e-06;0.011636278790037058
1.77850e-06;0.011634628343154442
1.77875e-06;0.011631508200255346
1.77900e-06;0.011608170546059048
1.77925e-06;0.011584832891862731
1.77950e-06;0.011561495237666433
1.77975e-06;0.011538157583470116
1.78000e-06;0.011514819929273818
1.78025e-06;0.01149148227507752
1.78050e-06;0.011455226407983347
1.78075e-06;0.011409136123000027
1.78100e-06;0.011363045838016669
1.78125e-06;0.011316955553033348
1.78150e-06;0.01127086526805003
1.78175e-06;0.01122477498306667
1.78200e-06;0.011178684698083351
1.78225e-06;0.011131542045942378
1.78250e-06;0.011069922764173583
1.78275e-06;0.011008303482404735
1.78300e-06;0.01094668420063594
1.78325e-06;0.010885064918867145
1.78350e-06;0.010823445637098297
1.78375e-06;0.010761826355329502
1.78400e-06;0.010700207073560654
1.78425e-06;0.010636645706818318
1.78450e-06;0.010572121595421577
1.78475e-06;0.010507990102051785
1.78500e-06;0.010443858608682046
1.78525e-06;0.010381785636550005
1.78550e-06;0.010321279781963245
1.78575e-06;0.010260773927376485
1.78600e-06;0.010203958217548097
1.78625e-06;0.01014995175276872
1.78650e-06;0.010095945287989298
1.78675e-06;0.01004770264742397
1.78700e-06;0.010003847909148723
1.78725e-06;0.009959993170873514
1.78750e-06;0.009929238088550717
1.78775e-06;0.009908455553657958
1.78800e-06;0.009887673018765218
1.78825e-06;0.00986689048387246
1.78850e-06;0.009846107948979718
1.78875e-06;0.009825325414086976
1.78900e-06;0.009806866203305356
1.78925e-06;0.009820367228468567
1.78950e-06;0.009833868253631788
1.78975e-06;0.009847369278795001
1.79000e-06;0.009860870303958212
1.79025e-06;0.009874371329121435
1.79050e-06;0.009887872354284646
1.79075e-06;0.009921729223341728
1.79100e-06;0.009971082653487392
1.79125e-06;0.010020436083633096
1.79150e-06;0.010069789513778758
1.79175e-06;0.010119142943924422
1.79200e-06;0.010168496374070126
1.79225e-06;0.01021784980421579
1.79250e-06;0.010267203234361495
1.79275e-06;0.010316556664507157
1.79300e-06;0.010367241588922781
1.79325e-06;0.010436242886340284
1.79350e-06;0.010505244183757726
1.79375e-06;0.010574245481175228
1.79400e-06;0.010643246778592672
1.79425e-06;0.010712248076010114
1.79450e-06;0.010781249373427615
1.79475e-06;0.010850250670845059
1.79500e-06;0.01091925196826256
1.79525e-06;0.010988253265680002
1.79550e-06;0.011053499777909315
1.79575e-06;0.011115887835419367
1.79600e-06;0.01117827589292942
1.79625e-06;0.011240663950439524
1.79650e-06;0.011301999242473756
1.79675e-06;0.011348852425518127
1.79700e-06;0.01139570560856246
1.79725e-06;0.01144255879160679
1.79750e-06;0.011489411974651163
1.79775e-06;0.011521097176185725
1.79800e-06;0.011541235248882342
1.79825e-06;0.011561373321578942
1.79850e-06;0.011581511394275542
1.79875e-06;0.011601649466972157
1.79900e-06;0.011621787539668757
1.79925e-06;0.011641925612365375
1.79950e-06;0.011662063685061974
1.79975e-06;0.01168220175775859
1.80000e-06;0.01170233983045519
1.80025e-06;0.01172247790315179
1.80050e-06;0.011742615975848407
1.80075e-06;0.011762754048545007
1.80100e-06;0.011782892121241622
1.80125e-06;0.011803030193938222
1.80150e-06;0.011823168266634822
1.80175e-06;0.011841705564137628
1.80200e-06;0.011838222191933397
1.80225e-06;0.011834738819729162
1.80250e-06;0.011831255447524931
1.80275e-06;0.0118277720753207
1.80300e-06;0.011824288703116465
1.80325e-06;0.011820805330912234
1.80350e-06;0.011817321958707999
1.80375e-06;0.011813838586503768
1.80400e-06;0.011810355214299536
1.80425e-06;0.011806871842095302
1.80450e-06;0.01180338846989107
1.80475e-06;0.011799905097686835
1.80500e-06;0.011796421725482604
1.80525e-06;0.011792938353278371
1.80550e-06;0.01178945498107414
1.80575e-06;0.011785971608869907
1.80600e-06;0.011780609539000756
1.80625e-06;0.011773817248243657
1.80650e-06;0.011767024957486551
1.80675e-06;0.011760232666729452
1.80700e-06;0.011753440375972351
1.80725e-06;0.011746648085215246
1.80750e-06;0.011739855794458146
1.80775e-06;0.011733063503701041
1.80800e-06;0.01172627121294394
1.80825e-06;0.011719478922186841
1.80850e-06;0.011712686631429735
1.80875e-06;0.011705894340672636
1.80900e-06;0.011696431295308386
1.80925e-06;0.011684935049447332
1.80950e-06;0.011673438803586268
1.80975e-06;0.011661942557725215
1.81000e-06;0.011650446311864161
1.81025e-06;0.0116389500660031
1.81050e-06;0.011627453820142046
1.81075e-06;0.011615957574280982
1.81100e-06;0.011604461328419928
1.81125e-06;0.011592965082558875
1.81150e-06;0.011581468836697811
1.81175e-06;0.011569972590836758
1.81200e-06;0.011555979565369039
1.81225e-06;0.011540085783642028
1.81250e-06;0.011524192001915018
1.81275e-06;0.011508298220187995
1.81300e-06;0.011492404438460984
1.81325e-06;0.01147651065673396
1.81350e-06;0.011460616875006949
1.81375e-06;0.011444723093279926
1.81400e-06;0.011428829311552915
1.81425e-06;0.011412935529825904
1.81450e-06;0.01139704174809888
1.81475e-06;0.011382321750823847
1.81500e-06;0.011368495335881093
1.81525e-06;0.011354668920938352
1.81550e-06;0.01134084250599561
1.81575e-06;0.011327016091052857
1.81600e-06;0.011313189676110115
1.81625e-06;0.011299363261167364
1.81650e-06;0.011285536846224622
1.81675e-06;0.01127171043128188
1.81700e-06;0.011257884016339127
1.81725e-06;0.011244057601396386
1.81750e-06;0.011237787029284945
1.81775e-06;0.011237268593051743
1.81800e-06;0.01123675015681854
1.81825e-06;0.011236231720585337
1.81850e-06;0.011235713284352133
1.81875e-06;0.011235194848118931
1.81900e-06;0.011234676411885728
1.81925e-06;0.011234157975652526
1.81950e-06;0.011233639539419322
1.81975e-06;0.011243318177351509
1.82000e-06;0.011260759676088064
1.82025e-06;0.011278201174824604
1.82050e-06;0.01129564267356116
1.82075e-06;0.0113130841722977
1.82100e-06;0.01133052567103424
1.82125e-06;0.011347967169770795
1.82150e-06;0.011365408668507337
1.82175e-06;0.01138285016724389
1.82200e-06;0.011407987227447881
1.82225e-06;0.01143898278897428
1.82250e-06;0.011469978350500652
1.82275e-06;0.011500973912027024
1.82300e-06;0.011531969473553422
1.82325e-06;0.011562965035079795
1.82350e-06;0.011593960596606192
1.82375e-06;0.011624956158132563
1.82400e-06;0.011655951719658936
1.82425e-06;0.011686947281185333
1.82450e-06;0.011717942842711706
1.82475e-06;0.011748938404238103
1.82500e-06;0.011779933965764476
1.82525e-06;0.011805758595481521
1.82550e-06;0.01182764668191055
1.82575e-06;0.011849534768339557
1.82600e-06;0.011871422854768585
1.82625e-06;0.011893310941197595
1.82650e-06;0.011915199027626623
1.82675e-06;0.01193708711405563
1.82700e-06;0.01195897520048464
1.82725e-06;0.011980863286913668
1.82750e-06;0.012002751373342677
1.82775e-06;0.012024639459771705
1.82800e-06;0.012046527546200714
1.82825e-06;0.012068415632629722
1.82850e-06;0.012074012134329503
1.82875e-06;0.012067206126988167
1.82900e-06;0.012060400119646826
1.82925e-06;0.012053594112305492
1.82950e-06;0.012046788104964156
1.82975e-06;0.012039982097622816
1.83000e-06;0.01203317609028148
1.83025e-06;0.01202637008294014
1.83050e-06;0.012019564075598805
1.83075e-06;0.012011215269136179
1.83100e-06;0.011981643326543258
1.83125e-06;0.011952071383950337
1.83150e-06;0.011922499441357391
1.83175e-06;0.01189292749876447
1.83200e-06;0.011863355556171525
1.83225e-06;0.011833783613578603
1.83250e-06;0.011804211670985684
1.83275e-06;0.011774639728392737
1.83300e-06;0.011745067785799817
1.83325e-06;0.011708545621245521
1.83350e-06;0.011668864513485248
1.83375e-06;0.01165776710462183
1.83400e-06;0.01161406335525964
1.83425e-06;0.0001578503768707995
1.83450e-06;-0.06793678364207412
1.83475e-06;-0.02140722366604627
1.83500e-06;0.014907204936457301
1.83525e-06;0.037357834223634964
1.83550e-06;0.04304880276226299
1.83575e-06;0.030618076727833336
1.83600e-06;0.011445460675045517
1.83625e-06;-0.008517725174129513
1.83650e-06;-0.013858457453560435
1.83675e-06;-0.001917511559964804
1.83700e-06;0.014102101259245239
1.83725e-06;0.02810271460077479
1.83750e-06;0.03162226357274437
1.83775e-06;0.023796977872914748
1.83800e-06;0.011753189511612017
1.83825e-06;-0.0007816770529738958
1.83850e-06;-0.004153590346310296
1.83875e-06;0.0033020916206871805
1.83900e-06;0.013314251093005741
1.83925e-06;0.022063111236950164
1.83950e-06;0.02424826438529745
1.83975e-06;0.019329133074335054
1.84000e-06;0.011769955685426641
1.84025e-06;0.003905592881034075
1.84050e-06;0.0017829459260462874
1.84075e-06;0.006444053093895559
1.84100e-06;0.012707397736124549
1.84125e-06;0.018180128782650733
1.84150e-06;0.019542192599547738
1.84175e-06;0.016455257822166103
1.84200e-06;0.011715892784121898
1.84225e-06;0.00678663624706634
1.84250e-06;0.005455005506340842
1.84275e-06;0.008373277958110454
1.84300e-06;0.012295427035933166
1.84325e-06;0.015722459333467036
1.84350e-06;0.016574750541142377
1.84375e-06;0.0146405282430115
1.84400e-06;0.011671648559363213
1.84425e-06;0.008584214401826124
1.84450e-06;0.0077505425994133965
1.84475e-06;0.009578914648464202
1.84500e-06;0.01203579568521171
1.84525e-06;0.014182126042132962
1.84550e-06;0.014715244308034635
1.84575e-06;0.013502575784367398
1.84600e-06;0.01164151743898956
1.84625e-06;0.009705875377393355
1.84650e-06;0.009181534089995565
1.84675e-06;0.01032403027906363
1.84700e-06;0.01185940719282636
1.84725e-06;0.013199552025260325
1.84750e-06;0.01352895088407336
1.84775e-06;0.012765076512147353
1.84800e-06;0.011595567598806982
1.84825e-06;0.010379878303711102
1.84850e-06;0.010048700440669823
1.84875e-06;0.01076198911137543
1.84900e-06;0.0117216581172245
1.84925e-06;0.012559285902374056
1.84950e-06;0.012764047539757378
1.84975e-06;0.012284286359198914
1.85000e-06;0.01155075932647871
1.85025e-06;0.010788619401498965
1.85050e-06;0.010580806925052864
1.85075e-06;0.011027441942370281
1.85100e-06;0.01162854762448424
1.85125e-06;0.012153322135295037
1.85150e-06;0.01228178724225982
1.85175e-06;0.01198160451300303
1.85200e-06;0.01152260726688407
1.85225e-06;0.011045821125446761
1.85250e-06;0.01091636641481584
1.85275e-06;0.011196904547730663
1.85300e-06;0.011574210607959162
1.85325e-06;0.01190369121008772
1.85350e-06;0.0119849080498913
1.85375e-06;0.011797611222914403
1.85400e-06;0.011510824950235608
1.85425e-06;0.011212874929163877
1.85450e-06;0.011132445707620113
1.85475e-06;0.011308751217319524
1.85500e-06;0.011545557358875719
1.85525e-06;0.011752272409127155
1.85550e-06;0.011803335166621017
1.85575e-06;0.01168606024414432
1.85600e-06;0.011506318396273635
1.85625e-06;0.011319424444169827
1.85650e-06;0.0112686055992067
1.85675e-06;0.011378395962084523
1.85700e-06;0.011525850694048346
1.85725e-06;0.011654225629382571
1.85750e-06;0.011684907679078156
1.85775e-06;0.011609999853237093
1.85800e-06;0.011495847403270969
1.85825e-06;0.011377110504256292
1.85850e-06;0.011343509354389355
1.85875e-06;0.0114104113682205
1.85900e-06;0.011500804912189487
1.85925e-06;0.011579151398909545
1.85950e-06;0.011596218333210546
1.85975e-06;0.01154707229945196
1.86000e-06;0.011473282802910583
1.86025e-06;0.011396570099848147
1.86050e-06;0.011373138579825281
1.86075e-06;0.011412616644063378
1.86100e-06;0.011466767984166975
1.86125e-06;0.011513338732854924
1.86150e-06;0.011521498838524859
1.86175e-06;0.011488168624875245
1.86200e-06;0.011439397763244725
1.86225e-06;0.01138879895679876
1.86250e-06;0.011371586085209459
1.86275e-06;0.011393793825156134
1.86300e-06;0.01142521239525615
1.86325e-06;0.011451908850641264
1.86350e-06;0.011454580757617515
1.86375e-06;0.011431307976640005
1.86400e-06;0.011398417982826575
1.86425e-06;0.01136444628606972
1.86450e-06;0.011351456225677117
1.86475e-06;0.01136323385992589
1.86500e-06;0.011380862490797462
1.86525e-06;0.011395621908440155
1.86550e-06;0.011395429102521074
1.86575e-06;0.011379091055861521
1.86600e-06;0.01135690304221712
1.86625e-06;0.01133407539459072
1.86650e-06;0.011324513281257153
1.86675e-06;0.011330635517055552
1.86700e-06;0.011340179614809317
1.86725e-06;0.011349042546090652
1.86750e-06;0.011350009170166745
1.86775e-06;0.011342860708847295
1.86800e-06;0.011335266242152947
1.86825e-06;0.011328586330986518
1.86850e-06;0.011332364318715074
1.86875e-06;0.011348492845823026
1.86900e-06;0.011369295850928504
1.86925e-06;0.011390683673854566
1.86950e-06;0.011408735179799342
1.86975e-06;0.011423567621305813
1.87000e-06;0.011439912882911624
1.87025e-06;0.01145753909395881
1.87050e-06;0.011482789387310444
1.87075e-06;0.011516978540415087
1.87100e-06;0.011555146425608714
1.87125e-06;0.011594084091130812
1.87150e-06;0.011631467545853029
1.87175e-06;0.011667375189596176
1.87200e-06;0.011704542245439986
1.87225e-06;0.011742611918322574
1.87250e-06;0.011786845476992396
1.87275e-06;0.011834562720425436
1.87300e-06;0.011884162629620663
1.87325e-06;0.011934826577679745
1.87350e-06;0.011983551927428709
1.87375e-06;0.012031181626539694
1.87400e-06;0.012078488225932358
1.87425e-06;0.012125612216885327
1.87450e-06;0.012175103523178113
1.87475e-06;0.01222593278099419
1.87500e-06;0.012276089658180896
1.87525e-06;0.012325866521487698
1.87550e-06;0.01237221870628796
1.87575e-06;0.012416635342516557
1.87600e-06;0.012458282722595476
1.87625e-06;0.012498364983561777
1.87650e-06;0.0125370057913647
1.87675e-06;0.012574831923393995
1.87700e-06;0.012608861484975782
1.87725e-06;0.012640745313317743
1.87750e-06;0.012666087711173845
1.87775e-06;0.01268773304479179
1.87800e-06;0.012703030926760285
1.87825e-06;0.01271474137681351
1.87850e-06;0.012721435748366164
1.87875e-06;0.01272529514911537
1.87900e-06;0.012723189105616957
1.87925e-06;0.012717711531894356
1.87950e-06;0.0127050748895502
1.87975e-06;0.012688392108271112
1.88000e-06;0.012665197350347837
1.88025e-06;0.012638322174812158
1.88050e-06;0.012606294659568704
1.88075e-06;0.0125713551618594
1.88100e-06;0.01253119430129809
1.88125e-06;0.012488082447996528
1.88150e-06;0.012439526989219
1.88175e-06;0.012387894931343605
1.88200e-06;0.012331750485412494
1.88225e-06;0.012273055742792503
1.88250e-06;0.012211225207325697
1.88275e-06;0.012147622394737483
1.88300e-06;0.012081366356285185
1.88325e-06;0.012013610776336702
1.88350e-06;0.011943588143115757
1.88375e-06;0.011872284224157986
1.88400e-06;0.011799820894884919
1.88425e-06;0.011726702293890508
1.88450e-06;0.011653812778331836
1.88475e-06;0.011581052736528714
1.88500e-06;0.011509348272810955
1.88525e-06;0.011438240397255202
1.88550e-06;0.011368954494696892
1.88575e-06;0.01130069832886461
1.88600e-06;0.011235483644082868
1.88625e-06;0.01117198793359068
1.88650e-06;0.011112926960116972
1.88675e-06;0.0110563723967734
1.88700e-06;0.011004947859621264
1.88725e-06;0.010956422693854787
1.88750e-06;0.010910847969991653
1.88775e-06;0.010866940767211406
1.88800e-06;0.010824829058722434
1.88825e-06;0.01078373212181109
1.88850e-06;0.010745249734001962
1.88875e-06;0.010708245028483478
1.88900e-06;0.010674310960343728
1.88925e-06;0.01064211234497152
1.88950e-06;0.010611640498259954
1.88975e-06;0.010582144580999282
1.89000e-06;0.01055367270538747
1.89025e-06;0.010525779594277737
1.89050e-06;0.01049992147586933
1.89075e-06;0.010475213487964782
1.89100e-06;0.010450505500060213
1.89125e-06;0.010428027475405303
1.89150e-06;0.010406809774069554
1.89175e-06;0.010385592072733789
1.89200e-06;0.010365435304727432
1.89225e-06;0.010345878151542207
1.89250e-06;0.010326320998356998
1.89275e-06;0.010308406318325766
1.89300e-06;0.010291419925887354
1.89325e-06;0.010274433533448942
1.89350e-06;0.010258559246670998
1.89375e-06;0.010243313496124543
1.89400e-06;0.010228067745578075
1.89425e-06;0.010213694899795626
1.89450e-06;0.010199815399466131
1.89475e-06;0.010185935899136626
1.89500e-06;0.010173264502173996
1.89525e-06;0.01016127589711182
1.89550e-06;0.010149287292049652
1.89575e-06;0.010138041677500091
1.89600e-06;0.010127215983892752
1.89625e-06;0.010116390290285422
1.89650e-06;0.010106495417413713
1.89675e-06;0.010097126622753938
1.89700e-06;0.010087757828094157
1.89725e-06;0.010085613013410598
1.89750e-06;0.010087551024048173
1.89775e-06;0.010089489034685751
1.89800e-06;0.010091427045323328
1.89825e-06;0.010093365055960906
1.89850e-06;0.010095303066598484
1.89875e-06;0.010100544105017728
1.89900e-06;0.0101262610734716
1.89925e-06;0.010151978041925448
1.89950e-06;0.01017769501037932
1.89975e-06;0.010203411978833168
1.90000e-06;0.010229128947287017
1.90025e-06;0.010254845915740888
1.90050e-06;0.010298693788909474
1.90075e-06;0.010352788827367437
1.90100e-06;0.010406883865825356
1.90125e-06;0.01046097890428332
1.90150e-06;0.010515073942741237
1.90175e-06;0.010569168981199157
