Time(s);Current(A)
6.50000e-06;0.0011715379417091593
6.50025e-06;0.0011871312628225813
6.50050e-06;0.0012012690581156493
6.50075e-06;0.001215406853408669
6.50100e-06;0.001229544648701689
6.50125e-06;0.001243682443994757
6.50150e-06;0.0012578202392877769
6.50175e-06;0.001271958034580797
6.50200e-06;0.0012860958298738648
6.50225e-06;0.0013002336251668847
6.50250e-06;0.001312019746599029
6.50275e-06;0.0013182755138582075
6.50300e-06;0.001324531281117365
6.50325e-06;0.0013307870483765436
6.50350e-06;0.001337042815635701
6.50375e-06;0.0013432985828948586
6.50400e-06;0.0013495543501540373
6.50425e-06;0.0013558101174131947
6.50450e-06;0.0013620658846723523
6.50475e-06;0.001368321651931531
6.50500e-06;0.001370977594044642
6.50525e-06;0.0013727243306210944
6.50550e-06;0.0013744710671975526
6.50575e-06;0.001376217803774005
6.50600e-06;0.0013779645403504573
6.50625e-06;0.0013797112769269155
6.50650e-06;0.0013814580135033678
6.50675e-06;0.0013832047500798202
6.50700e-06;0.001384338913387516
6.50725e-06;0.0013840325082604675
6.50750e-06;0.0013837261031334179
6.50775e-06;0.0013834196980063696
6.50800e-06;0.001383113292879321
6.50825e-06;0.0013828068877522715
6.50850e-06;0.0013825004826252233
6.50875e-06;0.0013821940774981748
6.50900e-06;0.0013818876723711252
6.50925e-06;0.0013813815365669483
6.50950e-06;0.0013808386172723156
6.50975e-06;0.0013803148557367819
6.51000e-06;0.0013795509976867876
6.51025e-06;0.0013773207830733408
6.51050e-06;0.001371808225431539
6.51075e-06;0.0013620698460246696
6.51100e-06;0.0013481256551371565
6.51125e-06;0.0013302107898929695
6.51150e-06;0.0013071978617117844
6.51175e-06;0.0012830970379181423
6.51200e-06;0.001253290970997043
6.51225e-06;0.0012220439344654754
6.51250e-06;0.0011830868197962659
6.51275e-06;0.0011421823756195622
6.51300e-06;0.0010935513097685475
6.51325e-06;0.001042968736019251
6.51350e-06;0.0009859093211520482
6.51375e-06;0.0009272140546631088
6.51400e-06;0.0008629199627407833
6.51425e-06;0.0007972117790573283
6.51450e-06;0.0007269420404023704
6.51475e-06;0.0006524798066642509
6.51500e-06;0.0005745869916127452
6.51525e-06;0.0004937494865329688
6.51550e-06;0.00041045657304642505
6.51575e-06;0.0003251973879727086
6.51600e-06;0.0002383967058593293
6.51625e-06;0.00015024167119410134
6.51650e-06;6.077448707922602e-05
6.51675e-06;-2.974817283474062e-05
6.51700e-06;-0.00012079488357384064
6.51725e-06;-0.00021192345144780658
6.51750e-06;-0.00030202505735588196
6.51775e-06;-0.00039186727957940597
6.51800e-06;-0.0004790819083539331
6.51825e-06;-0.0005656328875307626
6.51850e-06;-0.0006484897785923954
6.51875e-06;-0.0007304136561799374
6.51900e-06;-0.0008070884926077483
6.51925e-06;-0.0008824375820644704
6.51950e-06;-0.0009526839430733702
6.51975e-06;-0.001017617156487358
6.52000e-06;-0.0010753621796277795
6.52025e-06;-0.0011315484048932344
6.52050e-06;-0.001181750331024099
6.52075e-06;-0.0012304408065475709
6.52100e-06;-0.0012736720078763732
6.52125e-06;-0.0013155243638110527
6.52150e-06;-0.0013510101533823217
6.52175e-06;-0.0013848879433566493
6.52200e-06;-0.0014119800485455631
6.52225e-06;-0.0014373582976655304
6.52250e-06;-0.001457579145666257
6.52275e-06;-0.0014764973921627257
6.52300e-06;-0.001489626934317669
6.52325e-06;-0.0015012944271171693
6.52350e-06;-0.0015129619199166302
6.52375e-06;-0.0015172496941368888
6.52400e-06;-0.0015196735775526557
6.52425e-06;-0.0015220974609684143
6.52450e-06;-0.0015189098324744018
6.52475e-06;-0.0015143049080042156
6.52500e-06;-0.0015096999835340294
6.52525e-06;-0.001498417861702248
6.52550e-06;-0.0014854492844009783
6.52575e-06;-0.0014724807070997086
6.52600e-06;-0.0014595121297983952
6.52625e-06;-0.0014465435524971255
6.52650e-06;-0.0014335749751958559
6.52675e-06;-0.0014188778904492693
6.52700e-06;-0.0014001159315223481
6.52725e-06;-0.0013813539725954273
6.52750e-06;-0.0013625920136684426
6.52775e-06;-0.0013438300547415215
6.52800e-06;-0.0013250680958146006
6.52825e-06;-0.001306306136887616
6.52850e-06;-0.001287805218861223
6.52875e-06;-0.0012693702317681489
6.52900e-06;-0.0012509352446751372
6.52925e-06;-0.0012354853492497191
6.52950e-06;-0.0012207893965185648
6.52975e-06;-0.0012060934437874604
6.53000e-06;-0.0011913974910563558
6.53025e-06;-0.0011767015383252015
6.53050e-06;-0.001162608332795557
6.53075e-06;-0.001149932588060179
6.53100e-06;-0.0011372568433247582
6.53125e-06;-0.0011245810985893803
6.53150e-06;-0.0011119053538540024
6.53175e-06;-0.0010992296091185817
6.53200e-06;-0.0010864303677394233
6.53225e-06;-0.0010735999348918913
6.53250e-06;-0.0010607695020443157
6.53275e-06;-0.0010479390691967836
6.53300e-06;-0.0010351086363492082
6.53325e-06;-0.001022278203501676
6.53350e-06;-0.001009447770654144
6.53375e-06;-0.0009966173378065685
6.53400e-06;-0.0009837869049590365
6.53425e-06;-0.0009705959524151663
6.53450e-06;-0.0009565571775439959
6.53475e-06;-0.0009425184026728731
6.53500e-06;-0.0009284796278017502
6.53525e-06;-0.0009144408529305798
6.53550e-06;-0.000900402078059457
6.53575e-06;-0.0008863633031883342
6.53600e-06;-0.0008723245283171637
6.53625e-06;-0.0008582857534460409
6.53650e-06;-0.0008442469785749181
6.53675e-06;-0.0008307343295688022
6.53700e-06;-0.0008173545638361227
6.53725e-06;-0.0008039747981033979
6.53750e-06;-0.0007905950323707184
6.53775e-06;-0.0007772152666380388
6.53800e-06;-0.000763835500905314
6.53825e-06;-0.0007504557351726345
6.53850e-06;-0.000737075969439955
6.53875e-06;-0.0007266079765477965
6.53900e-06;-0.0007168754082605059
6.53925e-06;-0.0007071428399732152
6.53950e-06;-0.0006974102716858916
6.53975e-06;-0.000687677703398601
6.54000e-06;-0.0006779451351113104
6.54025e-06;-0.0006682125668239867
6.54050e-06;-0.000658479998536696
6.54075e-06;-0.0006520556933680761
6.54100e-06;-0.0006464669541002859
6.54125e-06;-0.0006408782148325146
6.54150e-06;-0.0006352894755647245
6.54175e-06;-0.0006297007362969533
6.54200e-06;-0.000624111997029182
6.54225e-06;-0.0006185232577613918
6.54250e-06;-0.0006129345184936205
6.54275e-06;-0.0006073457792258492
6.54300e-06;-0.0006017570399580591
6.54325e-06;-0.0005970340345970366
6.54350e-06;-0.0005943469472258003
6.54375e-06;-0.0005916598598545551
6.54400e-06;-0.0005889727724833188
6.54425e-06;-0.0005862856851120826
6.54450e-06;-0.0005835985977408372
6.54475e-06;-0.000580911510369601
6.54500e-06;-0.0005782244229983648
6.54525e-06;-0.0005755373356271194
6.54550e-06;-0.0005728502482558832
6.54575e-06;-0.0005701631608846378
6.54600e-06;-0.0005685968552001459
6.54625e-06;-0.0005673136246296908
6.54650e-06;-0.0005660303940592313
6.54675e-06;-0.0005647471634887762
6.54700e-06;-0.0005634639329183211
6.54725e-06;-0.0005621807023478617
6.54750e-06;-0.0005608974717774066
6.54775e-06;-0.000559778933840553
6.54800e-06;-0.0005590476981600696
6.54825e-06;-0.0005583164624795886
6.54850e-06;-0.0005575852267991077
6.54875e-06;-0.0005568539911186242
6.54900e-06;-0.0005561227554381433
6.54925e-06;-0.0005553915197576623
6.54950e-06;-0.0005546602840771789
6.54975e-06;-0.0005538203784267379
6.55000e-06;-0.0005529530260714634
6.55025e-06;-0.0005520856737161918
6.55050e-06;-0.0005489711421249308
6.55075e-06;-0.0005452890419108543
6.55100e-06;-0.0005389640419904531
6.55125e-06;-0.0005319715265810878
6.55150e-06;-0.0005226478363100502
6.55175e-06;-0.0005127353626947912
6.55200e-06;-0.0005005614085136259
6.55225e-06;-0.00048781627363188513
6.55250e-06;-0.0004719923912026755
6.55275e-06;-0.00045539091147396934
6.55300e-06;-0.00043570075110502303
6.55325e-06;-0.000415230484641788
6.55350e-06;-0.00039217705643996176
6.55375e-06;-0.0003684712007294495
6.55400e-06;-0.00034253605696741874
6.55425e-06;-0.0003160378633475562
6.55450e-06;-0.0002877171389161427
6.55475e-06;-0.0002577191732069447
6.55500e-06;-0.00022634903340197992
6.55525e-06;-0.0001938025569946142
6.55550e-06;-0.00016027682949487136
6.55575e-06;-0.00012596895360044
6.55600e-06;-9.104976895875339e-05
6.55625e-06;-5.559322474535145e-05
6.55650e-06;-1.9613998056520818e-05
6.55675e-06;1.6786076619067453e-05
6.55700e-06;5.339217623433705e-05
6.55725e-06;9.003017348919047e-05
6.55750e-06;0.0001262496989206578
6.55775e-06;0.0001623635289129037
6.55800e-06;0.00019741590630019222
6.55825e-06;0.00023220019328164075
6.55850e-06;0.0002654981759247922
6.55875e-06;0.0002984207636314996
6.55900e-06;0.00032923377157514965
6.55925e-06;0.00035951396430713187
6.55950e-06;0.0003870847114205496
6.55975e-06;0.0004139711355867
6.56000e-06;0.0004302379069260539
6.56025e-06;0.00045171304731089307
6.56050e-06;-0.028460318862942202
6.56075e-06;-0.023794450173700864
6.56100e-06;-0.017518677774002237
6.56125e-06;-0.012846976223456272
6.56150e-06;0.009477993332437488
6.56175e-06;0.00874045511610988
6.56200e-06;0.007841378627810645
6.56225e-06;0.00504655942873891
6.56250e-06;-0.0021142892304362084
6.56275e-06;-0.008139872852453696
6.56300e-06;-0.008483614112426256
6.56325e-06;-0.005048461084298572
6.56350e-06;0.0006560484240317197
6.56375e-06;0.00539724697801808
6.56400e-06;0.006381886742302837
6.56425e-06;0.004305222346414775
6.56450e-06;-0.00032896096619163375
6.56475e-06;-0.004220214856450565
6.56500e-06;-0.00452878785118621
6.56525e-06;-0.0024528890212251425
6.56550e-06;0.0010573518775501673
6.56575e-06;0.003973726185085753
6.56600e-06;0.00454430413604141
6.56625e-06;0.003203043787046996
6.56650e-06;0.0002644039684526298
6.56675e-06;-0.002205089580638906
6.56700e-06;-0.0024274072044949482
6.56725e-06;-0.0011537462870893848
6.56750e-06;0.0010202972571239052
6.56775e-06;0.0028240110966626687
6.56800e-06;0.0031599313763289484
6.56825e-06;0.0022999276691097826
6.56850e-06;0.00044103743334282823
6.56875e-06;-0.0011222454133375242
6.56900e-06;-0.0012762262809131442
6.56925e-06;-0.0004915269267619499
6.56950e-06;0.0008587514363213047
6.56975e-06;0.001978678042188085
6.57000e-06;0.0021808284208359742
6.57025e-06;0.0016352793578683425
6.57050e-06;0.00046502628381273287
6.57075e-06;-0.0005193817357810632
6.57100e-06;-0.0006204801928095017
6.57125e-06;-0.00013315997291576785
6.57150e-06;0.0007088001771411339
6.57175e-06;0.001406795974341771
6.57200e-06;0.0015302346533907231
6.57225e-06;0.0011856763568053638
6.57250e-06;0.00045018146216200443
6.57275e-06;-0.00016853332509937397
6.57300e-06;-0.00023363029273305
6.57325e-06;7.010691089803068e-05
6.57350e-06;0.0005961904175082227
6.57375e-06;0.0010322671282275557
6.57400e-06;0.0011086128408161241
6.57425e-06;0.0008919846983609571
6.57450e-06;0.0004306559315279505
6.57475e-06;4.264567263235801e-05
6.57500e-06;1.5475734800822873e-06
6.57525e-06;0.00019156529809027912
6.57550e-06;0.0005209004368596229
6.57575e-06;0.0007938700273024406
6.57600e-06;0.0008415105045395685
6.57625e-06;0.0007056354870834219
6.57650e-06;0.0004164771167557602
6.57675e-06;0.00017322555036196948
6.57700e-06;0.0001472259376370279
6.57725e-06;0.00026590559601585715
6.57750e-06;0.0004717300810710537
6.57775e-06;0.0006421000352937771
6.57800e-06;0.000671163519793436
6.57825e-06;0.00058510285196566
6.57850e-06;0.00040284371353744067
6.57875e-06;0.0002491402305771167
6.57900e-06;0.00023129391582829144
6.57925e-06;0.00030381366835929423
6.57950e-06;0.0004306320546759087
6.57975e-06;0.0005349316377384851
6.58000e-06;0.0005505355807451225
6.58025e-06;0.0004943903073330732
6.58050e-06;0.0003791355781929258
6.58075e-06;0.00028337327275293825
6.58100e-06;0.00027434756948790056
6.58125e-06;0.00032346498231933675
6.58150e-06;0.0004080373633497287
6.58175e-06;0.00047985404208180217
6.58200e-06;0.0004973737073080938
6.58225e-06;0.0004711248026697261
6.58250e-06;0.0004089372552887506
6.58275e-06;0.00035995698201998853
6.58300e-06;0.00036621129785855566
6.58325e-06;0.0004096938218553086
6.58350e-06;0.00047609874885291576
6.58375e-06;0.0005351350866926313
6.58400e-06;0.0005606920484384492
6.58425e-06;0.0005592762518985134
6.58450e-06;0.0005357034360143737
6.58475e-06;0.0005206679350176774
6.58500e-06;0.0005404024564827283
6.58525e-06;0.0005835340193151973
6.58550e-06;0.000641008672707282
6.58575e-06;0.000693760540424751
6.58600e-06;0.0007253438912227204
6.58625e-06;0.0007397451368482194
6.58650e-06;0.0007398911563001969
6.58675e-06;0.0007449181350940095
6.58700e-06;0.000771165904018215
6.58725e-06;0.0008114177663981832
6.58750e-06;0.0008599101670530461
6.58775e-06;0.0009046089723161709
6.58800e-06;0.0009351223937588147
6.58825e-06;0.0009538575822126303
6.58850e-06;0.0009625578384444681
6.58875e-06;0.0009731193622538524
6.58900e-06;0.0009956857096848396
6.58925e-06;0.0010256444530057445
6.58950e-06;0.0010592936381213522
6.58975e-06;0.0010890060522755834
6.59000e-06;0.0011083865354948592
6.59025e-06;0.0011196536245567474
6.59050e-06;0.0011249859030205524
6.59075e-06;0.0011325108564875432
6.59100e-06;0.0011486922782291105
6.59125e-06;0.001170576143084236
6.59150e-06;0.0011957790207176343
6.59175e-06;0.0012194591277710925
6.59200e-06;0.0012375467882388648
6.59225e-06;0.0012513680209730307
6.59250e-06;0.0012622238568954218
6.59275e-06;0.0012751412539838095
6.59300e-06;0.0012941046374362333
6.59325e-06;0.0013171990841977948
6.59350e-06;0.0013428673633535848
6.59375e-06;0.0013680123440547246
6.59400e-06;0.0013900209208177622
6.59425e-06;0.0014100724621930395
6.59450e-06;0.0014293961638528778
6.59475e-06;0.0014487198655127817
6.59500e-06;0.0014705524436146207
6.59525e-06;0.001496538782257071
6.59550e-06;0.0015236107772969435
6.59575e-06;0.0015506827723367244
6.59600e-06;0.001576482053564647
6.59625e-06;0.0015997078985752439
6.59650e-06;0.0016217626648800348
6.59675e-06;0.0016446867165325584
6.59700e-06;0.0016694198018249013
6.59725e-06;0.0016953371164663946
6.59750e-06;0.0017217232263837179
6.59775e-06;0.0017472588570505256
6.59800e-06;0.0017708147231286636
6.59825e-06;0.0017925878816808188
6.59850e-06;0.0018127692464825458
6.59875e-06;0.0018324651384957695
6.59900e-06;0.0018525255288024465
6.59925e-06;0.001872350339722466
6.59950e-06;0.0018914275316697007
6.59975e-06;0.0019088647882875601
6.60000e-06;0.0019236969446203003
6.60025e-06;0.0019352487298079967
6.60050e-06;0.0019425732665035468
6.60075e-06;0.0019458028684925957
6.60100e-06;0.0019455085455945484
6.60125e-06;0.001941529738356968
6.60150e-06;0.0019337613251132336
6.60175e-06;0.0019218600627806217
6.60200e-06;0.0019054368328396936
6.60225e-06;0.0018831672885826459
6.60250e-06;0.0018565391463597936
6.60275e-06;0.0018260617900337063
6.60300e-06;0.0017904636144335353
6.60325e-06;0.001751403434127634
6.60350e-06;0.0017077375603095344
6.60375e-06;0.0016606534183137216
6.60400e-06;0.0016090217678917784
6.60425e-06;0.0015533073671261935
6.60450e-06;0.0014921614611000287
6.60475e-06;0.0014310155550736569
6.60500e-06;0.0013662120830307196
6.60525e-06;0.0012965427516067813
6.60550e-06;0.001226873420182607
6.60575e-06;0.0011546002874820742
6.60600e-06;0.0010788631760561694
6.60625e-06;0.0010031260646305212
6.60650e-06;0.000925923350730802
6.60675e-06;0.0008467708659956807
6.60700e-06;0.0007676183812608277
6.60725e-06;0.0006885391654095659
6.60750e-06;0.0006095574231464579
6.60775e-06;0.0005313676280106439
6.60800e-06;0.0004542314032928108
6.60825e-06;0.0003780762093774744
6.60850e-06;0.0003040920475116839
6.60875e-06;0.00023241030783840904
6.60900e-06;0.0001636068958517697
6.60925e-06;9.814502293633475e-05
6.60950e-06;3.649635828979939e-05
6.60975e-06;-2.090664785379183e-05
6.61000e-06;-7.390265558243877e-05
6.61025e-06;-0.00012309523398147955
6.61050e-06;-0.00016966206209290157
6.61075e-06;-0.0002142180668272477
6.61100e-06;-0.000256640852206528
6.61125e-06;-0.00029665887898820226
6.61150e-06;-0.00033399533734849654
6.61175e-06;-0.0003683980243410429
6.61200e-06;-0.00039978458318974317
6.61225e-06;-0.00042855174884669255
6.61250e-06;-0.00045514409485349126
6.61275e-06;-0.0004804858768738962
6.61300e-06;-0.000504451094765714
6.61325e-06;-0.0005265849943855917
6.61350e-06;-0.0005470855307658002
6.61375e-06;-0.0005654131150231496
6.61400e-06;-0.0005821602644833432
6.61425e-06;-0.0005968048754117147
6.61450e-06;-0.0006103043394825565
6.61475e-06;-0.0006222803522874125
6.61500e-06;-0.0006342563650922683
6.61525e-06;-0.0006448133344680661
6.61550e-06;-0.0006534824730436597
6.61575e-06;-0.0006621516116192534
6.61600e-06;-0.0006689899903537178
6.61625e-06;-0.0006733928095098324
6.61650e-06;-0.0006777956286659469
6.61675e-06;-0.0006821984478220764
6.61700e-06;-0.0006866012669781909
6.61725e-06;-0.0006910040861343055
6.61750e-06;-0.0006954069052904349
6.61775e-06;-0.0006985593136349703
6.61800e-06;-0.0007000482323396163
6.61825e-06;-0.0007015371510442673
6.61850e-06;-0.0007030260697489133
6.61875e-06;-0.0007045149884535643
6.61900e-06;-0.0007060039071582103
6.61925e-06;-0.0007074928258628563
6.61950e-06;-0.000708135926196349
6.61975e-06;-0.000707653788260492
6.62000e-06;-0.0007071716503246349
6.62025e-06;-0.0007066895123887762
6.62050e-06;-0.0007062073744529191
6.62075e-06;-0.0007057252365170619
6.62100e-06;-0.0007052430985812032
6.62125e-06;-0.0007047609606453462
6.62150e-06;-0.0006983150430602638
6.62175e-06;-0.000691414160090942
6.62200e-06;-0.0006845132771216436
6.62225e-06;-0.0006776123941523452
6.62250e-06;-0.0006707115111830235
6.62275e-06;-0.0006638106282137251
6.62300e-06;-0.0006569097452444033
6.62325e-06;-0.000647758132091673
6.62350e-06;-0.000635612249929718
6.62375e-06;-0.0006234663677677218
6.62400e-06;-0.0006102646310369589
6.62425e-06;-0.0005956582334379771
6.62450e-06;-0.0005810518358389457
6.62475e-06;-0.0005651527843918517
6.62500e-06;-0.0005475340450917037
6.62525e-06;-0.0005299153057914959
6.62550e-06;-0.000512296566491348
6.62575e-06;-0.0004946778271911999
6.62600e-06;-0.0004770590878909921
6.62625e-06;-0.0004577456689576901
6.62650e-06;-0.0004383029661447795
6.62675e-06;-0.00041886026333180293
6.62700e-06;-0.00039941756051889226
6.62725e-06;-0.0003799748577059158
6.62750e-06;-0.0003607518576579407
6.62775e-06;-0.0003418211401701212
6.62800e-06;-0.0003228904226822375
6.62825e-06;-0.0003039597051944181
6.62850e-06;-0.00028598196662243784
6.62875e-06;-0.00026927202783149924
6.62900e-06;-0.00025256208904061723
6.62925e-06;-0.00023585215024973522
6.62950e-06;-0.00022009439419999242
6.62975e-06;-0.00020609561450006465
6.63000e-06;-0.00019334838610380505
6.63025e-06;-0.00018139498454985433
6.63050e-06;-0.00016974764814595874
6.63075e-06;-0.00015850748688909407
6.63100e-06;-0.00014754281143081267
6.63125e-06;-0.00013694462974212025
6.63150e-06;-0.000126776160689013
6.63175e-06;-0.00011717936177080305
6.63200e-06;-0.00010800811040196115
6.63225e-06;-9.940298812674715e-05
6.63250e-06;-9.090297807888807e-05
6.63275e-06;-8.254280455476352e-05
6.63300e-06;-7.428441181338546e-05
6.63325e-06;-6.616142359354687e-05
6.63350e-06;-5.818509074581792e-05
6.63375e-06;-5.053892865906026e-05
6.63400e-06;-4.323229438163587e-05
6.63425e-06;-3.6138304829404366e-05
6.63450e-06;-2.9083525317957512e-05
6.63475e-06;-2.2087421300803543e-05
6.63500e-06;-1.5128087398449087e-05
6.63525e-06;-8.255831122015755e-06
6.63550e-06;-1.5209234704877541e-06
6.63575e-06;5.026506472508686e-06
6.63600e-06;1.1358311751579838e-05
6.63625e-06;1.7511621045597092e-05
6.63650e-06;2.3566188824586156e-05
6.63675e-06;2.955997316971841e-05
6.63700e-06;3.5471069400737435e-05
6.63725e-06;4.125874776629094e-05
6.63750e-06;4.683341806226639e-05
6.63775e-06;5.2236094896176325e-05
6.63800e-06;5.7447141075972106e-05
6.63825e-06;6.240325055434332e-05
6.63850e-06;6.721457020710083e-05
6.63875e-06;7.183326806506635e-05
6.63900e-06;7.632748791795702e-05
6.63925e-06;8.055325774311799e-05
6.63950e-06;8.452446646578709e-05
6.63975e-06;8.820485598019475e-05
6.64000e-06;9.140252540579217e-05
6.64025e-06;9.348130058581512e-05
6.64050e-06;9.356601334463368e-05
6.64075e-06;9.116214525502997e-05
6.64100e-06;8.624500130727932e-05
6.64125e-06;7.893026298293569e-05
6.64150e-06;6.933361906738039e-05
6.64175e-06;5.7569787799111906e-05
6.64200e-06;4.365599071673175e-05
6.64225e-06;2.733116995578718e-05
6.64250e-06;8.184600108015686e-06
6.64275e-06;-1.3955962739329304e-05
6.64300e-06;-3.896846989498625e-05
6.64325e-06;-6.66429403747808e-05
6.64350e-06;-9.676940580576091e-05
6.64375e-06;-0.0001291385179177183
6.64400e-06;-0.0001636020093497864
6.64425e-06;-0.00020018593075803683
6.64450e-06;-0.0002390100582236771
