Time(s);Current(A)
4.30000e-06;-0.0009924254662527334
4.30025e-06;-0.0009898405253027888
4.30050e-06;-0.0009872555843528353
4.30075e-06;-0.0009846706434028906
4.30100e-06;-0.0009820857024529462
4.30125e-06;-0.0009795007615029927
4.30150e-06;-0.0009769158205530481
4.30175e-06;-0.0009743308796031035
4.30200e-06;-0.0009717459386531502
4.30225e-06;-0.0009653697960552476
4.30250e-06;-0.0009583628354447005
4.30275e-06;-0.0009513558748341298
4.30300e-06;-0.0009443489142235827
4.30325e-06;-0.0009373419536130119
4.30350e-06;-0.0009303349930024648
4.30375e-06;-0.0009233280323919178
4.30400e-06;-0.0009161771449021829
4.30425e-06;-0.0009087674183221972
4.30450e-06;-0.0009013576917422115
4.30475e-06;-0.0008939479651622007
4.30500e-06;-0.0008865382385822149
4.30525e-06;-0.0008791285120022293
4.30550e-06;-0.0008717187854222184
4.30575e-06;-0.0008643090588422327
4.30600e-06;-0.0008583446286404685
4.30625e-06;-0.000852620681291755
4.30650e-06;-0.000846896733943061
4.30675e-06;-0.0008434698730318539
4.30700e-06;-0.0008404252243149965
4.30725e-06;-0.0008373805755981494
4.30750e-06;-0.0008375261140048945
4.30775e-06;-0.0008382024676221553
4.30800e-06;-0.0008388788212394162
4.30825e-06;-0.0008426386669813068
4.30850e-06;-0.0008469115749536426
4.30875e-06;-0.0008511844829259785
4.30900e-06;-0.000858987225432206
4.30925e-06;-0.0008673772970788267
4.30950e-06;-0.0008757673687254476
4.30975e-06;-0.0008874186410521267
4.31000e-06;-0.0008996125445343353
4.31025e-06;-0.000911806448016544
4.31050e-06;-0.0009284455700945851
4.31075e-06;-0.0009458243320598343
4.31100e-06;-0.0009632030940250837
4.31125e-06;-0.0009805818559903918
4.31150e-06;-0.000997960617955641
4.31175e-06;-0.0010153393799209492
4.31200e-06;-0.0010327181418861985
4.31225e-06;-0.0010537406029423007
4.31250e-06;-0.0010753693390615593
4.31275e-06;-0.0010969980751807445
4.31300e-06;-0.0011186268112999297
4.31325e-06;-0.001140255547419188
4.31350e-06;-0.0011618842835383733
4.31375e-06;-0.0011835130196575585
4.31400e-06;-0.001205278982588963
4.31425e-06;-0.0012270677786884868
4.31450e-06;-0.0012488565747880106
4.31475e-06;-0.0012694117411518407
4.31500e-06;-0.0012897616438735835
4.31525e-06;-0.0013101115465953264
4.31550e-06;-0.0013282756157877431
4.31575e-06;-0.0013460759841563688
4.31600e-06;-0.0013638763525250547
4.31625e-06;-0.001378325726075
4.31650e-06;-0.0013922175276235007
4.31675e-06;-0.0014061093291720486
4.31700e-06;-0.0014154017345478784
4.31725e-06;-0.0014239288464308433
4.31750e-06;-0.001432455958313837
4.31775e-06;-0.0014360253624746404
4.31800e-06;-0.0014387698536867104
4.31825e-06;-0.0014415143448987897
4.31850e-06;-0.0014391499521880468
4.31875e-06;-0.0014359354923217614
4.31900e-06;-0.0014327210324554653
4.31925e-06;-0.0014243871089938554
4.31950e-06;-0.0014152013580251011
4.31975e-06;-0.0014060156070563156
4.32000e-06;-0.0013898592415533446
4.32025e-06;-0.0013725430355531183
4.32050e-06;-0.0013552268295529508
4.32075e-06;-0.001337910623552783
4.32100e-06;-0.0013205944175525568
4.32125e-06;-0.001303278211552389
4.32150e-06;-0.0012831468437702084
4.32175e-06;-0.0012579526696615195
4.32200e-06;-0.001232758495552916
4.32225e-06;-0.0012075643214443125
4.32250e-06;-0.0011823701473356236
4.32275e-06;-0.0011571759732270201
4.32300e-06;-0.0011319817991184166
4.32325e-06;-0.001104583440841249
4.32350e-06;-0.0010768183283778642
4.32375e-06;-0.0010489065477189458
4.32400e-06;-0.0010209703629400415
4.32425e-06;-0.0009934400483328143
4.32450e-06;-0.0009659772664602138
4.32475e-06;-0.000939453031288243
4.32500e-06;-0.0009130849608944422
4.32525e-06;-0.0008882261905705666
4.32550e-06;-0.0008636185526734328
4.32575e-06;-0.0008411426688792882
4.32600e-06;-0.00081902148763332
4.32625e-06;-0.0007996676143537277
4.32650e-06;-0.0007807741934246385
4.32675e-06;-0.0007653609358000559
4.32700e-06;-0.0007505267425200892
4.32725e-06;-0.0007395797305109386
4.32750e-06;-0.0007292795065624698
4.32775e-06;-0.0007229491550042974
4.32800e-06;-0.0007172793504815298
4.32825e-06;-0.0007156490345901822
4.32850e-06;-0.0007146908491800552
4.32875e-06;-0.0007178903003948807
4.32900e-06;-0.0007217815407346202
4.32925e-06;-0.0007297568091289109
4.32950e-06;-0.0007384116189186723
4.32975e-06;-0.0007508738132985517
4.33000e-06;-0.0007639695183700158
4.33025e-06;-0.0007814166211124199
4.33050e-06;-0.0007995877528785107
4.33075e-06;-0.0008177588846446014
4.33100e-06;-0.0008405587062996039
4.33125e-06;-0.000864128695628187
4.33150e-06;-0.00088769868495677
4.33175e-06;-0.0009148564474978861
4.33200e-06;-0.0009426111795950748
4.33225e-06;-0.0009703659116922634
4.33250e-06;-0.0010005819813062816
4.33275e-06;-0.001031207592849937
4.33300e-06;-0.0010618332043935924
4.33325e-06;-0.0010936979018565435
4.33350e-06;-0.001125768770815573
4.33375e-06;-0.0011578396397747112
4.33400e-06;-0.001189714751523222
4.33425e-06;-0.0012215572912310417
4.33450e-06;-0.0012533998309389692
4.33475e-06;-0.0012836043179586293
4.33500e-06;-0.0013135362494046251
4.33525e-06;-0.0013434681808507226
4.33550e-06;-0.0013701621336646515
4.33575e-06;-0.001396317319239938
4.33600e-06;-0.0014224725048153132
4.33625e-06;-0.001444364614686703
4.33650e-06;-0.001465547391425903
4.33675e-06;-0.0014867301681651748
4.33700e-06;-0.0015060992130948225
4.33725e-06;-0.0015251664712032298
4.33750e-06;-0.0015442337293117016
4.33775e-06;-0.001563300987420109
4.33800e-06;-0.0015805123613760956
4.33825e-06;-0.0015974149347827919
4.33850e-06;-0.0016143175081894882
4.33875e-06;-0.0016312200815962418
4.33900e-06;-0.0016473406312472415
4.33925e-06;-0.0016633310599718158
4.33950e-06;-0.001679321488696444
4.33975e-06;-0.0016953119174210182
4.34000e-06;-0.0017113023461455923
4.34025e-06;-0.0017272927748702206
4.34050e-06;-0.0017432832035947947
4.34075e-06;-0.0017592736323193687
4.34100e-06;-0.001775264061043997
4.34125e-06;-0.0017909409309448195
4.34150e-06;-0.001806053894498923
4.34175e-06;-0.0018211668580530777
4.34200e-06;-0.0018362798216071813
4.34225e-06;-0.0018513927851613362
4.34250e-06;-0.0018665057487154398
4.34275e-06;-0.0018816187122695433
4.34300e-06;-0.001896731675823698
4.34325e-06;-0.0019118446393778016
4.34350e-06;-0.0019269576029319051
4.34375e-06;-0.0019413998184018499
4.34400e-06;-0.001954851367108316
4.34425e-06;-0.001968156648862899
4.34450e-06;-0.0019814619306175274
4.34475e-06;-0.0019947672123721105
4.34500e-06;-0.002006484994307478
4.34525e-06;-0.0020179386321607816
4.34550e-06;-0.0020293922700140464
4.34575e-06;-0.002040845907867311
4.34600e-06;-0.002050675865417625
4.34625e-06;-0.0020602356588154094
4.34650e-06;-0.0020674912793908163
4.34675e-06;-0.002074363508668904
4.34700e-06;-0.0020759458018922154
4.34725e-06;-0.0020766479026981563
4.34750e-06;-0.0020700894537351053
4.34775e-06;-0.002062322921954743
4.34800e-06;-0.002054556390174355
4.34825e-06;-0.002038607779227527
4.34850e-06;-0.0020212977521944365
4.34875e-06;-0.0020039877251612874
4.34900e-06;-0.0019768455227468606
4.34925e-06;-0.0019480673447503844
4.34950e-06;-0.0019192891667538102
4.34975e-06;-0.0018827487196453828
4.35000e-06;-0.0018449167086423356
4.35025e-06;-0.0018018699670863901
4.35050e-06;-0.0017579555465561901
4.35075e-06;-0.0017102501099851381
4.35100e-06;-0.0016592563923255358
4.35125e-06;-0.0016053232923260666
4.35150e-06;-0.0015487739114205706
4.35175e-06;-0.0014899543025399449
4.35200e-06;-0.0014292106682440276
4.35225e-06;-0.0013668890280832584
4.35250e-06;-0.0013032707924690242
4.35275e-06;-0.0012384881930078719
4.35300e-06;-0.0011726521240113799
4.35325e-06;-0.0011060352518302084
4.35350e-06;-0.0010390220498918395
4.35375e-06;-0.0009720114735867901
4.35400e-06;-0.0009054024366228465
4.35425e-06;-0.0008395938361000216
4.35450e-06;-0.0007749439471682911
4.35475e-06;-0.0007117176024436681
4.35500e-06;-0.0006501663590776297
4.35525e-06;-0.000590642971133893
4.35550e-06;-0.0005335702467426608
4.35575e-06;-0.00047938002858148967
4.35600e-06;-0.00042850413848678716
4.35625e-06;-0.0003813742901826168
4.35650e-06;-0.000338093113048154
4.35675e-06;-0.0002979433529854018
4.35700e-06;-0.0002599320310985739
4.35725e-06;-0.00022372524746301588
4.35750e-06;-0.00018950016192110245
4.35775e-06;-0.00015750116168217798
4.35800e-06;-0.00012797274592921348
4.35825e-06;-0.00010115936396208107
4.35850e-06;-7.70993423794845e-05
4.35875e-06;-5.5317383032140306e-05
4.35900e-06;-3.5165560658629934e-05
4.35925e-06;-1.6408855313019286e-05
4.35950e-06;8.676667771179183e-07
4.35975e-06;1.653681692704183e-05
4.36000e-06;3.047133270465448e-05
4.36025e-06;4.2544001764145265e-05
4.36050e-06;5.275676281946358e-05
4.36075e-06;6.143324552069116e-05
4.36100e-06;6.90051841631255e-05
4.36125e-06;7.564566107614987e-05
4.36150e-06;8.132722348267874e-05
4.36175e-06;8.59960562207161e-05
4.36200e-06;8.959830473826562e-05
4.36225e-06;9.208013838707589e-05
4.36250e-06;9.346864291802753e-05
4.36275e-06;9.399239971224796e-05
4.36300e-06;9.394767568615536e-05
4.36325e-06;9.346870461741588e-05
4.36350e-06;9.256410198890387e-05
4.36375e-06;9.103623787720441e-05
4.36400e-06;8.941479799884125e-05
4.36425e-06;8.70462560827765e-05
4.36450e-06;8.455340386479305e-05
4.36475e-06;8.173897992297108e-05
4.36500e-06;7.887104966464754e-05
4.36525e-06;7.600311940633372e-05
4.36550e-06;7.335220863079919e-05
4.36575e-06;7.073740772521435e-05
4.36600e-06;6.831867073256853e-05
4.36625e-06;6.608707243052205e-05
4.36650e-06;6.413961244315304e-05
4.36675e-06;6.278248199070139e-05
4.36700e-06;6.235223455117766e-05
4.36725e-06;6.297351108994713e-05
4.36750e-06;6.462284586496448e-05
4.36775e-06;6.725767028957918e-05
4.36800e-06;7.083539299414394e-05
4.36825e-06;7.531341532272013e-05
4.36850e-06;8.070305170232125e-05
4.36875e-06;8.71404586210098e-05
4.36900e-06;9.478078541264884e-05
4.36925e-06;0.00010364643862251087
4.36950e-06;0.00011366705025095492
4.36975e-06;0.00012476028343398195
4.37000e-06;0.000136843792007541
4.37025e-06;0.00014983522772121812
4.37050e-06;0.00016368605132505235
4.37075e-06;0.00017842585990096523
4.37100e-06;0.0001944738464542336
4.37125e-06;0.00021071825856302373
4.37150e-06;0.00022828956496195665
4.37175e-06;0.0002460816532908174
4.37200e-06;0.0002650031923560333
4.37225e-06;0.0002841126607198797
4.37250e-06;0.00030322212908372604
4.37275e-06;0.0003232041043690462
4.37300e-06;0.00034333125607374993
4.37325e-06;0.00036345840777845373
4.37350e-06;0.00038387276598551634
4.37375e-06;0.0004043349124800539
4.37400e-06;0.00042454304702648816
4.37425e-06;0.00044470891652704456
4.37450e-06;0.0004642405795751781
4.37475e-06;0.00048366671701694734
4.37500e-06;0.0005024477190051219
4.37525e-06;0.0005205738788588284
4.37550e-06;0.0005379479605059122
4.37575e-06;0.0005544374500131649
4.37600e-06;0.0005699099083448034
4.37625e-06;0.0005842329629764714
4.37650e-06;0.0005970413471799183
4.37675e-06;0.0006074392864262472
4.37700e-06;0.0006144725381765123
4.37725e-06;0.0006177828083777093
4.37750e-06;0.0006174206200296551
4.37775e-06;0.0006134891755636643
4.37800e-06;0.000606091801881422
4.37825e-06;0.0005953318175810464
4.37850e-06;0.0005811666715308799
4.37875e-06;0.0005632216329433851
4.37900e-06;0.0005410853101576977
4.37925e-06;0.000514719573630743
4.37950e-06;0.0004843425985639177
4.37975e-06;0.00045020531411441326
4.38000e-06;0.0004125587865721326
4.38025e-06;0.0003716541196347314
4.38050e-06;0.0003276510217635057
4.38075e-06;0.00028050101426216003
4.38100e-06;0.00023013281574156831
4.38125e-06;0.00017670892222545264
4.38150e-06;0.00012055227375646672
4.38175e-06;6.200642034589373e-05
4.38200e-06;1.4149223067488813e-06
4.38225e-06;-6.087866471290596e-05
4.38250e-06;-0.00012458805627621578
4.38275e-06;-0.0001895573380425039
4.38300e-06;-0.0002562039688360208
4.38325e-06;-0.0003231002484889342
4.38350e-06;-0.0003899965281420742
4.38375e-06;-0.0004571434844847162
4.38400e-06;-0.0005243321509196748
4.38425e-06;-0.0005901336077030297
4.38450e-06;-0.0006557042466837461
4.38475e-06;-0.0007187865916074831
4.38500e-06;-0.0007814549093035627
4.38525e-06;-0.0008404864645793666
4.38550e-06;-0.0008989128989865753
4.38575e-06;-0.0009522265319957848
4.38600e-06;-0.0010046894460230586
4.38625e-06;-0.0010508100959100769
4.38650e-06;-0.0010958754565195189
4.38675e-06;-0.0011376213450752883
4.38700e-06;-0.0011787070639101966
4.38725e-06;-0.0012197748387834234
4.38750e-06;-0.0012602514661386134
4.38775e-06;-0.0013006297324633497
4.38800e-06;-0.0013410079987879492
4.38825e-06;-0.0013791733003781215
4.38850e-06;-0.0014169703867847488
4.38875e-06;-0.0014547756741009024
4.38900e-06;-0.001492582325966473
4.38925e-06;-0.0015303889778319156
4.38950e-06;-0.001569733441652591
4.38975e-06;-0.00160933378199177
4.39000e-06;-0.0016489341223308147
4.39025e-06;-0.0016883188768907031
4.39050e-06;-0.001727667760134735
4.39075e-06;-0.0017670166433786335
4.39100e-06;-0.0018078576887880816
4.39125e-06;-0.001848947015047901
4.39150e-06;-0.001890036341307581
4.39175e-06;-0.0019311256675672611
4.39200e-06;-0.0019722149938270804
4.39225e-06;-0.0020133043200867605
4.39250e-06;-0.0020543936463464406
4.39275e-06;-0.00209548297260626
4.39300e-06;-0.002134555411560109
4.39325e-06;-0.002173292260652187
4.39350e-06;-0.0022120291097441343
4.39375e-06;-0.0022507659588360813
4.39400e-06;-0.00228950280792816
4.39425e-06;-0.002328239657020107
4.39450e-06;-0.002366976506112054
4.39475e-06;-0.002405713355204132
4.39500e-06;-0.002439728376691267
4.39525e-06;-0.0024729577333229037
4.39550e-06;-0.002506187089954653
4.39575e-06;-0.0025350855678226546
4.39600e-06;-0.002563263430809577
4.39625e-06;-0.0025914412937965946
4.39650e-06;-0.0026132006225194717
4.39675e-06;-0.0026338919713801328
4.39700e-06;-0.002654583320240864
4.39725e-06;-0.0026643749581855202
4.39750e-06;-0.002672352993322605
4.39775e-06;-0.002680331028459662
4.39800e-06;-0.0026883090635967193
4.39825e-06;-0.0026962870987338036
4.39850e-06;-0.0026899958305341594
4.39875e-06;-0.0026813302930725207
4.39900e-06;-0.002672664755610853
4.39925e-06;-0.0026639992181492146
4.39950e-06;-0.0026553336806875764
4.39975e-06;-0.002635704049346792
4.40000e-06;-0.0026142501025179497
4.40025e-06;-0.0025927961556891075
4.40050e-06;-0.002565310398222085
4.40075e-06;-0.002536821007833954
4.40100e-06;-0.0025039414525927966
4.40125e-06;-0.002470331417858672
4.40150e-06;-0.0024329835648700692
4.40175e-06;-0.002395013776333511
4.40200e-06;-0.002354042754287975
4.40225e-06;-0.00231257235702421
4.40250e-06;-0.0022693014192712952
4.40275e-06;-0.0022247487766077676
4.40300e-06;-0.00217922766697943
4.40325e-06;-0.0021329829375277896
4.40350e-06;-0.0020862827799169475
4.40375e-06;-0.0020393978097830376
4.40400e-06;-0.0019925987759502896
4.40425e-06;-0.0019461566600740532
4.40450e-06;-0.0019003356900636683
4.40475e-06;-0.0018553906804631305
4.40500e-06;-0.0018115854474843988
4.40525e-06;-0.0017692094884518695
4.40550e-06;-0.0017294596506914144
4.40575e-06;-0.0016901118539905196
4.40600e-06;-0.0016560326011151574
4.40625e-06;-0.0016228299812024339
4.40650e-06;-0.00158962736128971
4.40675e-06;-0.0015620791105545847
4.40700e-06;-0.0015354716902591077
4.40725e-06;-0.0015088642699636308
4.40750e-06;-0.001486633606948886
4.40775e-06;-0.0014651311925410564
4.40800e-06;-0.0014436287781332269
4.40825e-06;-0.0014273724839684659
4.40850e-06;-0.0014119890917065037
4.40875e-06;-0.0013966056994445415
4.40900e-06;-0.0013851737815906602
4.40925e-06;-0.0013743993495300409
4.40950e-06;-0.0013636249174694217
4.40975e-06;-0.0013594552911878912
4.41000e-06;-0.0013563846384838621
4.41025e-06;-0.0013533139857798224
4.41050e-06;-0.0013502433330757934
4.41075e-06;-0.0013471726803717643
4.41100e-06;-0.0013441020276677247
4.41125e-06;-0.0013410313749636956
4.41150e-06;-0.0013379607222596664
4.41175e-06;-0.00133755125313649
4.41200e-06;-0.0013419276748738093
4.41225e-06;-0.0013463040966111288
4.41250e-06;-0.001350680518348463
4.41275e-06;-0.0013550569400857825
4.41300e-06;-0.0013594333618231018
4.41325e-06;-0.001363809783560436
4.41350e-06;-0.0013681862052977555
4.41375e-06;-0.001372562627035075
4.41400e-06;-0.0013788498098395699
4.41425e-06;-0.0013854549241617256
4.41450e-06;-0.0013920600384839039
4.41475e-06;-0.0013986651528060596
4.41500e-06;-0.0014049697694964165
4.41525e-06;-0.001411224386388403
4.41550e-06;-0.0014174790032803683
4.41575e-06;-0.0014237336201723336
4.41600e-06;-0.0014292652511902492
4.41625e-06;-0.0014343066952902535
4.41650e-06;-0.0014376689017022858
4.41675e-06;-0.0014407619403879162
4.41700e-06;-0.0014385860526493384
4.41725e-06;-0.0014355334682880534
4.41750e-06;-0.0014251773334420267
4.41775e-06;-0.0014136059608932878
4.41800e-06;-0.0014020345883445486
4.41825e-06;-0.0013838691188524219
4.41850e-06;-0.001364606457626328
4.41875e-06;-0.0013391382196310843
4.41900e-06;-0.0013126374357704008
4.41925e-06;-0.0012790582521596007
4.41950e-06;-0.0012443012936748333
4.41975e-06;-0.0012033434494079364
4.42000e-06;-0.001161353839808823
4.42025e-06;-0.0011141098757870072
4.42050e-06;-0.0010659916397779757
4.42075e-06;-0.0010140289404190143
4.42100e-06;-0.0009586721530821181
4.42125e-06;-0.000900262844319871
4.42150e-06;-0.0008391502986197558
4.42175e-06;-0.0007757115770710952
4.42200e-06;-0.0007103236657005721
4.42225e-06;-0.0006433634674159383
4.42250e-06;-0.0005751298267846494
4.42275e-06;-0.0005057400255275687
4.42300e-06;-0.0004352815493443655
4.42325e-06;-0.0003640323767453288
4.42350e-06;-0.0002923840983955113
4.42375e-06;-0.0002006160321456877
4.42400e-06;-0.0001779175271712845
4.42425e-06;-8.410851808809365e-05
4.42450e-06;-1.3464905340060409e-05
4.42475e-06;5.538865499084941e-05
4.42500e-06;0.00012616023664567964
4.42525e-06;0.00019389254895460641
4.42550e-06;0.00025942376077801356
4.42575e-06;0.00032195374572682847
4.42600e-06;0.00038087126245350226
4.42625e-06;0.0004355213875500122
4.42650e-06;0.0004848944786654276
4.42675e-06;0.0005324238645780578
4.42700e-06;0.00057853197856621
4.42725e-06;0.0006204629780569814
4.42750e-06;0.0006588880122415669
4.42775e-06;0.0006934295174287046
4.42800e-06;0.0007238283770199222
4.42825e-06;0.000749798061357399
4.42850e-06;0.0007708299994248888
4.42875e-06;0.0007891985570731516
4.42900e-06;0.0008052919512812513
4.42925e-06;0.0008171453889781095
4.42950e-06;0.0008250370963332927
4.42975e-06;0.0008318251200981017
4.43000e-06;0.0008337757272331603
4.43025e-06;0.0008321856034329245
4.43050e-06;0.0008268599351088362
4.43075e-06;0.0008193470626523917
4.43100e-06;0.0008097765994140139
4.43125e-06;0.0007970941105273744
4.43150e-06;0.0007834855216024846
4.43175e-06;0.00076641865707286
4.43200e-06;0.0007487203864068345
4.43225e-06;0.0007281889207481973
4.43250e-06;0.0007056642248908778
4.43275e-06;0.0006822397969571454
4.43300e-06;0.0006582064201889312
4.43325e-06;0.0006330903092698878
4.43350e-06;0.0006077905410440302
4.43375e-06;0.0005818049531900038
4.43400e-06;0.0005557864023074745
4.43425e-06;0.0005297064870122925
4.43450e-06;0.0005038570759809736
4.43475e-06;0.0004784719291050464
4.43500e-06;0.00045482045390182285
4.43525e-06;0.0004317519792237933
4.43550e-06;0.00041086056578193414
4.43575e-06;0.0003905408199031074
4.43600e-06;0.00037281199239745926
4.43625e-06;0.00035720387006051853
4.43650e-06;0.0003433729821815059
4.43675e-06;0.00033013086837057416
4.43700e-06;0.0003155101082909589
4.43725e-06;0.00029849064820362917
4.43750e-06;0.00027938774298803435
4.43775e-06;0.0002585152511759625
4.43800e-06;0.00023619847958444655
4.43825e-06;0.0002127258834514654
4.43850e-06;0.00018805736090894947
4.43875e-06;0.00016162355682225154
4.43900e-06;0.00013236723294567644
4.43925e-06;9.982467192281621e-05
4.43950e-06;6.436858282018844e-05
4.43975e-06;2.6370815698296533e-05
4.44000e-06;-1.3789672303519062e-05
4.44025e-06;-5.57570074512246e-05
4.44050e-06;-9.938115266847644e-05
4.44075e-06;-0.00014484358295703564
4.44100e-06;-0.00019263134264519376
4.44125e-06;-0.00024285966579703735
4.44150e-06;-0.0002952571717023347
4.44175e-06;-0.0003495165487683807
4.44200e-06;-0.0004042104902723511
4.44225e-06;-0.0004605271977110208
4.44250e-06;-0.0005168439051494996
4.44275e-06;-0.0005734902141855015
4.44300e-06;-0.0006313673331953911
4.44325e-06;-0.0006892444522050846
4.44350e-06;-0.0007469552232889101
4.44375e-06;-0.0008040448120491914
