Time(s);Current(A)
6.30000e-06;0.000368093901822335
6.30025e-06;0.0003914835822366272
6.30050e-06;0.0004134218653106535
6.30075e-06;0.00043536014838475417
6.30100e-06;0.0004576217177736253
6.30125e-06;0.0004801923203694314
6.30150e-06;0.000502762922965314
6.30175e-06;0.0005253335255611201
6.30200e-06;0.0005479041281569263
6.30225e-06;0.0005704747307528088
6.30250e-06;0.0005934627252995068
6.30275e-06;0.0006168497097422572
6.30300e-06;0.0006402366941849283
6.30325e-06;0.0006655389665062445
6.30350e-06;0.0006926720851336633
6.30375e-06;0.0007198052037609901
6.30400e-06;0.0007469383223883169
6.30425e-06;0.0007740714410157357
6.30450e-06;0.0008012045596430626
6.30475e-06;0.0008283376782703894
6.30500e-06;0.0008571995258851769
6.30525e-06;0.0008877138859580664
6.30550e-06;0.0009182282460309559
6.30575e-06;0.0009487426061039487
6.30600e-06;0.0009792569661768382
6.30625e-06;0.0010097713262497278
6.30650e-06;0.0010402856863227206
6.30675e-06;0.0010709189880516328
6.30700e-06;0.0011016659875145375
6.30725e-06;0.0011324129869773377
6.30750e-06;0.001163159986440138
6.30775e-06;0.0011939069859030428
6.30800e-06;0.0012246539853658432
6.30825e-06;0.0012554009848286434
6.30850e-06;0.0012834754213567417
6.30875e-06;0.0013089951234081087
6.30900e-06;0.001334514825459476
6.30925e-06;0.0013600345275109295
6.30950e-06;0.0013855542295622965
6.30975e-06;0.0014110739316136635
6.31000e-06;0.001436593633665117
6.31025e-06;0.0014580441170618987
6.31050e-06;0.0014756047862828827
6.31075e-06;0.001493165455503926
6.31100e-06;0.0015068874401141662
6.31125e-06;0.0015169399807641707
6.31150e-06;0.001526992521414141
6.31175e-06;0.0015330078593498635
6.31200e-06;0.0015351639875254273
6.31225e-06;0.001537320115700984
6.31250e-06;0.0015352949836018655
6.31275e-06;0.0015292729354190594
6.31300e-06;0.001523250887236274
6.31325e-06;0.0015131032297162495
6.31350e-06;0.0014990118535009823
6.31375e-06;0.0014849204772857628
6.31400e-06;0.0014671587977453519
6.31425e-06;0.001445888631904495
6.31450e-06;0.0014246184660637103
6.31475e-06;0.0014000886036006585
6.31500e-06;0.0013724427586343916
6.31525e-06;0.0013447969136682184
6.31550e-06;0.001313789319208356
6.31575e-06;0.001279568188700453
6.31600e-06;0.0012453470581925501
6.31625e-06;0.0012111259276845312
6.31650e-06;0.0011769047971766282
6.31675e-06;0.0011426394876379985
6.31700e-06;0.0011044984733294427
6.31725e-06;0.0010663574590210163
6.31750e-06;0.0010282164447125899
6.31775e-06;0.0009900754304040342
6.31800e-06;0.0009519344160956078
6.31825e-06;0.000915053104179079
6.31850e-06;0.000879375956657733
6.31875e-06;0.0008436988091365079
6.31900e-06;0.000808021661615283
6.31925e-06;0.000772344514093937
6.31950e-06;0.0007367622236169076
6.31975e-06;0.000709501480535254
6.32000e-06;0.0006822407374536927
6.32025e-06;0.0006549799943721315
6.32050e-06;0.0006277192512904778
6.32075e-06;0.0006004585082089166
6.32100e-06;0.0005744352991293148
6.32125e-06;0.0005495950634190867
6.32150e-06;0.0005247548277089426
6.32175e-06;0.0005000599093932683
6.32200e-06;0.00047550390169128154
6.32225e-06;0.00045094789398937796
6.32250e-06;0.00042635011336453654
6.32275e-06;0.00040171240150918064
6.32300e-06;0.0003770746896539082
6.32325e-06;0.0003512631596560705
6.32350e-06;0.0003243295630312969
6.32375e-06;0.00029739596640661456
6.32400e-06;0.00027006113743463137
6.32425e-06;0.00024234276572296002
6.32450e-06;0.00021435892862360628
6.32475e-06;0.0001861213300245759
6.32500e-06;0.00015716307038531323
6.32525e-06;0.0001275159223456556
6.32550e-06;9.741213716005082e-05
6.32575e-06;6.687184713335815e-05
6.32600e-06;3.624238726731785e-05
6.32625e-06;5.592755152587346e-06
6.32650e-06;-2.4954406042956083e-05
6.32675e-06;-5.5463071119878704e-05
6.32700e-06;-8.60459172764607e-05
6.32725e-06;-0.00011669967222416777
6.32750e-06;-0.00014712407537382258
6.32775e-06;-0.00017732923843088712
6.32800e-06;-0.00020691638592328153
6.32825e-06;-0.00023591276503806723
6.32850e-06;-0.00026407200674186874
6.32875e-06;-0.0002914310189069756
6.32900e-06;-0.00031790692211814954
6.32925e-06;-0.00034353865104947974
6.32950e-06;-0.00036795910161488936
6.32975e-06;-0.0003912216768837136
6.33000e-06;-0.00041289591636525704
6.33025e-06;-0.0004330518469076441
6.33050e-06;-0.00045158784413194467
6.33075e-06;-0.0004685753279639985
6.33100e-06;-0.0004843451053004397
6.33125e-06;-0.000498950862615201
6.33150e-06;-0.000512265220581929
6.33175e-06;-0.0005243451146589619
6.33200e-06;-0.0005349617759586449
6.33225e-06;-0.0005441797157638844
6.33250e-06;-0.000551699934937919
6.33275e-06;-0.0005575972829084743
6.33300e-06;-0.0005634946308790295
6.33325e-06;-0.0005677573193608754
6.33350e-06;-0.0005704574175302221
6.33375e-06;-0.0005731575156995688
6.33400e-06;-0.000574184970879366
6.33425e-06;-0.0005736135268696249
6.33450e-06;-0.0005730420828598837
6.33475e-06;-0.0005711189162666794
6.33500e-06;-0.0005679036220905876
6.33525e-06;-0.0005646883279144959
6.33550e-06;-0.0005599187090829721
6.33575e-06;-0.0005536632929550457
6.33600e-06;-0.0005474078768271193
6.33625e-06;-0.0005411524606991718
6.33650e-06;-0.0005348970445712453
6.33675e-06;-0.0005286416284432979
6.33700e-06;-0.0005223629379652762
6.33725e-06;-0.0005140424528310275
6.33750e-06;-0.0005057219676967506
6.33775e-06;-0.000497401482562502
6.33800e-06;-0.0004890809974282533
6.33825e-06;-0.00048076051229397644
6.33850e-06;-0.0004724400271597278
6.33875e-06;-0.0004652317383956422
6.33900e-06;-0.0004590866112779884
6.33925e-06;-0.0004529414841603554
6.33950e-06;-0.00044679635704272244
6.33975e-06;-0.0004406512299250686
6.34000e-06;-0.0004345061028074356
6.34025e-06;-0.00042836097568980263
6.34050e-06;-0.00042221584857214884
6.34075e-06;-0.00041607072145451586
6.34100e-06;-0.00040992559433686206
6.34125e-06;-0.0004037804672192291
6.34150e-06;-0.00039763534010159605
6.34175e-06;-0.00039154606436741656
6.34200e-06;-0.0003903564767296343
6.34225e-06;-0.00038916688909185204
6.34250e-06;-0.0003879773014540657
6.34275e-06;-0.00038678771381628346
6.34300e-06;-0.0003855981261785012
6.34325e-06;-0.00038440853854071494
6.34350e-06;-0.0003832189509029327
6.34375e-06;-0.0003820293632651504
6.34400e-06;-0.00038083977562736415
6.34425e-06;-0.0003796501879895819
6.34450e-06;-0.00037846060035179964
6.34475e-06;-0.0003772710127140133
6.34500e-06;-0.00037756536077279446
6.34525e-06;-0.00037927822049060097
6.34550e-06;-0.0003809910802084016
6.34575e-06;-0.00038270393992620227
6.34600e-06;-0.0003844167996440088
6.34625e-06;-0.00038612965936180943
6.34650e-06;-0.00038784251907961014
6.34675e-06;-0.0003895553787974166
6.34700e-06;-0.00039127754058420613
6.34725e-06;-0.0003938157472699783
6.34750e-06;-0.0003963539539557591
6.34775e-06;-0.00039889216064153136
6.34800e-06;-0.00040143036732730354
6.34825e-06;-0.00040396857401308434
6.34850e-06;-0.0004065067806988566
6.34875e-06;-0.00040904498738462877
6.34900e-06;-0.00041158319407040957
6.34925e-06;-0.000413977976322157
6.34950e-06;-0.0004162356574634617
6.34975e-06;-0.0004184933386047587
6.35000e-06;-0.00042044620438393186
6.35025e-06;-0.0004221076935583283
6.35050e-06;-0.00042376918273271915
6.35075e-06;-0.0004242555468104066
6.35100e-06;-0.0004236185949289436
6.35125e-06;-0.00042150994358976923
6.35150e-06;-0.00041799447735698514
6.35175e-06;-0.00041313111268247377
6.35200e-06;-0.00040697927596776646
6.35225e-06;-0.0003995514852719685
6.35250e-06;-0.000390903995095567
6.35275e-06;-0.00038063349145523676
6.35300e-06;-0.00036881153007562676
6.35325e-06;-0.00035529256478103346
6.35350e-06;-0.0003401514134012396
6.35375e-06;-0.00032388629164334685
6.35400e-06;-0.0003055752799087724
6.35425e-06;-0.00028633562526065475
6.35450e-06;-0.000266178466700482
6.35475e-06;-0.00024447823709619957
6.35500e-06;-0.00022147612322886875
6.35525e-06;-0.00019724079096478838
6.35550e-06;-0.0001719167732511224
6.35575e-06;-0.00014565979013264952
6.35600e-06;-0.00011862553933424097
6.35625e-06;-9.096562014442578e-05
6.35650e-06;-6.279163765295555e-05
6.35675e-06;-3.414816959800182e-05
6.35700e-06;-5.08286434404396e-06
6.35725e-06;2.427387904862327e-05
6.35750e-06;5.373046975846523e-05
6.35775e-06;8.318706046820739e-05
6.35800e-06;0.00011232345641694475
6.35825e-06;0.00014115376907504606
6.35850e-06;0.00016937070126653918
6.35875e-06;0.00019700129582564662
6.35900e-06;0.00022377299851615432
6.35925e-06;0.0002497236763254598
6.35950e-06;0.0002748040493601773
6.35975e-06;0.00029834275976967984
6.36000e-06;0.0003203961983559493
6.36025e-06;0.0003407669042770074
6.36050e-06;0.00035919028303966956
6.36075e-06;0.000375309344524735
6.36100e-06;0.00038882757070781446
6.36125e-06;0.0003996296425218161
6.36150e-06;0.00040770210042934444
6.36175e-06;0.00041304543985156
6.36200e-06;0.00041566016977744475
6.36225e-06;0.00041554212755410386
6.36250e-06;0.0004126451117450223
6.36275e-06;0.00040686505832411546
6.36300e-06;0.0003981357873581057
6.36325e-06;0.00038650460265091634
6.36350e-06;0.00037208266428510694
6.36375e-06;0.0003549898354023076
6.36400e-06;0.0003353459811124142
6.36425e-06;0.00031326804809082284
6.36450e-06;0.00028884664216756743
6.36475e-06;0.0002621361165949084
6.36500e-06;0.00023321455551879303
6.36525e-06;0.00020223113434979576
6.36550e-06;0.00016937500164060726
6.36575e-06;0.00013484076321742822
6.36600e-06;9.882300373459289e-05
6.36625e-06;6.15144681514743e-05
6.36650e-06;2.309139529080574e-05
6.36675e-06;-1.6292699581515384e-05
6.36700e-06;-5.646944988932082e-05
6.36725e-06;-9.729634243158401e-05
6.36750e-06;-0.00013841788663155181
6.36775e-06;-0.00017953555353514915
6.36800e-06;-0.00022031307590739683
6.36825e-06;-0.0002610905982795063
6.36850e-06;-0.0003010875939333707
6.36875e-06;-0.0003403384748789776
6.36900e-06;-0.0003783884115693352
6.36925e-06;-0.0004152903514624766
6.36950e-06;-0.0004509545043944065
6.36975e-06;-0.00048442589843304045
6.37000e-06;-0.0005157844199228425
6.37025e-06;-0.0005447427635429551
6.37050e-06;-0.0005708566380291875
6.37075e-06;-0.0005934463741735039
6.37100e-06;-0.0006119209916234663
6.37125e-06;-0.0006260600808699603
6.37150e-06;-0.0006358604465750546
6.37175e-06;-0.0006413494760991718
6.37200e-06;-0.0006425545554907832
6.37225e-06;-0.0006394924478404747
6.37250e-06;-0.0006320816401174079
6.37275e-06;-0.0006200932362410376
6.37300e-06;-0.0006033538574777327
6.37325e-06;-0.0005819222926117258
6.37350e-06;-0.0005559934258418788
6.37375e-06;-0.0005257812272175419
6.37400e-06;-0.0004914996694124965
6.37425e-06;-0.0004533561157872709
6.37450e-06;-0.0004114963230953902
6.37475e-06;-0.00036597369811817716
6.37500e-06;-0.00031687645456593053
6.37525e-06;-0.00026443824778611083
6.37550e-06;-0.00020897793904693174
6.37575e-06;-0.00015082634010103176
6.37600e-06;-9.031424152980197e-05
6.37625e-06;-2.776825620974377e-05
6.37650e-06;3.652360090179146e-05
6.37675e-06;0.00010233116554588163
6.37700e-06;0.00016958932104155778
6.37725e-06;0.00023757315505652796
6.37750e-06;0.0003058003639632818
6.37775e-06;0.00037426021780365273
6.37800e-06;0.0004427200716442557
6.37825e-06;0.0005098713447771214
6.37850e-06;0.0005757717301569127
6.37875e-06;0.0006416721155369273
6.37900e-06;0.0007052248497504293
6.37925e-06;0.000766533436487778
6.37950e-06;0.0008249461508045328
6.37975e-06;0.0008805906664735062
6.38000e-06;0.0009324305626487487
6.38025e-06;0.0009806335781159007
6.38050e-06;0.0010246910004974782
6.38075e-06;0.0010647856014880286
6.38100e-06;0.0011012112879443905
6.38125e-06;0.0011341298156667492
6.38150e-06;0.0011632031909664397
6.38175e-06;0.001188600939652813
6.38200e-06;0.0012098296891239612
6.38225e-06;0.001227073243008347
6.38250e-06;0.0012401795216877827
6.38275e-06;0.001249330930136598
6.38300e-06;0.0012548891331342071
6.38325e-06;0.0012570125486043304
6.38350e-06;0.0012556776303070253
6.38375e-06;0.0012510368499177164
6.38400e-06;0.0012429801435609393
6.38425e-06;0.0012316581132289614
6.38450e-06;0.0012165280410190945
6.38475e-06;0.0011977578166043287
6.38500e-06;0.001178987592189499
6.38525e-06;0.0011566227338501624
6.38550e-06;0.0011308217224889807
6.38575e-06;0.0011050207111277116
6.38600e-06;0.001076294007966625
6.38625e-06;0.0010447706014610402
6.38650e-06;0.0010132471949553488
6.38675e-06;0.0009796316438647886
6.38700e-06;0.0009440161870568575
6.38725e-06;0.0009084007302488058
6.38750e-06;0.0008727852734408747
6.38775e-06;0.0008371620305870586
6.38800e-06;0.0008008557393893079
6.38825e-06;0.0007645494481915571
6.38850e-06;0.0007282431569936834
6.38875e-06;0.0006919368657959327
6.38900e-06;0.0006573005788810474
6.38925e-06;0.0006242606687830185
6.38950e-06;0.0005912207586851016
6.38975e-06;0.0005603722555306851
6.39000e-06;0.0005316185441542485
6.39025e-06;0.0005051555012532249
6.39050e-06;0.0004808821354008019
6.39075e-06;0.00045837980111466085
6.39100e-06;0.00043870782377400093
6.39125e-06;0.0004212857356106581
6.39150e-06;0.00040617410196421884
6.39175e-06;0.00039344421233947517
6.39200e-06;0.00038316737177698925
6.39225e-06;0.0003754104200264767
6.39250e-06;0.00037019090431179163
6.39275e-06;0.00036742614545114317
6.39300e-06;0.00036698871315790995
6.39325e-06;0.0003687943371123079
6.39350e-06;0.0003727979596646388
6.39375e-06;0.000378961251070164
6.39400e-06;0.0003872458815841818
6.39425e-06;0.0003981116866322807
6.39450e-06;0.00041046256647469615
6.39475e-06;0.0004246477250252112
6.39500e-06;0.0004405862922557431
6.39525e-06;0.0004580796112727997
6.39550e-06;0.00047705913588429514
6.39575e-06;0.0004976597321296282
6.39600e-06;0.0005198099298944868
6.39625e-06;0.0005419601276594204
6.39650e-06;0.0005657635957381894
6.39675e-06;0.0005911474444351365
6.39700e-06;0.0006165312931321696
6.39725e-06;0.0006419151418291167
6.39750e-06;0.0006672989905260638
6.39775e-06;0.0006929712955905194
6.39800e-06;0.0007189193395031686
6.39825e-06;0.0007448673834158177
6.39850e-06;0.0007708154273285548
6.39875e-06;0.000796763471241204
6.39900e-06;0.0008214372078844374
6.39925e-06;0.0008448928191594049
6.39950e-06;0.000868348430434293
6.39975e-06;0.0008898193963502368
6.40000e-06;0.0009093932163290867
6.40025e-06;0.0009289670363078702
6.40050e-06;0.0009457701042355996
6.40075e-06;0.0009599245775552493
6.40100e-06;0.0009705420320380494
6.40125e-06;0.0009777784084428363
6.40150e-06;0.00098140964569203
6.40175e-06;0.0009815946878460738
6.40200e-06;0.0009782911453347718
6.40225e-06;0.0009716528235420651
6.40250e-06;0.0009613316893601282
6.40275e-06;0.0009474901113216719
6.40300e-06;0.0009295889164312842
6.40325e-06;0.0009078070858485165
6.40350e-06;0.0008822725220861915
6.40375e-06;0.000853150676358405
6.40400e-06;0.0008206986279381856
6.40425e-06;0.0007850631994349091
6.40450e-06;0.0007463254394844995
6.40475e-06;0.0007046221242654477
6.40500e-06;0.0006599299221841801
6.40525e-06;0.0006123806078529168
6.40550e-06;0.0005623841402639315
6.40575e-06;0.0005100484099757538
6.40600e-06;0.0004558795988136321
6.40625e-06;0.0003999585239955542
6.40650e-06;0.0003426964327028026
6.40675e-06;0.0002841524479245772
6.40700e-06;0.00022468781212855754
6.40725e-06;0.0001643431151523131
6.40750e-06;0.00010376630987084617
6.40775e-06;4.296762951905876e-05
6.40800e-06;-1.7545494810896415e-05
6.40825e-06;-7.735342685328685e-05
6.40850e-06;-0.00013616308641727187
6.40875e-06;-0.00019369803050437058
6.40900e-06;-0.00024967227404847715
6.40925e-06;-0.00030373507134162804
6.40950e-06;-0.00035549624164239946
6.40975e-06;-0.00040455994440894
6.41000e-06;-0.0004505304121864936
6.41025e-06;-0.0004930242854141888
6.41050e-06;-0.0005317940934473519
6.41075e-06;-0.0005668654181959558
6.41100e-06;-0.000598378243895806
6.41125e-06;-0.0006263445054427146
6.41150e-06;-0.0006506644675877164
6.41175e-06;-0.0006712195004938539
6.41200e-06;-0.0006878910390920713
6.41225e-06;-0.0007005683075240234
6.41250e-06;-0.0007092255750818932
6.41275e-06;-0.0007140082837458024
6.41300e-06;-0.0007151334341802925
6.41325e-06;-0.0007127378279857815
6.41350e-06;-0.0007060263831284021
6.41375e-06;-0.0006968160976305727
6.41400e-06;-0.0006842166105182225
6.41425e-06;-0.000668377345557263
6.41450e-06;-0.0006494061678482849
6.41475e-06;-0.000627441157756548
6.41500e-06;-0.0006028381146674162
6.41525e-06;-0.0005757133446817403
6.41550e-06;-0.0005463197871569071
6.41575e-06;-0.0005147574688300017
6.41600e-06;-0.0004812627758573102
6.41625e-06;-0.0004459209031399366
6.41650e-06;-0.0004090721250501235
6.41675e-06;-0.00037078287831868574
6.41700e-06;-0.00033143113267847306
6.41725e-06;-0.0002910637317839107
6.41750e-06;-0.0002506963308892115
6.41775e-06;-0.00021002821405299613
6.41800e-06;-0.00016907263929681837
6.41825e-06;-0.00012811706454050182
6.41850e-06;-8.75375812504658e-05
6.41875e-06;-4.775865679416883e-05
6.41900e-06;-9.000439038921092e-06
6.41925e-06;2.8442742279046625e-05
6.41950e-06;6.429379357846911e-05
6.41975e-06;9.82785552035773e-05
6.42000e-06;0.00013012289660208938
6.42025e-06;0.00015956154218928645
6.42050e-06;0.00018642608903232655
6.42075e-06;0.00021074197918005005
6.42100e-06;0.00023261374631541228
6.42125e-06;0.00025205215530672305
6.42150e-06;0.00026898740137679496
6.42175e-06;0.0002833360713075803
6.42200e-06;0.0002950147774808602
6.42225e-06;0.0003039457303079534
6.42250e-06;0.00031011178614216207
6.42275e-06;0.00031361723501186075
6.42300e-06;0.0003146159180352234
6.42325e-06;0.00031320291808205775
6.42350e-06;0.0003094228602106102
6.42375e-06;0.00030331184608248875
6.42400e-06;0.00029490596575948577
6.42425e-06;0.0002842448332227332
6.42450e-06;0.00027140607661846745
6.42475e-06;0.00025654336330699134
6.42500e-06;0.00023984135527359242
6.42525e-06;0.00022144793999451332
6.42550e-06;0.00020147938035419444
6.42575e-06;0.0001800465761707121
6.42600e-06;0.00015726045023778666
6.42625e-06;0.00013323409989910058
6.42650e-06;0.00010810441420125376
6.42675e-06;8.205592869493688e-05
6.42700e-06;5.529258118133973e-05
6.42725e-06;2.799524773776244e-05
6.42750e-06;3.2497978301846987e-07
6.42775e-06;-2.7555539648876895e-05
6.42800e-06;-5.5498818486360274e-05
6.42825e-06;-8.325138866240762e-05
6.42850e-06;-0.00011082165461886344
6.42875e-06;-0.00013799822553216937
6.42900e-06;-0.00016439006415069012
6.42925e-06;-0.00018988535789949117
6.42950e-06;-0.00021429508196224605
6.42975e-06;-0.00023743233219586696
6.43000e-06;-0.00025911023290483366
6.43025e-06;-0.00027913705753680805
6.43050e-06;-0.00029727985280013564
6.43075e-06;-0.0003132566570578828
6.43100e-06;-0.0003268439507158848
6.43125e-06;-0.00033795095949389287
6.43150e-06;-0.00034655796375772466
6.43175e-06;-0.00035265467628737396
6.43200e-06;-0.0003562308227746188
6.43225e-06;-0.0003572730500778895
6.43250e-06;-0.0003557422187038183
6.43275e-06;-0.00035156853298525415
6.43300e-06;-0.00034471877295760476
6.43325e-06;-0.00033524287843845097
6.43350e-06;-0.00032323532496430905
6.43375e-06;-0.00030879646254256606
6.43400e-06;-0.00029202665606050613
6.43425e-06;-0.0002730243353586818
6.43450e-06;-0.00025187178965375826
6.43475e-06;-0.00022863208035632843
6.43500e-06;-0.0002033911695808691
6.43525e-06;-0.0001762871414947543
6.43550e-06;-0.00014748595089567065
6.43575e-06;-0.00011715722201938162
6.43600e-06;-8.54705645497146e-05
6.43625e-06;-5.259438694450338e-05
6.43650e-06;-1.8686963135650058e-05
6.43675e-06;1.610548192699825e-05
6.43700e-06;5.1622376345905145e-05
6.43725e-06;8.773991829901111e-05
6.43750e-06;0.00012413369658132744
6.43775e-06;0.0001605245858093977
6.43800e-06;0.0001966620262841261
6.43825e-06;0.00023279946675897693
6.43850e-06;0.0002682626157739044
6.43875e-06;0.00030308120161966413
6.43900e-06;0.00033683657183982275
6.43925e-06;0.00036957560168783955
6.43950e-06;0.0004007686217075093
6.43975e-06;0.0004304837926749019
6.44000e-06;0.0004581821305144097
6.44025e-06;0.0004839525537498687
6.44050e-06;0.000508272783984866
6.44075e-06;0.0005312067576052012
6.44100e-06;0.0005541407312256142
6.44125e-06;0.0005770161056983234
6.44150e-06;0.0005998354645538094
6.44175e-06;0.0006226548234093726
6.44200e-06;0.0006454741822648585
6.44225e-06;0.0006682935411203444
6.44250e-06;0.0006912927447596994
6.44275e-06;0.0007144638641516175
6.44300e-06;0.0007376349835436142
6.44325e-06;0.0007608061029355324
6.44350e-06;0.0007839772223274505
6.44375e-06;0.0008083933654042176
