Time(s);Current(A)
0.00000e+00;2.3155917968811862e-20
2.50000e-10;1.9438154985265733e-14
5.00000e-10;1.862645116544645e-14
7.50000e-10;-3.658189512106805e-07
1.00000e-09;-2.4291165210272866e-06
1.25000e-09;-7.130203322708655e-06
1.50000e-09;-1.3441621636127269e-05
1.75000e-09;-1.99764124596957e-05
2.00000e-09;-2.6332235584747373e-05
2.25000e-09;-3.247447228755218e-05
2.50000e-09;-3.836850606936793e-05
2.75000e-09;-4.42088572583513e-05
3.00000e-09;-5.0795008261527304e-05
3.25000e-09;-5.8681233000763014e-05
3.50000e-09;-6.718920208483862e-05
3.75000e-09;-7.541546168653374e-05
4.00000e-09;-8.30733774598991e-05
4.25000e-09;-9.010667488796121e-05
4.50000e-09;-9.645907669935979e-05
4.75000e-09;-0.00010223899911045061
5.00000e-09;-0.00010785867592323536
5.25000e-09;-0.00011360630984033864
5.50000e-09;-0.00011941162543569167
5.75000e-09;-0.00012485402561525908
6.00000e-09;-0.00013013282745179817
6.25000e-09;-0.00013541162928833723
6.50000e-09;-0.00014052248470890658
6.75000e-09;-0.00014555763170218109
7.00000e-09;-0.0001505927786954556
7.25000e-09;-0.00015621037402457541
7.50000e-09;-0.00016209053076194418
7.75000e-09;-0.0001679706874993129
8.00000e-09;-0.0001738508442366817
8.25000e-09;-0.00017973100097405046
8.50000e-09;-0.0001856111577114192
8.75000e-09;-0.00019149131444878799
9.00000e-09;-0.00019737147118615675
9.25000e-09;-0.0002034395004379132
9.50000e-09;-0.00021031222105713854
9.75000e-09;-0.00021718494167636385
1.00000e-08;-0.00022405766229558914
1.02500e-08;-0.00023093038291481448
1.05000e-08;-0.0002378031035340398
1.07500e-08;-0.0002446758241532651
1.10000e-08;-0.0002515485447724904
1.12500e-08;-0.00025842126539171576
1.15000e-08;-0.00026546671491481816
1.17500e-08;-0.00027259002875902215
1.20000e-08;-0.00027971334260322607
1.22500e-08;-0.00028683665644743
1.25000e-08;-0.00029395997029163393
1.27500e-08;-0.00030108328413583785
1.30000e-08;-0.0003082065979800418
1.32500e-08;-0.00031509766045612053
1.35000e-08;-0.00032099394904724714
1.37500e-08;-0.00032689023763837375
1.40000e-08;-0.0003327865262295003
1.42500e-08;-0.0003386828148206269
1.45000e-08;-0.00034457910341175347
1.47500e-08;-0.0003504753920028801
1.50000e-08;-0.0003563716805940067
1.52500e-08;-0.0003616052121686508
1.55000e-08;-0.00036653998005068
1.57500e-08;-0.0003714747479327093
1.60000e-08;-0.0003780243745257472
1.62500e-08;-0.0003853019619544362
1.65000e-08;-0.00039405144225105015
1.67500e-08;-0.0004034644359280106
1.70000e-08;-0.0004141314232697749
1.72500e-08;-0.0004253636973885859
1.75000e-08;-0.0004380527486462155
1.77500e-08;-0.00045139849927704873
1.80000e-08;-0.00046679920669945963
1.82500e-08;-0.00048312626641078927
1.85000e-08;-0.0005016550235097466
1.87500e-08;-0.0005211762819707256
1.90000e-08;-0.0005406975404317042
1.92500e-08;-0.0005623457401230255
1.95000e-08;-0.0005849527419094565
1.97500e-08;-0.0006075597436958871
2.00000e-08;-0.0006323889348636842
2.02500e-08;-0.0006582198649625758
2.05000e-08;-0.000684050795061467
2.07500e-08;-0.0007117662931470895
2.10000e-08;-0.0007403313340918549
2.12500e-08;-0.0007688963750366198
2.15000e-08;-0.0007974614159813848
2.17500e-08;-0.0008260264569261502
2.20000e-08;-0.0008545914978709153
2.22500e-08;-0.0008833865680487057
2.25000e-08;-0.0009122853329160416
2.27500e-08;-0.0009411840977833772
2.30000e-08;-0.0009700828626507127
2.32500e-08;-0.0009989816275180487
2.35000e-08;-0.0010278803923853843
2.37500e-08;-0.0010538689458153368
2.40000e-08;-0.0010785456074151032
2.42500e-08;-0.0011032222690148692
2.45000e-08;-0.0011278989306146355
2.47500e-08;-0.0011525755922144015
2.50000e-08;-0.0011754061295341186
2.52500e-08;-0.0011903293884726913
2.55000e-08;-0.001205252647411264
2.57500e-08;-0.0012201759063498368
2.60000e-08;-0.0012350991652884092
2.62500e-08;-0.0012500224242269818
2.65000e-08;-0.001257222065042539
2.67500e-08;-0.0012609399823706184
2.70000e-08;-0.001264657899698698
2.72500e-08;-0.001262652636213934
2.75000e-08;-0.0012580674247382438
2.77500e-08;-0.0012534822132625534
2.80000e-08;-0.0012429388166901403
2.82500e-08;-0.0012297095347381564
2.85000e-08;-0.0012164802527861727
2.87500e-08;-0.0011978732083370764
2.90000e-08;-0.0011768419267366805
2.92500e-08;-0.0011558106451362848
2.95000e-08;-0.0011300053475327124
2.97500e-08;-0.0011020479751653305
3.00000e-08;-0.001074090602797948
3.02500e-08;-0.0010421058732692392
3.05000e-08;-0.0010083056547044707
3.07500e-08;-0.000974505436139702
3.10000e-08;-0.0009373493496250824
3.12500e-08;-0.0008986804741460455
3.15000e-08;-0.0008600115986670093
3.17500e-08;-0.0008213427231879733
3.20000e-08;-0.0007822188572782742
3.22500e-08;-0.0007411461864940128
3.25000e-08;-0.0007000735157097514
3.27500e-08;-0.00065900084492549
3.30000e-08;-0.0006179281741412276
3.32500e-08;-0.0005778264451589464
3.35000e-08;-0.0005381624062363087
3.37500e-08;-0.000498498367313671
3.40000e-08;-0.00046073649294540184
3.42500e-08;-0.00042383209377858686
3.45000e-08;-0.0003886027721674899
3.47500e-08;-0.00035549322588134
3.50000e-08;-0.0003245497693056653
3.52500e-08;-0.00029601732593437854
3.55000e-08;-0.00026992494630083527
3.57500e-08;-0.00024599810465686584
3.60000e-08;-0.00022398611906039134
3.62500e-08;-0.0002038738849926907
3.65000e-08;-0.00018575857469643216
3.67500e-08;-0.00016975104564902825
3.70000e-08;-0.00015596235946914878
3.72500e-08;-0.0001444877756196781
3.75000e-08;-0.00013528734401798973
3.77500e-08;-0.00012813094151043326
3.80000e-08;-0.00012280343357662336
3.82500e-08;-0.00011923724236469884
3.85000e-08;-0.00011743511537933391
3.87500e-08;-0.00011740838954969441
3.90000e-08;-0.00011916849561241424
3.92500e-08;-0.00012271699049636349
3.95000e-08;-0.00012797072106278994
3.97500e-08;-0.0001347274206884538
4.00000e-08;-0.00014279423546872494
4.02500e-08;-0.0001520707549883305
4.05000e-08;-0.00016250061672303884
4.07500e-08;-0.00017403282624031842
4.10000e-08;-0.00018661647387196501
4.12500e-08;-0.0002004849611299475
4.15000e-08;-0.0002147875802225796
4.17500e-08;-0.00023011839488063014
4.20000e-08;-0.0002459127089754497
4.22500e-08;-0.0002617070230702688
4.25000e-08;-0.0002781071699706726
4.27500e-08;-0.0002947804197452851
4.30000e-08;-0.0003114536695198976
4.32500e-08;-0.00032812691929451007
4.35000e-08;-0.00034432045781482014
4.37500e-08;-0.00036029774769172075
4.40000e-08;-0.00037627503756862136
4.42500e-08;-0.000392252327445522
4.45000e-08;-0.0004065922806094705
4.47500e-08;-0.0004201941400976846
4.50000e-08;-0.000433795999585899
4.52500e-08;-0.00044556449933931417
4.55000e-08;-0.00045650654035953367
4.57500e-08;-0.00046744858137975323
4.60000e-08;-0.00047694962967989016
4.62500e-08;-0.0004858010940520184
4.65000e-08;-0.0004946525584241469
4.67500e-08;-0.0005035040227962752
4.70000e-08;-0.0005123554871684034
4.72500e-08;-0.0005212069515405317
4.75000e-08;-0.0005300584159126599
4.77500e-08;-0.0005389098802847882
4.80000e-08;-0.0005473608263487736
4.82500e-08;-0.0005540962813196347
4.85000e-08;-0.0005608317362904958
4.87500e-08;-0.0005675671912613571
4.90000e-08;-0.0005743026462322182
4.92500e-08;-0.0005810381012030794
4.95000e-08;-0.0005877735561739405
4.97500e-08;-0.0005945090111448019
5.00000e-08;-0.0006012444661156631
5.02500e-08;-0.0006071768192205868
5.05000e-08;-0.0006127471426931632
5.07500e-08;-0.0006183174661657398
5.10000e-08;-0.0006238877896383163
5.12500e-08;-0.0006294581131108929
5.15000e-08;-0.0006350284365834693
5.17500e-08;-0.0006405987600560458
5.20000e-08;-0.0006461690835286223
5.22500e-08;-0.0006517394070011987
5.25000e-08;-0.0006573097304737752
5.27500e-08;-0.0006625757314493248
5.30000e-08;-0.0006665382650864965
5.32500e-08;-0.0006705007987236682
5.35000e-08;-0.00067446333236084
5.37500e-08;-0.0006784258659980117
5.40000e-08;-0.0006823883996351834
5.42500e-08;-0.0006863509332723552
5.45000e-08;-0.0006903134669095268
5.47500e-08;-0.0006942760005466985
5.50000e-08;-0.0006982385341838702
5.52500e-08;-0.0007022010678210419
5.55000e-08;-0.0007023773838515485
5.57500e-08;-0.0007008469139483341
5.60000e-08;-0.0006993164440451197
5.62500e-08;-0.0006977859741419053
5.65000e-08;-0.000696255504238691
5.67500e-08;-0.0006947250343354765
5.70000e-08;-0.0006931945644322622
5.72500e-08;-0.0006916640945290477
5.75000e-08;-0.0006901336246258333
5.77500e-08;-0.0006886031547226189
5.80000e-08;-0.0006870726848194045
5.82500e-08;-0.0006795402792806131
5.85000e-08;-0.0006693022660926818
5.87500e-08;-0.0006590642529047503
5.90000e-08;-0.000648826239716819
5.92500e-08;-0.0006385882265288877
5.95000e-08;-0.0006283502133409564
5.97500e-08;-0.0006181122001530251
6.00000e-08;-0.0006078741869650936
6.02500e-08;-0.0005976361737771626
6.05000e-08;-0.000587398160589231
6.07500e-08;-0.0005771601474013
6.10000e-08;-0.0005639149524452103
6.12500e-08;-0.0005493141524829529
6.15000e-08;-0.0005347133525206964
6.17500e-08;-0.000520112552558439
6.20000e-08;-0.0005055117525961824
6.22500e-08;-0.0004909109526339251
6.25000e-08;-0.0004762039179500085
6.27500e-08;-0.0004614489938029299
6.30000e-08;-0.0004466940696558505
6.32500e-08;-0.0004319391455087719
6.35000e-08;-0.0004171842213616925
6.37500e-08;-0.0004024292972146139
6.40000e-08;-0.0003888025260307021
6.42500e-08;-0.0003756843139970181
6.45000e-08;-0.00036256610196333473
6.47500e-08;-0.0003506276857930117
6.50000e-08;-0.000339221108833596
6.52500e-08;-0.0003290778236683015
6.55000e-08;-0.0003195040167761529
6.57500e-08;-0.00031145162256254446
6.60000e-08;-0.0003040850647241492
6.62500e-08;-0.00029834139655923037
6.65000e-08;-0.00029332930950095443
6.67500e-08;-0.00028997598062795545
6.70000e-08;-0.00028737040199865535
6.72500e-08;-0.0002864615965601482
6.75000e-08;-0.00028631767811853964
6.77500e-08;-0.0002878982065880982
6.80000e-08;-0.00029025609706829613
6.82500e-08;-0.00029426797128980647
6.85000e-08;-0.00029902544348733157
6.87500e-08;-0.00030532535196539255
6.90000e-08;-0.0003123205740309903
6.92500e-08;-0.00032074804904319375
6.95000e-08;-0.0003298211681880805
6.97500e-08;-0.0003402098673127754
7.00000e-08;-0.00035119161565901476
7.02500e-08;-0.0003635527302889531
7.05000e-08;-0.0003765356483161199
7.07500e-08;-0.00038951856634328747
7.10000e-08;-0.0004040879377538423
7.12500e-08;-0.0004193724651856771
7.15000e-08;-0.00043465699261751103
7.17500e-08;-0.0004499415200493458
7.20000e-08;-0.00046522604748118056
7.22500e-08;-0.00048066581115423625
7.25000e-08;-0.0004967704792367363
7.27500e-08;-0.0005128751473192357
7.30000e-08;-0.0005289798154017358
7.32500e-08;-0.0005450844834842359
7.35000e-08;-0.0005611891515667352
7.37500e-08;-0.0005751326178017052
7.40000e-08;-0.0005881018376260038
7.42500e-08;-0.000601071057450303
7.45000e-08;-0.0006140402772746014
7.47500e-08;-0.0006270094970989007
7.50000e-08;-0.0006399787169231999
7.52500e-08;-0.0006529479367474984
7.55000e-08;-0.0006659171565717977
7.57500e-08;-0.0006737537889521541
7.60000e-08;-0.0006792767064426067
7.62500e-08;-0.0006847996239330592
7.65000e-08;-0.0006903225414235115
7.67500e-08;-0.0006958454589139641
7.70000e-08;-0.0007013683764044164
7.72500e-08;-0.0007068912938948689
7.75000e-08;-0.0007124142113853211
7.77500e-08;-0.0007140743228588204
7.80000e-08;-0.0007139931231718461
7.82500e-08;-0.0007139119234848718
7.85000e-08;-0.0007106736768902089
7.87500e-08;-0.0007060122677058724
7.90000e-08;-0.0007013508585215358
7.92500e-08;-0.0006966894493371991
7.95000e-08;-0.0006920280401528627
7.97500e-08;-0.000687366630968526
8.00000e-08;-0.0006827052217841896
8.02500e-08;-0.0006771683788498161
8.05000e-08;-0.0006678818975835962
8.07500e-08;-0.0006585954163173756
8.10000e-08;-0.0006493089350511552
8.12500e-08;-0.0006400224537849353
8.15000e-08;-0.0006307359725187149
8.17500e-08;-0.0006214494912524949
8.20000e-08;-0.0006121630099862745
8.22500e-08;-0.0006018783971060978
8.25000e-08;-0.0005911438372932043
8.27500e-08;-0.0005804092774803108
8.30000e-08;-0.000569674717667418
8.32500e-08;-0.0005589401578545244
8.35000e-08;-0.0005482055980416316
8.37500e-08;-0.000538418036484
8.40000e-08;-0.0005290573714942007
8.42500e-08;-0.000519696706504402
8.45000e-08;-0.0005103360415146028
8.47500e-08;-0.0005009753765248039
8.50000e-08;-0.0004916147115350047
8.52500e-08;-0.00048418931457974766
8.55000e-08;-0.0004776363155166631
8.57500e-08;-0.00047108331645357864
8.60000e-08;-0.00046667871687108847
8.62500e-08;-0.00046324259253076777
8.65000e-08;-0.0004598064681904473
8.67500e-08;-0.00045861880604708655
8.70000e-08;-0.00045844472633584804
8.72500e-08;-0.0004582706466246095
8.75000e-08;-0.00046002696354395154
8.77500e-08;-0.0004626534823792651
8.80000e-08;-0.0004672928673373366
8.82500e-08;-0.00047283963056620983
8.85000e-08;-0.0004783863937950833
8.87500e-08;-0.0004861001661369784
8.90000e-08;-0.0004947908027420023
8.92500e-08;-0.0005034814393470266
8.95000e-08;-0.0005140941173056928
8.97500e-08;-0.0005255732307118842
9.00000e-08;-0.0005370523441180754
9.02500e-08;-0.0005507400323847431
9.05000e-08;-0.0005654233223037916
9.07500e-08;-0.0005801066122228394
9.10000e-08;-0.000594789902141888
9.12500e-08;-0.0006094731920609358
9.15000e-08;-0.0006241564819799843
9.17500e-08;-0.0006401959881477076
9.20000e-08;-0.0006568468619273364
9.22500e-08;-0.0006734977357069661
9.25000e-08;-0.0006901486094865949
9.27500e-08;-0.0007067994832662245
9.30000e-08;-0.0007234503570458542
9.32500e-08;-0.0007389269650253726
9.35000e-08;-0.0007538742266866638
9.37500e-08;-0.0007688214883479541
9.40000e-08;-0.0007837687500092453
9.42500e-08;-0.0007987160116705355
9.45000e-08;-0.0008136632733318266
9.47500e-08;-0.0008286105349931178
9.50000e-08;-0.0008408706272513147
9.52500e-08;-0.0008519193726152654
9.55000e-08;-0.0008629681179792156
9.57500e-08;-0.0008740168633431663
9.60000e-08;-0.000885065608707117
9.62500e-08;-0.0008961143540710671
9.65000e-08;-0.0009071630994350178
9.67500e-08;-0.0009181710368997606
9.70000e-08;-0.0009291605786050444
9.72500e-08;-0.0009401501203103277
9.75000e-08;-0.0009511396620156115
9.77500e-08;-0.0009621292037208954
9.80000e-08;-0.0009731187454261787
9.82500e-08;-0.0009841082871314625
9.85000e-08;-0.0009950978288367459
9.87500e-08;-0.0010060873705420297
9.90000e-08;-0.001017076912247313
9.92500e-08;-0.0010280664539525969
9.95000e-08;-0.001039055995657881
9.97500e-08;-0.001050045537363164
1.00000e-07;-0.0010612617508241231
1.00250e-07;-0.0010734488396983257
1.00500e-07;-0.001085635928572529
1.00750e-07;-0.001097823017446732
1.01000e-07;-0.0011100101063209345
1.01250e-07;-0.0011221971951951377
1.01500e-07;-0.00113438428406934
1.01750e-07;-0.0011465713729435433
1.02000e-07;-0.001158758461817746
1.02250e-07;-0.0011709455506919491
1.02500e-07;-0.0011831326395661521
1.02750e-07;-0.0011953197284403547
1.03000e-07;-0.001207506817314558
1.03250e-07;-0.0012196939061887603
1.03500e-07;-0.0012306612522214135
1.03750e-07;-0.0012410787513775746
1.04000e-07;-0.001251496250533735
1.04250e-07;-0.0012619137496898958
1.04500e-07;-0.0012723312488460562
1.04750e-07;-0.0012818548963851389
1.05000e-07;-0.0012875500185946008
1.05250e-07;-0.0012932451408040632
1.05500e-07;-0.0012989402630135254
1.05750e-07;-0.0013046353852229874
1.06000e-07;-0.0013103305074324497
1.06250e-07;-0.0013092757646542184
1.06500e-07;-0.0013051782557667684
1.06750e-07;-0.0013010807468793184
1.07000e-07;-0.0012918206598179975
1.07250e-07;-0.0012802333383701678
1.07500e-07;-0.0012686460169223388
1.07750e-07;-0.0012521065004323074
1.08000e-07;-0.001233334587995376
1.08250e-07;-0.0012094359257749958
1.08500e-07;-0.0011832261802188796
1.08750e-07;-0.0011570164346627648
1.09000e-07;-0.001125673720509634
1.09250e-07;-0.0010920171196468944
1.09500e-07;-0.001058360518784153
1.09750e-07;-0.0010199083701121416
1.10000e-07;-0.0009792944403710592
1.10250e-07;-0.0009386805106299746
1.10500e-07;-0.0008942309236709658
1.10750e-07;-0.0008480522639363391
1.11000e-07;-0.000801873604201715
1.11250e-07;-0.0007530645000053877
1.11500e-07;-0.0007030696199046755
1.11750e-07;-0.0006530747398039659
1.12000e-07;-0.0006030798597032538
1.12250e-07;-0.0005520975674177186
1.12500e-07;-0.0005006701604021379
1.12750e-07;-0.00044924275338655993
1.13000e-07;-0.00039781534637097925
1.13250e-07;-0.00034760194705199386
1.13500e-07;-0.00029793580926820837
1.13750e-07;-0.00024946447608654044
1.14000e-07;-0.00020253851362730995
1.14250e-07;-0.00015729502722290604
1.14500e-07;-0.00011406391446823668
1.14750e-07;-7.31786006821235e-05
1.15000e-07;-3.497247137283667e-05
1.15250e-07;2.724086505874461e-07
1.15500e-07;3.270381050828957e-05
1.15750e-07;6.304518904103191e-05
1.16000e-07;9.190288873374551e-05
1.16250e-07;0.0001193562702060752
1.16500e-07;0.00014524325547904084
1.16750e-07;0.0001693731359084243
1.17000e-07;0.00019155524325775936
1.17250e-07;0.00021163108564842007
1.17500e-07;0.00022971142256789854
1.17750e-07;0.0002462675757366403
1.18000e-07;0.00026169749925204045
1.18250e-07;0.00027606901258849886
1.18500e-07;0.0002888593932352426
1.18750e-07;0.0003010871638748254
1.19000e-07;0.0003114281665388025
1.19250e-07;0.00032091863461243905
1.19500e-07;0.0003287097015450424
1.19750e-07;0.0003357346968291974
1.20000e-07;0.0003417304283162552
1.20250e-07;0.00034726217881925133
1.20500e-07;0.0003514838961229338
1.20750e-07;0.00035511506463369903
1.21000e-07;0.00035874623314446387
1.21250e-07;0.0003607626699952579
1.21500e-07;0.00036205120328362247
1.21750e-07;0.0003633397365719872
1.22000e-07;0.0003637786863105204
1.22250e-07;0.0003638346529764887
1.22500e-07;0.000363890619642457
1.22750e-07;0.00036307607678528483
1.23000e-07;0.00036186911765317975
1.23250e-07;0.0003606621585210746
1.23500e-07;0.00035945519938896937
1.23750e-07;0.0003582482402568643
1.24000e-07;0.0003568335446666492
1.24250e-07;0.0003553252037286323
1.24500e-07;0.00035381686279061555
1.24750e-07;0.00035230852185259875
1.25000e-07;0.00035080018091458183
1.25250e-07;0.00034929973786979545
1.25500e-07;0.0003478028551098295
1.25750e-07;0.00034524814213173323
1.26000e-07;0.00034100065225882155
1.26250e-07;0.0003344528687082265
1.26500e-07;0.00032711522552539003
1.26750e-07;0.0003181745226600873
1.27000e-07;0.00030754182528391796
1.27250e-07;0.000295552191132386
1.27500e-07;0.00028208555383200473
1.27750e-07;0.0002667722280012645
1.28000e-07;0.0002493492276530063
1.28250e-07;0.00022984410157673885
1.28500e-07;0.00020841102429323976
1.28750e-07;0.00018521873528993098
1.29000e-07;0.000160435968545454
1.29250e-07;0.00013421566575469654
1.29500e-07;0.00010658357840658916
1.29750e-07;7.740911102601706e-05
1.30000e-07;4.662852547367411e-05
1.30250e-07;1.436007579290145e-05
1.30500e-07;-1.919867083197863e-05
1.30750e-07;-5.384104289072872e-05
1.31000e-07;-8.936039984773339e-05
1.31250e-07;-0.00012574518261043
1.31500e-07;-0.00016240624465079623
1.31750e-07;-0.00019990399790491186
1.32000e-07;-0.00023777892250597155
1.32250e-07;-0.00027565384710702726
1.32500e-07;-0.00031352877170808295
1.32750e-07;-0.00035140369630914264
1.33000e-07;-0.0003892786209101983
1.33250e-07;-0.00042585607699010164
1.33500e-07;-0.0004618486482980687
1.33750e-07;-0.0004978412196060397
1.34000e-07;-0.0005320289441050751
1.34250e-07;-0.0005654030631894035
1.34500e-07;-0.0005966326946274837
1.34750e-07;-0.0006268956142359873
1.35000e-07;-0.000654365143093531
1.35250e-07;-0.0006805754416224258
1.35500e-07;-0.0007043962646850036
1.35750e-07;-0.0007271399380592591
1.36000e-07;-0.0007498836114335146
1.36250e-07;-0.0007708494221973293
1.36500e-07;-0.0007910137917311706
1.36750e-07;-0.0008111781612650118
1.37000e-07;-0.000831342530798853
1.37250e-07;-0.0008515069003326964
1.37500e-07;-0.0008716712698665377
1.37750e-07;-0.0008913931560518575
1.38000e-07;-0.0009092198074181438
1.38250e-07;-0.0009270464587844281
1.38500e-07;-0.0009448731101507126
1.38750e-07;-0.0009626997615169989
1.39000e-07;-0.0009805264128832833
1.39250e-07;-0.0009983530642495677
1.39500e-07;-0.001015324061860538
1.39750e-07;-0.0010319093400159912
1.40000e-07;-0.0010484946181714427
1.40250e-07;-0.001065079896326894
1.40500e-07;-0.0010816651744823473
1.40750e-07;-0.0010982504526377988
1.41000e-07;-0.0011148357307932504
1.41250e-07;-0.0011314210089487017
1.41500e-07;-0.001148006287104155
1.41750e-07;-0.0011645915652596065
1.42000e-07;-0.001181176843415058
1.42250e-07;-0.0011956362867175602
