Time(s);Current(A)
1.12500e-05;-0.003635728092874728
1.12503e-05;-0.003687857709835611
1.12505e-05;-0.0037399873267961407
1.12508e-05;-0.003790547343157024
1.12510e-05;-0.0038300811715421984
1.12513e-05;-0.0038685641942720977
1.12515e-05;-0.003899665478820738
1.12518e-05;-0.003930766763369378
1.12520e-05;-0.003960675785702612
1.12523e-05;-0.003982209360611584
1.12525e-05;-0.004003742935520555
1.12527e-05;-0.004024185419176316
1.12530e-05;-0.00403696316490004
1.12533e-05;-0.004049146128655785
1.12535e-05;-0.00405715084618455
1.12538e-05;-0.004064669873462472
1.12540e-05;-0.0040687770060165405
1.12542e-05;-0.004072365053488212
1.12545e-05;-0.004072306612996654
1.12548e-05;-0.004071741563337149
1.12550e-05;-0.004067617666976738
1.12553e-05;-0.004063193536284419
1.12555e-05;-0.004056660308423469
1.12558e-05;-0.0040499258411610525
1.12560e-05;-0.004041777699955797
1.12563e-05;-0.004033438009943042
1.12565e-05;-0.004023752720828329
1.12568e-05;-0.004013914355144759
1.12570e-05;-0.004003000651554127
1.12573e-05;-0.003992093795209566
1.12575e-05;-0.003981235039650911
1.12578e-05;-0.0039704757432427185
1.12580e-05;-0.003960415131130435
1.12583e-05;-0.003950452121288461
1.12585e-05;-0.003941251811993463
1.12588e-05;-0.003932643730481422
1.12590e-05;-0.003924291537624598
1.12593e-05;-0.003914915798164895
1.12595e-05;-0.0039029768622945876
1.12598e-05;-0.0038879555248067343
1.12600e-05;-0.0038698925838981262
1.12603e-05;-0.003848400220013081
1.12605e-05;-0.003826341028912882
1.12608e-05;-0.0038002999691580932
1.12610e-05;-0.003773779065424074
1.12612e-05;-0.00374297125578406
1.12615e-05;-0.0037057281316864744
1.12618e-05;-0.0036684850075888887
1.12620e-05;-0.003630391171195187
1.12623e-05;-0.0035859633641467403
1.12625e-05;-0.0035387045012233074
1.12627e-05;-0.0034889272874817534
1.12630e-05;-0.0034367984670966227
1.12633e-05;-0.0033821148176396885
1.12635e-05;-0.003324571025924132
1.12638e-05;-0.003264262255207866
1.12640e-05;-0.003201563240285857
1.12643e-05;-0.003136862575502769
1.12645e-05;-0.0030705488552033172
1.12648e-05;-0.003003001998618252
1.12650e-05;-0.0029345099680262465
1.12653e-05;-0.0028651291219456295
1.12655e-05;-0.002794851618772261
1.12658e-05;-0.0027239206604104697
1.12660e-05;-0.002652754872754989
1.12663e-05;-0.0025817810633884247
1.12665e-05;-0.0025114262146979653
1.12668e-05;-0.0024421116796817955
1.12670e-05;-0.0023742012873766653
1.12673e-05;-0.0023079139252505593
1.12675e-05;-0.0022434282575041087
1.12678e-05;-0.0021810797738270006
1.12680e-05;-0.0021213141389235593
1.12683e-05;-0.0020645821419340176
1.12685e-05;-0.002011334717786869
1.12688e-05;-0.0019620252661396685
1.12690e-05;-0.0019171318036263225
1.12693e-05;-0.001877150344112491
1.12695e-05;-0.0018424558332091944
1.12697e-05;-0.0018135552845259296
1.12700e-05;-0.0017919013943818497
1.12703e-05;-0.0017716459599515734
1.12705e-05;-0.0017612144486239844
1.12708e-05;-0.0017522139391892562
1.12710e-05;-0.0017532659844526099
1.12712e-05;-0.0017557680066043353
1.12715e-05;-0.0017684558796996525
1.12718e-05;-0.0017825260188338422
1.12720e-05;-0.0018063063512464936
1.12723e-05;-0.001831373262335472
1.12725e-05;-0.001865478178602569
1.12728e-05;-0.001901055799199151
1.12730e-05;-0.0019469789273020564
1.12733e-05;-0.0019929020554052728
1.12735e-05;-0.0020401288923891413
1.12738e-05;-0.002096514071439026
1.12740e-05;-0.0021537497451819933
1.12743e-05;-0.0022169600053050078
1.12745e-05;-0.002280847968705299
1.12748e-05;-0.0023494966870027806
1.12750e-05;-0.002418652928400924
1.12753e-05;-0.0024913744367320283
1.12755e-05;-0.002564410425148677
1.12758e-05;-0.0026396555848268383
1.12760e-05;-0.0027149957355367253
1.12763e-05;-0.002791003182742209
1.12765e-05;-0.0028668843911018598
1.12768e-05;-0.002941878792176298
1.12770e-05;-0.0030165273638044893
1.12773e-05;-0.003088746540022403
1.12775e-05;-0.0031603860214249623
1.12778e-05;-0.0032279532413826716
1.12780e-05;-0.0032946903488104465
1.12782e-05;-0.003355596051222162
1.12785e-05;-0.003415134780262456
1.12788e-05;-0.003465070744509047
1.12790e-05;-0.0035150067087552994
1.12793e-05;-0.003563298540904695
1.12795e-05;-0.0036000406134571376
1.12797e-05;-0.0036367826860093312
1.12800e-05;-0.0036718458583155336
1.12803e-05;-0.003695115030452516
1.12805e-05;-0.003718384202589498
1.12808e-05;-0.003739871224199193
1.12810e-05;-0.0037488389292701855
1.12813e-05;-0.0037578066343411784
1.12815e-05;-0.003765196136236545
1.12818e-05;-0.0037614990184459485
1.12820e-05;-0.0037578019006553522
1.12823e-05;-0.00375285723494221
1.12825e-05;-0.0037391487487204327
1.12828e-05;-0.003724488945009416
1.12830e-05;-0.003703146291228385
1.12833e-05;-0.003681180131863155
1.12835e-05;-0.0036544702311235334
1.12838e-05;-0.003624863993067507
1.12840e-05;-0.0035925406704383415
1.12843e-05;-0.0035576744205576883
1.12845e-05;-0.0035204394007472654
1.12848e-05;-0.0034810132499785485
1.12850e-05;-0.0034396118757976163
1.12853e-05;-0.0033965582413488923
1.12855e-05;-0.0033522375324857756
1.12858e-05;-0.0033069683745122172
1.12860e-05;-0.0032610107826712
1.12863e-05;-0.0032146211615282677
1.12865e-05;-0.0031680562942699286
1.12867e-05;-0.0031215749362973875
1.12870e-05;-0.0030754598043901864
1.12873e-05;-0.0030300608235496428
1.12875e-05;-0.002985766749763057
1.12878e-05;-0.002942924633317876
1.12880e-05;-0.002901990341441126
1.12882e-05;-0.002863858735607615
1.12885e-05;-0.0028263770088604876
1.12888e-05;-0.0027934605766139218
1.12890e-05;-0.002761104356445771
1.12893e-05;-0.0027326835346823883
1.12895e-05;-0.002704601303433599
1.12898e-05;-0.0026788976152814646
1.12900e-05;-0.0026536467999217885
1.12903e-05;-0.002631577342003383
1.12905e-05;-0.0026095078840849776
1.12908e-05;-0.00259035654784021
1.12910e-05;-0.0025729589764851056
1.12913e-05;-0.002555998226546159
1.12915e-05;-0.0025421060757517865
1.12918e-05;-0.00252821392495732
1.12920e-05;-0.0025149385635019764
1.12923e-05;-0.0025059960464734236
1.12925e-05;-0.00249705352944481
1.12928e-05;-0.0024881110124161964
1.12930e-05;-0.0024791684953876436
1.12933e-05;-0.00247022597835903
1.12935e-05;-0.0024644229842295685
1.12938e-05;-0.002460506815136181
1.12940e-05;-0.0024565906460427673
1.12943e-05;-0.002452674476949354
1.12945e-05;-0.0024487583078559665
1.12948e-05;-0.0024453094787546723
1.12950e-05;-0.0024451436368133493
1.12952e-05;-0.0024449777948720277
1.12955e-05;-0.0024448119529307047
1.12958e-05;-0.0024446461109893817
1.12960e-05;-0.00244448026904806
1.12963e-05;-0.002444314427106737
1.12965e-05;-0.0024443478267621773
1.12967e-05;-0.0024457808661123397
1.12970e-05;-0.0024472139054625116
1.12973e-05;-0.002448646944812683
1.12975e-05;-0.002450079984162855
1.12978e-05;-0.0024515130235130173
1.12980e-05;-0.002452946062863189
1.12983e-05;-0.002454351311181401
1.12985e-05;-0.002455561332036462
1.12988e-05;-0.0024567663625257624
1.12990e-05;-0.002458143625278918
1.12993e-05;-0.0024609770577968446
1.12995e-05;-0.002464317389619069
1.12998e-05;-0.0024712186063122915
1.13000e-05;-0.002478804808734622
1.13003e-05;-0.002491202924093869
1.13005e-05;-0.0025036010394531155
1.13008e-05;-0.002515999154812278
1.13010e-05;-0.002529427011838049
1.13013e-05;-0.002550088635986537
1.13015e-05;-0.002570750260134885
1.13018e-05;-0.002591411884283373
1.13020e-05;-0.002613276604379861
1.13023e-05;-0.0026435928771301525
1.13025e-05;-0.0026739091498806495
1.13028e-05;-0.002704225422631146
1.13030e-05;-0.002734541695381438
1.13033e-05;-0.002765940854292332
1.13035e-05;-0.002804947111722051
1.13037e-05;-0.0028439533691515056
1.13040e-05;-0.0028829596265812244
1.13043e-05;-0.0029219658840109433
1.13045e-05;-0.0029615285208013315
1.13048e-05;-0.0030049996317860145
1.13050e-05;-0.0030484707427706976
1.13052e-05;-0.003092154872740284
1.13055e-05;-0.0031373354263106736
1.13058e-05;-0.0031825159798810634
1.13060e-05;-0.00322767449266932
1.13063e-05;-0.0032726781725604423
1.13065e-05;-0.00331768185245187
1.13068e-05;-0.003362379882111397
1.13070e-05;-0.003404930768781857
1.13073e-05;-0.0034474816554526055
1.13075e-05;-0.00348962160097657
1.13078e-05;-0.0035288747520205535
1.13080e-05;-0.003567781594891702
1.13083e-05;-0.003603975725656622
1.13085e-05;-0.0036378864841000707
1.13088e-05;-0.003668955123541575
1.13090e-05;-0.003695689087291878
1.13093e-05;-0.0037212166881459108
1.13095e-05;-0.003738269786563787
1.13098e-05;-0.0037539839292276733
1.13100e-05;-0.0037602921262714878
1.13103e-05;-0.003764969281259709
1.13105e-05;-0.0037581886320347765
1.13108e-05;-0.0037514079828098903
1.13110e-05;-0.0037425448616882507
1.13113e-05;-0.0037190527154048096
1.13115e-05;-0.0036955605691215278
1.13118e-05;-0.003670277418282942
1.13120e-05;-0.0036324127527821225
1.13122e-05;-0.0035935745452580123
1.13125e-05;-0.0035472970113177194
1.13128e-05;-0.00349623104959093
1.13130e-05;-0.0034405873314193878
1.13133e-05;-0.0033803981236631836
1.13135e-05;-0.003315683058735366
1.13137e-05;-0.0032467104624420632
1.13140e-05;-0.0031739076044241376
1.13143e-05;-0.0030977099947613112
1.13145e-05;-0.003018552444320304
1.13148e-05;-0.0029368659370352474
1.13150e-05;-0.0028530335558877226
1.13153e-05;-0.0027673270264897635
1.13155e-05;-0.0026800103748470822
1.13158e-05;-0.0025915025063705864
1.13160e-05;-0.0025023229808406604
1.13163e-05;-0.002412995492402994
1.13165e-05;-0.0023240441138214847
1.13168e-05;-0.0022359898416832702
1.13170e-05;-0.0021493239201644627
1.13173e-05;-0.0020644678096693506
1.13175e-05;-0.001981837888531553
1.13178e-05;-0.0019019481614021615
1.13180e-05;-0.0018253746643581655
1.13183e-05;-0.0017526967819499648
1.13185e-05;-0.0016844937823125258
1.13188e-05;-0.0016213034870709673
1.13190e-05;-0.0015632192302554757
1.13193e-05;-0.001509167880659299
1.13195e-05;-0.0014576180445934502
1.13198e-05;-0.0014080903858651598
1.13200e-05;-0.0013608927759720052
1.13203e-05;-0.0013165811450898293
1.13205e-05;-0.0012763388712636772
1.13207e-05;-0.0012367367061414337
1.13210e-05;-0.0012019847472878205
1.13213e-05;-0.001169938107742329
1.13215e-05;-0.0011396227418519547
1.13218e-05;-0.0011108343708645435
1.13220e-05;-0.0010841958094704779
1.13222e-05;-0.001058188628475703
1.13225e-05;-0.0010366167917309575
1.13228e-05;-0.0010150449549862117
1.13230e-05;-0.0009940526957909566
1.13233e-05;-0.0009771318742826786
1.13235e-05;-0.0009605263972265836
1.13238e-05;-0.0009461361634776807
1.13240e-05;-0.0009317459297288754
1.13243e-05;-0.0009178116326238369
1.13245e-05;-0.0009070802160246329
1.13248e-05;-0.0008963487994255014
1.13250e-05;-0.0008859993730813708
1.13253e-05;-0.0008783333659314062
1.13255e-05;-0.0008706673587814935
1.13258e-05;-0.0008633723393873436
1.13260e-05;-0.0008586834484260342
1.13263e-05;-0.0008539945574647567
1.13265e-05;-0.0008493056665034474
1.13268e-05;-0.0008446167755421382
1.13270e-05;-0.0008399278845808607
1.13273e-05;-0.0008352389936195514
1.13275e-05;-0.0008305501026582421
1.13278e-05;-0.0008271935262454959
1.13280e-05;-0.0008246376588988714
1.13283e-05;-0.0008220817915522468
1.13285e-05;-0.0008195259242056396
1.13288e-05;-0.0008169700568590151
1.13290e-05;-0.0008144141895123905
1.13292e-05;-0.0008118583221657834
1.13295e-05;-0.0008091980828344787
1.13298e-05;-0.0008058046473459202
1.13300e-05;-0.0008024112118573847
1.13303e-05;-0.0007990177763688262
1.13305e-05;-0.0007956243408802677
1.13307e-05;-0.0007922309053917322
1.13310e-05;-0.0007888374699031738
1.13313e-05;-0.0007854440344146153
1.13315e-05;-0.0007820505989260568
1.13318e-05;-0.0007784234012301457
1.13320e-05;-0.0007731540621807037
1.13323e-05;-0.0007678847231312617
1.13325e-05;-0.0007626153840818555
1.13328e-05;-0.0007573460450324136
1.13330e-05;-0.0007520767059829716
1.13333e-05;-0.0007468073669335654
1.13335e-05;-0.0007415380278841234
1.13338e-05;-0.0007362686888346815
1.13340e-05;-0.0007308423331895021
1.13343e-05;-0.0007243129615861101
1.13345e-05;-0.000717783589982718
1.13348e-05;-0.0007112542183793702
1.13350e-05;-0.0007047248467759781
1.13353e-05;-0.000698195475172586
1.13355e-05;-0.0006916661035692382
1.13358e-05;-0.0006851367319658462
1.13360e-05;-0.0006786466105320762
1.13363e-05;-0.0006724322151338442
1.13365e-05;-0.0006662178197355701
1.13368e-05;-0.000660003424337296
1.13370e-05;-0.000653789028939064
1.13373e-05;-0.00064757463354079
1.13375e-05;-0.0006413602381425159
1.13377e-05;-0.000635145842744284
1.13380e-05;-0.0006290417032394249
1.13383e-05;-0.0006237512909730517
1.13385e-05;-0.0006187805610873716
1.13388e-05;-0.0006141940442311702
1.13390e-05;-0.0006103028593072029
1.13392e-05;-0.0006080300907369408
1.13395e-05;-0.000608627420385341
1.13398e-05;-0.0006132029499867815
1.13400e-05;-0.0006184811201852895
1.13403e-05;-0.0006286952258993674
1.13405e-05;-0.0006395509925522754
1.13408e-05;-0.000654914322573776
1.13410e-05;-0.0006707988846928534
1.13413e-05;-0.000690778954191745
1.13415e-05;-0.0007144642205599487
1.13418e-05;-0.0007427638248694798
1.13420e-05;-0.0007718387020835924
1.13423e-05;-0.0008063597449185598
1.13425e-05;-0.0008415366436712893
1.13428e-05;-0.0008813208232060523
1.13430e-05;-0.0009217401065709836
1.13433e-05;-0.0009666208906873649
1.13435e-05;-0.0010122711050635658
1.13438e-05;-0.00106332644143463
1.13440e-05;-0.0011143817778053481
1.13443e-05;-0.0011660636952161602
1.13445e-05;-0.0012221472421675734
1.13448e-05;-0.0012782307891186064
1.13450e-05;-0.001334687037087607
1.13453e-05;-0.0013937614488771831
1.13455e-05;-0.0014528358606663591
1.13458e-05;-0.0015120493740657043
1.13460e-05;-0.0015722400535711717
1.13462e-05;-0.0016323365544295056
1.13465e-05;-0.0016917714656656726
1.13468e-05;-0.0017509450790298702
1.13470e-05;-0.0018082831174889018
1.13473e-05;-0.001865241351396598
1.13475e-05;-0.0019195315203152671
1.13477e-05;-0.001973100740957872
1.13480e-05;-0.002021605417627708
1.13483e-05;-0.002070110094297544
1.13485e-05;-0.0021176272443164455
1.13488e-05;-0.0021582071807832817
1.13490e-05;-0.0021981638147650943
1.13493e-05;-0.0022337418505145893
1.13495e-05;-0.0022690079158699124
1.13498e-05;-0.0023020824401235192
1.13500e-05;-0.002335156964377126
1.13503e-05;-0.0023676642600612328
1.13505e-05;-0.0023961868676211917
1.13508e-05;-0.0024247094751811507
1.13510e-05;-0.002452768665384818
1.13513e-05;-0.002477572424294123
1.13515e-05;-0.0025023761832034283
1.13518e-05;-0.0025269618111807704
1.13520e-05;-0.0025500151049623917
1.13523e-05;-0.0025730683987440126
1.13525e-05;-0.0025961216925254778
1.13528e-05;-0.002617349976054322
1.13530e-05;-0.0026374814448272103
1.13533e-05;-0.002657612913599962
1.13535e-05;-0.002677391018055647
1.13538e-05;-0.002694686795853346
1.13540e-05;-0.002711982573650928
1.13543e-05;-0.0027292783514486266
1.13545e-05;-0.0027465741292463258
1.13548e-05;-0.0027638699070439074
1.13550e-05;-0.0027811656848416065
1.13553e-05;-0.0027984614626393057
1.13555e-05;-0.0028157572404368873
1.13558e-05;-0.002833053018234586
1.13560e-05;-0.0028497422286808084
1.13562e-05;-0.0028621704024760666
1.13565e-05;-0.002874598576271409
1.13568e-05;-0.0028870267500667518
1.13570e-05;-0.002899454923862094
1.13573e-05;-0.0029118830976573523
1.13575e-05;-0.0029243112714526947
1.13578e-05;-0.002936739445248037
1.13580e-05;-0.0029491676190432953
1.13583e-05;-0.0029615957928386377
1.13585e-05;-0.002973572857879833
1.13588e-05;-0.002982380957544521
1.13590e-05;-0.0029911763250067315
1.13593e-05;-0.0029998822508240223
1.13595e-05;-0.0030085881766412545
1.13598e-05;-0.00301755228706651
1.13600e-05;-0.0030283301022269366
1.13603e-05;-0.0030391079173872895
1.13605e-05;-0.0030498857325477156
1.13608e-05;-0.0030606635477081422
1.13610e-05;-0.003071441362868495
1.13613e-05;-0.0030842958787951147
1.13615e-05;-0.003098398473214074
1.13618e-05;-0.0031125010676329376
1.13620e-05;-0.0031266036620518967
1.13623e-05;-0.003140706256470856
1.13625e-05;-0.0031553270566542072
1.13628e-05;-0.0031735881677627934
1.13630e-05;-0.0031918492788713796
1.13633e-05;-0.003210110389979842
1.13635e-05;-0.0032283715010884284
1.13638e-05;-0.0032466326121970146
1.13640e-05;-0.0032648937233054768
1.13643e-05;-0.003283154834414063
1.13645e-05;-0.0033017237016684385
1.13647e-05;-0.0033224545056217817
1.13650e-05;-0.0033431853095752654
1.13653e-05;-0.003363916113528749
1.13655e-05;-0.003384646917482233
1.13658e-05;-0.0034053777214355764
1.13660e-05;-0.00342610852538906
1.13663e-05;-0.003446839329342544
1.13665e-05;-0.003467432621052877
1.13668e-05;-0.003487059911697693
1.13670e-05;-0.0035066872023425087
1.13673e-05;-0.003526314492987192
1.13675e-05;-0.003544562534273641
1.13678e-05;-0.0035619816590940438
1.13680e-05;-0.0035794007839143284
1.13683e-05;-0.0035965632074708115
1.13685e-05;-0.0036117766974939473
1.13688e-05;-0.0036257691819418115
1.13690e-05;-0.003637998664113283
1.13693e-05;-0.0036470106238989343
1.13695e-05;-0.0036511554038844147
1.13698e-05;-0.003649861113182334
1.13700e-05;-0.003642980461064275
1.13703e-05;-0.003629475352409822
1.13705e-05;-0.0036147827252970255
1.13708e-05;-0.0035917479748130954
1.13710e-05;-0.0035673763140500405
1.13713e-05;-0.0035336130767525055
1.13715e-05;-0.003498315055371102
1.13718e-05;-0.003452235426270555
1.13720e-05;-0.0034051008135413782
1.13723e-05;-0.0033499185512211494
1.13725e-05;-0.003289678062319576
1.13728e-05;-0.0032247673439521896
1.13730e-05;-0.003155428718889215
1.13732e-05;-0.0030815468195287635
1.13735e-05;-0.003002929100387534
1.13738e-05;-0.0029198063163166916
1.13740e-05;-0.00283269598532409
1.13743e-05;-0.002742129805559203
1.13745e-05;-0.002648638921746467
1.13748e-05;-0.00255274621113341
1.13750e-05;-0.002454883290344438
1.13753e-05;-0.0023552571528371188
1.13755e-05;-0.0022540271526597377
1.13758e-05;-0.0021516174867268565
1.13760e-05;-0.002048631793531158
1.13763e-05;-0.0019456828252999228
1.13765e-05;-0.0018433829121197705
1.13768e-05;-0.001742338856594745
1.13770e-05;-0.0016431004160979662
1.13773e-05;-0.001546076987988618
1.13775e-05;-0.0014516475832709863
1.13778e-05;-0.0013603573110292494
1.13780e-05;-0.001272863653465767
1.13783e-05;-0.0011898295668234206
1.13785e-05;-0.0011119178325437221
1.13788e-05;-0.001039738282687008
1.13790e-05;-0.0009733305274616345
1.13793e-05;-0.0009112463011873205
1.13795e-05;-0.0008514736940817463
1.13798e-05;-0.0007933758673959723
1.13800e-05;-0.0007373350624671623
1.13803e-05;-0.0006837853702704389
1.13805e-05;-0.0006331607361706366
1.13808e-05;-0.00058586186320481
1.13810e-05;-0.000541932287833877
1.13813e-05;-0.0005004835946182761
1.13815e-05;-0.0004602743353374811
1.13817e-05;-0.00042092450492555307
1.13820e-05;-0.00038279615369785243
1.13823e-05;-0.00034659715862173253
1.13825e-05;-0.00031074525871544416
1.13828e-05;-0.00027759049194230463
1.13830e-05;-0.0002464510664323242
1.13833e-05;-0.00021678932788123754
1.13835e-05;-0.00018784656054773958
1.13838e-05;-0.00015940372090464142
1.13840e-05;-0.0001316416393601457
1.13843e-05;-0.00010476143614395889
1.13845e-05;-7.896415872567527e-05
1.13848e-05;-5.443773514655416e-05
1.13850e-05;-3.122999927695302e-05
1.13853e-05;-9.023086992518486e-06
1.13855e-05;1.2639289352704539e-05
1.13858e-05;3.3875352555014266e-05
1.13860e-05;5.455283882076835e-05
1.13863e-05;7.452679059503525e-05
1.13865e-05;9.365229714076955e-05
1.13868e-05;0.00011179270242715265
1.13870e-05;0.0001288990706568921
1.13873e-05;0.00014515158982108663
1.13875e-05;0.00016081707848354874
1.13878e-05;0.00017595061356030843
1.13880e-05;0.00019045034059772209
1.13883e-05;0.00020420649449941563
1.13885e-05;0.0002171093210488805
1.13888e-05;0.00022904298973169422
1.13890e-05;0.00023982804963193383
1.13893e-05;0.00024913678521624343
1.13895e-05;0.00025663414944239314
1.13898e-05;0.0002621979776044204
1.13900e-05;0.00026584186556210133
1.13902e-05;0.0002675859750164734
1.13905e-05;0.0002674504203411264
1.13908e-05;0.00026545150069100574
1.13910e-05;0.0002615657435214157
1.13913e-05;0.00025567671767155097
1.13915e-05;0.0002476634813011363
1.13918e-05;0.00023753844807306246
1.13920e-05;0.0002253990558102234
1.13923e-05;0.0002113468204864368
1.13925e-05;0.00019548326900097193
1.13928e-05;0.0001779075091863433
1.13930e-05;0.00015869373520188226
1.13933e-05;0.0001378579319924096
1.13935e-05;0.00011541324911071628
1.13938e-05;9.14563369946678e-05
1.13940e-05;6.613713745297604e-05
