Time(s);Current(A)
1.05000e-05;-0.005039615317648388
1.05002e-05;-0.005027503992274744
1.05005e-05;-0.005019588992153931
1.05008e-05;-0.005011673992033118
1.05010e-05;-0.005003758991912359
1.05013e-05;-0.004995843991791545
1.05015e-05;-0.0049879289916707325
1.05017e-05;-0.004980013991549973
1.05020e-05;-0.0049720989914291604
1.05023e-05;-0.004970622609070184
1.05025e-05;-0.004970871644726635
1.05028e-05;-0.004971120680383088
1.05030e-05;-0.004971369716039541
1.05033e-05;-0.004971618751695993
1.05035e-05;-0.004971867787352444
1.05038e-05;-0.004972116823008897
1.05040e-05;-0.004974233564747743
1.05043e-05;-0.004980952947556187
1.05045e-05;-0.004987672330364675
1.05048e-05;-0.0049943917131731646
1.05050e-05;-0.005001111095981608
1.05053e-05;-0.0050078304787900966
1.05055e-05;-0.005014549861598586
1.05058e-05;-0.005021269244407029
1.05060e-05;-0.005027988627215518
1.05063e-05;-0.005036931710274731
1.05065e-05;-0.005046470699569644
1.05068e-05;-0.005056009688864623
1.05070e-05;-0.0050655486781596
1.05073e-05;-0.005075087667454513
1.05075e-05;-0.005084626656749491
1.05078e-05;-0.005094165646044469
1.05080e-05;-0.0051037046353393815
1.05083e-05;-0.005113021234619887
1.05085e-05;-0.005121789791880321
1.05087e-05;-0.005130558349140695
1.05090e-05;-0.005138884991278695
1.05093e-05;-0.005146122609446891
1.05095e-05;-0.005153360227615036
1.05098e-05;-0.00515978955735086
1.05100e-05;-0.005164226998978055
1.05102e-05;-0.005168664440605219
1.05105e-05;-0.005171829276004875
1.05108e-05;-0.00517185799178426
1.05110e-05;-0.005171886707563644
1.05113e-05;-0.005169959826831737
1.05115e-05;-0.0051632137141522875
1.05118e-05;-0.005156467601472838
1.05120e-05;-0.005149721488793435
1.05123e-05;-0.005142975376113986
1.05125e-05;-0.005136229263434536
1.05128e-05;-0.005126867549102384
1.05130e-05;-0.005111060133433221
1.05133e-05;-0.005095252717764058
1.05135e-05;-0.005079445302095002
1.05138e-05;-0.005063637886425838
1.05140e-05;-0.0050478304707566755
1.05143e-05;-0.0050300920835943405
1.05145e-05;-0.005007595148614187
1.05148e-05;-0.004985098213634033
1.05150e-05;-0.004962601278654031
1.05153e-05;-0.004940104343673877
1.05155e-05;-0.004916597594778564
1.05158e-05;-0.004890602332811559
1.05160e-05;-0.004864607070844376
1.05163e-05;-0.004838611808877194
1.05165e-05;-0.004812616546910188
1.05168e-05;-0.004786358488150227
1.05170e-05;-0.004759452811800229
1.05172e-05;-0.004732647745853662
1.05175e-05;-0.0047060906169772146
1.05178e-05;-0.004679796271451936
1.05180e-05;-0.004654149510392349
1.05183e-05;-0.004628785560673175
1.05185e-05;-0.004604512255532527
1.05187e-05;-0.004581209167731944
1.05190e-05;-0.004558805278409356
1.05193e-05;-0.004538617309400275
1.05195e-05;-0.004518429340391331
1.05198e-05;-0.004499165840075224
1.05200e-05;-0.0044821805341798155
1.05203e-05;-0.004465195228284408
1.05205e-05;-0.00444832050198172
1.05208e-05;-0.004431718280105337
1.05210e-05;-0.004415116058228954
1.05213e-05;-0.004398835314706378
1.05215e-05;-0.004383346799408806
1.05218e-05;-0.004367858284111235
1.05220e-05;-0.004352365035740002
1.05223e-05;-0.004336860123520738
1.05225e-05;-0.0043213552113014735
1.05228e-05;-0.0043058502990823136
1.05230e-05;-0.0042903453868630495
1.05233e-05;-0.0042748404746437854
1.05235e-05;-0.004259047106850491
1.05238e-05;-0.004243176438856469
1.05240e-05;-0.004227305770862447
1.05243e-05;-0.004211435102868532
1.05245e-05;-0.004195564434874509
1.05248e-05;-0.00417955621446993
1.05250e-05;-0.004163209019758673
1.05253e-05;-0.004146861825047306
1.05255e-05;-0.004130610737801944
1.05257e-05;-0.004114596490911111
1.05260e-05;-0.004098582244020169
1.05263e-05;-0.004082597949502664
1.05265e-05;-0.004066687467468685
1.05268e-05;-0.004050852796079108
1.05270e-05;-0.004035204947011062
1.05272e-05;-0.004019682709729104
1.05275e-05;-0.004004590323486592
1.05278e-05;-0.003989925860627239
1.05280e-05;-0.003975704717063694
1.05283e-05;-0.003961891838497764
1.05285e-05;-0.003948492586945703
1.05288e-05;-0.003935670230665617
1.05290e-05;-0.0039234654811560075
1.05293e-05;-0.003911797634100869
1.05295e-05;-0.003901452890993113
1.05298e-05;-0.0038911081478854273
1.05300e-05;-0.003881306176732466
1.05303e-05;-0.0038728417739028586
1.05305e-05;-0.003864377371073309
1.05308e-05;-0.003856354995379239
1.05310e-05;-0.0038494219196929433
1.05313e-05;-0.003842488844006694
1.05315e-05;-0.003836333214672721
1.05318e-05;-0.0038320934684363452
1.05320e-05;-0.0038278537221999986
1.05323e-05;-0.0038236139759636233
1.05325e-05;-0.003819374229727248
1.05328e-05;-0.0038151344834909014
1.05330e-05;-0.0038108947372545257
1.05333e-05;-0.0038074655101161393
1.05335e-05;-0.0038060336681807173
1.05338e-05;-0.0038046018262452856
1.05340e-05;-0.003803169984309854
1.05342e-05;-0.003801738142374432
1.05345e-05;-0.0038003063004390003
1.05348e-05;-0.0037988744585035687
1.05350e-05;-0.003798000012267533
1.05353e-05;-0.003798499172063697
1.05355e-05;-0.003798998331859861
1.05357e-05;-0.0037994974916560212
1.05360e-05;-0.003799996651452185
1.05363e-05;-0.003800495811248349
1.05365e-05;-0.0038009949710445094
1.05368e-05;-0.0038014941308406732
1.05370e-05;-0.0038021967125058203
1.05373e-05;-0.0038034005924526652
1.05375e-05;-0.003804604472399502
1.05378e-05;-0.003805808352346347
1.05380e-05;-0.0038070122322931914
1.05383e-05;-0.003808216112240028
1.05385e-05;-0.003809419992186873
1.05388e-05;-0.003810623872133718
1.05390e-05;-0.0038117646689545047
1.05393e-05;-0.003812717009101529
1.05395e-05;-0.003813552878745939
1.05398e-05;-0.003814353474683088
1.05400e-05;-0.0038155436584892057
1.05403e-05;-0.003817803416317357
1.05405e-05;-0.0038215415404876094
1.05408e-05;-0.0038267763483849928
1.05410e-05;-0.0038334109464602958
1.05413e-05;-0.003841512707150331
1.05415e-05;-0.003850897877565375
1.05418e-05;-0.0038610383988965115
1.05420e-05;-0.0038730403529154997
1.05423e-05;-0.0038863246807263646
1.05425e-05;-0.003902769198646779
1.05427e-05;-0.003919213716567082
1.05430e-05;-0.003937352692002319
1.05433e-05;-0.003959667367154621
1.05435e-05;-0.003981982042306772
1.05438e-05;-0.004004296717459073
1.05440e-05;-0.004026611392611375
1.05442e-05;-0.004050693208509634
1.05445e-05;-0.004079129839473913
1.05448e-05;-0.004107566470438192
1.05450e-05;-0.004136003101402279
1.05453e-05;-0.004164439732366558
1.05455e-05;-0.0041937314912705885
1.05458e-05;-0.004225130566212462
1.05460e-05;-0.004256529641154123
1.05463e-05;-0.004288246654827191
1.05465e-05;-0.004320747173933976
1.05468e-05;-0.004353247693040542
1.05470e-05;-0.004385630329283495
1.05473e-05;-0.004417722463441311
1.05475e-05;-0.00444981459759891
1.05478e-05;-0.004481458543886379
1.05480e-05;-0.004511998008091883
1.05483e-05;-0.004541833714736509
1.05485e-05;-0.0045699351316620986
1.05488e-05;-0.004598036548587687
1.05490e-05;-0.004624829694231904
1.05493e-05;-0.0046483988298481275
1.05495e-05;-0.00467196796546435
1.05498e-05;-0.004694361489466005
1.05500e-05;-0.0047138579204193485
1.05503e-05;-0.004733354351372693
1.05505e-05;-0.004752850782325904
1.05508e-05;-0.004772347213279248
1.05510e-05;-0.004791843644232591
1.05512e-05;-0.004811340075185803
1.05515e-05;-0.004830836506139147
1.05518e-05;-0.004850560483135376
1.05520e-05;-0.004870345437822202
1.05523e-05;-0.004890130392509161
1.05525e-05;-0.004909915347196121
1.05527e-05;-0.004929700301882946
1.05530e-05;-0.004949485256569906
1.05533e-05;-0.004969270211256866
1.05535e-05;-0.004989607986616986
1.05538e-05;-0.005011308093643831
1.05540e-05;-0.0050330082006706765
1.05543e-05;-0.005054708307697522
1.05545e-05;-0.00507640841472422
1.05548e-05;-0.005098108521751066
1.05550e-05;-0.005119808628777911
1.05553e-05;-0.005141508735804609
1.05555e-05;-0.005163364429393427
1.05558e-05;-0.005185603539360331
1.05560e-05;-0.005207842649327084
1.05563e-05;-0.005230081759293988
1.05565e-05;-0.005252320869260892
1.05568e-05;-0.005274559979227646
1.05570e-05;-0.00529679908919455
1.05573e-05;-0.005319038199161454
1.05575e-05;-0.005340416357614006
1.05578e-05;-0.005359672848828043
1.05580e-05;-0.00537892934004208
1.05583e-05;-0.005398185831255986
1.05585e-05;-0.005417442322470023
1.05588e-05;-0.00543669881368406
1.05590e-05;-0.005454077378455572
1.05593e-05;-0.005466828115824633
1.05595e-05;-0.005479578853193693
1.05597e-05;-0.005492329590562667
1.05600e-05;-0.0055050803279317285
1.05603e-05;-0.005517831065300788
1.05605e-05;-0.005528005450503161
1.05608e-05;-0.00553183085797841
1.05610e-05;-0.005535656265453661
1.05612e-05;-0.0055365371776416135
1.05615e-05;-0.005530161886567291
1.05618e-05;-0.0055237865954929685
1.05620e-05;-0.005517411304418688
1.05623e-05;-0.005511036013344365
1.05625e-05;-0.005504660722270042
1.05628e-05;-0.005494454439746756
1.05630e-05;-0.005474807336322994
1.05633e-05;-0.005455160232899097
1.05635e-05;-0.005435513129475202
1.05638e-05;-0.005415866026051439
1.05640e-05;-0.005396218922627543
1.05643e-05;-0.0053737659695773056
1.05645e-05;-0.005344398481699897
1.05648e-05;-0.00531503099382229
1.05650e-05;-0.005285663505944682
1.05653e-05;-0.005256296018067274
1.05655e-05;-0.005225432049575073
1.05658e-05;-0.005190880261453611
1.05660e-05;-0.005156328473332383
1.05663e-05;-0.005121776685210921
1.05665e-05;-0.00508722489708946
1.05668e-05;-0.005052264537984515
1.05670e-05;-0.005016297325814153
1.05673e-05;-0.004980438184136917
1.05675e-05;-0.004944845363641791
1.05678e-05;-0.004909584886795988
1.05680e-05;-0.004875143413833489
1.05682e-05;-0.004841080254805168
1.05685e-05;-0.004808283006137696
1.05688e-05;-0.004776940201217806
1.05690e-05;-0.00474715557395923
1.05693e-05;-0.004718433841506844
1.05695e-05;-0.004692331430877453
1.05697e-05;-0.004667455969826804
1.05700e-05;-0.004645604115427957
1.05703e-05;-0.004624909583100917
1.05705e-05;-0.004607067072385911
1.05708e-05;-0.004590732059919568
1.05710e-05;-0.004578112018151811
1.05713e-05;-0.004565491976384055
1.05715e-05;-0.0045548051508544725
1.05718e-05;-0.0045488824049411914
1.05720e-05;-0.004542959659027911
1.05723e-05;-0.00453963591438278
1.05725e-05;-0.004542716962290255
1.05728e-05;-0.00454579801019773
1.05730e-05;-0.004548879058105184
1.05733e-05;-0.0045519601060126594
1.05735e-05;-0.004555041153920135
1.05738e-05;-0.004561013378753003
1.05740e-05;-0.004574110412899421
1.05743e-05;-0.004587207447045839
1.05745e-05;-0.004600304481192168
1.05748e-05;-0.0046134015153385865
1.05750e-05;-0.004626498549485004
1.05753e-05;-0.00464147737022598
1.05755e-05;-0.004661093531054314
1.05758e-05;-0.0046807096918826474
1.05760e-05;-0.004700325852710848
1.05763e-05;-0.0047199420135391815
1.05765e-05;-0.004739558174367516
1.05767e-05;-0.004759174335195716
1.05770e-05;-0.004779921559298506
1.05773e-05;-0.00480097188525155
1.05775e-05;-0.004822022211204451
1.05778e-05;-0.004843072537157494
1.05780e-05;-0.004864122863110537
1.05782e-05;-0.004885173189063438
1.05785e-05;-0.004905453593747432
1.05788e-05;-0.004923836659606908
1.05790e-05;-0.00494221972546626
1.05793e-05;-0.004959559722884909
1.05795e-05;-0.004974329257154877
1.05798e-05;-0.004989098791424846
1.05800e-05;-0.005002520849737294
1.05803e-05;-0.005012622284822432
1.05805e-05;-0.005022723719907569
1.05808e-05;-0.005030473591244964
1.05810e-05;-0.005032428437329086
1.05813e-05;-0.005034383283413209
1.05815e-05;-0.005036338129497317
1.05818e-05;-0.005038292975581439
1.05820e-05;-0.0050402478216655605
1.05823e-05;-0.00504220266774967
1.05825e-05;-0.0050355554666022114
1.05828e-05;-0.0050266030925336025
1.05830e-05;-0.005017650718465054
1.05833e-05;-0.005008698344396445
1.05835e-05;-0.004999745970327836
1.05838e-05;-0.004990793596259288
1.05840e-05;-0.004979411707481718
1.05843e-05;-0.004962042696685568
1.05845e-05;-0.004944673685889536
1.05848e-05;-0.004927304675093386
1.05850e-05;-0.004909935664297237
1.05853e-05;-0.004892566653501205
1.05855e-05;-0.004873856685925484
1.05858e-05;-0.004851842160516939
1.05860e-05;-0.004829827635108541
1.05863e-05;-0.004807813109699995
1.05865e-05;-0.004785798584291449
1.05867e-05;-0.004763784058883052
1.05870e-05;-0.004741509774484607
1.05873e-05;-0.0047185953586383386
1.05875e-05;-0.004695680942792225
1.05878e-05;-0.004672961071755637
1.05880e-05;-0.004650720623012532
1.05883e-05;-0.004628821456585255
1.05885e-05;-0.004607763321850767
1.05888e-05;-0.0045873770432702295
1.05890e-05;-0.004568646438869992
1.05893e-05;-0.004549915834469882
1.05895e-05;-0.004532131429353526
1.05898e-05;-0.004516678769975077
1.05900e-05;-0.004501226110596733
1.05903e-05;-0.0044858039636584916
1.05905e-05;-0.004470457009392261
1.05908e-05;-0.0044551100551261345
1.05910e-05;-0.004439742669622409
1.05913e-05;-0.004424324934840508
1.05915e-05;-0.004408907200058712
1.05918e-05;-0.004393267141153016
1.05920e-05;-0.004377079202601908
1.05923e-05;-0.00436089126405091
1.05925e-05;-0.004344703325499802
1.05928e-05;-0.004328515386948693
1.05930e-05;-0.004312327448397695
1.05933e-05;-0.0042955575780207695
1.05935e-05;-0.004277353636536477
1.05938e-05;-0.0042591496950523085
1.05940e-05;-0.004240945753568016
1.05943e-05;-0.0042227418120837235
1.05945e-05;-0.004204537870599555
1.05948e-05;-0.00418592754463267
1.05950e-05;-0.004166315753856417
1.05952e-05;-0.004146703963080297
1.05955e-05;-0.004127092172304044
1.05958e-05;-0.004107480381527791
1.05960e-05;-0.0040878603644902605
1.05963e-05;-0.004068220075243224
1.05965e-05;-0.004048579785996188
1.05968e-05;-0.004028939496749152
1.05970e-05;-0.004009299207502249
1.05973e-05;-0.003989879454645691
1.05975e-05;-0.003971003175872741
1.05978e-05;-0.003952340551389341
1.05980e-05;-0.00393434692223086
1.05983e-05;-0.003916848910277468
1.05985e-05;-0.003899876754422834
1.05988e-05;-0.0038835263327829856
1.05990e-05;-0.003867913926263828
1.05993e-05;-0.003853155551734015
1.05995e-05;-0.003839369139093001
1.05998e-05;-0.003826747358431733
1.06000e-05;-0.003815750409161991
1.06003e-05;-0.003807013441974704
1.06005e-05;-0.003800911649333923
1.06008e-05;-0.003797484214477466
1.06010e-05;-0.0037966737578574916
1.06013e-05;-0.0037984222734371697
1.06015e-05;-0.0038030432739111966
1.06018e-05;-0.0038103288939971163
1.06020e-05;-0.003819251432570935
1.06023e-05;-0.003832207875813576
1.06025e-05;-0.0038472514976611648
1.06028e-05;-0.0038674386129578862
1.06030e-05;-0.0038876257282544706
1.06033e-05;-0.003910625741055799
1.06035e-05;-0.003940557656979752
1.06037e-05;-0.003970489572903502
1.06040e-05;-0.004000421488827456
1.06043e-05;-0.004030353404751408
1.06045e-05;-0.004063115840121968
1.06048e-05;-0.004102853604867918
1.06050e-05;-0.004142591369613869
1.06053e-05;-0.0041823291343598195
1.06055e-05;-0.004222066899105501
1.06058e-05;-0.004263144720042888
1.06060e-05;-0.00430752487947061
1.06063e-05;-0.004351905038898032
1.06065e-05;-0.004396698438026083
1.06068e-05;-0.004442510195471419
1.06070e-05;-0.004488321952916444
1.06073e-05;-0.00453385296006771
1.06075e-05;-0.004578692106304289
1.06078e-05;-0.004623531252540563
1.06080e-05;-0.004667671256168052
1.06083e-05;-0.004710088342828914
1.06085e-05;-0.004751321985902366
1.06088e-05;-0.004789639235369342
1.06090e-05;-0.004827956484836317
1.06093e-05;-0.004863671027635126
1.06095e-05;-0.004892971646551876
1.06098e-05;-0.0049222722654686255
1.06100e-05;-0.004951572884385177
1.06103e-05;-0.004980873503301926
1.06105e-05;-0.005007935261838383
1.06108e-05;-0.005029479733221332
1.06110e-05;-0.005051024204604427
1.06113e-05;-0.0050725686759875216
1.06115e-05;-0.00509411314737047
1.06118e-05;-0.005112440607675607
1.06120e-05;-0.005122840296311715
1.06122e-05;-0.005133239984947752
1.06125e-05;-0.00514363967358386
1.06128e-05;-0.005154039362219967
1.06130e-05;-0.005164439050856004
1.06133e-05;-0.005174838739492112
1.06135e-05;-0.0051852384281282195
1.06138e-05;-0.005195638116764326
1.06140e-05;-0.005206037805400364
1.06143e-05;-0.0052164374940364714
1.06145e-05;-0.005226837182672579
1.06148e-05;-0.005237236871308616
1.06150e-05;-0.005247636559944723
1.06153e-05;-0.005258036248580831
1.06155e-05;-0.005268435937216868
1.06158e-05;-0.00527231294572774
1.06160e-05;-0.005274442009218639
1.06163e-05;-0.005276571072709523
1.06165e-05;-0.0052787001362004215
1.06168e-05;-0.00528082919969132
1.06170e-05;-0.005282958263182203
1.06173e-05;-0.005285087326673102
1.06175e-05;-0.005287216390164
1.06178e-05;-0.0052893454536548845
1.06180e-05;-0.005291474517145783
1.06183e-05;-0.005293603580636681
1.06185e-05;-0.005295732644127565
1.06188e-05;-0.005297861707618463
1.06190e-05;-0.005299990771109361
1.06193e-05;-0.005302119834600246
1.06195e-05;-0.00530310867991931
1.06198e-05;-0.0053012876532476305
1.06200e-05;-0.005299466626575964
1.06203e-05;-0.005297645599904284
1.06205e-05;-0.005295824573232605
1.06207e-05;-0.005294003546560937
1.06210e-05;-0.005292182519889259
1.06213e-05;-0.005290361493217579
1.06215e-05;-0.005286509440241234
1.06218e-05;-0.005277652271518321
1.06220e-05;-0.005268795102795408
1.06222e-05;-0.0052599379340725555
1.06225e-05;-0.005251080765349643
1.06228e-05;-0.00524222359662673
1.06230e-05;-0.005233366427903817
1.06233e-05;-0.0052245092591809645
1.06235e-05;-0.005213780009995874
1.06238e-05;-0.005198437339813487
1.06240e-05;-0.005183094669631204
1.06243e-05;-0.005167751999448817
1.06245e-05;-0.005152409329266429
1.06248e-05;-0.005137066659084147
1.06250e-05;-0.00512172398890176
1.06253e-05;-0.005106381318719373
1.06255e-05;-0.005088360294018986
1.06258e-05;-0.005069621525024178
1.06260e-05;-0.00505088275602937
1.06263e-05;-0.0050321439870346886
1.06265e-05;-0.005013405218039881
1.06268e-05;-0.004994666449045072
1.06270e-05;-0.004975927680050391
1.06273e-05;-0.004957208249042633
1.06275e-05;-0.004938536473185025
1.06278e-05;-0.004919864697327545
1.06280e-05;-0.004901556920095502
1.06283e-05;-0.0048841461550039236
1.06285e-05;-0.004866735389912464
1.06288e-05;-0.004850961290059996
1.06290e-05;-0.004839220470792391
1.06292e-05;-0.004827479651524866
1.06295e-05;-0.004815738832257261
1.06298e-05;-0.0048039980129896565
1.06300e-05;-0.0047922571937221315
1.06303e-05;-0.004780516374454527
1.06305e-05;-0.004768775555186923
1.06307e-05;-0.004757034735919398
1.06310e-05;-0.004745293916651793
1.06313e-05;-0.004733553097384188
1.06315e-05;-0.004721812278116583
1.06318e-05;-0.0047159543035744005
1.06320e-05;-0.004711672811237464
1.06323e-05;-0.004707391318900527
1.06325e-05;-0.004703109826563619
1.06328e-05;-0.004698828334226682
1.06330e-05;-0.004694546841889746
1.06333e-05;-0.004690265349552839
1.06335e-05;-0.004685983857215902
1.06338e-05;-0.004681702364878965
1.06340e-05;-0.0046774208725420575
1.06343e-05;-0.004673139380205121
1.06345e-05;-0.00467003944911735
1.06348e-05;-0.004669851272940301
1.06350e-05;-0.004669663096763251
1.06353e-05;-0.004669474920586201
1.06355e-05;-0.004669286744409151
1.06358e-05;-0.004669098568232101
1.06360e-05;-0.004668910392055051
1.06363e-05;-0.004668722215878002
1.06365e-05;-0.004668534039700952
1.06368e-05;-0.004668345863523902
1.06370e-05;-0.004669133365130823
1.06373e-05;-0.004670182328451707
1.06375e-05;-0.004671231291772592
1.06377e-05;-0.004672280255093469
1.06380e-05;-0.004673329218414353
1.06383e-05;-0.004674378181735237
1.06385e-05;-0.004675427145056114
1.06388e-05;-0.004676476108376998
1.06390e-05;-0.004677525071697882
1.06392e-05;-0.004678480351758023
1.06395e-05;-0.004679204765500646
1.06398e-05;-0.004679929179243267
1.06400e-05;-0.004681291755519441
1.06403e-05;-0.004684226973833751
1.06405e-05;-0.004687162192148081
1.06408e-05;-0.004691199532346842
1.06410e-05;-0.004697952862776191
1.06413e-05;-0.004704706193205586
1.06415e-05;-0.004713215817347452
1.06418e-05;-0.004726053525916854
1.06420e-05;-0.004738891234486345
1.06423e-05;-0.004751728943055835
1.06425e-05;-0.004764566651625238
1.06428e-05;-0.004777404360194728
1.06430e-05;-0.0047902420687642175
1.06433e-05;-0.004809955426169175
1.06435e-05;-0.004831511316999839
1.06438e-05;-0.004853067207830502
1.06440e-05;-0.004874623098661019
1.06443e-05;-0.004896178989491683
1.06445e-05;-0.004917734880322346
1.06448e-05;-0.004941108489547002
1.06450e-05;-0.0049689615537860275
1.06453e-05;-0.004996814618025053
1.06455e-05;-0.005024667682263889
1.06458e-05;-0.005052520746502914
1.06460e-05;-0.005080373810741939
1.06462e-05;-0.005108226874980776
