Time(s);Current(A)
8.55000e-06;-0.012743657103480837
8.55025e-06;-0.012825354852991687
8.55050e-06;-0.012907625560926781
8.55075e-06;-0.012991768913086014
8.55100e-06;-0.013076349766666868
8.55125e-06;-0.013161510796457223
8.55150e-06;-0.013246807371437243
8.55175e-06;-0.01333112138384556
8.55200e-06;-0.01341520584249472
8.55225e-06;-0.01349690882313342
8.55250e-06;-0.013578055424720403
8.55275e-06;-0.01365574890206646
8.55300e-06;-0.013732635634197703
8.55325e-06;-0.013804549157771243
8.55350e-06;-0.013875300802442207
8.55375e-06;-0.013937477264074865
8.55400e-06;-0.013997650326061222
8.55425e-06;-0.014057823388047985
8.55450e-06;-0.014108075952742424
8.55475e-06;-0.014156010815216702
8.55500e-06;-0.014203945677691301
8.55525e-06;-0.014243182049236887
8.55550e-06;-0.014280386213006768
8.55575e-06;-0.014317590376776396
8.55600e-06;-0.01434079859163711
8.55625e-06;-0.014360736966196216
8.55650e-06;-0.014380675340755187
8.55675e-06;-0.014400613715314295
8.55700e-06;-0.014420552089873402
8.55725e-06;-0.014440490464432375
8.55750e-06;-0.014445103807173154
8.55775e-06;-0.014446136799128834
8.55800e-06;-0.014447169791084506
8.55825e-06;-0.014448202783040187
8.55850e-06;-0.014449235774995867
8.55875e-06;-0.01445026876695154
8.55900e-06;-0.014440482498080082
8.55925e-06;-0.014428168550998502
8.55950e-06;-0.014415854603917004
8.55975e-06;-0.014403540656835422
8.56000e-06;-0.01439122670975384
8.56025e-06;-0.01437657018547566
8.56050e-06;-0.014356714557516236
8.56075e-06;-0.014336858929556811
8.56100e-06;-0.01431700330159752
8.56125e-06;-0.014297147673638096
8.56150e-06;-0.014277292045678671
8.56175e-06;-0.014255905626892992
8.56200e-06;-0.014234161573082157
8.56225e-06;-0.014212472630349068
8.56250e-06;-0.014190796563086328
8.56275e-06;-0.014170126839202001
8.56300e-06;-0.014149692224931076
8.56325e-06;-0.014131518800564765
8.56350e-06;-0.014113873652625241
8.56375e-06;-0.01409622850468572
8.56400e-06;-0.01408530126410899
8.56425e-06;-0.014075943512274081
8.56450e-06;-0.014066585760439109
8.56475e-06;-0.014057228008604136
8.56500e-06;-0.014047870256769228
8.56525e-06;-0.014038512504934255
8.56550e-06;-0.014029154753099283
8.56575e-06;-0.014019797001264375
8.56600e-06;-0.014010439249429402
8.56625e-06;-0.01400108149759443
8.56650e-06;-0.01399459846706554
8.56675e-06;-0.013994495578095392
8.56700e-06;-0.013994392689125244
8.56725e-06;-0.013994289800155097
8.56750e-06;-0.013994186911184947
8.56775e-06;-0.0139940840222148
8.56800e-06;-0.013993981133244652
8.56825e-06;-0.013993878244274505
8.56850e-06;-0.013993775355304357
8.56875e-06;-0.01399367246633421
8.56900e-06;-0.01399356957736406
8.56925e-06;-0.013997661529370835
8.56950e-06;-0.014002733512112156
8.56975e-06;-0.014007805494853512
8.57000e-06;-0.014012877477594868
8.57025e-06;-0.014017949460336191
8.57050e-06;-0.014023021443077547
8.57075e-06;-0.014028093425818903
8.57100e-06;-0.014033165408560224
8.57125e-06;-0.01403823739130158
8.57150e-06;-0.014044678762694603
8.57175e-06;-0.01405144006110598
8.57200e-06;-0.014058201359517403
8.57225e-06;-0.014064962657928825
8.57250e-06;-0.014071723956340248
8.57275e-06;-0.014078485254751624
8.57300e-06;-0.014085246553163046
8.57325e-06;-0.014092007851574469
8.57350e-06;-0.014098769149985846
8.57375e-06;-0.014105126132727994
8.57400e-06;-0.014111388656160568
8.57425e-06;-0.014117651179593097
8.57450e-06;-0.014121877612934354
8.57475e-06;-0.014125628359383198
8.57500e-06;-0.014129379105832016
8.57525e-06;-0.014129839544785604
8.57550e-06;-0.014129531277013406
8.57575e-06;-0.01412922300924121
8.57600e-06;-0.01412397500219727
8.57625e-06;-0.014117572935598927
8.57650e-06;-0.014111170869000628
8.57675e-06;-0.014104768802402284
8.57700e-06;-0.014098366735803941
8.57725e-06;-0.01409196466920564
8.57750e-06;-0.014078732226225736
8.57775e-06;-0.014063904018633567
8.57800e-06;-0.014049075811041497
8.57825e-06;-0.014034247603449328
8.57850e-06;-0.01401941939585716
8.57875e-06;-0.01400459118826509
8.57900e-06;-0.013984706236167975
8.57925e-06;-0.013963639888861552
8.57950e-06;-0.01394257354155527
8.57975e-06;-0.013921507194248844
8.58000e-06;-0.013900440846942419
8.58025e-06;-0.013878528156970183
8.58050e-06;-0.013854737098473187
8.58075e-06;-0.013830946039976191
8.58100e-06;-0.013807154981479197
8.58125e-06;-0.013783363922982362
8.58150e-06;-0.013759572864485366
8.58175e-06;-0.013735895391086324
8.58200e-06;-0.013712244454304124
8.58225e-06;-0.013689460950786426
8.58250e-06;-0.013666880103642299
8.58275e-06;-0.013645529063972758
8.58300e-06;-0.01362446534130268
8.58325e-06;-0.013605730376227934
8.58350e-06;-0.013587539473259809
8.58375e-06;-0.01356934857029156
8.58400e-06;-0.013557514818217271
8.58425e-06;-0.013547166272209057
8.58450e-06;-0.013536817726200773
8.58475e-06;-0.013526469180192489
8.58500e-06;-0.013516120634184274
8.58525e-06;-0.01350577208817599
8.58550e-06;-0.013495423542167704
8.58575e-06;-0.01348507499615949
8.58600e-06;-0.013474726450151206
8.58625e-06;-0.013471566418646351
8.58650e-06;-0.013470085822713295
8.58675e-06;-0.013468605226780226
8.58700e-06;-0.01346712463084716
8.58725e-06;-0.013465644034914102
8.58750e-06;-0.013464163438981033
8.58775e-06;-0.013462682843047967
8.58800e-06;-0.013461202247114909
8.58825e-06;-0.013459721651181842
8.58850e-06;-0.013463397170509388
8.58875e-06;-0.01346827730080034
8.58900e-06;-0.013473157431091325
8.58925e-06;-0.01347803756138231
8.58950e-06;-0.013482917691673296
8.58975e-06;-0.013487797821964248
8.59000e-06;-0.013492677952255233
8.59025e-06;-0.013497558082546218
8.59050e-06;-0.01350243821283717
8.59075e-06;-0.013507318343128155
8.59100e-06;-0.013513008691779196
8.59125e-06;-0.013520497234858164
8.59150e-06;-0.013527985777937181
8.59175e-06;-0.013535474321016198
8.59200e-06;-0.013542962864095166
8.59225e-06;-0.013550451407174183
8.59250e-06;-0.0135579399502532
8.59275e-06;-0.013565428493332168
8.59300e-06;-0.013572917036411185
8.59325e-06;-0.013580405579490204
8.59350e-06;-0.013587894122569171
8.59375e-06;-0.013595026510757712
8.59400e-06;-0.013602075691324976
8.59425e-06;-0.01360938193109723
8.59450e-06;-0.013616748227001152
8.59475e-06;-0.01362680930361691
8.59500e-06;-0.013637499955450848
8.59525e-06;-0.013648190607284859
8.59550e-06;-0.013662171566613566
8.59575e-06;-0.01367692123266851
8.59600e-06;-0.013691670898723553
8.59625e-06;-0.013712158775875874
8.59650e-06;-0.01373398725765996
8.59675e-06;-0.013755815739444194
8.59700e-06;-0.013777644221228428
8.59725e-06;-0.013799472703012513
8.59750e-06;-0.013821301184796747
8.59775e-06;-0.013846103783238174
8.59800e-06;-0.013877507120771833
8.59825e-06;-0.013908910458305276
8.59850e-06;-0.013940313795838934
8.59875e-06;-0.01397171713337259
8.59900e-06;-0.014003120470906035
8.59925e-06;-0.014034523808439694
8.59950e-06;-0.014071028583397123
8.59975e-06;-0.01410872519506525
8.60000e-06;-0.014146421806733632
8.60025e-06;-0.014184118418402015
8.60050e-06;-0.014221815030070141
8.60075e-06;-0.014259511641738524
8.60100e-06;-0.014297208253406907
8.60125e-06;-0.014334957927012885
8.60150e-06;-0.014372719997353655
8.60175e-06;-0.014410482067694423
8.60200e-06;-0.014448244138034938
8.60225e-06;-0.014486006208375708
8.60250e-06;-0.014523768278716476
8.60275e-06;-0.014561530349056991
8.60300e-06;-0.014590179085496672
8.60325e-06;-0.014616698695377971
8.60350e-06;-0.01464321830525909
8.60375e-06;-0.01466973791514039
8.60400e-06;-0.014696257525021688
8.60425e-06;-0.014722777134902807
8.60450e-06;-0.014749296744784106
8.60475e-06;-0.014775816354665405
8.60500e-06;-0.014802335964546524
8.60525e-06;-0.014828855574427823
8.60550e-06;-0.014855375184309122
8.60575e-06;-0.014881894794190241
8.60600e-06;-0.01490841440407154
8.60625e-06;-0.01493493401395284
8.60650e-06;-0.014955341417056353
8.60675e-06;-0.014974320839804314
8.60700e-06;-0.014993300262552403
8.60725e-06;-0.015012279685300492
8.60750e-06;-0.015031259108048452
8.60775e-06;-0.015050238530796541
8.60800e-06;-0.01506921795354463
8.60825e-06;-0.01508819737629259
8.60850e-06;-0.015107176799040679
8.60875e-06;-0.015126156221788768
8.60900e-06;-0.015145135644536728
8.60925e-06;-0.015164115067284817
8.60950e-06;-0.015183094490032906
8.60975e-06;-0.015202073912780866
8.61000e-06;-0.015219331391903896
8.61025e-06;-0.015236186577426649
8.61050e-06;-0.015253041762949287
8.61075e-06;-0.01526989694847204
8.61100e-06;-0.015286752133994793
8.61125e-06;-0.015303607319517432
8.61150e-06;-0.015320462505040183
8.61175e-06;-0.015337317690562936
8.61200e-06;-0.015353274595163544
8.61225e-06;-0.015367237859741072
8.61250e-06;-0.015381201124318601
8.61275e-06;-0.015395164388896036
8.61300e-06;-0.015409127653473565
8.61325e-06;-0.015423090918051094
8.61350e-06;-0.015437054182628529
8.61375e-06;-0.015451017447206058
8.61400e-06;-0.015464980711783587
8.61425e-06;-0.01547237249659295
8.61450e-06;-0.015478229002188109
8.61475e-06;-0.015484085507783265
8.61500e-06;-0.015489942013378423
8.61525e-06;-0.015495798518973541
8.61550e-06;-0.015501655024568699
8.61575e-06;-0.015507511530163855
8.61600e-06;-0.015513368035758974
8.61625e-06;-0.015508460894907655
8.61650e-06;-0.015501039068895215
8.61675e-06;-0.015493617242882828
8.61700e-06;-0.015486195416870388
8.61725e-06;-0.01547877359085795
8.61750e-06;-0.015471351764845561
8.61775e-06;-0.015463929938833122
8.61800e-06;-0.015456508112820684
8.61825e-06;-0.01543994322689912
8.61850e-06;-0.015421242269600842
8.61875e-06;-0.015402541312302563
8.61900e-06;-0.01538384035500441
8.61925e-06;-0.015365139397706132
8.61950e-06;-0.015346438440407853
8.61975e-06;-0.0153277374831097
8.62000e-06;-0.015307349762933695
8.62025e-06;-0.015283218449967348
8.62050e-06;-0.015259087137001165
8.62075e-06;-0.015234955824034817
8.62100e-06;-0.015210824511068472
8.62125e-06;-0.015186693198102287
8.62150e-06;-0.015162561885135942
8.62175e-06;-0.015138430572169594
8.62200e-06;-0.015114691176977092
8.62225e-06;-0.015091043344603313
8.62250e-06;-0.015067395512229536
8.62275e-06;-0.015045868395828232
8.62300e-06;-0.015024836737263937
8.62325e-06;-0.015003805078699643
8.62350e-06;-0.014984234722562636
8.62375e-06;-0.01496790757346108
8.62400e-06;-0.014951580424359415
8.62425e-06;-0.014935253275257748
8.62450e-06;-0.01491973679465096
8.62475e-06;-0.014904409708599657
8.62500e-06;-0.014889082622548351
8.62525e-06;-0.014870452201340886
8.62550e-06;-0.014851050029784119
8.62575e-06;-0.014831647858227354
8.62600e-06;-0.014812245686670718
8.62625e-06;-0.014792843515113951
8.62650e-06;-0.014773441343557186
8.62675e-06;-0.014751780345844505
8.62700e-06;-0.01472510612106435
8.62725e-06;-0.014698431896284192
8.62750e-06;-0.014671757671504217
8.62775e-06;-0.014645083446724062
8.62800e-06;-0.014618409221943905
8.62825e-06;-0.01459173499716393
8.62850e-06;-0.014559546944870142
8.62875e-06;-0.014526070710146017
8.62900e-06;-0.01449259447542212
8.62925e-06;-0.014459118240697994
8.62950e-06;-0.014425642005973871
8.62975e-06;-0.014392165771249974
8.63000e-06;-0.014356109004350514
8.63025e-06;-0.014319449353845925
8.63050e-06;-0.014282789703341583
8.63075e-06;-0.014246130052836994
8.63100e-06;-0.014209470402332405
8.63125e-06;-0.014172810751828064
8.63150e-06;-0.014136647352671632
8.63175e-06;-0.014100599891539424
8.63200e-06;-0.014064552430407216
8.63225e-06;-0.014030318853513328
8.63250e-06;-0.013996509050087062
8.63275e-06;-0.013964509230343146
8.63300e-06;-0.013932932272789734
8.63325e-06;-0.01390383757857188
8.63350e-06;-0.01387532280964359
8.63375e-06;-0.013850132446615426
8.63400e-06;-0.013825718756644456
8.63425e-06;-0.013806232097680244
8.63450e-06;-0.013787896529272196
8.63475e-06;-0.013769560960864026
8.63500e-06;-0.013757127310745866
8.63525e-06;-0.01374607251178523
8.63550e-06;-0.013735017712824519
8.63575e-06;-0.013729691114807907
8.63600e-06;-0.013725702782777693
8.63625e-06;-0.013724017071432759
8.63650e-06;-0.013726175251485543
8.63675e-06;-0.013728333431538313
8.63700e-06;-0.013739868101700385
8.63725e-06;-0.013752015859442518
8.63750e-06;-0.01376416361718457
8.63775e-06;-0.013776311374926704
8.63800e-06;-0.013788459132668837
8.63825e-06;-0.013800606890410889
8.63850e-06;-0.013814705085156236
8.63875e-06;-0.013837193007003484
8.63900e-06;-0.01385968092885058
8.63925e-06;-0.01388216885069783
8.63950e-06;-0.013904656772545078
8.63975e-06;-0.013927144694392175
8.64000e-06;-0.013949632616239424
8.64025e-06;-0.013974302563992288
8.64050e-06;-0.014001765155719862
8.64075e-06;-0.01402922774744725
8.64100e-06;-0.014056690339174826
8.64125e-06;-0.0140841529309024
8.64150e-06;-0.014111615522629788
8.64175e-06;-0.014139078114357363
8.64200e-06;-0.014166540706084937
8.64225e-06;-0.014190878333583302
8.64250e-06;-0.01421501163337114
8.64275e-06;-0.01423914493315898
8.64300e-06;-0.014263278232946656
8.64325e-06;-0.014287411532734495
8.64350e-06;-0.014311544832522335
8.64375e-06;-0.01433567813231001
8.64400e-06;-0.014356785625956851
8.64425e-06;-0.014374020571955323
8.64450e-06;-0.014391255517953679
8.64475e-06;-0.01440849046395215
8.64500e-06;-0.014425725409950622
8.64525e-06;-0.014442960355948978
8.64550e-06;-0.01446019530194745
8.64575e-06;-0.014477430247945924
8.64600e-06;-0.01449466519394428
8.64625e-06;-0.014514185309501111
8.64650e-06;-0.01453385484227699
8.64675e-06;-0.014553524375052735
8.64700e-06;-0.014573193907828614
8.64725e-06;-0.014592863440604493
8.64750e-06;-0.01461253297338024
8.64775e-06;-0.01463220250615612
8.64800e-06;-0.014651872038931998
8.64825e-06;-0.014673288922671147
8.64850e-06;-0.014696942136019802
8.64875e-06;-0.014720595349368456
8.64900e-06;-0.01474424856271695
8.64925e-06;-0.014767901776065602
8.64950e-06;-0.014791554989414256
8.64975e-06;-0.014815208202762909
8.65000e-06;-0.014838861416111402
8.65025e-06;-0.014862514629460056
8.65050e-06;-0.014886171292393696
8.65075e-06;-0.01490983237024393
8.65100e-06;-0.014933493448094325
8.65125e-06;-0.01495715452594472
8.65150e-06;-0.014980815603794955
8.65175e-06;-0.015004476681645349
8.65200e-06;-0.015028137759495745
8.65225e-06;-0.015051798837345979
8.65250e-06;-0.015075459915196373
8.65275e-06;-0.015097446446482414
8.65300e-06;-0.015117289826138754
8.65325e-06;-0.015137133205795227
8.65350e-06;-0.015155344069357072
8.65375e-06;-0.015171465573564413
8.65400e-06;-0.015187587077771866
8.65425e-06;-0.015200543769311814
8.65450e-06;-0.015209450007092822
8.65475e-06;-0.01521835624487389
8.65500e-06;-0.0152223887637411
8.65525e-06;-0.015220183702325273
8.65550e-06;-0.015217978640909431
8.65575e-06;-0.01521100607148581
8.65600e-06;-0.015197931854742558
8.65625e-06;-0.015184857637999217
8.65650e-06;-0.015164325323611283
8.65675e-06;-0.015134247837735837
8.65700e-06;-0.015104170351860187
8.65725e-06;-0.015074092865984537
8.65750e-06;-0.015044015380109091
8.65775e-06;-0.01501393789423344
8.65800e-06;-0.014965781091472395
8.65825e-06;-0.014916442161439924
8.65850e-06;-0.014867103231407788
8.65875e-06;-0.01481776430137532
8.65900e-06;-0.014768425371342849
8.65925e-06;-0.0147139852973659
8.65950e-06;-0.014653016575459556
8.65975e-06;-0.014592047853553213
8.66000e-06;-0.01452891528868642
8.66025e-06;-0.014463013351102338
8.66050e-06;-0.014397111413518255
8.66075e-06;-0.014330071861812397
8.66100e-06;-0.01426157634607844
8.66125e-06;-0.01419287024679789
8.66150e-06;-0.014123894634277184
8.66175e-06;-0.014055190268070148
8.66200e-06;-0.013987238697699265
8.66225e-06;-0.013920355723872195
8.66250e-06;-0.013854842210904276
8.66275e-06;-0.01379099311229626
8.66300e-06;-0.013729176335695302
8.66325e-06;-0.013669813264205513
8.66350e-06;-0.013613334577360275
8.66375e-06;-0.013560169843498043
8.66400e-06;-0.013510760020294853
8.66425e-06;-0.0134656919970556
8.66450e-06;-0.013425803953837093
8.66475e-06;-0.01339185781374614
8.66500e-06;-0.013364178333060592
8.66525e-06;-0.013342802909326013
8.66550e-06;-0.013329101475777263
8.66575e-06;-0.013320694892557466
8.66600e-06;-0.013317847429014951
8.66625e-06;-0.013322114749051855
8.66650e-06;-0.01333375746334483
8.66675e-06;-0.01335483950202559
8.66700e-06;-0.013375921540706206
8.66725e-06;-0.013407811655662055
8.66750e-06;-0.013453534378669257
8.66775e-06;-0.013499257101676149
8.66800e-06;-0.013544979824683352
8.66825e-06;-0.013590702547690552
8.66850e-06;-0.013647569409172637
8.66875e-06;-0.01371869898454438
8.66900e-06;-0.013789828559916121
8.66925e-06;-0.013860958135287382
8.66950e-06;-0.013932087710659125
8.66975e-06;-0.014009435471613981
8.67000e-06;-0.014094741515039599
8.67025e-06;-0.014180047558465796
8.67050e-06;-0.01426800819370598
8.67075e-06;-0.014359366281662267
8.67100e-06;-0.014450724369619172
8.67125e-06;-0.014542780998535584
8.67150e-06;-0.014635731648094452
8.67175e-06;-0.01472868229765395
8.67200e-06;-0.014820150351898247
8.67225e-06;-0.014909720921393
8.67250e-06;-0.01499929149088836
8.67275e-06;-0.015086082943090818
8.67300e-06;-0.015169317569890076
8.67325e-06;-0.015241357362933241
8.67350e-06;-0.015299069560237013
8.67375e-06;-0.015356781757540395
8.67400e-06;-0.015414493954844167
8.67425e-06;-0.015472206152147939
8.67450e-06;-0.015529918349451319
8.67475e-06;-0.01558763054675509
8.67500e-06;-0.015645342744058863
8.67525e-06;-0.015703054941362635
8.67550e-06;-0.015760767138666015
8.67575e-06;-0.015784353231499643
8.67600e-06;-0.0158057079679658
8.67625e-06;-0.015827062704431814
8.67650e-06;-0.01584841744089797
8.67675e-06;-0.015869772177364128
8.67700e-06;-0.01589112691383014
8.67725e-06;-0.015912481650296295
8.67750e-06;-0.015933836386762452
8.67775e-06;-0.015955191123228463
8.67800e-06;-0.015965302897778408
8.67825e-06;-0.01596102548024413
8.67850e-06;-0.01595674806270988
8.67875e-06;-0.0159524706451756
8.67900e-06;-0.015948193227641322
8.67925e-06;-0.01594391581010707
8.67950e-06;-0.015939638392572793
8.67975e-06;-0.015935360975038514
8.68000e-06;-0.015931083557504264
8.68025e-06;-0.015926806139969985
8.68050e-06;-0.015911190161217163
8.68075e-06;-0.015894832803652528
8.68100e-06;-0.015878475446087777
8.68125e-06;-0.01586211808852303
8.68150e-06;-0.01584576073095839
8.68175e-06;-0.01582940337339364
8.68200e-06;-0.015813046015828894
8.68225e-06;-0.015796688658264255
8.68250e-06;-0.01578033130069951
8.68275e-06;-0.015764187678412728
8.68300e-06;-0.015748317603078633
8.68325e-06;-0.01573244752774443
8.68350e-06;-0.01571657745241023
8.68375e-06;-0.015700707377076028
8.68400e-06;-0.01568483730174193
8.68425e-06;-0.015668314781609488
8.68450e-06;-0.01565174960097187
8.68475e-06;-0.01563518442033436
8.68500e-06;-0.01561861923969674
8.68525e-06;-0.015602054059059121
8.68550e-06;-0.01558125620404595
8.68575e-06;-0.015555041203169591
8.68600e-06;-0.015528826202293233
8.68625e-06;-0.015502611201417051
8.68650e-06;-0.015476396200540693
8.68675e-06;-0.015450181199664334
8.68700e-06;-0.015423966198788153
8.68725e-06;-0.015392123070326339
8.68750e-06;-0.015353076839201257
8.68775e-06;-0.01531403060807644
8.68800e-06;-0.015274984376951357
8.68825e-06;-0.015235938145826276
8.68850e-06;-0.015196891914701458
8.68875e-06;-0.015157845683576376
8.68900e-06;-0.015114603255274193
8.68925e-06;-0.015065990366085536
8.68950e-06;-0.01501737747689655
8.68975e-06;-0.014968764587707562
8.69000e-06;-0.014920151698518905
8.69025e-06;-0.01487153880932992
8.69050e-06;-0.014822925920140933
8.69075e-06;-0.014772233998150081
8.69100e-06;-0.014721406137317867
8.69125e-06;-0.014670578276485652
8.69150e-06;-0.014619750415653781
8.69175e-06;-0.014568922554821567
8.69200e-06;-0.014518094693989353
8.69225e-06;-0.014468578742099022
8.69250e-06;-0.01442074182371551
8.69275e-06;-0.01437450834959395
8.69300e-06;-0.014330327027535908
8.69325e-06;-0.014286145705478166
8.69350e-06;-0.014247371530072083
8.69375e-06;-0.014215517637098593
8.69400e-06;-0.014183663744125318
8.69425e-06;-0.014151809851151827
8.69450e-06;-0.014119955958178335
8.69475e-06;-0.01408810206520506
8.69500e-06;-0.01405624817223157
8.69525e-06;-0.014024394279258078
8.69550e-06;-0.013992540386284802
8.69575e-06;-0.013960686493311312
8.69600e-06;-0.01392883260033782
8.69625e-06;-0.013905171129848327
8.69650e-06;-0.01388204532595197
8.69675e-06;-0.01385891952205561
8.69700e-06;-0.013835793718159408
8.69725e-06;-0.013812667914263048
8.69750e-06;-0.01378954211036669
