Time(s);Current(A)
1.10000e-05;0.0028539971446459754
1.10003e-05;0.002864758576995595
1.10005e-05;0.002875520009345288
1.10008e-05;0.0028862814416949806
1.10010e-05;0.0028970428740446004
1.10013e-05;0.002907804306394293
1.10015e-05;0.002918565738743986
1.10018e-05;0.0029293271710936052
1.10020e-05;0.002940088603443298
1.10023e-05;0.0029508500357929906
1.10025e-05;0.0029616114681426105
1.10028e-05;0.002972372900492303
1.10030e-05;0.002983134332841996
1.10033e-05;0.0029919179652096567
1.10035e-05;0.0030001341407230524
1.10038e-05;0.003008350316236448
1.10040e-05;0.0030165664917497876
1.10043e-05;0.0030247826672631832
1.10045e-05;0.0030329988427765784
1.10047e-05;0.0030412150182899185
1.10050e-05;0.0030494311938033137
1.10053e-05;0.0030576473693167093
1.10055e-05;0.003065863544830049
1.10058e-05;0.0030740797203434446
1.10060e-05;0.00308229589585684
1.10062e-05;0.00309051207137018
1.10065e-05;0.0030987282468835755
1.10068e-05;0.003106944422396971
1.10070e-05;0.0031151605979103667
1.10073e-05;0.0031233767734237063
1.10075e-05;0.003131592948937102
1.10078e-05;0.003139809124450497
1.10080e-05;0.003144626394197966
1.10083e-05;0.0031405745081766376
1.10085e-05;0.0031365226221553096
1.10088e-05;0.003132470736134009
1.10090e-05;0.0031284188501126808
1.10093e-05;0.0031243669640913527
1.10095e-05;0.003120315078070052
1.10098e-05;0.003116263192048724
1.10100e-05;0.0031122113060273954
1.10103e-05;0.0031081594200060947
1.10105e-05;0.0031041075339847666
1.10108e-05;0.0031000556479634385
1.10110e-05;0.003096003761942138
1.10113e-05;0.0030919518759208097
1.10115e-05;0.0030878999898994817
1.10118e-05;0.003083848103878181
1.10120e-05;0.003079796217856853
1.10123e-05;0.0030757443318355244
1.10125e-05;0.0030716924458142236
1.10128e-05;0.0030676405597928956
1.10130e-05;0.003061214700635916
1.10132e-05;0.0030541077173306366
1.10135e-05;0.0030470007340253086
1.10138e-05;0.0030398937507199806
1.10140e-05;0.003032786767414701
1.10143e-05;0.0030256797841093732
1.10145e-05;0.0030185728008040452
1.10147e-05;0.0030114658174987654
1.10150e-05;0.003004358834193438
1.10153e-05;0.00299725185088811
1.10155e-05;0.002990144867582782
1.10158e-05;0.0029849952687854833
1.10160e-05;0.002984953298531197
1.10163e-05;0.0029849113282769102
1.10165e-05;0.002984869358022624
1.10168e-05;0.0029848273877683376
1.10170e-05;0.002984785417514051
1.10173e-05;0.002984743447259765
1.10175e-05;0.0029847014770054783
1.10178e-05;0.002984659506751192
1.10180e-05;0.0029846175364969057
1.10183e-05;0.002984575566242619
1.10185e-05;0.0029845335959883326
1.10188e-05;0.0029931605015433085
1.10190e-05;0.003004274621702769
1.10193e-05;0.003015388741862229
1.10195e-05;0.0030265028620216137
1.10198e-05;0.003037616982181074
1.10200e-05;0.0030487311023405343
1.10203e-05;0.003059845222499919
1.10205e-05;0.003070959342659379
1.10208e-05;0.003082073462818839
1.10210e-05;0.003093187582978224
1.10213e-05;0.003104301703137684
1.10215e-05;0.0031167987692222172
1.10217e-05;0.003132904515181649
1.10220e-05;0.00314901026114119
1.10223e-05;0.003165116007100731
1.10225e-05;0.003181221753060163
1.10228e-05;0.0031973274990197043
1.10230e-05;0.003213433244979245
1.10232e-05;0.003229538990938677
1.10235e-05;0.0032456447368982184
1.10238e-05;0.0032617504828577593
1.10240e-05;0.0032778562288173
1.10243e-05;0.003293961974776732
1.10245e-05;0.003306195294736088
1.10248e-05;0.003317317564691153
1.10250e-05;0.003328439834646142
1.10253e-05;0.0033395621046012065
1.10255e-05;0.003350684374556271
1.10258e-05;0.0033618066445112605
1.10260e-05;0.003372928914466325
1.10263e-05;0.0033840511844213895
1.10265e-05;0.0033951734543763786
1.10268e-05;0.003406295724331443
1.10270e-05;0.003417417994286508
1.10273e-05;0.003428540264241497
1.10275e-05;0.0034396625341965616
1.10278e-05;0.003450784804151626
1.10280e-05;0.003460390497136451
1.10283e-05;0.003469561064221087
1.10285e-05;0.0034787316313057235
1.10288e-05;0.0034879021983902974
1.10290e-05;0.0034970727654749334
1.10293e-05;0.0035062433325595693
1.10295e-05;0.0035154138996441433
1.10298e-05;0.003524584466728779
1.10300e-05;0.003533755033813415
1.10302e-05;0.003542925600897989
1.10305e-05;0.003552096167982625
1.10308e-05;0.003561266735067261
1.10310e-05;0.003570437302151835
1.10313e-05;0.003579607869236471
1.10315e-05;0.003586831659126241
1.10317e-05;0.003593496893007054
1.10320e-05;0.003600162126887912
1.10323e-05;0.0036068273607687703
1.10325e-05;0.003613492594649628
1.10328e-05;0.003620157828530441
1.10330e-05;0.003626823062411299
1.10333e-05;0.0036334882962921573
1.10335e-05;0.00364015353017297
1.10338e-05;0.003646818764053828
1.10340e-05;0.003653483997934686
1.10343e-05;0.0036601492318154988
1.10345e-05;0.003666814465696357
1.10348e-05;0.003673479699577215
1.10350e-05;0.003680144933458028
1.10353e-05;0.003686810167338886
1.10355e-05;0.003693475401219744
1.10358e-05;0.003700140635100557
1.10360e-05;0.003706805868981415
1.10363e-05;0.003713471102862273
1.10365e-05;0.003720136336743086
1.10368e-05;0.003726801570623944
1.10370e-05;0.0037334668045048017
1.10373e-05;0.0037401320383856147
1.10375e-05;0.003746797272266473
1.10378e-05;0.003753462506147331
1.10380e-05;0.003754471359190687
1.10383e-05;0.003753857322098198
1.10385e-05;0.0037532432850057094
1.10387e-05;0.0037526292479132246
1.10390e-05;0.003752015210820736
1.10393e-05;0.003751401173728247
1.10395e-05;0.003750787136635763
1.10398e-05;0.003750173099543274
1.10400e-05;0.0037495590624507854
1.10402e-05;0.003748945025358301
1.10405e-05;0.0037483309882658123
1.10408e-05;0.0037477169511733236
1.10410e-05;0.003747102914080835
1.10413e-05;0.00374648887698835
1.10415e-05;0.0037458748398958614
1.10418e-05;0.0037452608028033726
1.10420e-05;0.0037446467657108883
1.10423e-05;0.0037440327286183996
1.10425e-05;0.003743418691525911
1.10428e-05;0.003742804654433426
1.10430e-05;0.0037421906173409373
1.10433e-05;0.003741576580248449
1.10435e-05;0.0037409625431559642
1.10438e-05;0.0037403485060634755
1.10440e-05;0.003739734468970987
1.10443e-05;0.0037391204318785024
1.10445e-05;0.0037355477810907508
1.10448e-05;0.0037311262650795924
1.10450e-05;0.0037267047490684635
1.10453e-05;0.003722283233057305
1.10455e-05;0.0037178617170461462
1.10458e-05;0.0037134402010350178
1.10460e-05;0.003709018685023859
1.10463e-05;0.0037045971690127005
1.10465e-05;0.0037001756530015716
1.10468e-05;0.0036957541369904133
1.10470e-05;0.0036913326209792544
1.10472e-05;0.003686911104968126
1.10475e-05;0.003682489588956967
1.10478e-05;0.0036780680729458087
1.10480e-05;0.00367364655693468
1.10483e-05;0.0036595580394861915
1.10485e-05;0.003642695932045362
1.10487e-05;0.003625833824604647
1.10490e-05;0.003608971717163818
1.10493e-05;0.0035921096097229883
1.10495e-05;0.003575247502282159
1.10498e-05;0.003558385394841444
1.10500e-05;0.003541523287400615
1.10503e-05;0.0035246611799597855
1.10505e-05;0.0035077990725190704
1.10508e-05;0.0034909369650782413
1.10510e-05;0.003474074857637412
1.10513e-05;0.003457212750196697
1.10515e-05;0.0034403506427558676
1.10518e-05;0.0034234885353150385
1.10520e-05;0.0034031355779707414
1.10523e-05;0.0033817810498267395
1.10525e-05;0.0033604265216827375
1.10528e-05;0.0033390719935388804
1.10530e-05;0.0033177174653948784
1.10533e-05;0.0032963629372508765
1.10535e-05;0.0032750084091070194
1.10538e-05;0.0032536538809630174
1.10540e-05;0.0032322993528190154
1.10543e-05;0.003210944824675158
1.10545e-05;0.003189590296531156
1.10548e-05;0.003168235768387154
1.10550e-05;0.003146881240243297
1.10553e-05;0.0031305066124168194
1.10555e-05;0.0031155607835594893
1.10557e-05;0.00310061495470226
1.10560e-05;0.00308566912584493
1.10563e-05;0.0030707232969876
1.10565e-05;0.0030557774681303712
1.10568e-05;0.003040831639273041
1.10570e-05;0.0030258858104157105
1.10572e-05;0.003010939981558482
1.10575e-05;0.0029959941527011517
1.10578e-05;0.0029810483238438216
1.10580e-05;0.0029661024949864914
1.10583e-05;0.0029511566661292623
1.10585e-05;0.002935800492202114
1.10588e-05;0.002920326584871592
1.10590e-05;0.0029048526775411754
1.10593e-05;0.0028893787702106532
1.10595e-05;0.0028739048628801315
1.10598e-05;0.0028584309555497144
1.10600e-05;0.0028429570482191927
1.10603e-05;0.002827483140888671
1.10605e-05;0.0028120092335582538
1.10608e-05;0.002796535326227732
1.10610e-05;0.0027810614188972104
1.10613e-05;0.002765587511566793
1.10615e-05;0.0027501136042362715
1.10618e-05;0.002734789810642608
1.10620e-05;0.002719857726090041
1.10623e-05;0.002704925641537373
1.10625e-05;0.0026899935569847057
1.10628e-05;0.002675061472432139
1.10630e-05;0.0026601293878794714
1.10633e-05;0.0026451973033268035
1.10635e-05;0.0026302652187742367
1.10638e-05;0.0026153331342215693
1.10640e-05;0.0026004010496689014
1.10642e-05;0.0025854689651163346
1.10645e-05;0.002570536880563667
1.10648e-05;0.0025556047960109993
1.10650e-05;0.002540672711458433
1.10653e-05;0.0025347509253877804
1.10655e-05;0.002531414312587375
1.10657e-05;0.002528077699786992
1.10660e-05;0.0025247410869865864
1.10663e-05;0.002521404474186181
1.10665e-05;0.0025180678613857753
1.10668e-05;0.0025147312485853924
1.10670e-05;0.002511394635784987
1.10673e-05;0.0025080580229845813
1.10675e-05;0.0025047214101841984
1.10678e-05;0.002501384797383793
1.10680e-05;0.0024980481845833873
1.10683e-05;0.0024947115717830043
1.10685e-05;0.002491374958982599
1.10688e-05;0.002502724660190639
1.10690e-05;0.002518288058257989
1.10693e-05;0.0025338514563254446
1.10695e-05;0.0025494148543929
1.10698e-05;0.00256497825246025
1.10700e-05;0.002580541650527705
1.10703e-05;0.0025961050485951605
1.10705e-05;0.0026116684466625105
1.10708e-05;0.002627231844729966
1.10710e-05;0.0026427952427974214
1.10713e-05;0.0026583586408647714
1.10715e-05;0.0026739220389322264
1.10718e-05;0.002689485436999682
1.10720e-05;0.002705048835067032
1.10723e-05;0.0027257160996229995
1.10725e-05;0.0027478477306758075
1.10727e-05;0.002769979361728465
1.10730e-05;0.002792110992781273
1.10733e-05;0.0028142426238340805
1.10735e-05;0.0028363742548867385
1.10738e-05;0.002858505885939546
1.10740e-05;0.002880637516992354
1.10742e-05;0.0029027691480450115
1.10745e-05;0.0029229121327177796
1.10748e-05;0.002937865913637093
1.10750e-05;0.002952819694556305
1.10753e-05;0.0029677734754756185
1.10755e-05;0.002982727256394932
1.10758e-05;0.0029976810373142453
1.10760e-05;0.0030126348182334573
1.10763e-05;0.0030275885991527707
1.10765e-05;0.003042542380072084
1.10768e-05;0.0030574961609912965
1.10770e-05;0.00306090796044071
1.10773e-05;0.0030610082134353567
1.10775e-05;0.0030611084664300026
1.10778e-05;0.0030612087194246494
1.10780e-05;0.003061308972419296
1.10783e-05;0.003061409225413942
1.10785e-05;0.003061509478408589
1.10788e-05;0.0030616097314032356
1.10790e-05;0.003061709984397882
1.10793e-05;0.0030618102373925287
1.10795e-05;0.0030619104903871755
1.10798e-05;0.0030620107433818214
1.10800e-05;0.003052415804310629
1.10803e-05;0.0030400391869807994
1.10805e-05;0.0030276625696510533
1.10808e-05;0.003015285952321223
1.10810e-05;0.0030029093349913934
1.10812e-05;0.002990532717661647
1.10815e-05;0.002978156100331817
1.10818e-05;0.002965779483001987
1.10820e-05;0.002953402865672241
1.10823e-05;0.002941026248342411
1.10825e-05;0.002928649631012581
1.10827e-05;0.002916273013682835
1.10830e-05;0.002902618434258382
1.10833e-05;0.002888597190682243
1.10835e-05;0.0028745759471061993
1.10838e-05;0.00286055470353006
1.10840e-05;0.0028465334599539214
1.10843e-05;0.0028325122163777826
1.10845e-05;0.002818490972801739
1.10848e-05;0.0028044697292255996
1.10850e-05;0.002790448485649461
1.10853e-05;0.002776427242073417
1.10855e-05;0.002762405998497278
1.10858e-05;0.0027510865834221064
1.10860e-05;0.00274681736024781
1.10863e-05;0.002742548137073484
1.10865e-05;0.0027382789138991584
1.10868e-05;0.0027340096907248613
1.10870e-05;0.0027297404675505356
1.10873e-05;0.00272547124437621
1.10875e-05;0.0027212020212019133
1.10878e-05;0.0027169327980275876
1.10880e-05;0.002712663574853262
1.10883e-05;0.0027083943516789653
1.10885e-05;0.002704125128504639
1.10888e-05;0.0027093760889875555
1.10890e-05;0.0027173585155129644
1.10893e-05;0.002725340942038427
1.10895e-05;0.0027333233685638897
1.10897e-05;0.0027413057950892985
1.10900e-05;0.002749288221614761
1.10903e-05;0.002757270648140224
1.10905e-05;0.0027652530746656327
1.10908e-05;0.0027732355011910953
1.10910e-05;0.002781217927716558
1.10912e-05;0.002789200354241967
1.10915e-05;0.002798740578504376
1.10918e-05;0.0028123457435972176
1.10920e-05;0.002825950908689967
1.10923e-05;0.0028395560737828084
1.10925e-05;0.0028531612388756496
1.10928e-05;0.0028667664039684912
1.10930e-05;0.0028803715690612405
1.10933e-05;0.0028939767341540816
1.10935e-05;0.0029075818992469232
1.10938e-05;0.0029211870643396725
1.10940e-05;0.002934792229432514
1.10943e-05;0.0029483973945253553
1.10945e-05;0.002959267546867409
1.10948e-05;0.0029693529880395315
1.10950e-05;0.0029794384292116546
1.10953e-05;0.002989523870383709
1.10955e-05;0.0029996093115558322
1.10958e-05;0.003009694752727955
1.10960e-05;0.00301978019390001
1.10963e-05;0.0030298656350721325
1.10965e-05;0.0030399510762442556
1.10968e-05;0.00305003651741631
1.10970e-05;0.0030601219585884333
1.10973e-05;0.003070207399760556
1.10975e-05;0.00308028161680581
1.10978e-05;0.003090326545445937
1.10980e-05;0.003100371474086064
1.10983e-05;0.0031104164027261232
1.10985e-05;0.0031204613313662506
1.10988e-05;0.003130506260006378
1.10990e-05;0.0031405511886464367
1.10993e-05;0.003150596117286564
1.10995e-05;0.0031606410459266913
1.10997e-05;0.00317068597456675
1.11000e-05;0.0031807309032068774
1.11003e-05;0.0031907758318470048
1.11005e-05;0.0032008207604870636
1.11008e-05;0.0032123671528586214
1.11010e-05;0.0032243443349445986
1.11013e-05;0.003236321517030576
1.11015e-05;0.003248298699116472
1.11018e-05;0.003260275881202449
1.11020e-05;0.0032722530632884263
1.11023e-05;0.0032842302453743224
1.11025e-05;0.0032962074274602996
1.11028e-05;0.0033081846095462768
1.11030e-05;0.0033191784590417494
1.11033e-05;0.003328884063203856
1.11035e-05;0.003338589667365963
1.11038e-05;0.003348295271528004
1.11040e-05;0.003358000875690111
1.11043e-05;0.0033677064798522177
1.11045e-05;0.003377412084014259
1.11048e-05;0.0033871176881763655
1.11050e-05;0.003396823292338472
1.11053e-05;0.0034056543366388
1.11055e-05;0.0034144309435418497
1.11058e-05;-0.08495477764361435
1.11060e-05;-0.039956029987095826
1.11063e-05;-0.01364248890017052
1.11065e-05;0.0063452211760295345
1.11068e-05;0.024990399861224033
1.11070e-05;0.0297217281076488
1.11073e-05;0.019553037408032704
1.11075e-05;0.0041993068637296745
1.11078e-05;-0.012357846135228029
1.11080e-05;-0.01653393562525601
1.11082e-05;-0.006562800748364912
1.11085e-05;0.006157561115354792
1.11088e-05;0.017662354149737578
1.11090e-05;0.020523379950163574
1.11093e-05;0.014080735709387206
1.11095e-05;0.0044035216684766565
1.11098e-05;-0.006020674038726958
1.11100e-05;-0.008685509055689065
1.11103e-05;-0.0024864757938481696
1.11105e-05;0.005435825994418973
1.11108e-05;0.012597634759003596
1.11110e-05;0.014346147723181765
1.11113e-05;0.01026848683338089
1.11115e-05;0.004166677557510802
1.11118e-05;-0.0024009422396582087
1.11120e-05;-0.004106202520394023
1.11123e-05;-0.00025770302501254474
1.11125e-05;0.0046714098460012045
1.11128e-05;0.009125306415390898
1.11130e-05;0.010189681111511356
1.11133e-05;0.007606259784486568
1.11135e-05;0.003756883872697083
1.11138e-05;-0.0003821979582505908
1.11140e-05;-0.0014735134289848766
1.11143e-05;0.0009157738430011204
1.11145e-05;0.0039835458702938
1.11148e-05;0.00675526371493972
1.11150e-05;0.007405569551698924
1.11153e-05;0.005772934338732392
1.11155e-05;0.0033495353485787855
1.11158e-05;0.0007468956045328639
1.11160e-05;5.5161831576758214e-05
1.11163e-05;0.0015446637369356173
1.11165e-05;0.00345960359503456
1.11167e-05;0.005189388300545557
1.11170e-05;0.005590657804603051
1.11173e-05;0.004562331218277085
1.11175e-05;0.003039169934690366
1.11178e-05;0.0014042362113471417
1.11180e-05;0.0009667236697072932
1.11183e-05;0.0018958283135645684
1.11185e-05;0.003091626541205029
1.11188e-05;0.004171617840380931
1.11190e-05;0.004419628318154334
1.11193e-05;0.0037724026733697443
1.11195e-05;0.002815512977617336
1.11198e-05;0.0017889105557682573
1.11200e-05;0.0015126265561831323
1.11203e-05;0.002092557292646657
1.11205e-05;0.002839651583489789
1.11208e-05;0.0035142942792247434
1.11210e-05;0.0036678893623219256
1.11213e-05;0.0032608512113322208
1.11215e-05;0.0026600042443595843
1.11218e-05;0.0020156531950862085
1.11220e-05;0.001841434291796248
1.11223e-05;0.0022036246140663997
1.11225e-05;0.0026705642325862053
1.11228e-05;0.0030921460395644407
1.11230e-05;0.0031873777470051287
1.11233e-05;0.0029314852368068087
1.11235e-05;0.0025542595172014385
1.11238e-05;0.002149849659897788
1.11240e-05;0.0020399765232179574
1.11243e-05;0.0022661191043615338
1.11245e-05;0.0025578602756801917
1.11248e-05;0.0028211640607289225
1.11250e-05;0.0028800206841352264
1.11252e-05;0.0027189238444133156
1.11255e-05;0.0024818210823513197
1.11258e-05;0.0022277269473198053
1.11260e-05;0.002158327026397661
1.11263e-05;0.002299841644861748
1.11265e-05;0.0024830262797931736
1.11268e-05;0.002648988517297401
1.11270e-05;0.0026874485375912387
1.11273e-05;0.002588670616826347
1.11275e-05;0.0024427973916590056
1.11278e-05;0.002286763757445435
1.11280e-05;0.002246866058530368
1.11283e-05;0.0023394833398225575
1.11285e-05;0.0024585597540174326
1.11288e-05;0.002567170342919616
1.11290e-05;0.002596206319615426
1.11293e-05;0.002539543008773931
1.11295e-05;0.0024536168811126564
1.11298e-05;0.002361532051417096
1.11300e-05;0.002342363649884311
1.11303e-05;0.002406330672471078
1.11305e-05;0.0024869618614368483
1.11308e-05;0.0025610936402797302
1.11310e-05;0.0025854053210388863
1.11313e-05;0.002556031838285319
1.11315e-05;0.0025082949614276396
1.11318e-05;0.002456634613444465
1.11320e-05;0.002450548283263067
1.11323e-05;0.0024963993899299996
1.11325e-05;0.00255251467421665
1.11328e-05;0.0026043506755151343
1.11330e-05;0.002624739972135705
1.11333e-05;0.002611231491194612
1.11335e-05;0.00258591949953323
1.11337e-05;0.002557816908906485
1.11340e-05;0.00255789479961357
1.11343e-05;0.002590103266644292
1.11345e-05;0.002628303446523714
1.11348e-05;0.002663352373735617
1.11350e-05;0.002678200353202754
1.11353e-05;0.00267128114303232
1.11355e-05;0.0026559914059270874
1.11358e-05;0.0026389203795496494
1.11360e-05;0.0026391974608735674
1.11363e-05;0.002659019732733609
1.11365e-05;0.0026819371180771185
1.11368e-05;0.002703396652841481
1.11370e-05;0.0027122843931632577
1.11373e-05;0.0027070812135792763
1.11375e-05;0.002696506792151979
1.11378e-05;0.002684757342965992
1.11380e-05;0.002683798327158414
1.11383e-05;0.002694982279561289
1.11385e-05;0.0027080110306177264
1.11388e-05;0.002720083532321864
1.11390e-05;0.002724228460825321
1.11393e-05;0.00271948095414166
1.11395e-05;0.002711313968562828
1.11398e-05;0.0027023866596084995
1.11400e-05;0.0027001918023484024
1.11403e-05;0.002705571904393917
1.11405e-05;0.00271208786012362
1.11408e-05;0.002717997218274857
1.11410e-05;0.0027178984760359015
1.11413e-05;0.002713583076471084
1.11415e-05;0.002707564161888444
1.11418e-05;0.002700349671564161
1.11420e-05;0.002698279108429329
1.11422e-05;0.002699818701060485
1.11425e-05;0.0027017599738179392
1.11428e-05;0.0027039831572188756
1.11430e-05;0.0027025102951662118
1.11433e-05;0.0026984434423134957
1.11435e-05;0.002693394484288236
1.11438e-05;0.002687656256660045
1.11440e-05;0.0026852416037280854
1.11443e-05;0.002685159530926197
1.11445e-05;0.002685446987423058
1.11448e-05;0.0026859937901896774
1.11450e-05;0.002684360424818492
1.11453e-05;0.002681196954863156
1.11455e-05;0.002677535694328982
1.11458e-05;0.0026735250700767087
1.11460e-05;0.0026711338214426127
1.11463e-05;0.0026698790971039664
1.11465e-05;0.002667779626872992
1.11468e-05;0.0026650872897250916
1.11470e-05;0.002660021811068085
1.11473e-05;0.0026532907935753734
1.11475e-05;0.0026453658858843787
1.11478e-05;0.002636603071779881
1.11480e-05;0.00262809753270172
1.11483e-05;0.002619772556622554
1.11485e-05;0.0026102866620449287
1.11488e-05;0.002599986001539038
1.11490e-05;0.002587692194943273
