Time(s);Current(A)
7.25000e-06;0.0005266817901400408
7.25025e-06;0.00048327671158880593
7.25050e-06;0.00043987163303771816
7.25075e-06;0.00039654761506086836
7.25100e-06;0.0003532332489916661
7.25125e-06;0.0003099188829224639
7.25150e-06;0.00026734576838590086
7.25175e-06;0.0002259146685692097
7.25200e-06;0.00018515076464076753
7.25225e-06;0.00014585281780963362
7.25250e-06;0.00010770845562129896
7.25275e-06;7.087992310515178e-05
7.25300e-06;3.56265454310131e-05
7.25325e-06;2.2174264468621785e-06
7.25350e-06;-2.907838391162958e-05
7.25375e-06;-5.799335929599582e-05
7.25400e-06;-8.427937487037763e-05
7.25425e-06;-0.00010775057501603722
7.25450e-06;-0.00012830284022297863
7.25475e-06;-0.00014587862180587917
7.25500e-06;-0.00016042932202624784
7.25525e-06;-0.000171906125785743
7.25550e-06;-0.00018026028416840299
7.25575e-06;-0.00018544400477041038
7.25600e-06;-0.000187421668035768
7.25625e-06;-0.0001861966534618751
7.25650e-06;-0.0001818235530365437
7.25675e-06;-0.00017438611688663045
7.25700e-06;-0.00016397370399314724
7.25725e-06;-0.00015067554360354414
7.25750e-06;-0.00013458089979686278
7.25775e-06;-0.00011577963588669161
7.25800e-06;-9.43692161120952e-05
7.25825e-06;-7.047155414457006e-05
7.25850e-06;-4.424062945715999e-05
7.25875e-06;-1.584867254859102e-05
7.25900e-06;1.4528581070651868e-05
7.25925e-06;4.671548413345762e-05
7.25950e-06;8.053638474770854e-05
7.25975e-06;0.00011581526747209234
7.26000e-06;0.00015237135398035793
7.26025e-06;0.0001901518085945488
7.26050e-06;0.00022873145334628383
7.26075e-06;0.0002677263872151859
7.26100e-06;0.00030736113936902313
7.26125e-06;0.0003469958915228604
7.26150e-06;0.000386630643676832
7.26175e-06;0.00042529531423719715
7.26200e-06;0.00046384447688420014
7.26225e-06;0.0005023936395313338
7.26250e-06;0.0005398146316471476
7.26275e-06;0.0005754974993939478
7.26300e-06;0.0006098445033663908
7.26325e-06;0.0006421333988206485
7.26350e-06;0.0006726901480743179
7.26375e-06;0.0007005782533252129
7.26400e-06;0.0007267376260356695
7.26425e-06;0.0007502336140247576
7.26450e-06;0.000773729602013766
7.26475e-06;0.0007959222132769158
7.26500e-06;0.0008161067674366255
7.26525e-06;0.0008362913215962667
7.26550e-06;0.0008547748496123546
7.26575e-06;0.000870637678974761
7.26600e-06;0.0008865005083371137
7.26625e-06;0.0009011783470168537
7.26650e-06;0.0009140305209363763
7.26675e-06;0.0009268826948558553
7.26700e-06;0.0009378348320935264
7.26725e-06;0.0009458596636029781
7.26750e-06;0.0009538844951124027
7.26775e-06;0.0009619093266218544
7.26800e-06;0.000969934158131279
7.26825e-06;0.0009779589896407035
7.26850e-06;0.0009859838211501554
7.26875e-06;0.00099400865265958
7.26900e-06;0.0010020334841690046
7.26925e-06;0.001008129050326113
7.26950e-06;0.0010112522793851934
7.26975e-06;0.0010143755084442735
7.27000e-06;0.0010174987375033645
7.27025e-06;0.0010206219665624449
7.27050e-06;0.001023745195621525
7.27075e-06;0.001026868424680616
7.27100e-06;0.0010299916537396961
7.27125e-06;0.0010331148827987765
7.27150e-06;0.001035441598767447
7.27175e-06;0.001036541160884656
7.27200e-06;0.001037640723001869
7.27225e-06;0.0010387402851190779
7.27250e-06;0.0010398398472362869
7.27275e-06;0.0010409394093534997
7.27300e-06;0.0010416072465449816
7.27325e-06;0.0010416099434999372
7.27350e-06;0.001041612640454893
7.27375e-06;0.0010416153374098486
7.27400e-06;0.0010416180343648042
7.27425e-06;0.00104162073131976
7.27450e-06;0.001039411689536185
7.27475e-06;0.0010337951159193226
7.27500e-06;0.0010281785423024413
7.27525e-06;0.0010205598989457582
7.27550e-06;0.0010098567518672043
7.27575e-06;0.0009991536047886142
7.27600e-06;0.0009862559552829152
7.27625e-06;0.0009699773291960488
7.27650e-06;0.0009536987031092375
7.27675e-06;0.0009348771597808687
7.27700e-06;0.0009121378519811046
7.27725e-06;0.0008893985441814177
7.27750e-06;0.0008646320644018713
7.27775e-06;0.0008367424069465907
7.27800e-06;0.0008088527494914047
7.27825e-06;0.0007790050409489865
7.27850e-06;0.000746140646351166
7.27875e-06;0.0007132762517534568
7.27900e-06;0.0006788645602759698
7.27925e-06;0.0006420690142855767
7.27950e-06;0.0006052734682953084
7.27975e-06;0.0005674817788207524
7.28000e-06;0.00052815537343511
7.28025e-06;0.0004888289680496008
7.28050e-06;0.00044950256266395846
7.28075e-06;0.00040986252724206185
7.28100e-06;0.0003697392953584354
7.28125e-06;0.000329616063474673
7.28150e-06;0.0002894928315910466
7.28175e-06;0.0002499991708740175
7.28200e-06;0.00021147546368428983
7.28225e-06;0.000173506533563131
7.28250e-06;0.00013684877020712487
7.28275e-06;0.0001014497400945281
7.28300e-06;6.756398395673776e-05
7.28325e-06;3.545042723440507e-05
7.28350e-06;5.367953802099045e-06
7.28375e-06;-2.2392038540891986e-05
7.28400e-06;-4.732172651172154e-05
7.28425e-06;-6.856831106566262e-05
7.28450e-06;-8.535228251145155e-05
7.28475e-06;-9.740144067470999e-05
7.28500e-06;-0.00010474544993153019
7.28525e-06;-0.0001074429048840955
7.28550e-06;-0.00010555241909859033
7.28575e-06;-9.91122475563249e-05
7.28600e-06;-8.802509785074706e-05
7.28625e-06;-7.197760497979725e-05
7.28650e-06;-5.070234547575872e-05
7.28675e-06;-2.4249710012994055e-05
7.28700e-06;7.140838090009721e-06
7.28725e-06;4.321172674081723e-05
7.28750e-06;8.370538516277933e-05
7.28775e-06;0.00012837700090636601
7.28800e-06;0.0001770666770772887
7.28825e-06;0.0002297498660111814
7.28850e-06;0.0002863732378808693
7.28875e-06;0.00034668440665756704
7.28900e-06;0.000410312535079866
7.28925e-06;0.0004773322258893346
7.28950e-06;0.0005466948029402589
7.28975e-06;0.0006179283636502375
7.29000e-06;0.0006920444693296602
7.29025e-06;0.0007661605750090828
7.29050e-06;0.00084159057332147
7.29075e-06;0.000919044830146619
7.29100e-06;0.0009964990869717682
7.29125e-06;0.0010739533437971796
7.29150e-06;0.0011504121291783939
7.29175e-06;0.0012253372340330223
7.29200e-06;0.0013002623388879047
7.29225e-06;0.001375187443742533
7.29250e-06;0.0014471129531073686
7.29275e-06;0.0015144171132430843
7.29300e-06;0.001581721273378572
7.29325e-06;0.0016454654746192827
7.29350e-06;0.001703724998558624
7.29375e-06;0.0017583545644755598
7.29400e-06;0.0018073916084122765
7.29425e-06;0.0018522305069951918
7.29450e-06;0.0018906015015357441
7.29475e-06;0.0019289724960764264
7.29500e-06;0.0019621996162714713
7.29525e-06;0.0019875017879786246
7.29550e-06;0.002012803959685864
7.29575e-06;0.002032585899094526
7.29600e-06;0.0020438630513199014
7.29625e-06;0.0020551402035453147
7.29650e-06;0.002061575242882676
7.29675e-06;0.002060550244779097
7.29700e-06;0.002059525246675515
7.29725e-06;0.0020539279293968317
7.29750e-06;0.002041286234379173
7.29775e-06;0.0020286445393615567
7.29800e-06;0.002011910957757166
7.29825e-06;0.0019888731804747904
7.29850e-06;0.001965835403192493
7.29875e-06;0.0019383489469131357
7.29900e-06;0.001904008600060081
7.29925e-06;0.0018696682532071426
7.29950e-06;0.0018353279063542045
7.29975e-06;0.0018009875595011498
7.30000e-06;0.0017666472126482114
7.30025e-06;0.0017291342466056463
7.30050e-06;0.0016867333610769283
7.30075e-06;0.0016443324755483538
7.30100e-06;0.0016019315900197796
7.30125e-06;0.0015595307044910616
7.30150e-06;0.0015171298189624871
7.30175e-06;0.001475684295985253
7.30200e-06;0.0014357106594692518
7.30225e-06;0.0013957370229532506
7.30250e-06;0.0013557633864371137
7.30275e-06;0.0013157897499211126
7.30300e-06;0.0012758161134051112
7.30325e-06;0.0012358424768889745
7.30350e-06;0.00120738631125087
7.30375e-06;0.001180301534405747
7.30400e-06;0.0011532167575605324
7.30425e-06;0.0011261319807154093
7.30450e-06;0.0010990472038702865
7.30475e-06;0.0010719624270250716
7.30500e-06;0.0010489861909175517
7.30525e-06;0.0010323398088290892
7.30550e-06;0.0010156934267405704
7.30575e-06;0.001001798027160361
7.30600e-06;0.000992140949358604
7.30625e-06;0.0009824838715568798
7.30650e-06;0.0009750751510649048
7.30675e-06;0.0009711303790796784
7.30700e-06;0.0009671856070944655
7.30725e-06;0.0009654115259204636
7.30750e-06;0.0009669817357812707
7.30775e-06;0.0009685519456420724
7.30800e-06;0.000972070767476535
7.30825e-06;0.0009785917329235855
7.30850e-06;0.000985112698370614
7.30875e-06;0.0009937967765498382
7.30900e-06;0.0010058134705396937
7.30925e-06;0.0010178301645295085
7.30950e-06;0.0010298468585193232
7.30975e-06;0.0010418635525091787
7.31000e-06;0.0010538802464989936
7.31025e-06;0.0010658969404888491
7.31050e-06;0.0010814579210263334
7.31075e-06;0.0010974409208508982
7.31100e-06;0.0011134239206755173
7.31125e-06;0.0011294069205000819
7.31150e-06;0.0011453899203246467
7.31175e-06;0.0011613729201492657
7.31200e-06;0.0011770515016491488
7.31225e-06;0.0011922610787801445
7.31250e-06;0.0012074706559111919
7.31275e-06;0.0012226802330421876
7.31300e-06;0.0012378898101731834
7.31325e-06;0.0012530993873042305
7.31350e-06;0.0012629266946919324
7.31375e-06;0.0012721131335694095
7.31400e-06;0.0012812995724469176
7.31425e-06;0.0012904860113243945
7.31450e-06;0.0012996724502019026
7.31475e-06;0.0013048785806537623
7.31500e-06;0.0013039524191584145
7.31525e-06;0.0013030262576630635
7.31550e-06;0.0012990838409458394
7.31575e-06;0.0012904944080605898
7.31600e-06;0.0012819049751753113
7.31625e-06;0.0012699025082481487
7.31650e-06;0.001252641724896191
7.31675e-06;0.0012353809415441746
7.31700e-06;0.0012148545759451937
7.31725e-06;0.0011892970666321665
7.31750e-06;0.001163739557319053
7.31775e-06;0.0011354060778097288
7.31800e-06;0.0011027957790544604
7.31825e-06;0.0010701854802990817
7.31850e-06;0.0010350098196756652
7.31875e-06;0.000995881815102247
7.31900e-06;0.0009567538105289615
7.31925e-06;0.0009157963055233572
7.31950e-06;0.0008720201669927856
7.31975e-06;0.0008282440284623625
7.32000e-06;0.0007832166994409946
7.32025e-06;0.0007362617144313292
7.32050e-06;0.0006893067294218228
7.32075e-06;0.0006423517444123165
7.32100e-06;0.0005952348138706566
7.32125e-06;0.0005478683807340258
7.32150e-06;0.000500501947597395
7.32175e-06;0.0004531355144606037
7.32200e-06;0.00040668616172604143
7.32225e-06;0.0003616497157721582
7.32250e-06;0.0003173822540682567
7.32275e-06;0.00027496465905597526
7.32300e-06;0.00023435898101619823
7.32325e-06;0.00019587532435939625
7.32350e-06;0.00015982374148132308
7.32375e-06;0.00012647989189892877
7.32400e-06;9.587119723812169e-05
7.32425e-06;6.756421458536289e-05
7.32450e-06;4.102613127863948e-05
7.32475e-06;1.6114973320350046e-05
7.32500e-06;-7.039732086688261e-06
7.32525e-06;-2.8280237742184284e-05
7.32550e-06;-4.7448841180032446e-05
7.32575e-06;-6.440939157887841e-05
7.32600e-06;-7.918124981661507e-05
7.32625e-06;-9.207243991547514e-05
7.32650e-06;-0.0001034532032572872
7.32675e-06;-0.0001134489385106975
7.32700e-06;-0.00012201498343505091
7.32725e-06;-0.00012908900025650408
7.32750e-06;-0.00013460867767400213
7.32775e-06;-0.00013852521583716367
7.32800e-06;-0.00014088724975751292
7.32825e-06;-0.0001419241859431838
7.32850e-06;-0.00014190439749464868
7.32875e-06;-0.00014094289813310916
7.32900e-06;-0.00013904813727937408
7.32925e-06;-0.00013621749249202083
7.32950e-06;-0.00013244838188868042
7.32975e-06;-0.00012774668993774713
7.33000e-06;-0.0001221793050940267
7.33025e-06;-0.00011592636990039235
7.33050e-06;-0.0001091924083896704
7.33075e-06;-0.0001020248889703563
7.33100e-06;-9.45544777509297e-05
7.33125e-06;-8.686755112007307e-05
7.33150e-06;-7.884704840118189e-05
7.33175e-06;-7.070168218042329e-05
7.33200e-06;-6.236394407160207e-05
7.33225e-06;-5.4026205962752605e-05
7.33250e-06;-4.580915019476773e-05
7.33275e-06;-3.7901841357513385e-05
7.33300e-06;-3.033198608543853e-05
7.33325e-06;-2.3157706934090824e-05
7.33350e-06;-1.6437127116675166e-05
7.33375e-06;-1.0205348876659026e-05
7.33400e-06;-4.3361349326869284e-06
7.33425e-06;1.5808791379612973e-06
7.33450e-06;7.977315365352175e-06
7.33475e-06;1.4985642987150038e-05
7.33500e-06;2.254421186524688e-05
7.33525e-06;3.0571852548672917e-05
7.33550e-06;3.898739566348254e-05
7.33575e-06;4.7724101476297104e-05
7.33600e-06;5.681629270064711e-05
7.33625e-06;6.647625572588234e-05
7.33650e-06;7.692956670664685e-05
7.33675e-06;8.821440180830075e-05
7.33700e-06;0.00010024733890438454
7.33725e-06;0.00011293273243542456
7.33750e-06;0.0001262588254310764
7.33775e-06;0.00014001663173149486
7.33800e-06;0.00015416918116121836
7.33825e-06;0.00016892989454523943
7.33850e-06;0.00018417681968431617
7.33875e-06;0.00020017283060021226
7.33900e-06;0.00021657751946234076
7.33925e-06;0.0002336118410588763
7.33950e-06;0.0002506461626554696
7.33975e-06;0.0002679665371449205
7.34000e-06;0.0002857276211632558
7.34025e-06;0.000303488705181531
7.34050e-06;0.0003212497891998061
7.34075e-06;0.0003390108732181414
7.34100e-06;0.0003566233278432157
7.34125e-06;0.00037400679548208084
7.34150e-06;0.00039139026312100483
7.34175e-06;0.00040877373075986996
7.34200e-06;0.0004261571983987351
7.34225e-06;0.0004428678496372393
7.34250e-06;0.0004585419212565265
7.34275e-06;0.00047421599287581363
7.34300e-06;0.0004890219485435891
7.34325e-06;0.0005024904348780968
7.34350e-06;0.0005159589212126044
7.34375e-06;0.0005288558332842377
7.34400e-06;0.0005408721451929993
7.34425e-06;0.0005528884571018017
7.34450e-06;0.0005664056645498443
7.34475e-06;0.0005822352379352617
7.34500e-06;0.0005993860696709242
7.34525e-06;0.0006185725079650518
7.34550e-06;0.0006387812115002566
7.34575e-06;0.0006605648756244169
7.34600e-06;0.0006836549406578985
7.34625e-06;0.0007087577220225927
7.34650e-06;0.0007358193601611556
7.34675e-06;0.0007658989256377818
7.34700e-06;0.0007976686195120056
7.34725e-06;0.0008320422223419956
7.34750e-06;0.00086801182971548
7.34775e-06;0.0009064403334250149
7.34800e-06;0.0009448688371346799
7.34825e-06;0.0009853764126807316
7.34850e-06;0.0010290871258004364
7.34875e-06;0.0010727978389199928
7.34900e-06;0.001118509603306557
7.34925e-06;0.0011673043022928475
7.34950e-06;0.0012160990012789726
7.34975e-06;0.0012648937002650979
7.35000e-06;0.0013136883992513884
7.35025e-06;0.0013624830982375134
7.35050e-06;0.0014129433897457913
7.35075e-06;0.0014636020038666787
7.35100e-06;0.0015142606179873945
7.35125e-06;0.0015649192321081102
7.35150e-06;0.0016155778462289975
7.35175e-06;0.0016641268328866023
7.35200e-06;0.0017094256062163073
7.35225e-06;0.0017547243795461658
7.35250e-06;0.0018000231528758708
7.35275e-06;0.0018453219262057291
7.35300e-06;0.0018906206995354343
7.35325e-06;0.001930288781542567
7.35350e-06;0.0019612818968547815
7.35375e-06;0.0019922750121668907
7.35400e-06;0.002023268127479
7.35425e-06;0.0020542612427912146
7.35450e-06;0.002085254358103324
7.35475e-06;0.0021103580999583334
7.35500e-06;0.0021263883345535276
7.35525e-06;0.0021424185691486675
7.35550e-06;0.0021542052956533666
7.35575e-06;0.002159454229683917
7.35600e-06;0.00216470316371445
7.35625e-06;0.0021657707534006843
7.35650e-06;0.002160396323653204
7.35675e-06;0.0021550218939057415
7.35700e-06;0.0021457930980640647
7.35725e-06;0.0021306260442751643
7.35750e-06;0.002115458990486264
7.35775e-06;0.002096777164886269
7.35800e-06;0.002072680279811097
7.35825e-06;0.0020485833947359255
7.35850e-06;0.002020260397079891
7.35875e-06;0.001985426407472282
7.35900e-06;0.0019505924178646727
7.35925e-06;0.0019157584282569456
7.35950e-06;0.0018809244386493364
7.35975e-06;0.0018460904490417273
7.36000e-06;0.001811256459434
7.36025e-06;0.0017697296855565643
7.36050e-06;0.0017274059998039176
7.36075e-06;0.0016850823140511274
7.36100e-06;0.0016427586282984808
7.36125e-06;0.0016004349425458339
7.36150e-06;0.001558111256793044
7.36175e-06;0.0015169771038722366
7.36200e-06;0.0014776756136042318
7.36225e-06;0.0014383741233363599
7.36250e-06;0.0013990726330684882
7.36275e-06;0.0013597711428004833
7.36300e-06;0.0013204696525326116
7.36325e-06;0.00128116816226474
7.36350e-06;0.0012532156485485894
7.36375e-06;0.0012266144609503356
7.36400e-06;0.001200013273352082
7.36425e-06;0.001173412085753738
7.36450e-06;0.0011468108981554843
7.36475e-06;0.0011202097105572307
7.36500e-06;0.0010976356857044895
7.36525e-06;0.0010812661392513316
7.36550e-06;0.0010648965927981735
7.36575e-06;0.0010512245558145878
7.36600e-06;0.001041708456967596
7.36625e-06;0.001032192358120572
7.36650e-06;0.0010248796051451682
7.36675e-06;0.0010209614534635464
7.36700e-06;0.0010170433017819113
7.36725e-06;0.0010152527692265415
7.36750e-06;0.001016740168988417
7.36775e-06;0.0010182275687502975
7.36800e-06;0.0010216249076112531
7.36825e-06;0.0010279648084277335
7.36850e-06;0.0010343047092442352
7.36875e-06;0.0010427645077706366
7.36900e-06;0.0010544903425563793
7.36925e-06;0.0010662161773421616
7.36950e-06;0.0010779420121279043
7.36975e-06;0.001089667846913647
7.37000e-06;0.0011013936816994293
7.37025e-06;0.001113119516485172
7.37050e-06;0.0011283212510159034
7.37075e-06;0.0011439368619948318
7.37100e-06;0.00115955247297376
7.37125e-06;0.0011751680839527413
7.37150e-06;0.0011907836949316699
7.37175e-06;0.0012063993059105982
7.37200e-06;0.0012215589491597239
7.37225e-06;0.0012360161023161273
7.37250e-06;0.001250473255472531
7.37275e-06;0.0012649304086289833
7.37300e-06;0.0012793875617853868
7.37325e-06;0.0012938447149417904
7.37350e-06;0.0013083018680982428
7.37375e-06;0.0013164265920687526
7.37400e-06;0.0013237973117549012
7.37425e-06;0.0013311680314410748
7.37450e-06;0.0013385387511272234
7.37475e-06;0.0013459094708133971
7.37500e-06;0.0013532801904995457
7.37525e-06;0.001357490517548168
7.37550e-06;0.0013568317620470543
7.37575e-06;0.001356173006545943
7.37600e-06;0.0013533777579290383
7.37625e-06;0.001347290905217082
7.37650e-06;0.001341204052505146
7.37675e-06;0.0013329654483033326
7.37700e-06;0.0013214117320783647
7.37725e-06;0.001309858015853436
7.37750e-06;0.0012953229119601528
7.37775e-06;0.0012761945108615811
7.37800e-06;0.0012570661097630743
7.37825e-06;0.0012379377086645675
7.37850e-06;0.001218809307565996
7.37875e-06;0.0011996809064674892
7.37900e-06;0.0011805525053689176
7.37925e-06;0.0011586910421123627
7.37950e-06;0.0011326188662051256
7.37975e-06;0.0011065466902978
7.38000e-06;0.0010804745143905628
7.38025e-06;0.0010544023384833256
7.38050e-06;0.0010283301625760002
7.38075e-06;0.001002257986668763
7.38100e-06;0.0009757686241659114
7.38125e-06;0.0009486365200148769
7.38150e-06;0.0009215044158639343
7.38175e-06;0.0008943723117129918
7.38200e-06;0.0008672402075619573
7.38225e-06;0.0008401081034110148
7.38250e-06;0.0008166636997881262
7.38275e-06;0.0007936583917973223
7.38300e-06;0.0007706530838065963
7.38325e-06;0.0007476477758157922
7.38350e-06;0.0007246424678250662
7.38375e-06;0.0007035949955309408
7.38400e-06;0.0006855638774424779
7.38425e-06;0.000667532759354076
7.38450e-06;0.0006495016412656742
7.38475e-06;0.0006311448851895139
7.38500e-06;0.0006122864325127184
7.38525e-06;0.000593427979835923
7.38550e-06;0.0005745695271590637
7.38575e-06;0.0005555571409329766
7.38600e-06;0.0005363075958331419
7.38625e-06;0.0005170580507332421
7.38650e-06;0.0004968601953940576
7.38675e-06;0.00047520131879369274
7.38700e-06;0.0004535424421932545
7.38725e-06;0.0004312397546127991
7.38750e-06;0.0004079451748317492
7.38775e-06;0.0003846505950507782
7.38800e-06;0.0003608111966189678
7.38825e-06;0.0003361324192588373
7.38850e-06;0.00031145364189879036
7.38875e-06;0.00028606215604300215
7.38900e-06;0.0002595726305139773
7.38925e-06;0.00023308310498504218
7.38950e-06;0.00020636838059393128
7.38975e-06;0.00017930670189182787
7.39000e-06;0.0001522450231898162
7.39025e-06;0.00012518334448780448
7.39050e-06;9.812166578570108e-05
7.39075e-06;7.098403102170153e-05
7.39100e-06;4.380031111737583e-05
7.39125e-06;1.6863328276107548e-05
7.39150e-06;-9.657831165548115e-06
7.39175e-06;-3.560131527526167e-05
7.39200e-06;-6.0856059836134204e-05
7.39225e-06;-8.540139650053658e-05
7.39250e-06;-0.00010922614259911335
7.39275e-06;-0.00013222791783165772
7.39300e-06;-0.00015424441418630894
7.39325e-06;-0.00017510730787847846
7.39350e-06;-0.00019464829455317334
7.39375e-06;-0.0002127089838964472
7.39400e-06;-0.0002292052241140388
7.39425e-06;-0.00024419870783905624
7.39450e-06;-0.00025780367698580154
7.39475e-06;-0.00027004138305898926
7.39500e-06;-0.0002808612453849667
7.39525e-06;-0.00029020484018933284
7.39550e-06;-0.00029801379138157363
7.39575e-06;-0.00030423594213265046
7.39600e-06;-0.00030858568591527
