Time(s);Current(A)
9.80000e-06;0.003178876645639754
9.80025e-06;0.003124948212387887
9.80050e-06;0.0030710197791356544
9.80075e-06;0.0030306188334452695
9.80100e-06;0.0030001797192473496
9.80125e-06;0.002969740605049223
9.80150e-06;0.0029393014908510972
9.80175e-06;0.0029088623766531773
9.80200e-06;0.0028784232624550514
9.80225e-06;0.002847984148256925
9.80250e-06;0.002817545034058799
9.80275e-06;0.002787105919860879
9.80300e-06;0.0027566668056627527
9.80325e-06;0.0027262276914646268
9.80350e-06;0.0027116628268761904
9.80375e-06;0.002708787982253304
9.80400e-06;0.002705913137630418
9.80425e-06;0.0027030382930075506
9.80450e-06;0.0027001634483846642
9.80475e-06;0.002697288603761778
9.80500e-06;0.0026944137591389107
9.80525e-06;0.0026915389145160244
9.80550e-06;0.002688664069893138
9.80575e-06;0.002685789225270271
9.80600e-06;0.0026829143806473845
9.80625e-06;0.0026891779568011197
9.80650e-06;0.002702171194133418
9.80675e-06;0.002715164431465804
9.80700e-06;0.00272815766879819
9.80725e-06;0.0027411509061304883
9.80750e-06;0.0027541441434628744
9.80775e-06;0.0027671373807952606
9.80800e-06;0.0027801306181275587
9.80825e-06;0.0027934157800317957
9.80850e-06;0.002810255215246301
9.80875e-06;0.0028270946504606923
9.80900e-06;0.002843934085675198
9.80925e-06;0.0028607735208897034
9.80950e-06;0.0028776129561040946
9.80975e-06;0.0028944523913186
9.81000e-06;0.0029112918265331057
9.81025e-06;0.002928131261747497
9.81050e-06;0.00293849597573251
9.81075e-06;0.0029440926142290953
9.81100e-06;0.0029496892527256804
9.81125e-06;0.0029552858912222273
9.81150e-06;0.0029608825297188124
9.81175e-06;0.0029664791682153975
9.81200e-06;0.0029720758067119444
9.81225e-06;0.0029776724452085295
9.81250e-06;0.0029832690837051147
9.81275e-06;0.0029888657222016616
9.81300e-06;0.0029944623606982467
9.81325e-06;0.003000058999194832
9.81350e-06;0.0030056556376913787
9.81375e-06;0.003011252276187964
9.81400e-06;0.00301531145432562
9.81425e-06;0.0030006515699078267
9.81450e-06;0.002985991685489934
9.81475e-06;0.002971331801072041
9.81500e-06;0.0029566719166542474
9.81525e-06;0.0029420120322363546
9.81550e-06;0.0029273521478184617
9.81575e-06;0.002912692263400668
9.81600e-06;0.0028980323789827753
9.81625e-06;0.0028833724945648825
9.81650e-06;0.002868712610147089
9.81675e-06;0.002854052725729196
9.81700e-06;0.0028393928413113032
9.81725e-06;0.0028247329568935097
9.81750e-06;0.0028100730724756164
9.81775e-06;0.0027912088750949252
9.81800e-06;0.0027692485627040454
9.81825e-06;0.0027472882503130165
9.81850e-06;0.002725327937921988
9.81875e-06;0.002703367625531108
9.81900e-06;0.002681407313140079
9.81925e-06;0.0026594470007490507
9.81950e-06;0.002637486688358022
9.81975e-06;0.002615939455868003
9.82000e-06;0.0025994216008601444
9.82025e-06;0.0025829037458522854
9.82050e-06;0.0025663858908445383
9.82075e-06;0.00254986803583668
9.82100e-06;0.002533350180828821
9.82125e-06;0.0025168323258210738
9.82150e-06;0.0025003144708132152
9.82175e-06;0.0024837966158053563
9.82200e-06;0.002478302168798677
9.82225e-06;0.0024809255139935722
9.82250e-06;0.002483548859188468
9.82275e-06;0.002486172204383346
9.82300e-06;0.0024887955495782417
9.82325e-06;0.002491418894773137
9.82350e-06;0.002494042239968015
9.82375e-06;0.002496665585162911
9.82400e-06;0.0024992889303578065
9.82425e-06;0.0025019122755526846
9.82450e-06;0.00250453562074758
9.82475e-06;0.002519786139025118
9.82500e-06;0.0025443354845955135
9.82525e-06;0.0025688848301660752
9.82550e-06;0.0025934341757366374
9.82575e-06;0.002617983521307033
9.82600e-06;0.0026425328668775953
9.82625e-06;0.002667082212448157
9.82650e-06;0.0026916315580185527
9.82675e-06;0.002716180903589115
9.82700e-06;0.0027407302491596766
9.82725e-06;0.0027652795947300723
9.82750e-06;0.0027948470462756886
9.82775e-06;0.002828109901416181
9.82800e-06;0.0028613727565566733
9.82825e-06;0.0028946356116969405
9.82850e-06;0.002927898466837433
9.82875e-06;0.002961161321977925
9.82900e-06;0.002994424177118192
9.82925e-06;0.0030276870322586843
9.82950e-06;0.0030577745550694852
9.82975e-06;0.0030855237186335916
9.83000e-06;0.003113272882197886
9.83025e-06;0.0031410220457621808
9.83050e-06;0.0031687712093262876
9.83075e-06;0.003196520372890582
9.83100e-06;0.0032242695364548767
9.83125e-06;0.003252018700018983
9.83150e-06;0.0032668197630708897
9.83175e-06;0.003272085663369201
9.83200e-06;0.003277351563667477
9.83225e-06;0.003282617463965788
9.83250e-06;0.0032878833642640995
9.83275e-06;0.003293149264562375
9.83300e-06;0.0032984151648606866
9.83325e-06;0.0033036810651589977
9.83350e-06;0.0033089469654572737
9.83375e-06;0.003314212865755585
9.83400e-06;0.0033194787660538964
9.83425e-06;0.0033226122612393357
9.83450e-06;0.0032997830546599035
9.83475e-06;0.003276953848080471
9.83500e-06;0.0032541246415011935
9.83525e-06;0.0032312954349217613
9.83550e-06;0.003208466228342329
9.83575e-06;0.0031856370217630513
9.83600e-06;0.003162807815183619
9.83625e-06;0.003139978608604187
9.83650e-06;0.0031171494020247547
9.83675e-06;0.0030943201954454773
9.83700e-06;0.003071490988866045
9.83725e-06;0.0030414198515586735
9.83750e-06;0.003006015654928992
9.83775e-06;0.0029706114582990703
9.83800e-06;0.0029352072616691486
9.83825e-06;0.002899803065039467
9.83850e-06;0.0028643988684095454
9.83875e-06;0.0028289946717796237
9.83900e-06;0.0027937914098339445
9.83925e-06;0.002761034590754625
9.83950e-06;0.0027282777716753056
9.83975e-06;0.0026955209525962075
9.84000e-06;0.0026627641335168883
9.84025e-06;0.0026300073144375686
9.84050e-06;0.002597250495358471
9.84075e-06;0.0025644936762791513
9.84100e-06;0.00254231777404264
9.84125e-06;0.0025279338073186434
9.84150e-06;0.002513549840594549
9.84175e-06;0.002499165873870455
9.84200e-06;0.0024847819071464584
9.84225e-06;0.002470397940422364
9.84250e-06;0.0024560139736982704
9.84275e-06;0.0024416300069742733
9.84300e-06;0.0024272460402501796
9.84325e-06;0.0024128620735260854
9.84350e-06;0.0023984781068020888
9.84375e-06;0.0023840941400779946
9.84400e-06;0.002383232919974549
9.84425e-06;0.0023923300400782344
9.84450e-06;0.0024014271601819816
9.84475e-06;0.0024105242802857285
9.84500e-06;0.0024196214003894753
9.84525e-06;0.002428718520493161
9.84550e-06;0.002437815640596908
9.84575e-06;0.0024469127607006547
9.84600e-06;0.0024560098808043404
9.84625e-06;0.002465107000908087
9.84650e-06;0.002474204121011834
9.84675e-06;0.0024833012411155193
9.84700e-06;0.0024990113836344196
9.84725e-06;0.002519591448578028
9.84750e-06;0.0025401715135214965
9.84775e-06;0.002560751578465105
9.84800e-06;0.0025813316434087127
9.84825e-06;0.0026019117083521813
9.84850e-06;0.0026224917732957896
9.84875e-06;0.0026430718382393975
9.84900e-06;0.002663552132730972
9.84925e-06;0.0026828176906441912
9.84950e-06;0.0027020832485574104
9.84975e-06;0.002721348806470499
9.85000e-06;0.0027406143643837187
9.85025e-06;0.002759879922296938
9.85050e-06;0.0027791454802100265
9.85075e-06;0.0027984110381232457
9.85100e-06;0.002817676596036465
9.85125e-06;0.0028312873251943238
9.85150e-06;0.002840733759172479
9.85175e-06;0.0028501801931506343
9.85200e-06;0.0028596266271287258
9.85225e-06;0.002869073061106881
9.85250e-06;0.0028785194950850363
9.85275e-06;0.0028879659290631274
9.85300e-06;0.0028974123630412826
9.85325e-06;0.002906858797019438
9.85350e-06;0.002916305230997593
9.85375e-06;0.0029257516649756846
9.85400e-06;0.00293519809895384
9.85425e-06;0.002944644532931995
9.85450e-06;0.002954090966910086
9.85475e-06;0.0029635374008882415
9.85500e-06;0.0029729838348663967
9.85525e-06;0.0029786769794031675
9.85550e-06;0.0029816061489714007
9.85575e-06;0.002984535318539634
9.85600e-06;0.002987464488107847
9.85625e-06;0.0029903936576760803
9.85650e-06;0.0029933228272443135
9.85675e-06;0.0029962519968125267
9.85700e-06;0.00299918116638076
9.85725e-06;0.003002110335948993
9.85750e-06;0.003005039505517207
9.85775e-06;0.00300796867508544
9.85800e-06;0.003010897844653673
9.85825e-06;0.0030138270142218864
9.85850e-06;0.0030167561837901196
9.85875e-06;0.003019685353358353
9.85900e-06;0.003022614522926566
9.85925e-06;0.003024327237032827
9.85950e-06;0.0030251441362811227
9.85975e-06;0.0030259610355294134
9.86000e-06;0.0030267779347777093
9.86025e-06;0.003027594834026005
9.86050e-06;0.0030284117332742954
9.86075e-06;0.0030292286325225917
9.86100e-06;0.0030300455317708876
9.86125e-06;0.003030862431019178
9.86150e-06;0.003027691804707437
9.86175e-06;0.0030215847086645297
9.86200e-06;0.003015477612621664
9.86225e-06;0.0030093705165787567
9.86250e-06;0.0030032634205358496
9.86275e-06;0.0029971563244929425
9.86300e-06;0.0029910492284500765
9.86325e-06;0.0029849421324071694
9.86350e-06;0.0029788350363642623
9.86375e-06;0.002964520074865885
9.86400e-06;0.002944160726164082
9.86425e-06;0.0029238013774622786
9.86450e-06;0.0029034420287606133
9.86475e-06;0.00288308268005881
9.86500e-06;0.0028627233313570067
9.86525e-06;0.0028423639826553413
9.86550e-06;0.002822004633953538
9.86575e-06;0.0028016452852517347
9.86600e-06;0.002780502167247448
9.86625e-06;0.0027498164118722637
9.86650e-06;0.002719130656497079
9.86675e-06;0.0026884449011221026
9.86700e-06;0.002657759145746918
9.86725e-06;0.0026270733903717334
9.86750e-06;0.002596387634996757
9.86775e-06;0.0025657018796215723
9.86800e-06;0.0025350161242463877
9.86825e-06;0.002504330368871411
9.86850e-06;0.0024748486526624844
9.86875e-06;0.0024462536077774918
9.86900e-06;0.0024176585628926926
9.86925e-06;0.0023890635180077
9.86950e-06;0.0023604684731227074
9.86975e-06;0.0023318734282379086
9.87000e-06;0.0023032783833529156
9.87025e-06;0.002274683338467923
9.87050e-06;0.002246088293583124
9.87075e-06;0.0022174932486981316
9.87100e-06;0.002188898203813139
9.87125e-06;0.002161189445557881
9.87150e-06;0.002144271505328818
9.87175e-06;0.0021273535650996405
9.87200e-06;0.002110435624870463
9.87225e-06;0.0020935176846414
9.87250e-06;0.0020765997444122226
9.87275e-06;0.002059681804183045
9.87300e-06;0.0020427638639539825
9.87325e-06;0.002025845923724805
9.87350e-06;0.0020089279834956276
9.87375e-06;0.0019920100432665646
9.87400e-06;0.001975092103037387
9.87425e-06;0.0019616306972417437
9.87450e-06;0.0019507147318677906
9.87475e-06;0.0019397987664937636
9.87500e-06;0.0019288828011197366
9.87525e-06;0.0019179668357457837
9.87550e-06;0.0019070508703717566
9.87575e-06;0.0018961349049977296
9.87600e-06;0.0018852189396237767
9.87625e-06;0.0018743029742497497
9.87650e-06;0.0018633870088757226
9.87675e-06;0.0018524710435017697
9.87700e-06;0.0018415550781277427
9.87725e-06;0.0018306391127537157
9.87750e-06;0.0018197231473797628
9.87775e-06;0.0018109714620170648
9.87800e-06;0.0018038135828007344
9.87825e-06;0.0017966557035844525
9.87850e-06;0.001789497824368122
9.87875e-06;0.0017823399451517917
9.87900e-06;0.0017751820659355098
9.87925e-06;0.0017680241867191794
9.87950e-06;0.001760866307502849
9.87975e-06;0.0017537084282865188
9.88000e-06;0.0017465505490702367
9.88025e-06;0.0017393926698539063
9.88050e-06;0.001732234790637576
9.88075e-06;0.001725076911421294
9.88100e-06;0.0017179190322049638
9.88125e-06;0.0017168390871077411
9.88150e-06;0.0017202350179168569
9.88175e-06;0.0017236309487259954
9.88200e-06;0.001727026879535134
9.88225e-06;0.0017304228103442497
9.88250e-06;0.0017338187411533883
9.88275e-06;0.0017372146719625268
9.88300e-06;0.0017406106027716424
9.88325e-06;0.0017456039169515111
9.88350e-06;0.0017700458753018438
9.88375e-06;0.001794487833652011
9.88400e-06;0.0018189297920023436
9.88425e-06;0.0018433717503526764
9.88450e-06;0.0018678137087028437
9.88475e-06;0.0018922556670531764
9.88500e-06;0.0019166976254035091
9.88525e-06;0.0019411395837536762
9.88550e-06;0.001975422959589013
9.88575e-06;0.002016953693251005
9.88600e-06;0.002058484426912716
9.88625e-06;0.002100015160574708
9.88650e-06;0.0021415458942367002
9.88675e-06;0.002183076627898411
9.88700e-06;0.002224607361560403
9.88725e-06;0.002270346609019187
9.88750e-06;0.00231918506504713
9.88775e-06;0.002368023521075404
9.88800e-06;0.0024168619771036785
9.88825e-06;0.0024657004331319525
9.88850e-06;0.0025145388891598956
9.88875e-06;0.0025633773451881696
9.88900e-06;0.0026083929379227743
9.88925e-06;0.0026505933205253304
9.88950e-06;0.0026927937031281726
9.88975e-06;0.002734994085731015
9.89000e-06;0.0027771944683335713
9.89025e-06;0.0028193948509364136
9.89050e-06;0.002861595233539256
9.89075e-06;0.002903795616141812
9.89100e-06;0.002945995998744654
9.89125e-06;0.0029864962303347135
9.89150e-06;0.003006296589423703
9.89175e-06;0.0030260969485128267
9.89200e-06;0.00304589730760195
9.89225e-06;0.0030656976666909395
9.89250e-06;0.003085498025780063
9.89275e-06;0.0031052983848691867
9.89300e-06;0.003125098743958176
9.89325e-06;0.0031448991030472995
9.89350e-06;0.0031646994621364233
9.89375e-06;0.0031714006732657036
9.89400e-06;0.003168455488165922
9.89425e-06;0.0031655103030661406
9.89450e-06;0.003162565117966379
9.89475e-06;0.003159619932866597
9.89500e-06;0.0031566747477668154
9.89525e-06;0.003153729562667054
9.89550e-06;0.0031507843775672724
9.89575e-06;0.0031478391924674907
9.89600e-06;0.003143772914430568
9.89625e-06;0.0031260569778058527
9.89650e-06;0.003108341041181137
9.89675e-06;0.0030906251045564217
9.89700e-06;0.0030729091679318264
9.89725e-06;0.003055193231307111
9.89750e-06;0.003037477294682396
9.89775e-06;0.0030197613580578006
9.89800e-06;0.003002045421433085
9.89825e-06;0.0029843294848083696
9.89850e-06;0.002966115933477028
9.89875e-06;0.0029475359316981182
9.89900e-06;0.0029289559299192085
9.89925e-06;0.002910375928140425
9.89950e-06;0.0028917959263615152
9.89975e-06;0.0028732159245826055
9.90000e-06;0.002854635922803822
9.90025e-06;0.0028360559210249122
9.90050e-06;0.0028174759192460025
9.90075e-06;0.002798895917467219
9.90100e-06;0.0027803159156883092
9.90125e-06;0.0027617359139093995
9.90150e-06;0.002743155912130616
9.90175e-06;0.0027245759103517063
9.90200e-06;0.0027131146861364103
9.90225e-06;0.0027068958295367353
9.90250e-06;0.0027006769729370182
9.90275e-06;0.002694458116337301
9.90300e-06;0.002688239259737626
9.90325e-06;0.002682020403137909
9.90350e-06;0.002675801546538192
9.90375e-06;0.002669582689938517
9.90400e-06;0.0026633638333388
9.90425e-06;0.002657144976739083
9.90450e-06;0.002650926120139408
9.90475e-06;0.002644707263539691
9.90500e-06;0.002638488406939974
9.90525e-06;0.002632269550340257
9.90550e-06;0.0026311803918841136
9.90575e-06;0.0026338688150686004
9.90600e-06;0.002636557238253087
9.90625e-06;0.002639245661437555
9.90650e-06;0.0026419340846220414
9.90675e-06;0.0026446225078065283
9.90700e-06;0.0026473109309909965
9.90725e-06;0.002649999354175483
9.90750e-06;0.0026526877773599697
9.90775e-06;0.002655376200544438
9.90800e-06;0.0026580646237289243
9.90825e-06;0.0026607530469134107
9.90850e-06;0.0026634414700978794
9.90875e-06;0.0026661298932823658
9.90900e-06;0.002668958885969177
9.90925e-06;0.002673499356494257
9.90950e-06;0.0026780398270193676
9.90975e-06;0.002682580297544478
9.91000e-06;0.002687120768069558
9.91025e-06;0.002691661238594669
9.91050e-06;0.0026962017091197795
9.91075e-06;0.0027007421796448592
9.91100e-06;0.0027052826501699698
9.91125e-06;0.0027098231206950808
9.91150e-06;0.0027143635912201605
9.91175e-06;0.002718904061745271
9.91200e-06;0.0027234445322703816
9.91225e-06;0.002727985002795462
9.91250e-06;0.0027325254733205724
9.91275e-06;0.0027417616976885893
9.91300e-06;0.0027544559410301876
9.91325e-06;0.002767150184371872
9.91350e-06;0.002779844427713556
9.91375e-06;0.0027925386710552407
9.91400e-06;0.002805232914396839
9.91425e-06;0.002817927157738523
9.91450e-06;0.0028306214010802074
9.91475e-06;0.0028433156444218058
9.91500e-06;0.00285600988776349
9.91525e-06;0.0028687041311051746
9.91550e-06;0.002881398374446773
9.91575e-06;0.002894736923549671
9.91600e-06;0.0029159200976531696
9.91625e-06;0.0029371032717565243
9.91650e-06;0.002958286445860023
9.91675e-06;0.0029794696199635213
9.91700e-06;0.0030006527940668764
9.91725e-06;0.0030218359681703747
9.91750e-06;0.0030430191422738733
9.91775e-06;0.003064202316377228
9.91800e-06;0.0030853854904807267
9.91825e-06;0.003106568664584225
9.91850e-06;0.00312775183868758
9.91875e-06;0.0031489350127910784
9.91900e-06;0.003168596025275137
9.91925e-06;0.0031871360965985505
9.91950e-06;0.0032056761679220896
9.91975e-06;0.0032242162392456288
9.92000e-06;0.003242756310569042
9.92025e-06;0.0032612963818925813
9.92050e-06;0.0032798364532161204
9.92075e-06;0.0032983765245395338
9.92100e-06;0.003316916595863073
9.92125e-06;0.003335456667186612
9.92150e-06;0.0033455861547606854
9.92175e-06;0.003349521970527142
9.92200e-06;0.003353457786293598
9.92225e-06;0.0033573936020600548
9.92250e-06;0.0033613294178264845
9.92275e-06;0.0033652652335929407
9.92300e-06;0.0033692010493593973
9.92325e-06;0.003373136865125827
9.92350e-06;0.0033770726808922836
9.92375e-06;0.0033810084966587398
9.92400e-06;0.003374264238215388
9.92425e-06;0.0033596550233656076
9.92450e-06;0.0033450458085158277
9.92475e-06;0.003330436593666147
9.92500e-06;0.003315827378816367
9.92525e-06;0.003301218163966587
9.92550e-06;0.003286608949116906
9.92575e-06;0.003271999734267126
9.92600e-06;0.003257390519417346
9.92625e-06;0.003242781304567665
9.92650e-06;0.0032217558900174514
9.92675e-06;0.0031960054960382
9.92700e-06;0.003170255102059123
9.92725e-06;0.003144504708079872
9.92750e-06;0.0031187543141006206
9.92775e-06;0.0030930039201215436
9.92800e-06;0.0030672535261422923
9.92825e-06;0.003041503132163041
9.92850e-06;0.003015752738183964
9.92875e-06;0.0029900023442047128
9.92900e-06;0.002964957600708284
9.92925e-06;0.0029404325081224324
9.92950e-06;0.0029159074155364144
9.92975e-06;0.0028913823229503965
9.93000e-06;0.0028668572303645447
9.93025e-06;0.002842332137778527
9.93050e-06;0.0028178070451925085
9.93075e-06;0.0027932819526064905
9.93100e-06;0.002769793937154886
9.93125e-06;0.0027589326615468286
9.93150e-06;0.0027480713859387713
9.93175e-06;0.0027372101103307874
9.93200e-06;0.00272634883472273
9.93225e-06;0.0027154875591146725
9.93250e-06;0.002704626283506689
9.93275e-06;0.0026937650078986313
9.93300e-06;0.002682903732290574
9.93325e-06;0.0026842324919085147
9.93350e-06;0.0026945381644003738
9.93375e-06;0.0027048438368922323
9.93400e-06;0.0027151495093840215
9.93425e-06;0.0027254551818758806
9.93450e-06;0.0027357608543677396
9.93475e-06;0.002746066526859529
9.93500e-06;0.002756372199351388
9.93525e-06;0.0027666778718432464
9.93550e-06;0.002778291682339873
9.93575e-06;0.0028058324839230447
9.93600e-06;0.0028333732855062165
9.93625e-06;0.0028609140870892017
9.93650e-06;0.0028884548886723735
9.93675e-06;0.002915995690255545
9.93700e-06;0.00294353649183853
9.93725e-06;0.002971077293421702
9.93750e-06;0.0029986180950048735
9.93775e-06;0.003026158896587859
9.93800e-06;0.0030563020809185933
9.93825e-06;0.003088361696396513
9.93850e-06;0.003120421311874215
9.93875e-06;0.003152480927352135
9.93900e-06;0.0031845405428300544
9.93925e-06;0.003216600158307974
9.93950e-06;0.0032486597737856763
9.93975e-06;0.003280719389263596
9.94000e-06;0.0033127790047415154
9.94025e-06;0.0033390277639817985
9.94050e-06;0.003360997327206048
9.94075e-06;0.0033829668904302975
9.94100e-06;0.003404936453654398
9.94125e-06;0.0034269060168786473
9.94150e-06;0.003448875580102897
9.94175e-06;0.0034708451433269976
9.94200e-06;0.0034928147065512467
9.94225e-06;0.003514784269775496
9.94250e-06;0.0035273180214586406
9.94275e-06;0.003532903109208467
9.94300e-06;0.003538488196958293
9.94325e-06;0.0035440732847080818
9.94350e-06;0.003549658372457908
9.94375e-06;0.0035552434602077344
9.94400e-06;0.003560828547957523
9.94425e-06;0.0035664136357073492
9.94450e-06;0.0035719987234571755
9.94475e-06;0.003577583811206964
9.94500e-06;0.0035831688989567904
9.94525e-06;0.0035887539867066167
9.94550e-06;0.0035943390744564052
9.94575e-06;0.0035928552679779626
9.94600e-06;0.0035861658286651856
9.94625e-06;0.003579476389352454
9.94650e-06;0.0035727869500396772
9.94675e-06;0.0035660975107269007
9.94700e-06;0.0035594080714141693
9.94725e-06;0.0035527186321013923
9.94750e-06;0.0035460291927886154
9.94775e-06;0.003539339753475839
9.94800e-06;0.0035326503141631074
9.94825e-06;0.0035259608748503305
9.94850e-06;0.0035192714355375535
