Time(s);Current(A)
8.50000e-06;0.0033713487043811603
8.50025e-06;0.0033118841720110957
8.50050e-06;0.003254566641841923
8.50075e-06;0.003200571968914199
8.50100e-06;0.0031490905524652483
8.50125e-06;0.003101849246298704
8.50150e-06;0.0030599519152449757
8.50175e-06;0.003018054584190964
8.50200e-06;0.0029800193278357754
8.50225e-06;0.0029468515937147175
8.50250e-06;0.0029136838595934344
8.50275e-06;0.002883440150021821
8.50300e-06;0.0028568817017719057
8.50325e-06;0.002830323253521811
8.50350e-06;0.002807281394589746
8.50375e-06;0.002788671629293691
8.50400e-06;0.0027700618639975097
8.50425e-06;0.0027541107687097475
8.50450e-06;0.0027415104981441483
8.50475e-06;0.002728910227578634
8.50500e-06;0.002716309957013035
8.50525e-06;0.002706754443750873
8.50550e-06;0.002701036355973416
8.50575e-06;0.0026953182681959207
8.50600e-06;0.0026896001804184253
8.50625e-06;0.0026862840503929807
8.50650e-06;0.002685995200696463
8.50675e-06;0.002685706350999945
8.50700e-06;0.002685417501303429
8.50725e-06;0.0026851286516069114
8.50750e-06;0.002686945594019493
8.50775e-06;0.002691416547737303
8.50800e-06;0.0026958875014551427
8.50825e-06;0.0027003584551729826
8.50850e-06;0.002704829408890792
8.50875e-06;0.002710428181355775
8.50900e-06;0.0027174483874429405
8.50925e-06;0.0027244685935300583
8.50950e-06;0.002731488799617224
8.50975e-06;0.0027385090057043893
8.51000e-06;0.002746675327567574
8.51025e-06;0.002754911685716758
8.51050e-06;0.002763148043865942
8.51075e-06;0.0027713844020150705
8.51100e-06;0.002779572100815689
8.51125e-06;0.002787698472355818
8.51150e-06;0.0027957897700222763
8.51175e-06;0.002804408499913648
8.51200e-06;0.00281374768627657
8.51225e-06;0.0028250976717197327
8.51250e-06;0.002838981945077422
8.51275e-06;0.002855445015121172
8.51300e-06;0.002875158242447843
8.51325e-06;0.002894871469774381
8.51350e-06;0.002917419036914217
8.51375e-06;0.0029435388322316684
8.51400e-06;0.0029696586275489425
8.51425e-06;0.002998920633347906
8.51450e-06;0.0030321428886449114
8.51475e-06;0.003064323691961748
8.51500e-06;0.003087164583754439
8.51525e-06;0.0031343140476354815
8.51550e-06;0.0011058061947005018
8.51575e-06;-0.015249735758483792
8.51600e-06;-0.014790529901776704
8.51625e-06;-0.011239410509175924
8.51650e-06;-0.006567620358487503
8.51675e-06;0.004867137641471481
8.51700e-06;0.00764998134946288
8.51725e-06;0.006709858861552204
8.51750e-06;0.005650160237989741
8.51775e-06;-0.0028704154159225675
8.51800e-06;-0.004834459051211974
8.51825e-06;-0.0029412879107840587
8.51850e-06;0.0006785552277259943
8.51875e-06;0.005354164691623616
8.51900e-06;0.007604589741923529
8.51925e-06;0.007153824977070251
8.51950e-06;0.004794891677083711
8.51975e-06;0.0011503218479042418
8.52000e-06;-0.00028353158210256326
8.52025e-06;0.0007537740306800015
8.52050e-06;0.0029824691385764573
8.52075e-06;0.0058798848295462235
8.52100e-06;0.007263581327457304
8.52125e-06;0.006959163289725021
8.52150e-06;0.005462149227917399
8.52175e-06;0.003161705506005425
8.52200e-06;0.0022479424338046504
8.52225e-06;0.00288439840578519
8.52250e-06;0.004269432582851623
8.52275e-06;0.006075267440859388
8.52300e-06;0.006934501156941145
8.52325e-06;0.00673769805752095
8.52350e-06;0.0057950999535264025
8.52375e-06;0.0043503463564666545
8.52400e-06;0.0037751454150646577
8.52425e-06;0.0041717229361985875
8.52450e-06;0.005037758785773949
8.52475e-06;0.006167809829769836
8.52500e-06;0.006705276916476262
8.52525e-06;0.0065816027892269076
8.52550e-06;0.005991119017179118
8.52575e-06;0.005086429060267189
8.52600e-06;0.0047267173506301075
8.52625e-06;0.004975929318443712
8.52650e-06;0.0055193382685647776
8.52675e-06;0.006228204250660782
8.52700e-06;0.006565937030559621
8.52725e-06;0.006489604587027992
8.52750e-06;0.006120944977405728
8.52775e-06;0.00555554926659301
8.52800e-06;0.005331582417740267
8.52825e-06;0.0054890463732204875
8.52850e-06;0.005830752844154423
8.52875e-06;0.006276027119237386
8.52900e-06;0.0064887378716466295
8.52925e-06;0.006441997441674542
8.52950e-06;0.006212065411445254
8.52975e-06;0.0058588168561932216
8.53000e-06;0.0057193363908362325
8.53025e-06;0.0058186445056104185
8.53050e-06;0.006033188953864356
8.53075e-06;0.00631241128182749
8.53100e-06;0.006445747085729104
8.53125e-06;0.006416351043758198
8.53150e-06;0.0062719886123640605
8.53175e-06;0.006050134681877079
8.53200e-06;0.005961835618001593
8.53225e-06;0.006022636433031174
8.53250e-06;0.006155094075841151
8.53275e-06;0.006327552956546206
8.53300e-06;0.006408148367755723
8.53325e-06;0.00638636779218881
8.53350e-06;0.006292170539660224
8.53375e-06;0.006149067298380498
8.53400e-06;0.00608928581890534
8.53425e-06;0.0061225863018481005
8.53450e-06;0.00620048347728262
8.53475e-06;0.0063031748321627674
8.53500e-06;0.006348093762431484
8.53525e-06;0.006328691428025965
8.53550e-06;0.006263769719330763
8.53575e-06;0.00616809002576026
8.53600e-06;0.006124509813480319
8.53625e-06;0.006139168459189129
8.53650e-06;0.006181721706689973
8.53675e-06;0.0062397944465360814
8.53700e-06;0.00626169826535971
8.53725e-06;0.006243365875466103
8.53750e-06;0.0061966084593594204
8.53775e-06;0.006130706151014948
8.53800e-06;0.006097589980231499
8.53825e-06;0.006101134069337991
8.53850e-06;0.006122359406808852
8.53875e-06;0.006153542970141825
8.53900e-06;0.00616233960433341
8.53925e-06;0.006146234334193605
8.53950e-06;0.006112658410088363
8.53975e-06;0.006067457228445982
8.54000e-06;0.006043191059944461
8.54025e-06;0.006042315026541804
8.54050e-06;0.006052970652193036
8.54075e-06;0.0060703500424939116
8.54100e-06;0.0060742236499558375
8.54125e-06;0.006063048386960628
8.54150e-06;0.006039171355896079
8.54175e-06;0.006012735066123778
8.54200e-06;0.00599913281966563
8.54225e-06;0.006000604780287133
8.54250e-06;0.006010402082520419
8.54275e-06;0.006025472821705577
8.54300e-06;0.006033085709817647
8.54325e-06;0.006032213746353522
8.54350e-06;0.006024589327813473
8.54375e-06;0.006015626512185987
8.54400e-06;0.006015618353985341
8.54425e-06;0.006025837716118298
8.54450e-06;0.006043358026694585
8.54475e-06;0.006062249439459309
8.54500e-06;0.006077676640339848
8.54525e-06;0.006088627501302224
8.54550e-06;0.006095878078642511
8.54575e-06;0.006102404554414795
8.54600e-06;0.006114882042090798
8.54625e-06;0.006134018828061527
8.54650e-06;0.006157920498164703
8.54675e-06;0.006182719988512208
8.54700e-06;0.006205403198573113
8.54725e-06;0.006225268641080175
8.54750e-06;0.006242672593858704
8.54775e-06;0.00625958727445887
8.54800e-06;0.006279997535645602
8.54825e-06;0.00630430040338961
8.54850e-06;0.006331106769952967
8.54875e-06;0.006358364486235985
8.54900e-06;0.006383777907335299
8.54925e-06;0.006406880977633207
8.54950e-06;0.006428146778555592
8.54975e-06;0.006448967893503248
8.55000e-06;0.006469765723578273
8.55025e-06;0.006492781505440047
8.55050e-06;0.006516462655348479
8.55075e-06;0.0065401659790256614
8.55100e-06;0.006561622750040026
8.55125e-06;0.006580556465253258
8.55150e-06;0.006596591842411654
8.55175e-06;0.00661200104006985
8.55200e-06;0.006627581473939315
8.55225e-06;0.006644196882302501
8.55250e-06;0.006661404270307128
8.55275e-06;0.006678698775297309
8.55300e-06;0.006695993280287489
8.55325e-06;0.006711818745885533
8.55350e-06;0.006726380054696854
8.55375e-06;0.006740711091254608
8.55400e-06;0.006755042127812265
8.55425e-06;0.006770577845559596
8.55450e-06;0.006787051163219241
8.55475e-06;0.006803687378369484
8.55500e-06;0.006820323593519841
8.55525e-06;0.006836383362631771
8.55550e-06;0.006851986892813927
8.55575e-06;0.006867510487928371
8.55600e-06;0.00688303408304292
8.55625e-06;0.006899487790939481
8.55650e-06;0.0069166514787763365
8.55675e-06;0.006933937291422487
8.55700e-06;0.006951223104068638
8.55725e-06;0.00696815463489849
8.55750e-06;0.006984710356299439
8.55775e-06;0.007001191971902409
8.55800e-06;0.007017673587505267
8.55825e-06;0.007034575912764949
8.55850e-06;0.007051620489025042
8.55875e-06;0.007068673471027422
8.55900e-06;0.007085726453029919
8.55925e-06;0.0071020513120914645
8.55950e-06;0.007118185544373994
8.55975e-06;0.00713373213629696
8.56000e-06;0.007149124880589775
8.56025e-06;0.007164517624882487
8.56050e-06;0.007179250642307207
8.56075e-06;0.007193810939438746
8.56100e-06;0.007208371236570185
8.56125e-06;0.007221629732549092
8.56150e-06;0.007234547409489652
8.56175e-06;0.00724616457692996
8.56200e-06;0.007257441263494048
8.56225e-06;0.007266445072288574
8.56250e-06;0.007274853828594291
8.56275e-06;0.007283262584900065
8.56300e-06;0.007287078616486585
8.56325e-06;0.007289692246293696
8.56350e-06;0.0072923058761008245
8.56375e-06;0.007294919505907953
8.56400e-06;0.007297533135715082
8.56425e-06;0.007297948908226234
8.56450e-06;0.007293048881498416
8.56475e-06;0.0072881488547705976
8.56500e-06;0.007283248828042812
8.56525e-06;0.007278348801314993
8.56550e-06;0.007273448774587175
8.56575e-06;0.00726271798041304
8.56600e-06;0.0072504606577440105
8.56625e-06;0.007238203335074981
8.56650e-06;0.007225946012406035
8.56675e-06;0.007213688689737006
8.56700e-06;0.007201431367067977
8.56725e-06;0.007189174044399031
8.56750e-06;0.007175628256525977
8.56775e-06;0.007158966150608047
8.56800e-06;0.007142304044690229
8.56825e-06;0.007125641938772299
8.56850e-06;0.0071089798328543684
8.56875e-06;0.007092317726936551
8.56900e-06;0.0070756556210186195
8.56925e-06;0.007058993515100689
8.56950e-06;0.007042516644446325
8.56975e-06;0.007026088269450537
8.57000e-06;0.0070096598944547495
8.57025e-06;0.006994661071190097
8.57050e-06;0.0069800365128009105
8.57075e-06;0.006965411954411724
8.57100e-06;0.006953134513054535
8.57125e-06;0.0069414715604526256
8.57150e-06;0.006929808607850716
8.57175e-06;0.0069203401727693376
8.57200e-06;0.006911446275012403
8.57225e-06;0.006902580363058653
8.57250e-06;0.00689372177794934
8.57275e-06;0.0068848631928400865
8.57300e-06;0.006876056560862837
8.57325e-06;0.006867263530514749
8.57350e-06;0.006858470500166719
8.57375e-06;0.00684967746981863
8.57400e-06;0.006840644946896766
8.57425e-06;0.006831033180525369
8.57450e-06;0.006821421414153907
8.57475e-06;0.006811809647782444
8.57500e-06;0.006802197881411048
8.57525e-06;0.006791620287042259
8.57550e-06;0.0067807898333417695
8.57575e-06;0.006769959379641353
8.57600e-06;0.006759128925940864
8.57625e-06;0.0067479452267479876
8.57650e-06;0.006735907158109161
8.57675e-06;0.006723869089470254
8.57700e-06;0.006711831020831347
8.57725e-06;0.0066997929521925206
8.57750e-06;0.0066875604971814925
8.57775e-06;0.006675277150698807
8.57800e-06;0.006662993804216205
8.57825e-06;0.006650710457733518
8.57850e-06;0.006638427111250833
8.57875e-06;0.006626143764768231
8.57900e-06;0.006613860418285545
8.57925e-06;0.006603097794866187
8.57950e-06;0.006592733305502485
8.57975e-06;0.006582368816138713
8.58000e-06;0.00657200432677494
8.58025e-06;0.006561639837411238
8.58050e-06;0.0065512753480474655
8.58075e-06;0.006540910858683692
8.58100e-06;0.006532438297482501
8.58125e-06;0.006525147105944815
8.58150e-06;0.006518809411107087
8.58175e-06;0.006513179913321862
8.58200e-06;0.006507025515247666
8.58225e-06;0.006498718384220206
8.58250e-06;0.006487530827067906
8.58275e-06;0.0064725734689836814
8.58300e-06;0.006456791043803604
8.58325e-06;0.006437473181333791
8.58350e-06;0.006417229721021442
8.58375e-06;0.006393526477348728
8.58400e-06;0.006368917442467733
8.58425e-06;0.0063375068732979415
8.58450e-06;0.00630431562328165
8.58475e-06;0.006271124373265358
8.58500e-06;0.006230702206780168
8.58525e-06;0.006188386944720797
8.58550e-06;0.006146071682661426
8.58575e-06;0.006098010535412342
8.58600e-06;0.006048445082330019
8.58625e-06;0.005998879629247696
8.58650e-06;0.005944099406163572
8.58675e-06;0.005887953926260947
8.58700e-06;0.005828264213530596
8.58725e-06;0.005767646600235292
8.58750e-06;0.005707028986939578
8.58775e-06;0.005644422720922119
8.58800e-06;0.0055812958141699615
8.58825e-06;0.00551691102244855
8.58850e-06;0.005452196909198175
8.58875e-06;0.00538719383484201
8.58900e-06;0.005322115108803673
8.58925e-06;0.00525811878752213
8.58950e-06;0.005194405846039467
8.58975e-06;0.005132969718790779
8.59000e-06;0.005072129674620161
8.59025e-06;0.005014260984659993
8.59050e-06;0.00495717021234452
8.59075e-06;0.0049042391144971205
8.59100e-06;0.00485239704338115
8.59125e-06;0.0048078028647378455
8.59150e-06;0.0047651062260841695
8.59175e-06;0.0047224095874304935
8.59200e-06;0.004690833502341421
8.59225e-06;0.004662168842218762
8.59250e-06;0.004633504182096102
8.59275e-06;0.004604839521973637
8.59300e-06;0.0045810423546851
8.59325e-06;0.00456901784196365
8.59350e-06;0.004556993329242281
8.59375e-06;0.00454496881652083
8.59400e-06;0.0045329443037993794
8.59425e-06;0.004531446184513155
8.59450e-06;0.00453270393565018
8.59475e-06;0.004533961686787203
8.59500e-06;0.0045414439111017635
8.59525e-06;0.004550555738341189
8.59550e-06;0.00456463581448541
8.59575e-06;0.00458001660680508
8.59600e-06;0.004598827659000057
8.59625e-06;0.0046204432520079814
8.59650e-06;0.004644292107884207
8.59675e-06;0.004670246809436122
8.59700e-06;0.004698203883240065
8.59725e-06;0.004728061059620724
8.59750e-06;0.004759715251625902
8.59775e-06;0.004793024701919552
8.59800e-06;0.004827727629941615
8.59825e-06;0.0048634913920829114
8.59850e-06;0.004900051305635385
8.59875e-06;0.004937221303922914
8.59900e-06;0.004974831227339917
8.59925e-06;0.005012710002386362
8.59950e-06;0.0050506877418825
8.59975e-06;0.005088569481113967
8.60000e-06;0.005126084946642016
8.60025e-06;0.005162919322993345
8.60050e-06;0.0051988017662292375
8.60075e-06;0.00523294186676002
8.60100e-06;0.005266680424009328
8.60125e-06;0.005298548299461058
8.60150e-06;0.005328454304890687
8.60175e-06;0.005356625309906622
8.60200e-06;0.00538395732256482
8.60225e-06;0.005411704680322704
8.60250e-06;0.005440421830843543
8.60275e-06;0.005470009640115624
8.60300e-06;0.005500243246019648
8.60325e-06;0.005530896706213347
8.60350e-06;0.005561743805928607
8.60375e-06;0.005592740172254486
8.60400e-06;0.0056243551668339895
8.60425e-06;0.0056572805593496445
8.60450e-06;0.005691771249841184
8.60475e-06;0.0057281186492190465
8.60500e-06;0.005764865611214756
8.60525e-06;0.005802767125983009
8.60550e-06;0.005841493105951374
8.60575e-06;0.0058808052950600175
8.60600e-06;0.005920904978621197
8.60625e-06;0.005962604900539215
8.60650e-06;0.006004677863508757
8.60675e-06;0.006047980110570852
8.60700e-06;0.00609217067315047
8.60725e-06;0.006136885968373561
8.60750e-06;0.0061818869187639704
8.60775e-06;0.006227004020270888
8.60800e-06;0.006272270454754805
8.60825e-06;0.006317806831557875
8.60850e-06;0.006363561693984629
8.60875e-06;0.006409322928851712
8.60900e-06;0.006454847750820029
8.60925e-06;0.006499892715654667
8.60950e-06;0.006544215020589169
8.60975e-06;0.006587616341319556
8.61000e-06;0.006630023982129735
8.61025e-06;0.0066714205661864995
8.61050e-06;0.0067116813488204445
8.61075e-06;0.006750580874121538
8.61100e-06;0.006787873659400719
8.61125e-06;0.006823314573585167
8.61150e-06;0.0068566590478818055
8.61175e-06;0.006887912821647091
8.61200e-06;0.006917796657720431
8.61225e-06;0.006947357471570018
8.61250e-06;0.006977056412000766
8.61275e-06;0.007006796801437048
8.61300e-06;0.007036374442664313
8.61325e-06;0.007065584348098217
8.61350e-06;0.007094220519641474
8.61375e-06;0.007122236096161393
8.61400e-06;0.007150030058079967
8.61425e-06;0.007178206823993193
8.61450e-06;0.007207003129807742
8.61475e-06;0.0072363068373030495
8.61500e-06;0.007265981502077302
8.61525e-06;0.007295727712279675
8.61550e-06;0.007325411554120895
8.61575e-06;0.007355079067565915
8.61600e-06;0.007384996792543264
8.61625e-06;0.0074149800243410785
8.61650e-06;0.007445700236124827
8.61675e-06;0.007476613393513186
8.61700e-06;0.007507812744181216
8.61725e-06;0.007539104366945331
8.61750e-06;0.0075702861272394254
8.61775e-06;0.007601255997563497
8.61800e-06;0.007632085974457594
8.61825e-06;0.007662929070318616
8.61850e-06;0.007693793733964343
8.61875e-06;0.007724551514397026
8.61900e-06;0.0077550480053045325
8.61925e-06;0.007785128238096331
8.61950e-06;0.00781463714756354
8.61975e-06;0.007843458787114474
8.62000e-06;0.00787158561722381
8.62025e-06;0.007899062738861309
8.62050e-06;0.007925842664330232
8.62075e-06;0.007951794986439574
8.62100e-06;0.007976769990344811
8.62125e-06;0.008000619016050045
8.62150e-06;0.008023192507092007
8.62175e-06;0.008044135332317612
8.62200e-06;0.008062534527615869
8.62225e-06;0.008077309720876731
8.62250e-06;0.008087972067600691
8.62275e-06;0.00809453913215716
8.62300e-06;0.008095597574609623
8.62325e-06;0.008095435058820351
8.62350e-06;0.008089290715994861
8.62375e-06;0.008081580296399646
8.62400e-06;0.008063476134028908
8.62425e-06;0.008042650829937896
8.62450e-06;0.008021825525847025
8.62475e-06;0.008001000221756012
8.62500e-06;0.007968448927644166
8.62525e-06;0.007932827701810514
8.62550e-06;0.007897206475976621
8.62575e-06;0.007854559029836651
8.62600e-06;0.007810072078754007
8.62625e-06;0.007760013861593549
8.62650e-06;0.007708497054886763
8.62675e-06;0.00765221847914793
8.62700e-06;0.007594693244851012
8.62725e-06;0.007533612644913694
8.62750e-06;0.007471601229775273
8.62775e-06;0.007407077550613511
8.62800e-06;0.007341896146261323
8.62825e-06;0.007274829298370393
8.62850e-06;0.007207268830501349
8.62875e-06;0.007138985406301662
8.62900e-06;0.007070512707971247
8.62925e-06;0.0070027269842240746
8.62950e-06;0.006935121114379519
8.62975e-06;0.0068695102940113766
8.63000e-06;0.006804421789086006
8.63025e-06;0.006742375494733155
8.63050e-06;0.0066811256686301205
8.63075e-06;0.006624300121224837
8.63100e-06;0.006568632875464277
8.63125e-06;0.006518927528387687
8.63150e-06;0.006470783040723583
8.63175e-06;0.006427760693126265
8.63200e-06;0.006388775952579511
8.63225e-06;0.006353737769264212
8.63250e-06;0.006319547986227503
8.63275e-06;0.0062853582031907945
8.63300e-06;0.0062580300470328155
8.63325e-06;0.0062324983043110195
8.63350e-06;0.0062069665615892234
8.63375e-06;0.006181434818867601
8.63400e-06;0.006161283731225009
8.63425e-06;0.006144343185245289
8.63450e-06;0.0061278743753278315
8.63475e-06;0.006114519493447442
8.63500e-06;0.006101979855861962
8.63525e-06;0.006089440218276565
8.63550e-06;0.0060806713447546425
8.63575e-06;0.006072889678982443
8.63600e-06;0.006067573039657527
8.63625e-06;0.006062901758453899
8.63650e-06;0.006059753150971542
8.63675e-06;0.006057003188239356
8.63700e-06;0.006056388203998807
8.63725e-06;0.0060563321694239005
8.63750e-06;0.006056276134848995
8.63775e-06;0.006058454043946612
8.63800e-06;0.006061216812364218
8.63825e-06;0.006064961236646714
8.63850e-06;0.0060689626640885634
8.63875e-06;0.006073702732212215
8.63900e-06;0.006078636180720564
8.63925e-06;0.006084391673754914
8.63950e-06;0.006090362382780773
8.63975e-06;0.006097081143099129
8.64000e-06;0.006103995747554361
8.64025e-06;0.006111092290483802
8.64050e-06;0.0061182364659536775
8.64075e-06;0.00612534410611124
8.64100e-06;0.006132442181113672
8.64125e-06;0.006139502982716723
8.64150e-06;0.006146524502444431
8.64175e-06;0.006153665612781448
8.64200e-06;0.006161521310643483
8.64225e-06;0.006170851814853383
8.64250e-06;0.0061819979113785055
8.64275e-06;0.006194924356339376
8.64300e-06;0.006209525831094589
8.64325e-06;0.00622626606474245
8.64350e-06;0.006243476440260057
8.64375e-06;0.0062624139396299985
8.64400e-06;0.006283225534802012
8.64425e-06;0.006307011339691418
8.64450e-06;0.006331478347879619
8.64475e-06;0.006358444334522425
8.64500e-06;0.00638755070652672
8.64525e-06;0.006418397595636043
8.64550e-06;0.006451385945865492
8.64575e-06;0.006484842312374691
8.64600e-06;0.006520765181504937
8.64625e-06;0.006557333795227858
8.64650e-06;0.006595841179283817
8.64675e-06;0.00663596216812328
8.64700e-06;0.006677311198065644
8.64725e-06;0.0067196775969733235
8.64750e-06;0.006762851254987721
8.64775e-06;0.006806660539398895
8.64800e-06;0.006851042031326345
8.64825e-06;0.006895973881078495
8.64850e-06;0.006941329894720924
8.64875e-06;0.006986891997213934
8.64900e-06;0.007032424757181298
8.64925e-06;0.007077692180968699
8.64950e-06;0.00712245891639028
8.64975e-06;0.007166514530414348
8.65000e-06;0.007209715217496759
8.65025e-06;0.007251943254003719
8.65050e-06;0.0072930164556693775
