Time(s);Current(A)
1.08000e-05;0.0027055488893732577
1.08003e-05;0.0027581508480699164
1.08005e-05;0.0028122972993140584
1.08007e-05;0.002875762347800998
1.08010e-05;0.002939227396288368
1.08013e-05;0.003002692444775738
1.08015e-05;0.0030661574932626776
1.08018e-05;0.0031296225417500475
1.08020e-05;0.0031930875902374174
1.08023e-05;0.0032522339338631064
1.08025e-05;0.003308973892486767
1.08028e-05;0.003365713851110812
1.08030e-05;0.003422453809734857
1.08033e-05;0.0034791937683585177
1.08035e-05;0.0035359337269825625
1.08038e-05;0.0035926736856066077
1.08040e-05;0.003646852279780296
1.08043e-05;0.0036855770449618374
1.08045e-05;0.0037243018101433788
1.08048e-05;0.0037630265753246578
1.08050e-05;0.003801751340506199
1.08053e-05;0.003840476105687741
1.08055e-05;0.00387920087086902
1.08058e-05;0.003917925636050561
1.08060e-05;0.003945227954259361
1.08063e-05;0.00396616567799776
1.08065e-05;0.003987103401736301
1.08068e-05;0.004008041125474842
1.08070e-05;0.004028978849213241
1.08073e-05;0.004049916572951782
1.08075e-05;0.004070854296690324
1.08077e-05;0.004091792020428722
1.08080e-05;0.004112729744167264
1.08083e-05;0.004133667467905805
1.08085e-05;0.004154605191644204
1.08088e-05;0.004175542915382745
1.08090e-05;0.004196480639121286
1.08092e-05;0.0042174183628596856
1.08095e-05;0.004238356086598226
1.08098e-05;0.004259293810336767
1.08100e-05;0.004280231534075167
1.08103e-05;0.0043011692578137075
1.08105e-05;0.004322106981552248
1.08108e-05;0.00434304470529079
1.08110e-05;0.0043639824290291895
1.08113e-05;0.00438492015276773
1.08115e-05;0.004405857876506271
1.08118e-05;0.004426795600244671
1.08120e-05;0.0044477333239832115
1.08123e-05;0.004468671047721752
1.08125e-05;0.004489608771460152
1.08128e-05;0.004510546495198693
1.08130e-05;0.0045314842189372335
1.08133e-05;0.004552421942675633
1.08135e-05;0.004573359666414174
1.08138e-05;0.004582124762421537
1.08140e-05;0.004584107262777576
1.08143e-05;0.004586089763133628
1.08145e-05;0.00458807226348968
1.08148e-05;0.004590054763845719
1.08150e-05;0.004592037264201771
1.08153e-05;0.004594019764557823
1.08155e-05;0.004596002264913862
1.08158e-05;0.004597984765269914
1.08160e-05;0.004599967265625966
1.08162e-05;0.0046019497659820045
1.08165e-05;0.0046039322663380565
1.08168e-05;0.004605914766694108
1.08170e-05;0.004607897267050147
1.08173e-05;0.004609879767406199
1.08175e-05;0.004611862267762251
1.08177e-05;0.00461384476811829
1.08180e-05;0.004615827268474342
1.08183e-05;0.004617809768830395
1.08185e-05;0.004619792269186433
1.08188e-05;0.004621774769542485
1.08190e-05;0.004623757269898538
1.08193e-05;0.0046257397702545895
1.08195e-05;0.0046277222706106284
1.08198e-05;0.00462970477096668
1.08200e-05;0.004631687271322732
1.08203e-05;0.004633669771678771
1.08205e-05;0.004635652272034823
1.08208e-05;0.004637634772390875
1.08210e-05;0.004639617272746914
1.08213e-05;0.004641599773102966
1.08215e-05;0.004639315406051476
1.08218e-05;0.0046346535378581875
1.08220e-05;0.004629991669664868
1.08223e-05;0.004625329801471548
1.08225e-05;0.0046206679332782595
1.08228e-05;0.00461600606508494
1.08230e-05;0.00461134419689162
1.08233e-05;0.0046066823286983315
1.08235e-05;0.004602020460505012
1.08238e-05;0.004597358592311692
1.08240e-05;0.0045926967241184035
1.08243e-05;0.004588034855925084
1.08245e-05;0.004583372987731764
1.08247e-05;0.0045787111195384755
1.08250e-05;0.004570702274784072
1.08253e-05;0.00456082849263256
1.08255e-05;0.004550954710481115
1.08258e-05;0.004541080928329604
1.08260e-05;0.004531207146178092
1.08262e-05;0.004521333364026647
1.08265e-05;0.0045114595818751355
1.08268e-05;0.004501585799723624
1.08270e-05;0.004491712017572179
1.08273e-05;0.004481838235420667
1.08275e-05;0.004471964453269155
1.08278e-05;0.004462090671117643
1.08280e-05;0.0044522168889661986
1.08283e-05;0.004442343106814687
1.08285e-05;0.004427132040332689
1.08288e-05;0.00440894703574087
1.08290e-05;0.004390762031148928
1.08293e-05;0.0043725770265569865
1.08295e-05;0.004354392021965169
1.08298e-05;0.004336207017373227
1.08300e-05;0.004318022012781285
1.08303e-05;0.004299837008189466
1.08305e-05;0.0042816520035975246
1.08308e-05;0.004263466999005583
1.08310e-05;0.004245281994413764
1.08313e-05;0.004227096989821822
1.08315e-05;0.00420963373701404
1.08318e-05;0.004192572644744238
1.08320e-05;0.0041755115524743204
1.08323e-05;0.004158450460204403
1.08325e-05;0.004141389367934602
1.08328e-05;0.004124328275664685
1.08330e-05;0.004107267183394767
1.08332e-05;0.004090206091124965
1.08335e-05;0.004073144998855048
1.08338e-05;0.004056083906585131
1.08340e-05;0.004039022814315329
1.08343e-05;0.004021961722045411
1.08345e-05;0.004005748880627199
1.08347e-05;0.003990008685105221
1.08350e-05;0.003974268489583136
1.08353e-05;0.003958528294061051
1.08355e-05;0.003942788098539073
1.08358e-05;0.003927047903016988
1.08360e-05;0.003911307707494903
1.08363e-05;0.0038955675119728183
1.08365e-05;0.00387982731645084
1.08368e-05;0.0038640871209287553
1.08370e-05;0.0038483469254066704
1.08373e-05;0.0038326067298846923
1.08375e-05;0.0038168665343626075
1.08378e-05;0.0038011263388405226
1.08380e-05;0.0037853861433185445
1.08383e-05;0.0037696459477964597
1.08385e-05;0.0037500099765948734
1.08388e-05;0.0037282032767891283
1.08390e-05;0.0037063965769832353
1.08393e-05;0.0036845898771773423
1.08395e-05;0.003662783177371597
1.08398e-05;0.003640976477565704
1.08400e-05;0.003619169777759811
1.08403e-05;0.0035973630779540656
1.08405e-05;0.0035755563781481726
1.08408e-05;0.0035537496783422796
1.08410e-05;0.0035319429785365345
1.08413e-05;0.0035101362787306415
1.08415e-05;0.0034883295789247485
1.08418e-05;0.0034665228791190034
1.08420e-05;0.0034447161793131104
1.08423e-05;0.0034229094795072174
1.08425e-05;0.0034066693483593737
1.08428e-05;0.003393530912691248
1.08430e-05;0.003380392477023123
1.08432e-05;0.003367254041355087
1.08435e-05;0.0033541156056869615
1.08438e-05;0.0033409771700188364
1.08440e-05;0.0033278387343508
1.08443e-05;0.003314700298682675
1.08445e-05;0.0033015618630145493
1.08448e-05;0.0032884234273464243
1.08450e-05;0.003275284991678388
1.08453e-05;0.0032621465560102626
1.08455e-05;0.0032490081203421376
1.08458e-05;0.0032358696846741014
1.08460e-05;0.003222731249005976
1.08463e-05;0.003209592813337851
1.08465e-05;0.003198994917066592
1.08468e-05;0.0032037252031997046
1.08470e-05;0.0032084554893328176
1.08473e-05;0.003213185775465898
1.08475e-05;0.0032179160615990105
1.08478e-05;0.003222646347732123
1.08480e-05;0.0032273766338652035
1.08483e-05;0.0032321069199983165
1.08485e-05;0.003236837206131429
1.08488e-05;0.0032415674922645094
1.08490e-05;0.003246297778397622
1.08493e-05;0.0032510280645307345
1.08495e-05;0.0032557583506638153
1.08498e-05;0.003260488636796928
1.08500e-05;0.0032652189229300404
1.08503e-05;0.003269949209063121
1.08505e-05;0.0032746794951962334
1.08508e-05;0.0032837442480161813
1.08510e-05;0.00329522416834027
1.08513e-05;0.003306704088664436
1.08515e-05;0.003318184008988603
1.08517e-05;0.003329663929312691
1.08520e-05;0.003341143849636858
1.08523e-05;0.003352623769961024
1.08525e-05;0.0033641036902851127
1.08528e-05;0.003375105527430095
1.08530e-05;0.003383222880206769
1.08533e-05;0.0033913402329834434
1.08535e-05;0.0033994575857600622
1.08538e-05;0.0034075749385367366
1.08540e-05;0.0034156922913134106
1.08543e-05;0.00342380964409003
1.08545e-05;0.003431926996866704
1.08548e-05;0.003440044349643378
1.08550e-05;0.003433493595116172
1.08553e-05;0.0034187697621753913
1.08555e-05;0.00340404592923461
1.08558e-05;0.0033893220962939287
1.08560e-05;0.003374598263353148
1.08563e-05;0.003359874430412367
1.08565e-05;0.0033451505974716857
1.08568e-05;0.0033304267645309048
1.08570e-05;0.003315702931590124
1.08573e-05;0.0033009790986494427
1.08575e-05;0.0032819665942939564
1.08578e-05;0.0032370786644939165
1.08580e-05;0.003192190734694181
1.08583e-05;0.003147302804894141
1.08585e-05;0.0031024148750941013
1.08588e-05;0.0030575269452943654
1.08590e-05;0.0030126390154943256
1.08593e-05;0.002967751085694286
1.08595e-05;0.0029228631558945502
1.08598e-05;0.0028779752260945104
1.08600e-05;0.0028330872962944705
1.08602e-05;0.002779572210803942
1.08605e-05;0.002721250068853995
1.08608e-05;0.002662927926904048
1.08610e-05;0.0026046057849544962
1.08613e-05;0.0025462836430045492
1.08615e-05;0.0024879615010546022
1.08618e-05;0.0024300616005947244
1.08620e-05;0.0023747092672351065
1.08623e-05;0.002319356933875113
1.08625e-05;0.0022640046005151194
1.08628e-05;0.002208652267155501
1.08630e-05;0.0021532999337955075
1.08633e-05;0.0020979476004355144
1.08635e-05;0.002049094466310855
1.08638e-05;0.0020038626899988614
1.08640e-05;0.0019586309136868678
1.08643e-05;0.001920303164296687
1.08645e-05;0.001885822342955411
1.08648e-05;0.0018513415216141348
1.08650e-05;0.0018247714367399942
1.08653e-05;0.001802609219093157
1.08655e-05;0.0017804470014463197
1.08658e-05;0.001765197968742602
1.08660e-05;0.0017538009669433674
1.08663e-05;0.001748122383370978
1.08665e-05;0.0017456301059536545
1.08668e-05;0.0017501044664219958
1.08670e-05;0.0017584606418074302
1.08673e-05;0.001766816817192808
1.08675e-05;0.0017829309707523325
1.08678e-05;0.0018033678745246334
1.08680e-05;0.001823804778296796
1.08683e-05;0.001851254508779488
1.08685e-05;0.0018826117906208257
1.08687e-05;0.001913969072461951
1.08690e-05;0.0019511834511433635
1.08693e-05;0.0019916614077885543
1.08695e-05;0.0020321393644334705
1.08698e-05;0.0020787872283342204
1.08700e-05;0.002128872968354862
1.08703e-05;0.002178958708375504
1.08705e-05;0.0022290444483958065
1.08708e-05;0.0022791301884164485
1.08710e-05;0.00232921592843709
1.08713e-05;0.002379739020375588
1.08715e-05;0.002432900847219987
1.08718e-05;0.0024860626740643857
1.08720e-05;0.002539224500908424
1.08723e-05;0.002592386327752823
1.08725e-05;0.002645548154597222
1.08728e-05;0.0026987099814412604
1.08730e-05;0.0027396693184688725
1.08733e-05;0.002773829420660091
1.08735e-05;0.0028079895228510787
1.08738e-05;0.002842149625042298
1.08740e-05;0.0028763097272335165
1.08743e-05;0.002910469829424504
1.08745e-05;0.002944629931615723
1.08748e-05;0.002978790033806942
1.08750e-05;0.0030129501359979294
1.08753e-05;0.0030471102381891485
1.08755e-05;0.0030812703403803677
1.08758e-05;0.0031100496319172123
1.08760e-05;0.003106364145535739
1.08763e-05;0.0031026786591542665
1.08765e-05;0.0030989931727728186
1.08768e-05;0.0030953076863913455
1.08770e-05;0.0030916222000098724
1.08772e-05;0.0030879367136284245
1.08775e-05;0.003084251227246952
1.08778e-05;0.0030805657408654787
1.08780e-05;0.003076880254484031
1.08783e-05;0.003073194768102558
1.08785e-05;0.003069509281721085
1.08788e-05;0.0030496385697968914
1.08790e-05;0.003020749440237888
1.08793e-05;0.002991860310678689
1.08795e-05;0.00296297118111949
1.08798e-05;0.002934082051560487
1.08800e-05;0.002905192922001288
1.08803e-05;0.0028763037924420887
1.08805e-05;0.0028462517272452217
1.08808e-05;0.0028091831640422046
1.08810e-05;0.002772114600839188
1.08813e-05;0.002735046037636422
1.08815e-05;0.002697977474433405
1.08818e-05;0.002660908911230388
1.08820e-05;0.0026238403480276225
1.08823e-05;0.0025867717848246053
1.08825e-05;0.0025543295415849437
1.08828e-05;0.0025244650866771156
1.08830e-05;0.0024946006317690854
1.08833e-05;0.002464736176861055
1.08835e-05;0.0024348717219532267
1.08838e-05;0.0024050072670451965
1.08840e-05;0.0023751428121371663
1.08843e-05;0.0023452783572293382
1.08845e-05;0.0023154139023213076
1.08848e-05;0.0022855494474132774
1.08850e-05;0.0022576364599274797
1.08853e-05;0.002241497526683274
1.08855e-05;0.0022253585934390685
1.08857e-05;0.002209219660194972
1.08860e-05;0.0021930807269507665
1.08863e-05;0.002176941793706561
1.08865e-05;0.0021608028604624646
1.08868e-05;0.002144663927218259
1.08870e-05;0.0021285249939740534
1.08873e-05;0.0021123860607298478
1.08875e-05;0.0020962471274857514
1.08878e-05;0.0020856207216289795
1.08880e-05;0.0020780658994267362
1.08883e-05;0.002070511077224544
1.08885e-05;0.002062956255022301
1.08888e-05;0.0020554014328200572
1.08890e-05;0.002047846610617865
1.08893e-05;0.002040291788415622
1.08895e-05;0.0020327369662133782
1.08898e-05;0.002025182144011186
1.08900e-05;0.002017627321808943
1.08903e-05;0.0020100724996066997
1.08905e-05;0.002002517677404507
1.08908e-05;0.001994962855202264
1.08910e-05;0.0019874080330000207
1.08913e-05;0.0019828099915555307
1.08915e-05;0.001979859470169966
1.08918e-05;0.001976908948784401
1.08920e-05;0.001973958427398857
1.08923e-05;0.001971007906013292
1.08925e-05;0.0019680573846277273
1.08928e-05;0.0019651068632421825
1.08930e-05;0.0019621563418566177
1.08933e-05;0.001959205820471053
1.08935e-05;0.0019562552990855086
1.08938e-05;0.001953304777699944
1.08940e-05;0.001950354256314379
1.08942e-05;0.0019474037349288343
1.08945e-05;0.0019444532135432695
1.08948e-05;0.0019519122510151853
1.08950e-05;0.0019651715010931153
1.08953e-05;0.001978430751171135
1.08955e-05;0.001991690001249155
1.08958e-05;0.0020049492513271746
1.08960e-05;0.0020182085014051046
1.08963e-05;0.0020314677514831243
1.08965e-05;0.0020447270015611445
1.08968e-05;0.002057986251639074
1.08970e-05;0.0020712455017170943
1.08973e-05;0.002084504751795114
1.08975e-05;0.0021140046777198313
1.08978e-05;0.0021525539182290724
1.08980e-05;0.002191103158738314
1.08983e-05;0.0022296523992472936
1.08985e-05;0.0022682016397565347
1.08988e-05;0.0023067508802657763
1.08990e-05;0.002345300120774756
1.08993e-05;0.002383849361283997
1.08995e-05;0.0024223986017932386
1.08998e-05;0.002460947842302218
1.09000e-05;0.0024994970828114598
1.09003e-05;0.002545269976602705
1.09005e-05;0.002595067894451619
1.09008e-05;0.00264486581230087
1.09010e-05;0.0026946637301501213
1.09013e-05;0.002744461647999035
1.09015e-05;0.002794259565848286
1.09018e-05;0.0028440574836975374
1.09020e-05;0.0028912860932132993
1.09023e-05;0.002937083082543523
1.09025e-05;0.002982880071873747
1.09027e-05;0.0030286770612036598
1.09030e-05;0.0030744740505338837
1.09033e-05;0.0031202710398641072
1.09035e-05;0.0031660680291940206
1.09038e-05;0.003196493763327216
1.09040e-05;0.00321835462459573
1.09043e-05;0.0032402154858642437
1.09045e-05;0.003262076347132609
1.09048e-05;0.0032839372084011234
1.09050e-05;0.0033057980696696372
1.09053e-05;0.0033276589309380027
1.09055e-05;0.003349519792206517
1.09058e-05;0.003371380653475031
1.09060e-05;0.003387086460447368
1.09063e-05;0.003365656139801704
1.09065e-05;0.0033442258191560396
1.09068e-05;0.003322795498510521
1.09070e-05;0.0033013651778648566
1.09073e-05;0.0032799348572191927
1.09075e-05;0.0032585045365736737
1.09078e-05;0.00323707421592801
1.09080e-05;0.003215643895282346
1.09083e-05;0.003194213574636827
1.09085e-05;0.0031522214492351376
1.09088e-05;0.003098772273556371
1.09090e-05;0.0030453230978779665
1.09093e-05;0.0029918739221991997
1.09095e-05;0.002938424746520433
1.09098e-05;0.0028849755708420287
1.09100e-05;0.0028295686703523125
1.09103e-05;0.002762349962048054
1.09105e-05;0.002695131253744251
1.09108e-05;0.0026279125454399923
1.09110e-05;0.0025606938371357337
1.09112e-05;0.0024934751288319306
1.09115e-05;0.0024262564205276725
1.09118e-05;0.002359084140400087
1.09120e-05;0.0022919377300816036
1.09123e-05;0.0022247913197626654
1.09125e-05;0.0021576449094437276
1.09128e-05;0.0020904984991247893
1.09130e-05;0.002025190055706223
1.09133e-05;0.0019709708683842355
1.09135e-05;0.0019167516810622471
1.09138e-05;0.0018625324937406266
1.09140e-05;0.0018083133064186385
1.09143e-05;0.0017540941190966506
1.09145e-05;0.0017089476982828004
1.09148e-05;0.0016688566285571478
1.09150e-05;0.0016287655588314953
1.09153e-05;0.0015930973276170807
1.09155e-05;0.0015598935047460316
1.09158e-05;0.0015266896818749822
1.09160e-05;0.0014989453357238962
1.09163e-05;0.0014742430133650097
1.09165e-05;0.0014495406910061232
1.09168e-05;0.0014288972785926524
1.09170e-05;0.0014105154933017159
1.09173e-05;0.0013921337080107792
1.09175e-05;0.0013773059577857228
1.09178e-05;0.0013644585180893315
1.09180e-05;0.0013516110783929399
1.09183e-05;0.001344294136808418
1.09185e-05;0.0013400587921799172
1.09188e-05;0.0013358234475514166
1.09190e-05;0.0013315881029229448
1.09193e-05;0.0013273527582944441
1.09195e-05;0.0013231174136659435
1.09197e-05;0.0013188820690374714
1.09200e-05;0.001315699134417184
1.09203e-05;0.0013188658484794833
1.09205e-05;0.001322032562541761
1.09208e-05;0.00132519927660406
1.09210e-05;0.001328365990666359
1.09213e-05;0.001331532704728658
1.09215e-05;0.0013346994187909357
1.09218e-05;0.0013378661328532348
1.09220e-05;0.001342489233300247
1.09223e-05;0.0013479238331382966
1.09225e-05;0.0013533584329763833
1.09228e-05;0.0013587930328144697
1.09230e-05;0.0013642276326525195
1.09233e-05;0.001369662232490606
1.09235e-05;0.0013750968323286926
1.09238e-05;0.0013805413431219272
1.09240e-05;0.001385991376305536
1.09243e-05;0.0013914414094891446
1.09245e-05;0.0013968914426727166
1.09248e-05;0.0014023414758563251
1.09250e-05;0.001407791509039934
1.09253e-05;0.0014132415422235057
1.09255e-05;0.001423752406737891
1.09258e-05;0.0014370831695889874
1.09260e-05;0.0014504139324399933
1.09263e-05;0.0014637446952910896
1.09265e-05;0.001477075458142186
1.09268e-05;0.001490406220993192
1.09270e-05;0.0015037369838442882
1.09273e-05;0.0015170677466953848
1.09275e-05;0.0015303985095463906
1.09278e-05;0.001543729272397487
1.09280e-05;0.0015585279471356898
1.09282e-05;0.001582183174654037
1.09285e-05;0.0016058384021725445
1.09288e-05;0.0016294936296910518
1.09290e-05;0.0016531488572093989
1.09293e-05;0.0016768040847279064
1.09295e-05;0.0017004593122464137
1.09297e-05;0.0017241145397647608
1.09300e-05;0.0017477697672832683
1.09303e-05;0.0017714249948017756
1.09305e-05;0.0017950802223202832
1.09308e-05;0.00182052936413843
1.09310e-05;0.001846978076110456
1.09313e-05;0.0018734267880824824
1.09315e-05;0.0018998755000543294
1.09318e-05;0.0019263242120263558
1.09320e-05;0.001952772923998382
1.09323e-05;0.001979221635970229
1.09325e-05;0.002005670347942255
1.09328e-05;0.0020312458000477695
1.09330e-05;0.0020515524944237497
1.09333e-05;0.0020718591887998678
1.09335e-05;0.002092165883175986
1.09338e-05;0.002112472577551966
1.09340e-05;0.0021327792719280842
1.09343e-05;0.0021530859663042023
1.09345e-05;0.002173392660680183
1.09348e-05;0.0021936993550563007
1.09350e-05;0.002218081791959861
1.09353e-05;0.0022447352351123865
1.09355e-05;0.002271388678265092
1.09358e-05;0.0022980421214177983
1.09360e-05;0.0023246955645703235
1.09363e-05;0.0023513490077230292
1.09365e-05;0.002378002450875735
1.09367e-05;0.00240465589402826
1.09370e-05;0.002431309337180966
1.09373e-05;0.002457962780333672
1.09375e-05;0.0024846162234861973
1.09378e-05;0.002511269666638903
1.09380e-05;0.002547997294917761
1.09382e-05;0.002590338265360415
1.09385e-05;0.0026326792358033553
1.09388e-05;0.0026750202062462963
1.09390e-05;0.002717361176689237
1.09393e-05;0.002759702147131891
1.09395e-05;0.0028020431175748315
1.09398e-05;0.0028443840880177725
1.09400e-05;0.0028867250584604263
1.09403e-05;0.0029290660289033672
1.09405e-05;0.002971406999346308
1.09408e-05;0.003013747969788962
1.09410e-05;0.0030568457274553627
1.09413e-05;0.0031003651674293645
1.09415e-05;0.003143884607403071
1.09418e-05;0.0031874040473770723
1.09420e-05;0.003230923487351074
1.09423e-05;0.0032744429273247806
1.09425e-05;0.003317962367298782
1.09428e-05;0.0033614818072727837
1.09430e-05;0.00340500124724649
1.09433e-05;0.0034485206872204915
1.09435e-05;0.0034896745236510664
1.09438e-05;0.003516555641911563
1.09440e-05;0.003543436760172242
1.09443e-05;0.003570317878432921
1.09445e-05;0.0035971989966934173
1.09448e-05;0.003624080114954096
1.09450e-05;0.003650961233214775
1.09452e-05;0.003677842351475272
1.09455e-05;0.0037047234697359507
1.09458e-05;0.003731604587996629
1.09460e-05;0.003758485706257126
1.09463e-05;0.003775064487709347
1.09465e-05;0.0037859028007375638
1.09467e-05;0.0037967411137657067
1.09470e-05;0.003807579426793923
1.09473e-05;0.0038184177398221395
1.09475e-05;0.0038292560528503557
1.09478e-05;0.0038400943658784986
1.09480e-05;0.0038509326789067148
1.09483e-05;0.0038617709919349314
1.09485e-05;0.0038726093049630743
1.09488e-05;0.0038834476179912905
1.09490e-05;0.003894285931019507
