Time(s);Current(A)
1.45000e-05;-0.00431870368240822
1.45003e-05;-0.004322815072436901
1.45005e-05;-0.004326926462465582
1.45008e-05;-0.004331037852494264
1.45010e-05;-0.004335149242522917
1.45013e-05;-0.004339260632551598
1.45015e-05;-0.004343372022580279
1.45018e-05;-0.004347483412608932
1.45020e-05;-0.004351594802637613
1.45023e-05;-0.0043553011754987195
1.45025e-05;-0.004357326030431218
1.45028e-05;-0.004359350885363731
1.45030e-05;-0.004361375740296243
1.45033e-05;-0.004363400595228742
1.45035e-05;-0.004365425450161255
1.45038e-05;-0.004367450305093767
1.45040e-05;-0.004369475160026267
1.45043e-05;-0.004371500014958779
1.45045e-05;-0.004373524869891292
1.45048e-05;-0.004375549724823791
1.45050e-05;-0.004377574579756303
1.45053e-05;-0.004379599434688816
1.45055e-05;-0.0043816242896213145
1.45058e-05;-0.004383649144553827
1.45060e-05;-0.00438567399948634
1.45063e-05;-0.004387698854418838
1.45065e-05;-0.004389723709351351
1.45068e-05;-0.00439111882067096
1.45070e-05;-0.004392131684441476
1.45073e-05;-0.004393754857338492
1.45075e-05;-0.0043956673282454645
1.45078e-05;-0.004401047627824333
1.45080e-05;-0.004407956178682831
1.45083e-05;-0.004418877022506072
1.45085e-05;-0.004431566059754479
1.45088e-05;-0.004448583283765357
1.45090e-05;-0.004467507913701972
1.45093e-05;-0.0044864325436385875
1.45095e-05;-0.0045116138531858235
1.45098e-05;-0.004539552443881284
1.45100e-05;-0.004567491034576744
1.45103e-05;-0.0046046989808576876
1.45105e-05;-0.0046459918765053
1.45108e-05;-0.004687284772152913
1.45110e-05;-0.004728577667800245
1.45113e-05;-0.004769870563447858
1.45115e-05;-0.004813835963668302
1.45118e-05;-0.004868896854933148
1.45120e-05;-0.004923957746198367
1.45123e-05;-0.004979018637463585
1.45125e-05;-0.005034079528728431
1.45128e-05;-0.00508914041999365
1.45130e-05;-0.005148554968745985
1.45133e-05;-0.0052098881482194465
1.45135e-05;-0.00527251727876603
1.45138e-05;-0.0053357175271713676
1.45140e-05;-0.005399747320015251
1.45143e-05;-0.005464142688114464
1.45145e-05;-0.005528316650431211
1.45148e-05;-0.005592393040548183
1.45150e-05;-0.005655172994762729
1.45153e-05;-0.005717381617456744
1.45155e-05;-0.005777529711882908
1.45158e-05;-0.005836769743870336
1.45160e-05;-0.005893176751502623
1.45163e-05;-0.005948335262306426
1.45165e-05;-0.005995871143723678
1.45168e-05;-0.0060400477781247615
1.45170e-05;-0.006084224412525545
1.45173e-05;-0.006128401046926628
1.45175e-05;-0.006172577681327711
1.45178e-05;-0.00620684328788969
1.45180e-05;-0.006236741163973338
1.45183e-05;-0.0062666390400571885
1.45185e-05;-0.00629653691614104
1.45188e-05;-0.0063264347922246875
1.45190e-05;-0.006343436767302059
1.45193e-05;-0.006354755596212664
1.45195e-05;-0.006366074425123191
1.45198e-05;-0.006377393254033796
1.45200e-05;-0.0063887120829444
1.45203e-05;-0.0064000309118549285
1.45205e-05;-0.0064113497407655325
1.45208e-05;-0.006422668569676137
1.45210e-05;-0.006433987398586665
1.45213e-05;-0.00644530622749727
1.45215e-05;-0.006444813946769466
1.45218e-05;-0.006439116580919291
1.45220e-05;-0.006433419215069077
1.45223e-05;-0.006427721849218863
1.45225e-05;-0.006422024483368687
1.45228e-05;-0.0064163271175184736
1.45230e-05;-0.00641062975166826
1.45233e-05;-0.006404932385818084
1.45235e-05;-0.00639923501996787
1.45238e-05;-0.006393537654117656
1.45240e-05;-0.006383351684281797
1.45243e-05;-0.006371187613611703
1.45245e-05;-0.006359023542941609
1.45248e-05;-0.0063468594722715975
1.45250e-05;-0.006334695401601504
1.45253e-05;-0.00632253133093141
1.45255e-05;-0.006310367260261399
1.45258e-05;-0.006298965758203816
1.45260e-05;-0.0062879003155565626
1.45263e-05;-0.00627683487290931
1.45265e-05;-0.006265769430262132
1.45268e-05;-0.00625470398761488
1.45270e-05;-0.006243638544967627
1.45273e-05;-0.006232573102320449
1.45275e-05;-0.006224430142122457
1.45278e-05;-0.0062175751023981745
1.45280e-05;-0.006210720062673939
1.45283e-05;-0.006203865022949657
1.45285e-05;-0.006197009983225375
1.45288e-05;-0.00619015494350114
1.45290e-05;-0.006183299903776858
1.45293e-05;-0.006176444864052577
1.45295e-05;-0.0061695898243283405
1.45298e-05;-0.006162734784604059
1.45300e-05;-0.006155879744879777
1.45303e-05;-0.006149024705155542
1.45305e-05;-0.00614216966543126
1.45308e-05;-0.006135314625706978
1.45310e-05;-0.0061284595859827425
1.45313e-05;-0.0061216045462584604
1.45315e-05;-0.006114749506534179
1.45318e-05;-0.00610835401207445
1.45320e-05;-0.006103866420944057
1.45323e-05;-0.006099378829813664
1.45325e-05;-0.006094891238683301
1.45328e-05;-0.006090403647552908
1.45330e-05;-0.006085916056422515
1.45333e-05;-0.006081428465292153
1.45335e-05;-0.00607694087416176
1.45338e-05;-0.006072453283031368
1.45340e-05;-0.006067965691901005
1.45343e-05;-0.006063478100770612
1.45345e-05;-0.006058990509640219
1.45348e-05;-0.006054502918509826
1.45350e-05;-0.0060500153273794635
1.45353e-05;-0.006045527736249071
1.45355e-05;-0.006041040145118678
1.45358e-05;-0.006036552553988315
1.45360e-05;-0.006032064962857922
1.45363e-05;-0.006028964792554808
1.45365e-05;-0.006026476050282761
1.45368e-05;-0.006023987308010697
1.45370e-05;-0.006021498565738634
1.45373e-05;-0.006019009823466587
1.45375e-05;-0.006016521081194524
1.45378e-05;-0.00601403233892246
1.45380e-05;-0.006012799877804641
1.45383e-05;-0.006016783144456278
1.45385e-05;-0.006020766411107915
1.45388e-05;-0.006024749677759527
1.45390e-05;-0.006028732944411164
1.45393e-05;-0.006032716211062801
1.45395e-05;-0.006036699477714412
1.45398e-05;-0.00604068274436605
1.45400e-05;-0.006044538618446262
1.45403e-05;-0.006056149832382248
1.45405e-05;-0.015482933408693783
1.45408e-05;-0.02165814064699597
1.45410e-05;-0.019363759343403758
1.45413e-05;-0.016823800175870235
1.45415e-05;-0.010184033188088032
1.45418e-05;-0.0039233355585880335
1.45420e-05;-0.004387884748292631
1.45423e-05;-0.005438139403522439
1.45425e-05;-0.01010838554874302
1.45428e-05;-0.014930601142835065
1.45430e-05;-0.013952444701069128
1.45433e-05;-0.011777877117857088
1.45435e-05;-0.008535082952895373
1.45438e-05;-0.005194352221365484
1.45440e-05;-0.00372256217340536
1.45443e-05;-0.004534433044178527
1.45445e-05;-0.006842513067502054
1.45448e-05;-0.009293989122102485
1.45450e-05;-0.010223834622484477
1.45453e-05;-0.009267641559426533
1.45455e-05;-0.0072402063573501225
1.45458e-05;-0.005211207132383412
1.45460e-05;-0.004323203114690844
1.45463e-05;-0.004861282643033452
1.45465e-05;-0.006332537275882589
1.45468e-05;-0.00788989764442071
1.45470e-05;-0.008490739708643695
1.45473e-05;-0.007907049475023527
1.45475e-05;-0.006649162098333764
1.45478e-05;-0.005386905010686606
1.45480e-05;-0.004835937930036723
1.45483e-05;-0.005174998316947432
1.45485e-05;-0.006095533515974735
1.45488e-05;-0.007067161598556906
1.45490e-05;-0.007437041753999846
1.45493e-05;-0.007062625238089877
1.45495e-05;-0.006263843586847823
1.45498e-05;-0.0054604891181309
1.45500e-05;-0.0051010144095236035
1.45503e-05;-0.0052975115473341125
1.45505e-05;-0.00585683189735191
1.45508e-05;-0.006446891542195159
1.45510e-05;-0.006658927956796487
1.45513e-05;-0.00640384344804368
1.45515e-05;-0.005882228488037656
1.45518e-05;-0.0053572023650070005
1.45520e-05;-0.005109810619380967
1.45523e-05;-0.005210383695507112
1.45525e-05;-0.005538051012014156
1.45528e-05;-0.005884926791799306
1.45530e-05;-0.005995112976697859
1.45533e-05;-0.005812963253959477
1.45535e-05;-0.005464287058395756
1.45538e-05;-0.005114048008103829
1.45540e-05;-0.004938421919659276
1.45543e-05;-0.004981582497452302
1.45545e-05;-0.005167936824973474
1.45548e-05;-0.0053673944172616716
1.45550e-05;-0.005419803021527891
1.45553e-05;-0.005290456414622233
1.45555e-05;-0.005058309650852966
1.45558e-05;-0.004826835575268266
1.45560e-05;-0.004706520141191061
1.45563e-05;-0.004725157290786101
1.45565e-05;-0.004835519687912337
1.45568e-05;-0.004956248614587924
1.45570e-05;-0.004987161625450355
1.45573e-05;-0.004906608226867748
1.45575e-05;-0.00476397250693827
1.45578e-05;-0.004623848166884654
1.45580e-05;-0.004555235571152463
1.45583e-05;-0.004575410610863973
1.45585e-05;-0.004654681588278171
1.45588e-05;-0.00474197998770581
1.45590e-05;-0.0047744521896786315
1.45593e-05;-0.004738439648689863
1.45595e-05;-0.0046647789574120035
1.45598e-05;-0.0045938310027262355
1.45600e-05;-0.004568713084120371
1.45603e-05;-0.0046001400194411795
1.45605e-05;-0.004669406266835882
1.45608e-05;-0.004744418388167827
1.45610e-05;-0.004785703472367243
1.45613e-05;-0.0047846077469785395
1.45615e-05;-0.0047603473842497915
1.45618e-05;-0.0047381030889507405
1.45620e-05;-0.004744779946535648
1.45623e-05;-0.004786983948611575
1.45625e-05;-0.004852893134135049
1.45628e-05;-0.004922300670996508
1.45630e-05;-0.004970379165503317
1.45633e-05;-0.004991607170863655
1.45635e-05;-0.004997921678090565
1.45638e-05;-0.005004994100243185
1.45640e-05;-0.005029574264889972
1.45643e-05;-0.005075696038224162
1.45645e-05;-0.0051358496058637034
1.45648e-05;-0.005197274739896976
1.45650e-05;-0.00524431755890277
1.45653e-05;-0.005273418528485101
1.45655e-05;-0.0052933082335078485
1.45658e-05;-0.005311577988453956
1.45660e-05;-0.005336858650204274
1.45663e-05;-0.0053760411881268325
1.45665e-05;-0.005422377511288269
1.45668e-05;-0.005467771332815418
1.45670e-05;-0.005502310716127946
1.45673e-05;-0.005523528832510528
1.45675e-05;-0.00553559484356866
1.45678e-05;-0.005543765103685118
1.45680e-05;-0.005554139647569876
1.45683e-05;-0.005568717759999631
1.45685e-05;-0.005582893761115287
1.45688e-05;-0.005594347631799157
1.45690e-05;-0.005599183578578385
1.45693e-05;-0.005590680286071134
1.45695e-05;-0.005573540982230422
1.45698e-05;-0.005551947569846105
1.45700e-05;-0.005530492074743174
1.45703e-05;-0.0055091685146507014
1.45705e-05;-0.0054856424107685
1.45708e-05;-0.005459095526440373
1.45710e-05;-0.005426241869548389
1.45713e-05;-0.005384352609956974
1.45715e-05;-0.005338680148211849
1.45718e-05;-0.0052875875589378
1.45720e-05;-0.0052362580888371
1.45723e-05;-0.005184589243720008
1.45725e-05;-0.005130651191941271
1.45728e-05;-0.005073462087483962
1.45730e-05;-0.005016272983026266
1.45733e-05;-0.004955677516324824
1.45735e-05;-0.004889257736270842
1.45738e-05;-0.004821485392516074
1.45740e-05;-0.004754561895652043
1.45743e-05;-0.004688854526876287
1.45745e-05;-0.004623752711632343
1.45748e-05;-0.004559298330660936
1.45750e-05;-0.004494047535316899
1.45753e-05;-0.004428068710701119
1.45755e-05;-0.004362434280267264
1.45758e-05;-0.004298427925810453
1.45760e-05;-0.00423745872107876
1.45763e-05;-0.004180224081311356
1.45765e-05;-0.004126737499473611
1.45768e-05;-0.0040766953339204165
1.45770e-05;-0.0040296204998039415
1.45773e-05;-0.003985777750438007
1.45775e-05;-0.00394608798344658
1.45778e-05;-0.0039115088213309505
1.45780e-05;-0.0038828661347520763
1.45783e-05;-0.0038604020001104414
1.45785e-05;-0.0038439030100716294
1.45788e-05;-0.003833950108050321
1.45790e-05;-0.003828466946392291
1.45793e-05;-0.0038272471610725145
1.45795e-05;-0.003832135440436044
1.45798e-05;-0.0038430612936528816
1.45800e-05;-0.0038626370732896265
1.45803e-05;-0.003882212852926372
1.45805e-05;-0.0039082798052846885
1.45808e-05;-0.003943646547225068
1.45810e-05;-0.003979013289165447
1.45813e-05;-0.004018854063888295
1.45815e-05;-0.004065104707096918
1.45818e-05;-0.004114880424139023
1.45820e-05;-0.0041697064527836895
1.45823e-05;-0.00422761241072632
1.45825e-05;-0.00428993092948414
1.45828e-05;-0.00435447718081859
1.45830e-05;-0.0044222150656380976
1.45833e-05;-0.00449120942378943
1.45835e-05;-0.004562719624378726
1.45838e-05;-0.004635890345185869
1.45840e-05;-0.004710476922420508
1.45843e-05;-0.004786091147037071
1.45845e-05;-0.004862232635588701
1.45848e-05;-0.004938352905181161
1.45850e-05;-0.005013877005965927
1.45853e-05;-0.0050883434292435656
1.45855e-05;-0.005161391918824361
1.45858e-05;-0.005232668204046338
1.45860e-05;-0.005301797534203135
1.45863e-05;-0.005368315722110661
1.45865e-05;-0.005431688142576296
1.45868e-05;-0.005491349029923818
1.45870e-05;-0.005545652604109892
1.45873e-05;-0.005595710494003543
1.45875e-05;-0.005641092021390238
1.45878e-05;-0.005679773806034961
1.45880e-05;-0.005712124890761568
1.45883e-05;-0.0057354060924817004
1.45885e-05;-0.005758687294201991
1.45888e-05;-0.00577408510200198
1.45890e-05;-0.005778188509265717
1.45893e-05;-0.005782291916529483
1.45895e-05;-0.005778270933540723
1.45898e-05;-0.005762610278787312
1.45900e-05;-0.005746949624033795
1.45903e-05;-0.00572190427731896
1.45905e-05;-0.005683413646632937
1.45908e-05;-0.005644923015946654
1.45910e-05;-0.005606432385260371
1.45913e-05;-0.005567941754574349
1.45915e-05;-0.005508164169847684
1.45918e-05;-0.00544630872537002
1.45920e-05;-0.005384453280892775
1.45923e-05;-0.005322597836415111
1.45925e-05;-0.005255370328254896
1.45928e-05;-0.005180446358450163
1.45930e-05;-0.005103124101872818
1.45933e-05;-0.005022365861798899
1.45935e-05;-0.004940206818580984
1.45938e-05;-0.004855344296011276
1.45940e-05;-0.004768996452820142
1.45943e-05;-0.004681671491119802
1.45945e-05;-0.004593876707469798
1.45948e-05;-0.004506114887202635
1.45950e-05;-0.004418885596547443
1.45953e-05;-0.004332693229502546
1.45955e-05;-0.004248040291647689
1.45958e-05;-0.004165443830888418
1.45960e-05;-0.004085460559163231
1.45963e-05;-0.00400866945909834
1.45965e-05;-0.00393564793780472
1.45968e-05;-0.003866970706889223
1.45970e-05;-0.003803202324495433
1.45973e-05;-0.003744631238191896
1.45975e-05;-0.0036907683400585565
1.45978e-05;-0.0036406523555809855
1.45980e-05;-0.0035938031553040496
1.45983e-05;-0.0035503431294507844
1.45985e-05;-0.003510553907389999
1.45988e-05;-0.003475615932144555
1.45990e-05;-0.0034443911309396677
1.45993e-05;-0.0034165304681688007
1.45995e-05;-0.0033934895476728138
1.45998e-05;-0.003373538988800935
1.46000e-05;-0.003358015936957888
1.46003e-05;-0.0033424928851148407
1.46005e-05;-0.0033318965716333158
1.46008e-05;-0.0033283587100029857
1.46010e-05;-0.0033248208483726556
1.46013e-05;-0.0033212829867423493
1.46015e-05;-0.0033177451251120193
1.46018e-05;-0.0033190064594634397
1.46020e-05;-0.0033271435179300685
1.46023e-05;-0.0033352805763967523
1.46025e-05;-0.0033434176348634366
1.46028e-05;-0.0033515546933300653
1.46030e-05;-0.003362572407689837
1.46033e-05;-0.0033777171873471614
1.46035e-05;-0.0033928619670044852
1.46038e-05;-0.0034091913103118
1.46040e-05;-0.0034272177572354135
1.46043e-05;-0.003445244204159027
1.46045e-05;-0.0034639007062272882
1.46048e-05;-0.0034834598772780752
1.46050e-05;-0.003503019048328862
1.46053e-05;-0.0035227310194765253
1.46055e-05;-0.0035426619046499057
1.46058e-05;-0.0035620229837615624
1.46060e-05;-0.003580567711697824
1.46063e-05;-0.003599112439634211
1.46065e-05;-0.0036160949983358127
1.46068e-05;-0.0036308394645063816
1.46070e-05;-0.00364558393067705
1.46073e-05;-0.0036603283968477188
1.46075e-05;-0.003675072863018287
1.46078e-05;-0.0036891656819979493
1.46080e-05;-0.0037023248974482363
1.46083e-05;-0.003715484112898434
1.46085e-05;-0.003728643328348721
1.46088e-05;-0.003741802543799008
1.46090e-05;-0.003755108820721678
1.46093e-05;-0.0037686257900430833
1.46095e-05;-0.003782142759364489
1.46098e-05;-0.0037956597286858025
1.46100e-05;-0.0038091766980072076
1.46103e-05;-0.0038226936673286128
1.46105e-05;-0.0038362106366499264
1.46108e-05;-0.0038497276059713315
1.46110e-05;-0.0038632445752927367
1.46113e-05;-0.0038783986734982397
1.46115e-05;-0.0038937125749436844
1.46118e-05;-0.003909026476389129
1.46120e-05;-0.0039243403778345745
1.46123e-05;-0.003939654279279915
1.46125e-05;-0.003954968180725361
1.46128e-05;-0.003970282082170805
1.46130e-05;-0.003985595983616147
1.46133e-05;-0.004000990897057731
1.46135e-05;-0.00401650187496883
1.46138e-05;-0.004032012852879822
1.46140e-05;-0.0040475238307909195
1.46143e-05;-0.004063034808702017
1.46145e-05;-0.00407854578661301
1.46148e-05;-0.004094056764524108
1.46150e-05;-0.004108643681609811
1.46153e-05;-0.004121906712917861
1.46155e-05;-0.004135169744226001
1.46158e-05;-0.004148432775534141
1.46160e-05;-0.004161695806842191
1.46163e-05;-0.004174958838150332
1.46165e-05;-0.004188221869458471
1.46168e-05;-0.004200274053485626
1.46170e-05;-0.00421059147779786
1.46173e-05;-0.0042208090771798466
1.46175e-05;-0.004230883659130681
1.46178e-05;-0.0042428569884604694
1.46180e-05;-0.004257550619940606
1.46183e-05;-0.004272244251420644
1.46185e-05;-0.0042890675452189496
1.46188e-05;-0.004308941968961244
1.46190e-05;-0.004328816392703403
1.46193e-05;-0.004352202064615259
1.46195e-05;-0.004380618240349172
1.46198e-05;-0.004409034416082893
1.46200e-05;-0.0044374505918168055
1.46203e-05;-0.004465866767550719
1.46205e-05;-0.004494282943284632
1.46208e-05;-0.004533273267669034
1.46210e-05;-0.004573295754659181
1.46213e-05;-0.00461331824164933
1.46215e-05;-0.004653340728639207
1.46218e-05;-0.004693363215629355
1.46220e-05;-0.004736529890642725
1.46223e-05;-0.004784201188828386
1.46225e-05;-0.004831872487014371
1.46228e-05;-0.00488081167985598
1.46230e-05;-0.004931567363188318
1.46233e-05;-0.004982323046521
1.46235e-05;-0.005033802293106389
1.46238e-05;-0.005086318176104738
1.46240e-05;-0.005138834059103443
1.46243e-05;-0.0051914669947288735
1.46245e-05;-0.00524426762960441
1.46248e-05;-0.005296544925344632
1.46250e-05;-0.005348072442261026
1.46253e-05;-0.005398650425972077
1.46255e-05;-0.005447868030072781
1.46258e-05;-0.005495869741638837
1.46260e-05;-0.005542129465242248
1.46263e-05;-0.005586676277267554
1.46265e-05;-0.005628769030841806
1.46268e-05;-0.0056685861014186545
1.46270e-05;-0.0057051428407787486
1.46273e-05;-0.005738581079945584
1.46275e-05;-0.005767551498443308
1.46278e-05;-0.00579126367303753
1.46280e-05;-0.005807442453583357
1.46283e-05;-0.005823621234129075
1.46285e-05;-0.005833317168678915
1.46288e-05;-0.005833725243187027
1.46290e-05;-0.005834133317695138
1.46293e-05;-0.005827840902974918
1.46295e-05;-0.005811948814561644
1.46298e-05;-0.005796056726148369
1.46300e-05;-0.005771763094262854
1.46303e-05;-0.005735432718028534
1.46305e-05;-0.005699102341794215
1.46308e-05;-0.005662771965560141
1.46310e-05;-0.005626441589325822
1.46313e-05;-0.005571084566082237
1.46315e-05;-0.005513870315915414
1.46318e-05;-0.005456656065748204
1.46320e-05;-0.005399441815580993
1.46323e-05;-0.005336521305692538
1.46325e-05;-0.005265425537330254
1.46328e-05;-0.00519432976896797
1.46330e-05;-0.005120645539208516
1.46333e-05;-0.005043252866088613
1.46335e-05;-0.004964705650175593
1.46338e-05;-0.004883908071284436
1.46340e-05;-0.004801845250929464
1.46343e-05;-0.004718981922813375
1.46345e-05;-0.004635802074661422
1.46348e-05;-0.0045527891714839605
1.46350e-05;-0.0044704267353449555
1.46353e-05;-0.004389180729317514
1.46355e-05;-0.004309476112508134
1.46358e-05;-0.004231731838429308
1.46360e-05;-0.004156424254773056
1.46363e-05;-0.004084081079126688
1.46365e-05;-0.004015241738680273
1.46368e-05;-0.003950445934866226
1.46370e-05;-0.003890224946686261
1.46373e-05;-0.003834847610620543
1.46375e-05;-0.003783855381335761
1.46378e-05;-0.003736974797053758
1.46380e-05;-0.003692775275400404
1.46383e-05;-0.0036512911258419116
1.46385e-05;-0.003613697242379916
1.46388e-05;-0.0035792496626982505
1.46390e-05;-0.0035493097374001558
1.46393e-05;-0.003523095365274062
1.46395e-05;-0.003502218528000623
1.46398e-05;-0.003481341690727184
1.46400e-05;-0.003465360622561965
1.46403e-05;-0.0034563936371493236
1.46405e-05;-0.003447426651736682
1.46408e-05;-0.0034384596663241014
1.46410e-05;-0.00342949268091146
1.46413e-05;-0.0034205256954988185
1.46415e-05;-0.0034236673305851318
1.46418e-05;-0.0034279909109721065
1.46420e-05;-0.0034323144913590807
1.46423e-05;-0.003436638071746026
1.46425e-05;-0.003440961652133
1.46428e-05;-0.003449049215926164
1.46430e-05;-0.0034625293728965936
1.46433e-05;-0.0034760095298671146
1.46435e-05;-0.0034894896868376355
1.46438e-05;-0.003502969843808065
1.46440e-05;-0.0035164500007785855
1.46443e-05;-0.0035315396393418674
1.46445e-05;-0.003548935154026168
1.46448e-05;-0.0035663306687105873
1.46450e-05;-0.003583726183395006
1.46453e-05;-0.0036011216980793067
1.46455e-05;-0.003618517212763726
1.46458e-05;-0.0036355397637707764
1.46460e-05;-0.0036520279762419835
1.46463e-05;-0.0036685161887130787
