Time(s);Current(A)
1.22500e-05;-0.013222642683684017
1.22503e-05;-0.013238594066301065
1.22505e-05;-0.013250510917296914
1.22508e-05;-0.013260135314350366
1.22510e-05;-0.013269759711403754
1.22513e-05;-0.013279384108457208
1.22515e-05;-0.01328900850551066
1.22518e-05;-0.013298632902564049
1.22520e-05;-0.013308257299617503
1.22523e-05;-0.013317881696670957
1.22525e-05;-0.013326243818864514
1.22528e-05;-0.013326699399954544
1.22530e-05;-0.013327154981044573
1.22532e-05;-0.013327610562134601
1.22535e-05;-0.01332806614322463
1.22538e-05;-0.01332852172431466
1.22540e-05;-0.01332897730540469
1.22543e-05;-0.013329432886494717
1.22545e-05;-0.013329888467584747
1.22548e-05;-0.013325724398412772
1.22550e-05;-0.013318935406089838
1.22553e-05;-0.013312146413766856
1.22555e-05;-0.013305357421443875
1.22558e-05;-0.013298568429120939
1.22560e-05;-0.013291779436797957
1.22563e-05;-0.013284990444474976
1.22565e-05;-0.013278201452152041
1.22568e-05;-0.013268936215989192
1.22570e-05;-0.01325826395777603
1.22573e-05;-0.01324759169956294
1.22575e-05;-0.013236919441349778
1.22578e-05;-0.013226247183136615
1.22580e-05;-0.013215574924923524
1.22583e-05;-0.013204902666710362
1.22585e-05;-0.013194230408497199
1.22588e-05;-0.013183164558389198
1.22590e-05;-0.01317187506613971
1.22593e-05;-0.01316058557389022
1.22595e-05;-0.013149296081640808
1.22598e-05;-0.013138662080985441
1.22600e-05;-0.013128400536027684
1.22603e-05;-0.013118138991069997
1.22605e-05;-0.01310787744611224
1.22608e-05;-0.013098568430162555
1.22610e-05;-0.013089800649004325
1.22613e-05;-0.013081032867846037
1.22615e-05;-0.013071796319879187
1.22617e-05;-0.013062293414768734
1.22620e-05;-0.013052790509658217
1.22623e-05;-0.013041964066193384
1.22625e-05;-0.013030385577384972
1.22628e-05;-0.013018807088576638
1.22630e-05;-0.013007228599768227
1.22633e-05;-0.012995650110959815
1.22635e-05;-0.012984071622151481
1.22638e-05;-0.012972000824960571
1.22640e-05;-0.012956846344026428
1.22643e-05;-0.012941691863092387
1.22645e-05;-0.012926537382158244
1.22648e-05;-0.012911382901224101
1.22650e-05;-0.012896228420290062
1.22653e-05;-0.01288107393935592
1.22655e-05;-0.012863954715780427
1.22658e-05;-0.01284571910932872
1.22660e-05;-0.01282748350287689
1.22663e-05;-0.012809247896425062
1.22665e-05;-0.012791012289973355
1.22668e-05;-0.012772776683521527
1.22670e-05;-0.012753726772902945
1.22673e-05;-0.01273421416798102
1.22675e-05;-0.012714701563058964
1.22678e-05;-0.012695188958136908
1.22680e-05;-0.012675676353214984
1.22683e-05;-0.012656163748292927
1.22685e-05;-0.012636813568694515
1.22688e-05;-0.012617555680496747
1.22690e-05;-0.012598763688702492
1.22693e-05;-0.012580236423064379
1.22695e-05;-0.012562278685343651
1.22698e-05;-0.012544644558054594
1.22700e-05;-0.012528036551015491
1.22702e-05;-0.012512011593915049
1.22705e-05;-0.0124959866368145
1.22708e-05;-0.012481352044443469
1.22710e-05;-0.012467507468710523
1.22713e-05;-0.012454195303590614
1.22715e-05;-0.01244118565854581
1.22718e-05;-0.012428176013501007
1.22720e-05;-0.012414865470842732
1.22723e-05;-0.012401383955693457
1.22725e-05;-0.012387902440544182
1.22728e-05;-0.012374470613093025
1.22730e-05;-0.012361028020684771
1.22733e-05;-0.01234756326934184
1.22735e-05;-0.012334098517998998
1.22738e-05;-0.012319700469360768
1.22740e-05;-0.012304772113547741
1.22743e-05;-0.012289843757734816
1.22745e-05;-0.01227491540192179
1.22748e-05;-0.012259987046108763
1.22750e-05;-0.012244266339777432
1.22753e-05;-0.012228095413385353
1.22755e-05;-0.012211924486993275
1.22758e-05;-0.012195753560601307
1.22760e-05;-0.012179582634209228
1.22763e-05;-0.012162806388920644
1.22765e-05;-0.01214568619647246
1.22768e-05;-0.012128566004024163
1.22770e-05;-0.012111432845264229
1.22773e-05;-0.012094292318939834
1.22775e-05;-0.012077087950851925
1.22778e-05;-0.012059847307350643
1.22780e-05;-0.012042609039356954
1.22783e-05;-0.012025451700646393
1.22785e-05;-0.012008477952970841
1.22787e-05;-0.011991780591142169
1.22790e-05;-0.011975440276003366
1.22793e-05;-0.011959491980041467
1.22795e-05;-0.011943932113220191
1.22798e-05;-0.011928782081881986
1.22800e-05;-0.011914114933570844
1.22803e-05;-0.011900485755733716
1.22805e-05;-0.011887340137593108
1.22808e-05;-0.011874194519452411
1.22810e-05;-0.01186416603259021
1.22813e-05;-0.011855908725276683
1.22815e-05;-0.011847651417963099
1.22818e-05;-0.011839394110649515
1.22820e-05;-0.011831136803335987
1.22823e-05;-0.011822879496022403
1.22825e-05;-0.01181462218870882
1.22828e-05;-0.011806364881395292
1.22830e-05;-0.011798107574081708
1.22833e-05;-0.011789850266768123
1.22835e-05;-0.011781592959454594
1.22838e-05;-0.01177333565214101
1.22840e-05;-0.011765078344827427
1.22843e-05;-0.011756821037513899
1.22845e-05;-0.011748563730200315
1.22848e-05;-0.011740306422886732
1.22850e-05;-0.011732049115573203
1.22853e-05;-0.01172379180825962
1.22855e-05;-0.01171608192603425
1.22858e-05;-0.011711800963380217
1.22860e-05;-0.011707520000726156
1.22863e-05;-0.011703239038072093
1.22865e-05;-0.01169895807541806
1.22868e-05;-0.011694677112763998
1.22870e-05;-0.011690396150109935
1.22872e-05;-0.011686115187455902
1.22875e-05;-0.01168183422480184
1.22878e-05;-0.011677553262147778
1.22880e-05;-0.011673272299493715
1.22883e-05;-0.011668991336839683
1.22885e-05;-0.01166471037418562
1.22888e-05;-0.011660429411531557
1.22890e-05;-0.011656148448877525
1.22893e-05;-0.011651867486223462
1.22895e-05;-0.0116475865235694
1.22898e-05;-0.011643305560915368
1.22900e-05;-0.011639024598261305
1.22903e-05;-0.011635302858958136
1.22905e-05;-0.011631941040205618
1.22908e-05;-0.011628651284124563
1.22910e-05;-0.011625461314123668
1.22913e-05;-0.011622477016391545
1.22915e-05;-0.011619866501001969
1.22918e-05;-0.011617737735125288
1.22920e-05;-0.011616103987622993
1.22923e-05;-0.011614944931427512
1.22925e-05;-0.011614375103415306
1.22928e-05;-0.011614044018240031
1.22930e-05;-0.01161427384976725
1.22933e-05;-0.011614822398763698
1.22935e-05;-0.011616258793678856
1.22938e-05;-0.011618199669924363
1.22940e-05;-0.01162014054616987
1.22943e-05;-0.011623335215260574
1.22945e-05;-0.0116272422997256
1.22948e-05;-0.011631149384190628
1.22950e-05;-0.011635056468655628
1.22953e-05;-0.011638963553120654
1.22955e-05;-0.011644162557325853
1.22957e-05;-0.011650095640919659
1.22960e-05;-0.011656028724513504
1.22963e-05;-0.011661961808107349
1.22965e-05;-0.011667894891701154
1.22968e-05;-0.011674503846763358
1.22970e-05;-0.011681496837535287
1.22973e-05;-0.011688489828307218
1.22975e-05;-0.011695748479998356
1.22978e-05;-0.011703158082401997
1.22980e-05;-0.011710567684805637
1.22983e-05;-0.011717974713742797
1.22985e-05;-0.011725380280415282
1.22988e-05;-0.011732785847087765
1.22990e-05;-0.011739877054937717
1.22993e-05;-0.011746789641527372
1.22995e-05;-0.011753702228117027
1.22998e-05;-0.011760105070394364
1.23000e-05;-0.01176621827177414
1.23003e-05;-0.011772176537445406
1.23005e-05;-0.011777164328625984
1.23008e-05;-0.011782152119806594
1.23010e-05;-0.011786501433965712
1.23013e-05;-0.011790487960246326
1.23015e-05;-0.011794788053513616
1.23018e-05;-0.011799266318113654
1.23020e-05;-0.011804389631972487
1.23023e-05;-0.011809879468108988
1.23025e-05;-0.011815369304245487
1.23028e-05;-0.011821332856164168
1.23030e-05;-0.011827565577274352
1.23033e-05;-0.011833798298384537
1.23035e-05;-0.011841545603468647
1.23038e-05;-0.011850153507584959
1.23040e-05;-0.011858761411701271
1.23042e-05;-0.011867369315817526
1.23045e-05;-0.011875977219933838
1.23048e-05;-0.011884585124050152
1.23050e-05;-0.011894918537408178
1.23053e-05;-0.011906232399265035
1.23055e-05;-0.011917546261121894
1.23058e-05;-0.011928860122978752
1.23060e-05;-0.011940173984835533
1.23063e-05;-0.01195148784669239
1.23065e-05;-0.011963860407186954
1.23068e-05;-0.011976834528927753
1.23070e-05;-0.011989808650668638
1.23073e-05;-0.012002782772409525
1.23075e-05;-0.012015756894150322
1.23078e-05;-0.01202873101589121
1.23080e-05;-0.012041705137632095
1.23083e-05;-0.012054215441538521
1.23085e-05;-0.012066462200348634
1.23088e-05;-0.012078708959158744
1.23090e-05;-0.012090955717968773
1.23093e-05;-0.012103202476778884
1.23095e-05;-0.012115449235588997
1.23098e-05;-0.012127695994399024
1.23100e-05;-0.012138433203048755
1.23103e-05;-0.012148312672920276
1.23105e-05;-0.012158192142791732
1.23108e-05;-0.01216682476817768
1.23110e-05;-0.012174748926303795
1.23113e-05;-0.01218271079561101
1.23115e-05;-0.012190694092720614
1.23118e-05;-0.012198677389830218
1.23120e-05;-0.012208013934364265
1.23123e-05;-0.01221811940518056
1.23125e-05;-0.012228224875996854
1.23127e-05;-0.01224026516719561
1.23130e-05;-0.01225340483919987
1.23133e-05;-0.01226654451120413
1.23135e-05;-0.0122796841832083
1.23138e-05;-0.01229282385521256
1.23140e-05;-0.01230596352721682
1.23143e-05;-0.012319853714057246
1.23145e-05;-0.01233844491857199
1.23148e-05;-0.01235703612308686
1.23150e-05;-0.01237562732760173
1.23153e-05;-0.012394218532116474
1.23155e-05;-0.012412809736631345
1.23158e-05;-0.012431400941146215
1.23160e-05;-0.012452601718934716
1.23163e-05;-0.012475285277654215
1.23165e-05;-0.012497968836373713
1.23168e-05;-0.01252065239509306
1.23170e-05;-0.012543335953812558
1.23173e-05;-0.012566019512532056
1.23175e-05;-0.0125887030712514
1.23178e-05;-0.012611513804460316
1.23180e-05;-0.012634396799256865
1.23183e-05;-0.012657279794053258
1.23185e-05;-0.012680162788849807
1.23188e-05;-0.012703045783646354
1.23190e-05;-0.012725928778442749
1.23193e-05;-0.012748811773239296
1.23195e-05;-0.012769906350266117
1.23198e-05;-0.012789984733652117
1.23200e-05;-0.012810063117038252
1.23203e-05;-0.012825861429833116
1.23205e-05;-0.012839227771423906
1.23208e-05;-0.012852594113014787
1.23210e-05;-0.012865960454605668
1.23212e-05;-0.01287932679619646
1.23215e-05;-0.01289269313778734
1.23218e-05;-0.012906059479378222
1.23220e-05;-0.012919425820969013
1.23223e-05;-0.012932792162559895
1.23225e-05;-0.012946158504150776
1.23228e-05;-0.012959524845741657
1.23230e-05;-0.01297232259025211
1.23233e-05;-0.012981558799670573
1.23235e-05;-0.012990795009089036
1.23238e-05;-0.013000031218507435
1.23240e-05;-0.013009267427925898
1.23243e-05;-0.01301850363734436
1.23245e-05;-0.01302773984676276
1.23248e-05;-0.013036976056181223
1.23250e-05;-0.013046212265599686
1.23253e-05;-0.013055448475018086
1.23255e-05;-0.013064684684436549
1.23258e-05;-0.013073920893855012
1.23260e-05;-0.013082305440147431
1.23263e-05;-0.013090206064468488
1.23265e-05;-0.013098106688789546
1.23268e-05;-0.013106007313110549
1.23270e-05;-0.013113907937431607
1.23273e-05;-0.013121808561752664
1.23275e-05;-0.013129709186073667
1.23278e-05;-0.013137609810394725
1.23280e-05;-0.013145510434715782
1.23283e-05;-0.013153411059036786
1.23285e-05;-0.013161311683357843
1.23288e-05;-0.0131692123076789
1.23290e-05;-0.013177112931999904
1.23293e-05;-0.013182631561884551
1.23295e-05;-0.013186796722999024
1.23297e-05;-0.01319096188411347
1.23300e-05;-0.01319512704522794
1.23303e-05;-0.013199292206342413
1.23305e-05;-0.013203457367456858
1.23308e-05;-0.013207622528571331
1.23310e-05;-0.013211787689685804
1.23313e-05;-0.013215952850800275
1.23315e-05;-0.01322011801191472
1.23318e-05;-0.013224283173029193
1.23320e-05;-0.013228448334143666
1.23323e-05;-0.01323261349525811
1.23325e-05;-0.013233645557205215
1.23328e-05;-0.013232897366515043
1.23330e-05;-0.013232149175824878
1.23333e-05;-0.013231400985134706
1.23335e-05;-0.013230652794444535
1.23338e-05;-0.013229904603754368
1.23340e-05;-0.013229156413064198
1.23343e-05;-0.013228408222374026
1.23345e-05;-0.01322766003168386
1.23348e-05;-0.013226911840993689
1.23350e-05;-0.013226163650303518
1.23353e-05;-0.013225415459613352
1.23355e-05;-0.013224667268923181
1.23358e-05;-0.01322391907823301
1.23360e-05;-0.013223170887542844
1.23363e-05;-0.013222422696852674
1.23365e-05;-0.013221674506162502
1.23368e-05;-0.013220926315472337
1.23370e-05;-0.013220178124782165
1.23373e-05;-0.013219429934091994
1.23375e-05;-0.013218681743401827
1.23378e-05;-0.013217933552711657
1.23380e-05;-0.013217185362021485
1.23382e-05;-0.01321643717133132
1.23385e-05;-0.013215688980641148
1.23388e-05;-0.013214940789950978
1.23390e-05;-0.01321419259926081
1.23393e-05;-0.01321344440857064
1.23395e-05;-0.013212696217880468
1.23398e-05;-0.013211948027190298
1.23400e-05;-0.013211199836500131
1.23403e-05;-0.01321045164580996
1.23405e-05;-0.01320970345511979
1.23408e-05;-0.01320696819371369
1.23410e-05;-0.013203103862433207
1.23413e-05;-0.013199239531152722
1.23415e-05;-0.013195375199872265
1.23418e-05;-0.013191510868591782
1.23420e-05;-0.013187646537311297
1.23423e-05;-0.01318378220603084
1.23425e-05;-0.013179917874750357
1.23428e-05;-0.013175253312318216
1.23430e-05;-0.013165576322931218
1.23433e-05;-0.013155899333544156
1.23435e-05;-0.013146222344157093
1.23438e-05;-0.013136545354770095
1.23440e-05;-0.013126868365383031
1.23443e-05;-0.013117191375995967
1.23445e-05;-0.01310751438660897
1.23448e-05;-0.013097837397221906
1.23450e-05;-0.01308467274365689
1.23453e-05;-0.013069526370707617
1.23455e-05;-0.013054379997758242
1.23458e-05;-0.013039233624808865
1.23460e-05;-0.013024087251859592
1.23463e-05;-0.013008940878910217
1.23465e-05;-0.01299379450596084
1.23467e-05;-0.012978648133011568
1.23470e-05;-0.012963193605226424
1.23473e-05;-0.01294580888064448
1.23475e-05;-0.012928424156062655
1.23478e-05;-0.012911039431480713
1.23480e-05;-0.01289365470689877
1.23483e-05;-0.012876269982316828
1.23485e-05;-0.012858885257735002
1.23488e-05;-0.012841500533153059
1.23490e-05;-0.012824115808571117
1.23493e-05;-0.012807563821627383
1.23495e-05;-0.012791485003037934
1.23498e-05;-0.012775406184448486
1.23500e-05;-0.012759327365859146
1.23503e-05;-0.012744868940304776
1.23505e-05;-0.012731331235360166
1.23508e-05;-0.012717793530415647
1.23510e-05;-0.012704255825471036
1.23513e-05;-0.012691374131762034
1.23515e-05;-0.012678865189016493
1.23518e-05;-0.012666356246270867
1.23520e-05;-0.01265384730352524
1.23523e-05;-0.0126413383607797
1.23525e-05;-0.012628829418034074
1.23528e-05;-0.012616320475288448
1.23530e-05;-0.012603811532542907
1.23533e-05;-0.012590044090478857
1.23535e-05;-0.012575561558782299
1.23538e-05;-0.01256107902708584
1.23540e-05;-0.012546596495389282
1.23543e-05;-0.012532113963692724
1.23545e-05;-0.012517631431996265
1.23548e-05;-0.012503148900299707
1.23550e-05;-0.012488666368603149
1.23552e-05;-0.012472701262896948
1.23555e-05;-0.012455893746481036
1.23558e-05;-0.012439086230065122
1.23560e-05;-0.012422278713649322
1.23563e-05;-0.012405471197233408
1.23565e-05;-0.012388663680817494
1.23568e-05;-0.01237185616440158
1.23570e-05;-0.012354962897405269
1.23573e-05;-0.012337532512451453
1.23575e-05;-0.012320102127497635
1.23578e-05;-0.012302671742543937
1.23580e-05;-0.01228524135759012
1.23583e-05;-0.012267810972636304
1.23585e-05;-0.012250380587682604
1.23588e-05;-0.012232950202728788
1.23590e-05;-0.012216310109519384
1.23593e-05;-0.012200119066559803
1.23595e-05;-0.012183928023600113
1.23598e-05;-0.012168621263297166
1.23600e-05;-0.01215381695965118
1.23603e-05;-0.012139012656005092
1.23605e-05;-0.012125575852827489
1.23608e-05;-0.012112916074629968
1.23610e-05;-0.012100256296432362
1.23613e-05;-0.012090782073755683
1.23615e-05;-0.012083117909848352
1.23618e-05;-0.012075453745940969
1.23620e-05;-0.012067789582033587
1.23623e-05;-0.012060125418126256
1.23625e-05;-0.012052461254218872
1.23628e-05;-0.01204479709031149
1.23630e-05;-0.012038161044408625
1.23633e-05;-0.01203796484578624
1.23635e-05;-0.012037768647163853
1.23637e-05;-0.01203757244854147
1.23640e-05;-0.012037376249919083
1.23643e-05;-0.012037180051296698
1.23645e-05;-0.012036983852674312
1.23648e-05;-0.012036787654051927
1.23650e-05;-0.012040076057881398
1.23653e-05;-0.012045344441398691
1.23655e-05;-0.01205061282491595
1.23658e-05;-0.012055881208433244
1.23660e-05;-0.012061149591950537
1.23663e-05;-0.012066417975467795
1.23665e-05;-0.012070011593267345
1.23668e-05;-0.013230902865235946
1.23670e-05;-0.026397341413532248
1.23673e-05;-0.028526177109200433
1.23675e-05;-0.025836882997167774
1.23678e-05;-0.022516951939113006
1.23680e-05;-0.013419668802000127
1.23683e-05;-0.009125262523723806
1.23685e-05;-0.009981107770562927
1.23688e-05;-0.011382950876072391
1.23690e-05;-0.01873417273711497
1.23693e-05;-0.023783161151716522
1.23695e-05;-0.01956647235886019
1.23698e-05;-0.015907945944779747
1.23700e-05;-0.011432534401435797
1.23703e-05;-0.008761879351178755
1.23705e-05;-0.00890765711412563
1.23708e-05;-0.011291295290813397
1.23710e-05;-0.014845351853465074
1.23713e-05;-0.016813683263912305
1.23715e-05;-0.016212900739324826
1.23718e-05;-0.013951331182120556
1.23720e-05;-0.01111449811865096
1.23723e-05;-0.009478031890666023
1.23725e-05;-0.009600880563732374
1.23728e-05;-0.011121303275319306
1.23730e-05;-0.013371241765087869
1.23733e-05;-0.014624830942984592
1.23735e-05;-0.01426666849683572
1.23738e-05;-0.012866245732969236
1.23740e-05;-0.011103923971240468
1.23743e-05;-0.010092208434199704
1.23745e-05;-0.01018136548757592
1.23748e-05;-0.011144898285224313
1.23750e-05;-0.012564430412454999
1.23753e-05;-0.013359018941741406
1.23755e-05;-0.013143358936261078
1.23758e-05;-0.012274341482945317
1.23760e-05;-0.011178257570513089
1.23763e-05;-0.010552028038117318
1.23765e-05;-0.010615055659120904
1.23768e-05;-0.011225446409032296
1.23770e-05;-0.012121124977158356
1.23773e-05;-0.012625021120528629
1.23775e-05;-0.012495848928625613
1.23778e-05;-0.011957229737361491
1.23780e-05;-0.011276229435571326
1.23783e-05;-0.010889402809586736
1.23785e-05;-0.01093415905134548
1.23788e-05;-0.011321584702949958
1.23790e-05;-0.01188749776207684
1.23793e-05;-0.012207788096043911
1.23795e-05;-0.012131344811959672
1.23798e-05;-0.01179827504682949
1.23800e-05;-0.01137588410265434
1.23803e-05;-0.011137622770520742
1.23805e-05;-0.011169542639301587
1.23808e-05;-0.011415924267418732
1.23810e-05;-0.011773895927846948
1.23813e-05;-0.011977740161847085
1.23815e-05;-0.011932725637780028
1.23818e-05;-0.011726578520405737
1.23820e-05;-0.011464110580550926
1.23823e-05;-0.011316627851545677
1.23825e-05;-0.01133803977354291
1.23828e-05;-0.011493450589136962
1.23830e-05;-0.011718431529460544
1.23833e-05;-0.01184655866073981
1.23835e-05;-0.01181852321537327
1.23838e-05;-0.011689309158518369
1.23840e-05;-0.011524595412978393
1.23843e-05;-0.011431706775236887
1.23845e-05;-0.01144442299365903
1.23848e-05;-0.011540895808644433
1.23850e-05;-0.011680780996174561
1.23853e-05;-0.011759850910737692
1.23855e-05;-0.011740981297785414
1.23858e-05;-0.011658640688186873
1.23860e-05;-0.011553993380250894
1.23863e-05;-0.01149428626580827
1.23865e-05;-0.011500693221981205
1.23868e-05;-0.01155954174793184
1.23870e-05;-0.011645576519742776
1.23873e-05;-0.01169352885721745
1.23875e-05;-0.011680168505871457
1.23878e-05;-0.011627110273775816
1.23880e-05;-0.01156016105812794
1.23883e-05;-0.011521462259299732
1.23885e-05;-0.01152429302861976
1.23888e-05;-0.011560104527439854
1.23890e-05;-0.01159952555949926
1.23893e-05;-0.011637082073643078
1.23895e-05;-0.011633486998945215
1.23898e-05;-0.011599920129902491
1.23900e-05;-0.011567455122809421
1.23903e-05;-0.011537548026631981
1.23905e-05;-0.011535993914142784
1.23908e-05;-0.011559135371554343
1.23910e-05;-0.011584945913122608
1.23913e-05;-0.01160971629963974
1.23915e-05;-0.011609017277891816
1.23918e-05;-0.0115898473300531
1.23920e-05;-0.011571690887570506
1.23923e-05;-0.011555235348999625
1.23925e-05;-0.011556769118993365
1.23928e-05;-0.011575858385662413
1.23930e-05;-0.011599064615915394
1.23933e-05;-0.01161373253216653
1.23935e-05;-0.011614461771761134
1.23938e-05;-0.01160531610005674
1.23940e-05;-0.011593927421953093
1.23943e-05;-0.011589721419422657
1.23945e-05;-0.011595854954279856
1.23948e-05;-0.011609821123621808
1.23950e-05;-0.011625701104841613
1.23953e-05;-0.011641581086061416
1.23955e-05;-0.011647310507083002
1.23958e-05;-0.011646976675792625
1.23960e-05;-0.011645825561090398
1.23963e-05;-0.011644674446388179
1.23965e-05;-0.011651200152856247
1.23968e-05;-0.011663704997720386
1.23970e-05;-0.011677374019147957
1.23973e-05;-0.011691043040575617
1.23975e-05;-0.011698228952065232
