Time(s);Current(A)
7.50000e-06;-0.0014882745537908404
7.50025e-06;-0.0014966861816745813
7.50050e-06;-0.0015050978095582938
7.50075e-06;-0.0015087982471913277
7.50100e-06;-0.0015109076540177316
7.50125e-06;-0.0015130170608441283
7.50150e-06;-0.0015105966388232585
7.50175e-06;-0.0015066464341230135
7.50200e-06;-0.001502696229422782
7.50225e-06;-0.001492680885646988
7.50250e-06;-0.0014806172647688705
7.50275e-06;-0.0014685536438907533
7.50300e-06;-0.0014564900230125948
7.50325e-06;-0.0014444264021344774
7.50350e-06;-0.00143236278125636
7.50375e-06;-0.0014202991603782017
7.50400e-06;-0.0014032607320535032
7.50425e-06;-0.0013845422459339094
7.50450e-06;-0.001365823759814252
7.50475e-06;-0.001347105273694658
7.50500e-06;-0.0013283867875750642
7.50525e-06;-0.0013096683014554068
7.50550e-06;-0.001290949815335813
7.50575e-06;-0.0012713704344325695
7.50600e-06;-0.0012515003180571154
7.50625e-06;-0.0012316302016817287
7.50650e-06;-0.001213292241062839
7.50675e-06;-0.001195471709560473
7.50700e-06;-0.001177651178058107
7.50725e-06;-0.0011598306465556805
7.50750e-06;-0.0011420101150533145
7.50775e-06;-0.001126727964399238
7.50800e-06;-0.0011123030582869356
7.50825e-06;-0.0010975152988293609
7.50850e-06;-0.0010826049990327498
7.50875e-06;-0.001064244176699724
7.50900e-06;-0.001044718067600336
7.50925e-06;-0.001022043806500217
7.50950e-06;-0.000998306373133659
7.50975e-06;-0.0009721012846446624
7.51000e-06;-0.0009450628366201213
7.51025e-06;-0.0009148044839665431
7.51050e-06;-0.0008834587272420663
7.51075e-06;-0.0008474445461093867
7.51100e-06;-0.000809853776756868
7.51125e-06;-0.000768269706042113
7.51150e-06;-0.0007253370450245646
7.51175e-06;-0.0006793230024175031
7.51200e-06;-0.0006322683367886823
7.51225e-06;-0.0005822681248725582
7.51250e-06;-0.0005312731633000461
7.51275e-06;-0.0005006057510049586
7.51300e-06;-0.0037349894712045625
7.51325e-06;-0.016007247825050135
7.51350e-06;-0.015842891033813977
7.51375e-06;-0.013201843183334342
7.51400e-06;-0.00908127407493496
7.51425e-06;0.0006277354814391779
7.51450e-06;0.0025524536614196696
7.51475e-06;0.0018866416397591637
7.51500e-06;-0.0002749656466842552
7.51525e-06;-0.008255541830191657
7.51550e-06;-0.01041509693608842
7.51575e-06;-0.006533685361799319
7.51600e-06;-0.00267039294924304
7.51625e-06;0.0018020797169574086
7.51650e-06;0.0039120558972564985
7.51675e-06;0.003320623798825045
7.51700e-06;0.0006933439302443541
7.51725e-06;-0.0027647326816486314
7.51750e-06;-0.0041053248139713205
7.51775e-06;-0.0030139212250683976
7.51800e-06;-0.000543233993377966
7.51825e-06;0.002266608649581238
7.51850e-06;0.00355494079663663
7.51875e-06;0.003155475480620923
7.51900e-06;0.0014847010660817028
7.51925e-06;-0.000703070929322373
7.51950e-06;-0.001561600837344763
7.51975e-06;-0.0008944461147443106
7.52000e-06;0.0006385013264893138
7.52025e-06;0.002385352180424763
7.52050e-06;0.0031803673846837006
7.52075e-06;0.002919263667513705
7.52100e-06;0.0018628355848828498
7.52125e-06;0.0004834853484067471
7.52150e-06;-6.245241954487676e-05
7.52175e-06;0.00034788806100722615
7.52200e-06;0.0013009963610408591
7.52225e-06;0.0023884267611350507
7.52250e-06;0.002879921997212023
7.52275e-06;0.0027101665303214634
7.52300e-06;0.002042532175563597
7.52325e-06;0.0011729281288056373
7.52350e-06;0.0008256365805294478
7.52375e-06;0.0010775448288498882
7.52400e-06;0.0016695669648030078
7.52425e-06;0.0023458165818327358
7.52450e-06;0.0026488608412776936
7.52475e-06;0.0025378096798085227
7.52500e-06;0.002115022737768267
7.52525e-06;0.0015658686632249313
7.52550e-06;0.0013440208666258135
7.52575e-06;0.0014976036181251241
7.52600e-06;0.0018642941445598232
7.52625e-06;0.0022837897603565265
7.52650e-06;0.0024695597218199034
7.52675e-06;0.0023960108992878144
7.52700e-06;0.0021272795999295537
7.52725e-06;0.0017794911859825258
7.52750e-06;0.0016368189147540776
7.52775e-06;0.0017293865789761943
7.52800e-06;0.0019554556643768426
7.52825e-06;0.0022143483742642304
7.52850e-06;0.002326151469965742
7.52875e-06;0.002274585250465782
7.52900e-06;0.002099820397261709
7.52925e-06;0.001874656570089618
7.52950e-06;0.0017771518418518036
7.52975e-06;0.0018262188908840986
7.53000e-06;0.001958174075759229
7.53025e-06;0.0021100044056338372
7.53050e-06;0.0021690714314582444
7.53075e-06;0.0021252424105679037
7.53100e-06;0.002003744625856556
7.53125e-06;0.0018502407936404782
7.53150e-06;0.001776320055352656
7.53175e-06;0.0017938774039728646
7.53200e-06;0.0018630713251097666
7.53225e-06;0.001944483439300481
7.53250e-06;0.0019676156232600783
7.53275e-06;0.0019261826662469693
7.53300e-06;0.0018360480532338833
7.53325e-06;0.0017258742035434777
7.53350e-06;0.001665615217424411
7.53375e-06;0.0016627734737079713
7.53400e-06;0.0016924442969039025
7.53425e-06;0.0017299906379858448
7.53450e-06;0.001731310021224137
7.53475e-06;0.0016925250350383815
7.53500e-06;0.0016236321722723798
7.53525e-06;0.0015426436504515535
7.53550e-06;0.001493434032902056
7.53575e-06;0.0014807560220423625
7.53600e-06;0.0014890630126210213
7.53625e-06;0.001502977546485883
7.53650e-06;0.0014949308527939086
7.53675e-06;0.0014625525030061758
7.53700e-06;0.0014121627584256224
7.53725e-06;0.0013551018855895618
7.53750e-06;0.0013189083968341772
7.53775e-06;0.001306613834928699
7.53800e-06;0.0013085399985806915
7.53825e-06;0.0013151342229234897
7.53850e-06;0.001309198224060969
7.53875e-06;0.0012892517795360314
7.53900e-06;0.0012592032707858794
7.53925e-06;0.0012260918070637601
7.53950e-06;0.0012071011612994204
7.53975e-06;0.0012040630882864285
7.54000e-06;0.001210848157514423
7.54025e-06;0.001221406230087632
7.54050e-06;0.0012248986504821253
7.54075e-06;0.0012203331378153072
7.54100e-06;0.0012099706473663548
7.54125e-06;0.0011984883713438816
7.54150e-06;0.0011963160358881633
7.54175e-06;0.0012045583943172563
7.54200e-06;0.0012200932145740957
7.54225e-06;0.001237011911502865
7.54250e-06;0.0012501099858228549
7.54275e-06;0.0012585524629048135
7.54300e-06;0.0012635071167495366
7.54325e-06;0.0012677886976633485
7.54350e-06;0.0012779041914468743
7.54375e-06;0.0012944755796792655
7.54400e-06;0.0013153897387268175
7.54425e-06;0.0013371153989168774
7.54450e-06;0.0013561371095347167
7.54475e-06;0.0013718832531309335
7.54500e-06;0.0013850795964959067
7.54525e-06;0.0013973237394559119
7.54550e-06;0.0014127059058777105
7.54575e-06;0.0014315426709195635
7.54600e-06;0.001452193833330172
7.54625e-06;0.0014730391184312357
7.54650e-06;0.0014912818406243725
7.54675e-06;0.001506546044657606
7.54700e-06;0.0015192850729044665
7.54725e-06;0.001531031654837018
7.54750e-06;0.0015426496129170414
7.54775e-06;0.0015555840943877082
7.54800e-06;0.001567594159674209
7.54825e-06;0.001579262661406459
7.54850e-06;0.0015909311631387487
7.54875e-06;0.0015997444805027862
7.54900e-06;0.0016064839448986148
7.54925e-06;0.0016128729341758205
7.54950e-06;0.0016192619234530045
7.54975e-06;0.0016264567431553598
7.55000e-06;0.0016331390598279532
7.55025e-06;0.0016396265752725101
7.55050e-06;0.001646114090717089
7.55075e-06;0.0016508778662449126
7.55100e-06;0.0016546292368458
7.55125e-06;0.001658233129246673
7.55150e-06;0.0016618370216475338
7.55175e-06;0.0016654409140483947
7.55200e-06;0.0016690448064492676
7.55225e-06;0.0016718487739294519
7.55250e-06;0.0016744387238017966
7.55275e-06;0.00167702867367415
7.55300e-06;0.0016796186235464947
7.55325e-06;0.0016815825945357408
7.55350e-06;0.0016833790866783496
7.55375e-06;0.0016851755788209525
7.55400e-06;0.0016869720709635613
7.55425e-06;0.0016881884322454267
7.55450e-06;0.0016892495811869435
7.55475e-06;0.001690310730128464
7.55500e-06;0.001691371879069981
7.55525e-06;0.0016924330280114978
7.55550e-06;0.0016930673641935147
7.55575e-06;0.0016935875078514374
7.55600e-06;0.0016941076515093602
7.55625e-06;0.0016946277951672846
7.55650e-06;0.0016951479388252074
7.55675e-06;0.001695130387677543
7.55700e-06;0.0016949689778338296
7.55725e-06;0.0016945980282003902
7.55750e-06;0.001694270482761916
7.55775e-06;0.0016940182259415606
7.55800e-06;0.0016936442587837052
7.55825e-06;0.0016925206239605376
7.55850e-06;0.0016895899928323962
7.55875e-06;0.001684302325243143
7.55900e-06;0.001676659002665739
7.55925e-06;0.0016668289737829728
7.55950e-06;0.0016550850800339946
7.55975e-06;0.0016415572461792034
7.56000e-06;0.0016262481705277417
7.56025e-06;0.0016078215668796458
7.56050e-06;0.0015886617003826604
7.56075e-06;0.0015641860226490876
7.56100e-06;0.0015382881149350388
7.56125e-06;0.0015123902072209019
7.56150e-06;0.0014814274339428246
7.56175e-06;0.0014491095704759855
7.56200e-06;0.0014167917070090372
7.56225e-06;0.0013799018074814157
7.56250e-06;0.0013417886728785808
7.56275e-06;0.0013036755382758753
7.56300e-06;0.0012613585049447576
7.56325e-06;0.0012179167306210277
7.56350e-06;0.001174474956297445
7.56375e-06;0.0011286189052029897
7.56400e-06;0.0010821169213143847
7.56425e-06;0.0010356149374259375
7.56450e-06;0.0009875756548974792
7.56475e-06;0.0009391250725470213
7.56500e-06;0.0008906744901967275
7.56525e-06;0.00084225556306487
7.56550e-06;0.0007938451051953352
7.56575e-06;0.0007454346473259644
7.56600e-06;0.0006985131404141074
7.56625e-06;0.0006519899980407604
7.56650e-06;0.0006073089965102924
7.56675e-06;0.0005631208544544971
7.56700e-06;0.000521565104799036
7.56725e-06;0.00048071364414567876
7.56750e-06;0.00044246523205594587
7.56775e-06;0.00040697097741885477
7.56800e-06;0.0003741794165215634
7.56825e-06;0.00034353004124780296
7.56850e-06;0.0003137958140020499
7.56875e-06;0.00028423680838976246
7.56900e-06;0.00025486631579606727
7.56925e-06;0.0002261980748451116
7.56950e-06;0.00019770503920221575
7.56975e-06;0.00017025246413200783
7.57000e-06;0.00014419105396067897
7.57025e-06;0.000118427368262058
7.57050e-06;9.281384011758751e-05
7.57075e-06;6.688290697925318e-05
7.57100e-06;4.0620506276541646e-05
7.57125e-06;1.4217227409155949e-05
7.57150e-06;-1.2121435885842294e-05
7.57175e-06;-3.819866655002027e-05
7.57200e-06;-6.382795352214263e-05
7.57225e-06;-8.93544721063717e-05
7.57250e-06;-0.00011488099069068723
7.57275e-06;-0.00014093620901856475
7.57300e-06;-0.00016713287482820975
7.57325e-06;-0.00019332954063794352
7.57350e-06;-0.00021930524177212515
7.57375e-06;-0.0002452218244440506
7.57400e-06;-0.0002711384071160638
7.57425e-06;-0.0002964095044734684
7.57450e-06;-0.00032150790409480885
7.57475e-06;-0.00034660630371623435
7.57500e-06;-0.00037170470333757486
7.57525e-06;-0.0003962841060393858
7.57550e-06;-0.0004195862043098827
7.57575e-06;-0.0004428883025803796
7.57600e-06;-0.0004661904008509554
7.57625e-06;-0.0004894924991214523
7.57650e-06;-0.000510726951385664
7.57675e-06;-0.0005314082109185036
7.57700e-06;-0.0005520894704512732
7.57725e-06;-0.0005705247861129579
7.57750e-06;-0.0005883592059632783
7.57775e-06;-0.0006061936258135383
7.57800e-06;-0.0006213397094000068
7.57825e-06;-0.0006357665363651195
7.57850e-06;-0.0006472650413242696
7.57875e-06;-0.0006579800821682035
7.57900e-06;-0.0006655160925946403
7.57925e-06;-0.000672201562592687
7.57950e-06;-0.0006756918837278438
7.57975e-06;-0.0006783273519910229
7.58000e-06;-0.0006777208773860821
7.58025e-06;-0.0006762470303079177
7.58050e-06;-0.0006713734311379786
7.58075e-06;-0.0006655902380917515
7.58100e-06;-0.0006565248979069358
7.58125e-06;-0.0006465814287122404
7.58150e-06;-0.000633620412043359
7.58175e-06;-0.0006198520592423321
7.58200e-06;-0.0006033114716028938
7.58225e-06;-0.0005860291805202285
7.58250e-06;-0.0005661504191279193
7.58275e-06;-0.0005455769795857152
7.58300e-06;-0.000522284926206102
7.58325e-06;-0.0004982655155275247
7.58350e-06;-0.00047424610484902866
7.58375e-06;-0.0004478371078573743
7.58400e-06;-0.0004207887839330315
7.58425e-06;-0.00039374046000868876
7.58450e-06;-0.0003652206429489233
7.58475e-06;-0.00033630713214082296
7.58500e-06;-0.0003073936213327227
7.58525e-06;-0.00027813858469946196
7.58550e-06;-0.0002487921738158714
7.58575e-06;-0.0002194457629322808
7.58600e-06;-0.00019072396476728696
7.58625e-06;-0.00016216927993552613
7.58650e-06;-0.00013437461883606308
7.58675e-06;-0.00010747294893465727
7.58700e-06;-8.159928443931184e-05
7.58725e-06;-5.6949581161009046e-05
7.58750e-06;-3.3719923564536765e-05
7.58775e-06;-1.210658332517333e-05
7.58800e-06;7.727105694918721e-06
7.58825e-06;2.580054104100327e-05
7.58850e-06;4.2323680069623006e-05
7.58875e-06;5.743089608257302e-05
7.58900e-06;7.109566878543238e-05
7.58925e-06;8.324379116636573e-05
7.58950e-06;9.379772634084497e-05
7.58975e-06;0.00010267982576784096
7.59000e-06;0.00010983308020186844
7.59025e-06;0.00011531494377335316
7.59050e-06;0.00011930223919056092
7.59075e-06;0.00012192442289215807
7.59100e-06;0.0001232101603218179
7.59125e-06;0.00012315823853006563
7.59150e-06;0.00012176539360767209
7.59175e-06;0.00011902826720955968
7.59200e-06;0.00011495644156233418
7.59225e-06;0.00010963119759775974
7.59250e-06;0.0001032085595972492
7.59275e-06;9.581489764066529e-05
7.59300e-06;8.7513430565624e-05
7.59325e-06;7.834867463232445e-05
7.59350e-06;6.836382259378478e-05
7.59375e-06;5.7602034499107233e-05
7.59400e-06;4.611456555917467e-05
7.59425e-06;3.3997578055762294e-05
7.59450e-06;2.139405853852272e-05
7.59475e-06;8.42838958142449e-06
7.59500e-06;-4.814601521873369e-06
7.59525e-06;-1.8261815149440088e-05
7.59550e-06;-3.1855356098176566e-05
7.59575e-06;-4.547737483962032e-05
7.59600e-06;-5.9099393581110226e-05
7.59625e-06;-7.248586661513692e-05
7.59650e-06;-8.58093200739066e-05
7.59675e-06;-9.850237757539485e-05
7.59700e-06;-0.00011102677445499334
7.59725e-06;-0.00012288951718856026
7.59750e-06;-0.0001340390052038333
7.59775e-06;-0.00014443747326198578
7.59800e-06;-0.00015405888230760875
7.59825e-06;-0.0001635158809762198
7.59850e-06;-0.0001736972453349393
7.59875e-06;-0.0001851908182203888
7.59900e-06;-0.00019802372798343593
7.59925e-06;-0.00021205623928247794
7.59950e-06;-0.00022713779493107298
7.59975e-06;-0.00024311784081416764
7.60000e-06;-0.0002599076790730123
7.60025e-06;-0.0002777384268766622
7.60050e-06;-0.0002971201001478284
7.60075e-06;-0.00031832266898666414
7.60100e-06;-0.0003418617689509159
7.60125e-06;-0.0003659208869554317
7.60150e-06;-0.0003920763212877937
7.60175e-06;-0.0004187926190130093
7.60200e-06;-0.00044718362780410116
7.60225e-06;-0.0004760227007152677
7.60250e-06;-0.0005069181612126645
7.60275e-06;-0.0005383638022832688
7.60300e-06;-0.0005720204256592098
7.60325e-06;-0.0006062685909798149
7.60350e-06;-0.0006405167563004199
7.60375e-06;-0.0006765457029952179
7.60400e-06;-0.0007130510926151639
7.60425e-06;-0.0007495564822351101
7.60450e-06;-0.0007860618718551799
7.60475e-06;-0.0008225672614751259
7.60500e-06;-0.0008589723872263667
7.60525e-06;-0.00089513075335518
7.60550e-06;-0.0009312891194839935
7.60575e-06;-0.0009674474856129295
7.60600e-06;-0.001003605851741743
7.60625e-06;-0.0010397642178705563
7.60650e-06;-0.0010730876357031782
7.60675e-06;-0.0011056525712880411
7.60700e-06;-0.0011382175068729043
7.60725e-06;-0.0011671531747246553
7.60750e-06;-0.001195117842452205
7.60775e-06;-0.001223082510179755
7.60800e-06;-0.0012462414014267485
7.60825e-06;-0.0012681145210243821
7.60850e-06;-0.001289987640622016
7.60875e-06;-0.0013077356321642758
7.60900e-06;-0.0013243799575820526
7.60925e-06;-0.001341024282999886
7.60950e-06;-0.0013531949055873296
7.60975e-06;-0.0013641686018738093
7.61000e-06;-0.001375142298160326
7.61025e-06;-0.0013816872334546325
7.61050e-06;-0.0013870472665072954
7.61075e-06;-0.0013924072995599767
7.61100e-06;-0.0013911382584095306
7.61125e-06;-0.0013880956275582619
7.61150e-06;-0.001385052996706983
7.61175e-06;-0.0013820103658557141
7.61200e-06;-0.0013789677350044454
7.61225e-06;-0.0013759251041531662
7.61250e-06;-0.0013728824733018974
7.61275e-06;-0.0013698398424506287
7.61300e-06;-0.0013598327803587694
7.61325e-06;-0.0013479624047571946
7.61350e-06;-0.0013360920291555795
7.61375e-06;-0.0013242216535540047
7.61400e-06;-0.00131235127795243
7.61425e-06;-0.001300480902350815
7.61450e-06;-0.0012886105267492403
7.61475e-06;-0.0012767401511476655
7.61500e-06;-0.0012625569072157565
7.61525e-06;-0.0012477548620269123
7.61550e-06;-0.0012329528168380682
7.61575e-06;-0.0012181507716491737
7.61600e-06;-0.0012033487264603295
7.61625e-06;-0.001189238295750169
7.61650e-06;-0.001175312904500763
7.61675e-06;-0.0011613875132514045
7.61700e-06;-0.001147462122002046
7.61725e-06;-0.0011335367307526401
7.61750e-06;-0.0011213915046945193
7.61775e-06;-0.001109722556703496
7.61800e-06;-0.0010988240795854743
7.61825e-06;-0.0010881317397292967
7.61850e-06;-0.001074425388353462
7.61875e-06;-0.0010599126468808899
7.61900e-06;-0.0010410495783324154
7.61925e-06;-0.0010210225923107993
7.61950e-06;-0.0009973773137934938
7.61975e-06;-0.0009727639715455904
7.62000e-06;-0.0009448407455742044
7.62025e-06;-0.0009160319697506411
7.62050e-06;-0.0008821098122998962
7.62075e-06;-0.0008468195843296683
7.62100e-06;-0.0008061464844285028
7.62125e-06;-0.0007640332126537787
7.62150e-06;-0.0007175630929503921
7.62175e-06;-0.0006699273111388419
7.62200e-06;-0.0006186951643460237
7.62225e-06;-0.0005665008204662049
7.62250e-06;-0.0005112307924965242
7.62275e-06;-0.0004529718719121145
7.62300e-06;-0.00039224680490742366
7.62325e-06;-0.00032943619449107126
7.62350e-06;-0.000264927640945358
7.62375e-06;-0.000199108800343531
7.62400e-06;-0.0001323268073175045
7.62425e-06;-6.472055005791945e-05
7.62450e-06;3.7502707131245954e-06
7.62475e-06;7.29651302024441e-05
7.62500e-06;0.00014257084549563895
7.62525e-06;0.00021214932499202086
7.62550e-06;0.00028127811236791574
7.62575e-06;0.0003495347900209936
7.62600e-06;0.00041652229362176287
7.62625e-06;0.00048197407627733073
7.62650e-06;0.0005457358189021109
7.62675e-06;0.0006075524498980349
7.62700e-06;0.0006670231962154127
7.62725e-06;0.000723706743709492
7.62750e-06;0.000777158980213875
7.62775e-06;0.0008269358271974547
7.62800e-06;0.0008726948886086515
7.62825e-06;0.000914644337262622
7.62850e-06;0.0009535386388691105
7.62875e-06;0.0009898490148565007
7.62900e-06;0.0010235251785024164
7.62925e-06;0.0010543653730935845
7.62950e-06;0.0010821571406673827
7.62975e-06;0.0011066880232617432
7.63000e-06;0.001126565426368317
7.63025e-06;0.0011453844870105891
7.63050e-06;0.0011600617041721206
7.63075e-06;0.0011736307830458716
7.63100e-06;0.0011826310862834458
7.63125e-06;0.0011904090267653646
7.63150e-06;0.0011981869672472306
7.63175e-06;0.0012001936164709698
7.63200e-06;0.0012006561733496964
7.63225e-06;0.00120111873022842
7.63250e-06;0.001197072806396119
7.63275e-06;0.0011918206515416584
7.63300e-06;0.001186568496687198
7.63325e-06;0.0011777598137500322
7.63350e-06;0.0011679995919731693
7.63375e-06;0.0011582393701963065
7.63400e-06;0.0011453820802192444
7.63425e-06;0.001131696178569948
7.63450e-06;0.0011180102769206518
7.63475e-06;0.00110270083605992
7.63500e-06;0.0010869570219615818
7.63525e-06;0.0010712132078632434
7.63550e-06;0.0010546219584634216
7.63575e-06;0.0010378039801905864
7.63600e-06;0.0010209860019177509
7.63625e-06;0.0010041369194845435
7.63650e-06;0.000987279515222716
7.63675e-06;0.0009711922144618936
7.63700e-06;0.0009553109526736926
7.63725e-06;0.0009427817305428301
7.63750e-06;0.0009311493369629
7.63775e-06;0.0009195169433830488
7.63800e-06;0.0009078845498031187
7.63825e-06;0.0008962521562231886
7.63850e-06;0.0008846197626433374
7.63875e-06;0.0008729873690634073
7.63900e-06;0.0008613549754834772
7.63925e-06;0.000849722581903626
7.63950e-06;0.0008418403622557383
7.63975e-06;0.0008349614908367887
7.64000e-06;0.0008280826194178856
7.64025e-06;0.0008212037479989361
7.64050e-06;0.0008143248765799864
7.64075e-06;0.0008074460051610834
7.64100e-06;0.0008005671337421338
7.64125e-06;0.0007936882623231841
7.64150e-06;0.0007868093909042345
7.64175e-06;0.0007823322272185461
7.64200e-06;0.0007784976335160998
7.64225e-06;0.0007746630398136534
7.64250e-06;0.0007708284461112331
7.64275e-06;0.0007669938524087868
7.64300e-06;0.0007631592587063404
7.64325e-06;0.0007593246650039201
7.64350e-06;0.0007554900713014738
7.64375e-06;0.0007516554775990274
7.64400e-06;0.0007478208838966071
7.64425e-06;0.0007439862901941608
7.64450e-06;0.0007415796880541968
7.64475e-06;0.0007395551409419515
7.64500e-06;0.0007375305938296925
7.64525e-06;0.0007355060467174336
