Time(s);Current(A)
1.37500e-05;-0.005583269130491028
1.37503e-05;-0.0055908486526984125
1.37505e-05;-0.005598428174905797
1.37508e-05;-0.00560600769711313
1.37510e-05;-0.005613587219320515
1.37513e-05;-0.005621166741527899
1.37515e-05;-0.005628746263735232
1.37518e-05;-0.005636325785942617
1.37520e-05;-0.0056439053081500015
1.37523e-05;-0.005651484830357334
1.37525e-05;-0.005653487064952083
1.37528e-05;-0.005654160550871917
1.37530e-05;-0.005654834036791747
1.37533e-05;-0.00565550752271158
1.37535e-05;-0.005656181008631415
1.37538e-05;-0.005656854494551244
1.37540e-05;-0.005657527980471078
1.37543e-05;-0.005658201466390913
1.37545e-05;-0.005658874952310742
1.37548e-05;-0.005659548438230576
1.37550e-05;-0.005655949736731391
1.37553e-05;-0.005651333217295182
1.37555e-05;-0.005646716697858942
1.37558e-05;-0.005642100178422702
1.37560e-05;-0.0056374836589864925
1.37563e-05;-0.005632867139550253
1.37565e-05;-0.005628250620114013
1.37568e-05;-0.0056236341006778035
1.37570e-05;-0.005619017581241563
1.37573e-05;-0.005614401061805323
1.37575e-05;-0.005608173023423332
1.37578e-05;-0.005601561052238766
1.37580e-05;-0.005594949081054155
1.37583e-05;-0.005588337109869543
1.37585e-05;-0.005581725138684977
1.37588e-05;-0.005575113167500366
1.37590e-05;-0.0055685011963157545
1.37593e-05;-0.0055618892251311875
1.37595e-05;-0.005555277253946576
1.37598e-05;-0.005548665282761965
1.37600e-05;-0.005542790564321364
1.37603e-05;-0.005537091491046434
1.37605e-05;-0.005531392417771504
1.37608e-05;-0.005525693344496612
1.37610e-05;-0.005519994271221682
1.37613e-05;-0.005514295197946751
1.37615e-05;-0.00550859612467186
1.37618e-05;-0.00550208547864816
1.37620e-05;-0.005493747968519343
1.37623e-05;-0.005485410458390584
1.37625e-05;-0.005477072948261768
1.37628e-05;-0.0054687354381329515
1.37630e-05;-0.005460397928004192
1.37633e-05;-0.0054520604178753766
1.37635e-05;-0.005443722907746561
1.37638e-05;-0.005431411554134774
1.37640e-05;-0.005418153460883142
1.37643e-05;-0.00540489536763151
1.37645e-05;-0.005391637274379968
1.37648e-05;-0.005378379181128336
1.37650e-05;-0.005365121087876705
1.37653e-05;-0.00535070056083479
1.37655e-05;-0.005333663375495962
1.37658e-05;-0.005316626190157135
1.37660e-05;-0.0052995890048183085
1.37663e-05;-0.005282551819479596
1.37665e-05;-0.005265514634140769
1.37668e-05;-0.0052484774488019414
1.37670e-05;-0.005230048220617962
1.37673e-05;-0.0052112873482340494
1.37675e-05;-0.005192526475850137
1.37678e-05;-0.005173765603466352
1.37680e-05;-0.00515500473108244
1.37683e-05;-0.005136243858698528
1.37685e-05;-0.005118234491968197
1.37688e-05;-0.0051004041660567545
1.37690e-05;-0.005082573840145313
1.37693e-05;-0.0050647435142339905
1.37695e-05;-0.005046913188322549
1.37698e-05;-0.005029082862411106
1.37700e-05;-0.005014469800879026
1.37703e-05;-0.005000623229454848
1.37705e-05;-0.004986776658030671
1.37708e-05;-0.004972930086606587
1.37710e-05;-0.004959083515182409
1.37713e-05;-0.004945236943758232
1.37715e-05;-0.004931390372334148
1.37718e-05;-0.004918386887640766
1.37720e-05;-0.004905584262299691
1.37723e-05;-0.0048927816369587025
1.37725e-05;-0.0048799790116176274
1.37728e-05;-0.004867176386276553
1.37730e-05;-0.004854373760935565
1.37733e-05;-0.00484157113559449
1.37735e-05;-0.0048271645233770024
1.37738e-05;-0.004812375772818011
1.37740e-05;-0.004797587022258919
1.37743e-05;-0.004782798271699828
1.37745e-05;-0.004768009521140736
1.37748e-05;-0.004751772313947222
1.37750e-05;-0.004735190022373936
1.37753e-05;-0.0047186077308006506
1.37755e-05;-0.004702025439227477
1.37758e-05;-0.00468544314765419
1.37760e-05;-0.0046676958781594205
1.37763e-05;-0.004649671061050435
1.37765e-05;-0.004631646243941327
1.37768e-05;-0.004613391901085537
1.37770e-05;-0.0045950828753708655
1.37773e-05;-0.004576773849656071
1.37775e-05;-0.004558335394485543
1.37778e-05;-0.004539866103677825
1.37780e-05;-0.004521441376716484
1.37783e-05;-0.0045030272667711865
1.37785e-05;-0.004484865873322627
1.37788e-05;-0.0044670508741521675
1.37790e-05;-0.004449660943669807
1.37793e-05;-0.0044327283444640375
1.37795e-05;-0.004416249228608282
1.37798e-05;-0.00440026768427947
1.37800e-05;-0.004384881137305996
1.37803e-05;-0.004370197441916159
1.37805e-05;-0.00435632575972737
1.37808e-05;-0.0043433747690098
1.37810e-05;-0.004331477037080985
1.37813e-05;-0.004320837052997221
1.37815e-05;-0.004311673946348821
1.37818e-05;-0.00430409676660585
1.37820e-05;-0.004298121837757434
1.37823e-05;-0.004293747745133788
1.37825e-05;-0.004290971121824886
1.37828e-05;-0.004290440529390689
1.37830e-05;-0.00429037184435081
1.37833e-05;-0.004293013092457577
1.37835e-05;-0.00429629996265405
1.37838e-05;-0.004303002203539179
1.37840e-05;-0.004310518131936721
1.37843e-05;-0.004318034060334314
1.37845e-05;-0.004330325753882913
1.37848e-05;-0.004343755239144262
1.37850e-05;-0.004357184724405703
1.37853e-05;-0.004370614209667143
1.37855e-05;-0.004384043694928492
1.37858e-05;-0.004402258472351657
1.37860e-05;-0.004421613311229573
1.37863e-05;-0.004440968150107358
1.37865e-05;-0.004460322988985275
1.37868e-05;-0.004479677827863191
1.37870e-05;-0.004501463734253449
1.37873e-05;-0.0045238288250011235
1.37875e-05;-0.0045461939157487976
1.37878e-05;-0.004569415434623677
1.37880e-05;-0.00459284099134298
1.37883e-05;-0.004616266548062283
1.37885e-05;-0.004639541176873738
1.37888e-05;-0.004662779848196403
1.37890e-05;-0.004686018519519066
1.37893e-05;-0.00470839480833249
1.37895e-05;-0.004730565640713142
1.37898e-05;-0.004751120704600326
1.37900e-05;-0.004771290823259925
1.37903e-05;-0.0047914609419196594
1.37905e-05;-0.00480716665318377
1.37908e-05;-0.004821808751481346
1.37910e-05;-0.004836450849779021
1.37913e-05;-0.0048510929480766974
1.37915e-05;-0.004865735046374373
1.37918e-05;-0.004880377144671949
1.37920e-05;-0.004895019242969624
1.37923e-05;-0.0049096613412673
1.37925e-05;-0.004924303439564876
1.37928e-05;-0.0049369351714466025
1.37930e-05;-0.0049490879479826165
1.37933e-05;-0.004961240724518549
1.37935e-05;-0.004973393501054563
1.37938e-05;-0.004985546277590577
1.37940e-05;-0.004997699054126509
1.37943e-05;-0.005009851830662523
1.37945e-05;-0.005022004607198538
1.37948e-05;-0.00503415738373447
1.37950e-05;-0.005046160068065506
1.37953e-05;-0.005058126994007742
1.37955e-05;-0.005070093919949896
1.37958e-05;-0.005082060845892132
1.37960e-05;-0.005094027771834367
1.37963e-05;-0.0051059946977765214
1.37965e-05;-0.005117961623718757
1.37968e-05;-0.005129928549660993
1.37970e-05;-0.005141895475603147
1.37973e-05;-0.005153157569887947
1.37975e-05;-0.005164251743097482
1.37978e-05;-0.005175345916306941
1.37980e-05;-0.005186440089516476
1.37983e-05;-0.005197534262726011
1.37985e-05;-0.005208628435935471
1.37988e-05;-0.005219722609145006
1.37990e-05;-0.00523081678235454
1.37993e-05;-0.005241910955564
1.37995e-05;-0.005251521087918374
1.37998e-05;-0.005260777658207907
1.38000e-05;-0.005270034228497439
1.38003e-05;-0.005278083500880957
1.38005e-05;-0.005285845143217802
1.38008e-05;-0.0052936067855546476
1.38010e-05;-0.005300605577574069
1.38013e-05;-0.005307422625989611
1.38015e-05;-0.005316347149474687
1.38018e-05;-0.005325773763744237
1.38020e-05;-0.005338590928331647
1.38023e-05;-0.005352215867157412
1.38025e-05;-0.005365840805983086
1.38028e-05;-0.005382759583431632
1.38030e-05;-0.005400463094252498
1.38033e-05;-0.0054181666050732435
1.38035e-05;-0.005443042388071003
1.38038e-05;-0.0054696269133531865
1.38040e-05;-0.005496211438635191
1.38043e-05;-0.005522795963917375
1.38045e-05;-0.00554938048919956
1.38048e-05;-0.005575965014481564
1.38050e-05;-0.005610647498929001
1.38053e-05;-0.005647259263931212
1.38055e-05;-0.0056838710289331745
1.38058e-05;-0.005720482793935386
1.38060e-05;-0.005757094558937597
1.38063e-05;-0.005793706323939559
1.38065e-05;-0.005835462289744143
1.38068e-05;-0.005878443824408263
1.38070e-05;-0.005921425359072092
1.38073e-05;-0.005964406893736212
1.38075e-05;-0.0060073884284003315
1.38078e-05;-0.00605036996306416
1.38080e-05;-0.006093351497728281
1.38083e-05;-0.006135285043298429
1.38085e-05;-0.006176968913000622
1.38088e-05;-0.0062186527827030975
1.38090e-05;-0.006260336652405573
1.38093e-05;-0.006302020522108048
1.38095e-05;-0.006343704391810241
1.38098e-05;-0.0063853882615127165
1.38100e-05;-0.00642155608151189
1.38103e-05;-0.006456409742323635
1.38105e-05;-0.006491263403135615
1.38108e-05;-0.006515511510930088
1.38110e-05;-0.006537232921960698
1.38113e-05;-0.006558954332991457
1.38115e-05;-0.006580675744022215
1.38118e-05;-0.006602397155052825
1.38120e-05;-0.006624118566083583
1.38123e-05;-0.0066458399771143414
1.38125e-05;-0.006667561388144952
1.38128e-05;-0.0066742563684281725
1.38130e-05;-0.00667737140960962
1.38133e-05;-0.006680486450791047
1.38135e-05;-0.006683601491972495
1.38138e-05;-0.0066867165331539425
1.38140e-05;-0.0066898315743353694
1.38143e-05;-0.006692946615516817
1.38145e-05;-0.006696061656698265
1.38148e-05;-0.006687065046679436
1.38150e-05;-0.006675182922831623
1.38153e-05;-0.006663300798983809
1.38155e-05;-0.0066514186751360765
1.38158e-05;-0.006639536551288264
1.38160e-05;-0.00662765442744045
1.38163e-05;-0.006615772303592718
1.38165e-05;-0.006601294464719763
1.38168e-05;-0.00658097362702337
1.38170e-05;-0.006560652789327114
1.38173e-05;-0.006540331951630721
1.38175e-05;-0.006520011113934327
1.38178e-05;-0.006499690276237934
1.38180e-05;-0.006479369438541678
1.38183e-05;-0.006459048600845285
1.38185e-05;-0.006436830430162339
1.38188e-05;-0.0064141602335351785
1.38190e-05;-0.006394488020691196
1.38193e-05;-0.00637664645797138
1.38195e-05;-0.006362472285821912
1.38198e-05;-0.006340920065207751
1.38200e-05;-0.051494719696124076
1.38203e-05;-0.034344027894212516
1.38205e-05;-0.02400322386470192
1.38208e-05;-0.010881105656292103
1.38210e-05;0.008306329565228966
1.38213e-05;0.011774697519158706
1.38215e-05;0.0060825256358579185
1.38218e-05;-0.005007125463366966
1.38220e-05;-0.019666662130771083
1.38223e-05;-0.021542256913213813
1.38225e-05;-0.015289876628720379
1.38228e-05;-0.00636894096728963
1.38230e-05;0.004368505748534375
1.38233e-05;0.0062628118101066815
1.38235e-05;0.0025221479313264814
1.38238e-05;-0.004542959805167615
1.38240e-05;-0.01380866885180103
1.38243e-05;-0.015044321561726588
1.38245e-05;-0.01117508936205637
1.38248e-05;-0.005626042656332668
1.38250e-05;0.0010658924432315276
1.38253e-05;0.0022218272532330274
1.38255e-05;-0.00014940300749601877
1.38258e-05;-0.004600953101848057
1.38260e-05;-0.010429136782606074
1.38263e-05;-0.011225922858397781
1.38265e-05;-0.008824177751655397
1.38268e-05;-0.00536965487798461
1.38270e-05;-0.0011988263372214088
1.38273e-05;-0.0004952468777692751
1.38275e-05;-0.00200034379914143
1.38278e-05;-0.00480766331917977
1.38280e-05;-0.008476319093985892
1.38283e-05;-0.00899243267512266
1.38285e-05;-0.007504338038910008
1.38288e-05;-0.005356247785874735
1.38290e-05;-0.002758968046077957
1.38293e-05;-0.0023329846183430822
1.38295e-05;-0.003289755683116859
1.38298e-05;-0.0050613680181619235
1.38300e-05;-0.007371577747726581
1.38303e-05;-0.0077061483783370365
1.38305e-05;-0.006784530870132991
1.38308e-05;-0.005448799788774522
1.38310e-05;-0.003831085079975597
1.38313e-05;-0.0035731800116570547
1.38315e-05;-0.004181644951696215
1.38318e-05;-0.005300977284220926
1.38320e-05;-0.00675809833831185
1.38323e-05;-0.006978098178721896
1.38325e-05;-0.006411695750520528
1.38328e-05;-0.005586374949023726
1.38330e-05;-0.004584885049462414
1.38333e-05;-0.004435573213022035
1.38335e-05;-0.0048292480000478605
1.38338e-05;-0.005543144891453299
1.38340e-05;-0.006468784052415051
1.38343e-05;-0.006619631199488784
1.38345e-05;-0.006278033794378659
1.38348e-05;-0.0057743973640645985
1.38350e-05;-0.0051605286700180724
1.38353e-05;-0.005080523713063089
1.38355e-05;-0.005340624344781058
1.38358e-05;-0.005801226228531369
1.38360e-05;-0.0063943211629130525
1.38363e-05;-0.006501921306469053
1.38365e-05;-0.006300882838014224
1.38368e-05;-0.0059981493094312145
1.38370e-05;-0.005626137904121591
1.38373e-05;-0.005588255676980195
1.38375e-05;-0.005763066557698992
1.38378e-05;-0.006063064030211857
1.38380e-05;-0.00644559665607093
1.38383e-05;-0.006523524764650518
1.38385e-05;-0.0064076114429040135
1.38388e-05;-0.00622745465313912
1.38390e-05;-0.006003322358778845
1.38393e-05;-0.005987857873132512
1.38395e-05;-0.006104934633656349
1.38398e-05;-0.006299686076535115
1.38400e-05;-0.006545345838640466
1.38403e-05;-0.006599373221812062
1.38405e-05;-0.006531120849587616
1.38408e-05;-0.006421731799033273
1.38410e-05;-0.006283777700572717
1.38413e-05;-0.006274955074795926
1.38415e-05;-0.006346762270269548
1.38418e-05;-0.006464492714768001
1.38420e-05;-0.0066114759283871566
1.38423e-05;-0.006635937663974902
1.38425e-05;-0.006581478847962643
1.38428e-05;-0.006499080945497182
1.38430e-05;-0.006396769551380419
1.38433e-05;-0.006373471630699226
1.38435e-05;-0.006398948393200418
1.38438e-05;-0.00645160510955575
1.38440e-05;-0.006521145581334764
1.38443e-05;-0.006512650434612588
1.38445e-05;-0.006453584528879009
1.38448e-05;-0.006376034550508586
1.38450e-05;-0.006285177364364773
1.38453e-05;-0.0062431274571193756
1.38455e-05;-0.006231087878289197
1.38458e-05;-0.006235677578631467
1.38460e-05;-0.006250593733072076
1.38463e-05;-0.0062165290177230185
1.38465e-05;-0.006150839314950147
1.38468e-05;-0.006073772851302797
1.38470e-05;-0.005988721999274833
1.38473e-05;-0.005934741073290844
1.38475e-05;-0.005900202439452568
1.38478e-05;-0.005876869488615558
1.38480e-05;-0.005860941777175609
1.38483e-05;-0.005815417623356341
1.38485e-05;-0.005751319150777874
1.38488e-05;-0.005681478328359448
1.38490e-05;-0.005608168530445119
1.38493e-05;-0.005555999401654395
1.38495e-05;-0.005517834276141354
1.38498e-05;-0.005488660121377864
1.38500e-05;-0.005466243125518822
1.38503e-05;-0.005427553190246223
1.38505e-05;-0.005379643156651084
1.38508e-05;-0.00533069951561682
1.38510e-05;-0.005282283784873687
1.38513e-05;-0.005249867648711649
1.38515e-05;-0.005228901630986751
1.38518e-05;-0.005219355608709939
1.38520e-05;-0.005209974163585226
1.38523e-05;-0.0051958143518223325
1.38525e-05;-0.0051780457043015034
1.38528e-05;-0.0051626871247866
1.38530e-05;-0.005147364540127688
1.38533e-05;-0.005144815016210045
1.38535e-05;-0.005151019027159455
1.38538e-05;-0.005166031186259517
1.38540e-05;-0.005181170300371213
1.38543e-05;-0.005196309414482806
1.38545e-05;-0.0052094126226820674
1.38548e-05;-0.005228237941178242
1.38550e-05;-0.005247147359512678
1.38553e-05;-0.005266056777847241
1.38555e-05;-0.00529675450141061
1.38558e-05;-0.005333515984039233
1.38560e-05;-0.005370363606483465
1.38563e-05;-0.005407211228927698
1.38565e-05;-0.005442782203127118
1.38568e-05;-0.005481302087201697
1.38570e-05;-0.0055198653610488
1.38573e-05;-0.005558428634895642
1.38575e-05;-0.005603286878421224
1.38578e-05;-0.005650201778034059
1.38580e-05;-0.005697145402848092
1.38583e-05;-0.0057440890276624435
1.38585e-05;-0.005788054673479992
1.38588e-05;-0.005831022159680463
1.38590e-05;-0.005873975688144304
1.38593e-05;-0.005916929216608144
1.38595e-05;-0.005960558779654386
1.38598e-05;-0.006001527286307528
1.38600e-05;-0.006042456740375871
1.38603e-05;-0.006083386194444213
1.38605e-05;-0.006118095334836768
1.38608e-05;-0.006147440793076784
1.38610e-05;-0.0061767091571883655
1.38613e-05;-0.00620597752129975
1.38615e-05;-0.006232128538343821
1.38618e-05;-0.00625823397577158
1.38620e-05;-0.006280116606549316
1.38623e-05;-0.006301937494472556
1.38625e-05;-0.006323758382395797
1.38628e-05;-0.0063390848100102985
1.38630e-05;-0.006354316280277277
1.38633e-05;-0.006369547750544254
1.38635e-05;-0.006381687574990545
1.38638e-05;-0.006393782195605789
1.38640e-05;-0.006405876816221033
1.38643e-05;-0.006413531699424223
1.38645e-05;-0.006421121667966481
1.38648e-05;-0.006428711636508739
1.38650e-05;-0.006432533159729682
1.38653e-05;-0.006436299583441857
1.38655e-05;-0.006440066007154031
1.38658e-05;-0.006441803868167385
1.38660e-05;-0.006443512068989667
1.38663e-05;-0.006445220269811948
1.38665e-05;-0.00644395921170349
1.38668e-05;-0.006442654739217308
1.38670e-05;-0.006441350266731127
1.38673e-05;-0.006438513816351599
1.38675e-05;-0.0064356549664883874
1.38678e-05;-0.006432796116625176
1.38680e-05;-0.006428915795182806
1.38683e-05;-0.006425020538514477
1.38685e-05;-0.006421125281846148
1.38688e-05;-0.006416183617269838
1.38690e-05;-0.006411226652866481
1.38693e-05;-0.00640626968846309
1.38695e-05;-0.006401526136198826
1.38698e-05;-0.006396785704294065
1.38700e-05;-0.0063920452723892724
1.38703e-05;-0.00638760943085652
1.38705e-05;-0.006383178042826101
1.38708e-05;-0.006378746654795651
1.38710e-05;-0.006374180947153625
1.38713e-05;-0.0063696132755864535
1.38715e-05;-0.006365045604019252
1.38718e-05;-0.006357154057508184
1.38720e-05;-0.006349213911677924
1.38723e-05;-0.006341273765847612
1.38725e-05;-0.006329824634902605
1.38728e-05;-0.006318324198090044
1.38730e-05;-0.006306823761277404
1.38733e-05;-0.006291643150687965
1.38735e-05;-0.006276408731232937
1.38738e-05;-0.006261174311777806
1.38740e-05;-0.006241316574576253
1.38743e-05;-0.006221391238533348
1.38745e-05;-0.006201465902490309
1.38748e-05;-0.006177936272542204
1.38750e-05;-0.006154353943189667
1.38753e-05;-0.006130771613836971
1.38755e-05;-0.00610372833622393
1.38758e-05;-0.006076634455103829
1.38760e-05;-0.006049540573983545
1.38763e-05;-0.006019611906527949
1.38765e-05;-0.005989641790856597
1.38768e-05;-0.005959671675185042
1.38770e-05;-0.0059282148647694845
1.38773e-05;-0.00589673631696791
1.38775e-05;-0.0058652577691665495
1.38778e-05;-0.005832969785072481
1.38780e-05;-0.005800669965980525
1.38783e-05;-0.0057683701468887886
1.38785e-05;-0.005736676601852234
1.38788e-05;-0.005704991921320813
1.38790e-05;-0.005673307240789605
1.38793e-05;-0.005643647298366483
1.38795e-05;-0.005614016960214233
1.38798e-05;-0.005584386622062184
1.38800e-05;-0.005558009633408297
1.38803e-05;-0.005531680212901343
1.38805e-05;-0.005505350792394567
1.38808e-05;-0.005483783598753681
1.38810e-05;-0.005462286034984261
1.38813e-05;-0.005440788471214987
1.38815e-05;-0.005422651651439691
1.38818e-05;-0.005404563970056796
1.38820e-05;-0.005386476288674024
1.38823e-05;-0.005371160517361646
1.38825e-05;-0.005355885274933661
1.38828e-05;-0.00534061003250578
1.38830e-05;-0.0053286147587246
1.38833e-05;-0.005316667442296575
1.38835e-05;-0.00530472012586863
1.38838e-05;-0.0052947325295136126
1.38840e-05;-0.005284773586782391
1.38843e-05;-0.005274814644051237
1.38845e-05;-0.0052669641214641225
1.38848e-05;-0.005259144426686793
1.38850e-05;-0.0052513247319095156
1.38853e-05;-0.005245430488876022
1.38855e-05;-0.005239564398419378
1.38858e-05;-0.005233698307962733
1.38860e-05;-0.005229014474861623
1.38863e-05;-0.005224347927881083
1.38865e-05;-0.005219681380900543
1.38868e-05;-0.0052163742462985095
1.38870e-05;-0.005213086988050976
1.38873e-05;-0.005209799729803441
1.38875e-05;-0.005207387537818007
1.38878e-05;-0.005204988140424939
1.38880e-05;-0.0052025887430318715
1.38883e-05;-0.005200779862382107
1.38885e-05;-0.005198979615845375
1.38888e-05;-0.005197179369308643
1.38890e-05;-0.005195954647121206
1.38893e-05;-0.005194738339838758
1.38895e-05;-0.00519352203255631
1.38898e-05;-0.005192417403310811
1.38900e-05;-0.005191314406941609
1.38903e-05;-0.005190211410572405
1.38905e-05;-0.005189140846729004
1.38908e-05;-0.005188070757090769
1.38910e-05;-0.005187000667452533
1.38913e-05;-0.00518763114364805
1.38915e-05;-0.005188286484299724
1.38918e-05;-0.005188941824951398
1.38920e-05;-0.005195830679577335
1.38923e-05;-0.005202810676181914
1.38925e-05;-0.005209790672786493
1.38928e-05;-0.005216770669391024
1.38930e-05;-0.005223750665995603
1.38933e-05;-0.005230730662600182
1.38935e-05;-0.005237710659204714
1.38938e-05;-0.0052539706417281595
1.38940e-05;-0.005270366309562117
1.38943e-05;-0.005286761977396074
1.38945e-05;-0.00530315764522992
1.38948e-05;-0.005319553313063877
1.38950e-05;-0.005335948980897834
1.38953e-05;-0.0053523446487316806
1.38955e-05;-0.005376678225334747
1.38958e-05;-0.005401127864357097
1.38960e-05;-0.005425577503379282
1.38963e-05;-0.005450027142401632
1.38965e-05;-0.005474476781423983
