Time(s);Current(A)
1.25000e-06;0.010824431594046864
1.25025e-06;0.01082499430392246
1.25050e-06;0.010825557013798056
1.25075e-06;0.010826119723673653
1.25100e-06;0.01082668243354925
1.25125e-06;0.010827245143424844
1.25150e-06;0.01082780785330044
1.25175e-06;0.010828370563176037
1.25200e-06;0.010828933273051632
1.25225e-06;0.010829495982927229
1.25250e-06;0.010830058692802826
1.25275e-06;0.01083062140267842
1.25300e-06;0.010831184112554017
1.25325e-06;0.01083255907251222
1.25350e-06;0.010835297256401855
1.25375e-06;0.01083803544029149
1.25400e-06;0.010840773624181123
1.25425e-06;0.01084351180807076
1.25450e-06;0.010846249991960393
1.25475e-06;0.01084898817585003
1.25500e-06;0.010851726359739662
1.25525e-06;0.010854464543629299
1.25550e-06;0.010857202727518932
1.25575e-06;0.010859940911408565
1.25600e-06;0.010862679095298202
1.25625e-06;0.010865417279187835
1.25650e-06;0.010868155463077471
1.25675e-06;0.010870893646967104
1.25700e-06;0.01087363183085674
1.25725e-06;0.010876370014746374
1.25750e-06;0.010879108198636009
1.25775e-06;0.010881846382525644
1.25800e-06;0.010884584566415278
1.25825e-06;0.010881924337872967
1.25850e-06;0.010878481371360693
1.25875e-06;0.010875038404848422
1.25900e-06;0.010871595438336148
1.25925e-06;0.010868152471823876
1.25950e-06;0.010864709505311602
1.25975e-06;0.010861266538799331
1.26000e-06;0.01085782357228706
1.26025e-06;0.010854380605774787
1.26050e-06;0.010850937639262514
1.26075e-06;0.010842832772508065
1.26100e-06;0.010826903697284004
1.26125e-06;0.010810974622059944
1.26150e-06;0.010795045546835871
1.26175e-06;0.010779116471611812
1.26200e-06;0.010763187396387739
1.26225e-06;0.01074725832116368
1.26250e-06;0.01073132924593962
1.26275e-06;0.010715400170715546
1.26300e-06;0.010699471095491487
1.26325e-06;0.010683542020267413
1.26350e-06;0.010660187424854986
1.26375e-06;0.010635756172801158
1.26400e-06;0.010611324920747353
1.26425e-06;0.010586893668693547
1.26450e-06;0.010562462416639721
1.26475e-06;0.010538031164585916
1.26500e-06;0.010513599912532088
1.26525e-06;0.010489168660478283
1.26550e-06;0.010464737408424477
1.26575e-06;0.01044030615637065
1.26600e-06;0.010415874904316846
1.26625e-06;0.010391443652263018
1.26650e-06;0.010367012400209213
1.26675e-06;0.010342581148155406
1.26700e-06;0.010327365214854436
1.26725e-06;0.010313485448432778
1.26750e-06;0.010299605682011107
1.26775e-06;0.010285725915589447
1.26800e-06;0.010271846149167778
1.26825e-06;0.010257966382746118
1.26850e-06;0.01024408661632446
1.26875e-06;0.01023020684990279
1.26900e-06;0.01021632708348113
1.26925e-06;0.01020244731705946
1.26950e-06;0.010188567550637802
1.26975e-06;0.010174687784216143
1.27000e-06;0.010160808017794473
1.27025e-06;0.010146928251372814
1.27050e-06;0.010147218720952991
1.27075e-06;0.010149563791195873
1.27100e-06;0.01016491368909793
1.27125e-06;0.010182149210325064
1.27150e-06;0.010199384731552186
1.27175e-06;0.010216620252779323
1.27200e-06;0.010233855774006444
1.27225e-06;0.010251091295233565
1.27250e-06;0.0102683268164607
1.27275e-06;0.010285562337687822
1.27300e-06;0.010302797858914959
1.27325e-06;0.01032003338014208
1.27350e-06;0.010337268901369216
1.27375e-06;0.010354504422596337
1.27400e-06;0.010383276880249474
1.27425e-06;0.010413722125654537
1.27450e-06;0.010444167371059576
1.27475e-06;0.010474612616464641
1.27500e-06;0.010505057861869678
1.27525e-06;0.010535503107274717
1.27550e-06;0.010565948352679782
1.27575e-06;0.010596393598084819
1.27600e-06;0.010626838843489883
1.27625e-06;0.01065728408889492
1.27650e-06;0.01068772933429996
1.27675e-06;0.010718174579705024
1.27700e-06;0.010741549599825814
1.27725e-06;0.010763899478971455
1.27750e-06;0.010786249358117077
1.27775e-06;0.010808599237262718
1.27800e-06;0.01083094911640834
1.27825e-06;0.010853298995553963
1.27850e-06;0.010875648874699604
1.27875e-06;0.010897998753845227
1.27900e-06;0.010920348632990868
1.27925e-06;0.01092370603123678
1.27950e-06;0.010924309631745416
1.27975e-06;0.010924913232254054
1.28000e-06;0.010925516832762692
1.28025e-06;0.01092612043327133
1.28050e-06;0.010926724033779965
1.28075e-06;0.010927327634288603
1.28100e-06;0.01092793123479724
1.28125e-06;0.010928534835305877
1.28150e-06;0.01090678865756635
1.28175e-06;0.010881801893771132
1.28200e-06;0.010856815129975895
1.28225e-06;0.010831828366180678
1.28250e-06;0.01080684160238546
1.28275e-06;0.010781854838590222
1.28300e-06;0.010756868074795006
1.28325e-06;0.010731881310999768
1.28350e-06;0.01070689454720455
1.28375e-06;0.010681907783409333
1.28400e-06;0.010656921019614097
1.28425e-06;0.010631934255818879
1.28450e-06;0.010596750270698327
1.28475e-06;0.010560087748615799
1.28500e-06;0.01052342522653327
1.28525e-06;0.010486762704450713
1.28550e-06;0.010450100182368185
1.28575e-06;0.010413437660285626
1.28600e-06;0.0103767751382031
1.28625e-06;0.01034011261612054
1.28650e-06;0.010303450094038014
1.28675e-06;0.010266787571955486
1.28700e-06;0.010230125049872927
1.28725e-06;0.0101934625277904
1.28750e-06;0.010166772840852076
1.28775e-06;0.01014152915620261
1.28800e-06;0.010116285471553145
1.28825e-06;0.010091041786903657
1.28850e-06;0.01006579810225419
1.28875e-06;0.010040554417604703
1.28900e-06;0.010015310732955238
1.28925e-06;0.009999298638727762
1.28950e-06;0.009998780202494558
1.28975e-06;0.009998261766261356
1.29000e-06;0.009997743330028152
1.29025e-06;0.00999722489379495
1.29050e-06;0.009996706457561746
1.29075e-06;0.009996188021328544
1.29100e-06;0.009995669585095342
1.29125e-06;0.010022965863423093
1.29150e-06;0.010054295111346217
1.29175e-06;0.010085624359269366
1.29200e-06;0.010116953607192489
1.29225e-06;0.010148282855115612
1.29250e-06;0.010179612103038763
1.29275e-06;0.010210941350961886
1.29300e-06;0.010242270598885035
1.29325e-06;0.010273599846808158
1.29350e-06;0.010304929094731281
1.29375e-06;0.010343904253803276
1.29400e-06;0.0103957117772866
1.29425e-06;0.010447519300769967
1.29450e-06;0.01049932682425329
1.29475e-06;0.010551134347736659
1.29500e-06;0.010602941871219983
1.29525e-06;0.010654749394703306
1.29550e-06;0.010706556918186675
1.29575e-06;0.010758364441669999
1.29600e-06;0.010810171965153366
1.29625e-06;0.01086197948863669
1.29650e-06;0.010911391016075045
1.29675e-06;0.010960455138215495
1.29700e-06;0.011009519260355902
1.29725e-06;0.01105858338249635
1.29750e-06;0.01110764750463676
1.29775e-06;0.011146209182223742
1.29800e-06;0.011183248067280747
1.29825e-06;0.011220286952337719
1.29850e-06;0.011257325837394722
1.29875e-06;0.011294364722451695
1.29900e-06;0.011323383184289923
1.29925e-06;0.011351238732055813
1.29950e-06;0.011379094279821705
1.29975e-06;0.01140694982758762
1.30000e-06;0.01143480537535351
1.30025e-06;0.011462660923119424
1.30050e-06;0.011490516470885314
1.30075e-06;0.011518372018651206
1.30100e-06;0.01154622756641712
1.30125e-06;0.011574083114183011
1.30150e-06;0.011601938661948925
1.30175e-06;0.011629794209714816
1.30200e-06;0.011654244108832512
1.30225e-06;0.011678200208978508
1.30250e-06;0.011702156309124483
1.30275e-06;0.011726112409270479
1.30300e-06;0.011750068509416456
1.30325e-06;0.011774024609562452
1.30350e-06;0.011797980709708427
1.30375e-06;0.011821936809854404
1.30400e-06;0.0118458929100004
1.30425e-06;0.011869849010146375
1.30450e-06;0.011893805110292371
1.30475e-06;0.011917761210438346
1.30500e-06;0.011937663163598353
1.30525e-06;0.011956977289351736
1.30550e-06;0.011976291415105101
1.30575e-06;0.011995605540858484
1.30600e-06;0.01201491966661185
1.30625e-06;0.012034233792365217
1.30650e-06;0.0120535479181186
1.30675e-06;0.012072862043871965
1.30700e-06;0.012092176169625348
1.30725e-06;0.012111490295378714
1.30750e-06;0.012130804421132096
1.30775e-06;0.012150118546885462
1.30800e-06;0.012169432672638827
1.30825e-06;0.012171348964907167
1.30850e-06;0.012170742673911092
1.30875e-06;0.012170136382915017
1.30900e-06;0.012169530091918943
1.30925e-06;0.012168923800922868
1.30950e-06;0.012168317509926793
1.30975e-06;0.012167711218930718
1.31000e-06;0.012167104927934644
1.31025e-06;0.01216649863693857
1.31050e-06;0.012165892345942494
1.31075e-06;0.012165286054946418
1.31100e-06;0.012164679763950343
1.31125e-06;0.012164073472954269
1.31150e-06;0.012138503677048891
1.31175e-06;0.012109314320135721
1.31200e-06;0.012080124963222527
1.31225e-06;0.012050935606309359
1.31250e-06;0.012021746249396165
1.31275e-06;0.011992556892482995
1.31300e-06;0.011963367535569801
1.31325e-06;0.011934178178656631
1.31350e-06;0.011904988821743463
1.31375e-06;0.01187579946483027
1.31400e-06;0.0118466101079171
1.31425e-06;0.011817420751003905
1.31450e-06;0.011779034909104459
1.31475e-06;0.011739315631111615
1.31500e-06;0.011699596353118737
1.31525e-06;0.011659877075125892
1.31550e-06;0.011620157797133015
1.31575e-06;0.01158043851914017
1.31600e-06;0.011540719241147326
1.31625e-06;0.011500999963154446
1.31650e-06;0.011461280685161602
1.31675e-06;0.011421561407168724
1.31700e-06;0.01138184212917588
1.31725e-06;0.011342122851183
1.31750e-06;0.01131858393555657
1.31775e-06;0.011297391077061205
1.31800e-06;0.011276198218565825
1.31825e-06;0.01125500536007046
1.31850e-06;0.011233812501575078
1.31875e-06;0.011212619643079715
1.31900e-06;0.01119142678458435
1.31925e-06;0.01117023392608897
1.31950e-06;0.011149041067593604
1.31975e-06;0.011127848209098222
1.32000e-06;0.01110665535060286
1.32025e-06;0.011085462492107496
1.32050e-06;0.011064269633612114
1.32075e-06;0.01104307677511675
1.32100e-06;0.011021883916621369
1.32125e-06;0.011000691058126004
1.32150e-06;0.010979498199630622
1.32175e-06;0.010958305341135259
1.32200e-06;0.010937112482639896
1.32225e-06;0.010915919624144513
1.32250e-06;0.010900206624283041
1.32275e-06;0.010893690637247332
1.32300e-06;0.010887174650211627
1.32325e-06;0.010880658663175922
1.32350e-06;0.010874142676140211
1.32375e-06;0.010867626689104508
1.32400e-06;0.010861110702068797
1.32425e-06;0.010854594715033092
1.32450e-06;0.010848078727997387
1.32475e-06;0.010841562740961678
1.32500e-06;0.010835046753925973
1.32525e-06;0.010828530766890263
1.32550e-06;0.010822014779854557
1.32575e-06;0.010815498792818849
1.32600e-06;0.010808982805783143
1.32625e-06;0.010802466818747438
1.32650e-06;0.010795950831711728
1.32675e-06;0.010789434844676024
1.32700e-06;0.010782918857640314
1.32725e-06;0.010776402870604608
1.32750e-06;0.010769886883568903
1.32775e-06;0.010768446214092581
1.32800e-06;0.010767741435734241
1.32825e-06;0.010767036657375901
1.32850e-06;0.01076633187901756
1.32875e-06;0.01076562710065922
1.32900e-06;0.010764922322300878
1.32925e-06;0.010764217543942538
1.32950e-06;0.010763512765584198
1.32975e-06;0.0107771207401374
1.33000e-06;0.010792803979463294
1.33025e-06;0.010808487218789175
1.33050e-06;0.010824170458115056
1.33075e-06;0.01083985369744095
1.33100e-06;0.010855536936766831
1.33125e-06;0.010871220176092726
1.33150e-06;0.010886903415418607
1.33175e-06;0.0109217051859713
1.33200e-06;0.010959279030813621
1.33225e-06;0.010996852875655912
1.33250e-06;0.011034426720498234
1.33275e-06;0.011072000565340525
1.33300e-06;0.011109574410182814
1.33325e-06;0.011147148255025136
1.33350e-06;0.011184722099867426
1.33375e-06;0.011222295944709748
1.33400e-06;0.011259869789552039
1.33425e-06;0.01129744363439436
1.33450e-06;0.011338123964237829
1.33475e-06;0.011384018002008016
1.33500e-06;0.011429912039778242
1.33525e-06;0.011475806077548428
1.33550e-06;0.011521700115318653
1.33575e-06;0.01156759415308884
1.33600e-06;0.011613488190859026
1.33625e-06;0.011659382228629252
1.33650e-06;0.01170527626639944
1.33675e-06;0.011751170304169665
1.33700e-06;0.011797064341939851
1.33725e-06;0.011842958379710038
1.33750e-06;0.011873761999608889
1.33775e-06;0.011902377597901801
1.33800e-06;0.01193099319619474
1.33825e-06;0.011959608794487653
1.33850e-06;0.01198822439278059
1.33875e-06;0.012016839991073504
1.33900e-06;0.012045455589366417
1.33925e-06;0.012074071187659354
1.33950e-06;0.012091780327990555
1.33975e-06;0.012091184829379608
1.34000e-06;0.012090589330768663
1.34025e-06;0.012089993832157718
1.34050e-06;0.012089398333546771
1.34075e-06;0.012088802834935826
1.34100e-06;0.012088207336324881
1.34125e-06;0.012087611837713936
1.34150e-06;0.01208701633910299
1.34175e-06;0.012059287137241524
1.34200e-06;0.01202762370841146
1.34225e-06;0.011995960279581368
1.34250e-06;0.011964296850751302
1.34275e-06;0.011932633421921211
1.34300e-06;0.011900969993091147
1.34325e-06;0.01186930656426108
1.34350e-06;0.01183764313543099
1.34375e-06;0.011805979706600923
1.34400e-06;0.011774316277770832
1.34425e-06;0.011742652848940768
1.34450e-06;0.011705859961404195
1.34475e-06;0.011660458147860797
1.34500e-06;0.011615056334317437
1.34525e-06;0.01156965452077404
1.34550e-06;0.01152425270723068
1.34575e-06;0.01147885089368732
1.34600e-06;0.011433449080143923
1.34625e-06;0.011388047266600563
1.34650e-06;0.011342645453057165
1.34675e-06;0.011297243639513807
1.34700e-06;0.011251841825970447
1.34725e-06;0.011206440012427049
1.34750e-06;0.011170039165025519
1.34775e-06;0.011134943404637304
1.34800e-06;0.01109984764424912
1.34825e-06;0.011064751883860906
1.34850e-06;0.01102965612347272
1.34875e-06;0.011009144689424452
1.34900e-06;0.01098478115458071
1.34925e-06;-0.024895634979552887
1.34950e-06;-0.013643236538806766
1.34975e-06;-0.005816950476233816
1.35000e-06;-7.812451520159943e-05
1.35025e-06;0.01511294237469592
1.35050e-06;0.021497022714556436
1.35075e-06;0.02024611466290465
1.35100e-06;0.013890620260752825
1.35125e-06;0.004927458772514242
1.35150e-06;0.0007522625259288552
1.35175e-06;0.0028726457102765807
1.35200e-06;0.00838485777826867
1.35225e-06;0.015199340838374965
1.35250e-06;0.01877030925753098
1.35275e-06;0.017919774678508704
1.35300e-06;0.013813294341563302
1.35325e-06;0.008115452800298873
1.35350e-06;0.005445644746380541
1.35375e-06;0.006738911831307857
1.35400e-06;0.01016989062176419
1.35425e-06;0.014425296644115966
1.35450e-06;0.016654773952087743
1.35475e-06;0.01611860568985639
1.35500e-06;0.013545682036763975
1.35525e-06;0.00997781820892973
1.35550e-06;0.008307822282592522
1.35575e-06;0.00912066311129607
1.35600e-06;0.011272352857312106
1.35625e-06;0.013939850285309918
1.35650e-06;0.015337473270805977
1.35675e-06;0.01500178646957992
1.35700e-06;0.013389318965158497
1.35725e-06;0.011152581904213248
1.35750e-06;0.010103448037978592
1.35775e-06;0.01060807276340757
1.35800e-06;0.011949616763786447
1.35825e-06;0.013612360283683829
1.35850e-06;0.014477882010110911
1.35875e-06;0.014256419629345781
1.35900e-06;0.013234477439869443
1.35925e-06;0.011821038777846272
1.35950e-06;0.011151098286914629
1.35975e-06;0.011453974691243403
1.36000e-06;0.01228061034468191
1.36025e-06;0.013307962918719376
1.36050e-06;0.013835508469156986
1.36075e-06;0.013681832571447693
1.36100e-06;0.013026494480312243
1.36125e-06;0.012125753040077814
1.36150e-06;0.011690598006926105
1.36175e-06;0.011864663957515238
1.36200e-06;0.012366658601951545
1.36225e-06;0.012994249059231326
1.36250e-06;0.013308675774015101
1.36275e-06;0.013196375086784068
1.36300e-06;0.01276989688738132
1.36325e-06;0.012189823808791998
1.36350e-06;0.011901551844678913
1.36375e-06;0.011995064937007516
1.36400e-06;0.012294175951811185
1.36425e-06;0.012672170627856819
1.36450e-06;0.01285425721520616
1.36475e-06;0.012769362785497538
1.36500e-06;0.012488050460735438
1.36525e-06;0.012110963720089244
1.36550e-06;0.01191713551372704
1.36575e-06;0.011962954061675527
1.36600e-06;0.012138080669368868
1.36625e-06;0.012363176391391487
1.36650e-06;0.012466156257447382
1.36675e-06;0.012402555154437526
1.36700e-06;0.012216629100709253
1.36725e-06;0.011971472032742871
1.36750e-06;0.011841909953280464
1.36775e-06;0.011863293560738421
1.36800e-06;0.01197363786015834
1.36825e-06;0.012105187173822776
1.36850e-06;0.012161474685594227
1.36875e-06;0.012116516081981074
1.36900e-06;0.0119858226855458
1.36925e-06;0.011830003571248172
1.36950e-06;0.011744919577344777
1.36975e-06;0.011749720414932916
1.37000e-06;0.011809175503925493
1.37025e-06;0.011881547649876348
1.37050e-06;0.01190605112331561
1.37075e-06;0.011866378421894324
1.37100e-06;0.011772254966613927
1.37125e-06;0.011662141438988128
1.37150e-06;0.011595862872427167
1.37175e-06;0.011585405744965131
1.37200e-06;0.011608737195502717
1.37225e-06;0.01164001193888088
1.37250e-06;0.011641056094083056
1.37275e-06;0.011601683116323067
1.37300e-06;0.0115280766549648
1.37325e-06;0.011444418742054744
1.37350e-06;0.0113882224621574
1.37375e-06;0.011367046552915991
1.37400e-06;0.011367216380115756
1.37425e-06;0.011372433183517465
1.37450e-06;0.011358952016971104
1.37475e-06;0.011320474429016875
1.37500e-06;0.011266947838738875
1.37525e-06;0.011209988770957108
1.37550e-06;0.011153029703175341
1.37575e-06;0.011122351274350472
1.37600e-06;0.01110755077249237
1.37625e-06;0.011094536470834682
1.37650e-06;0.011081522169177006
1.37675e-06;0.011051383880523626
1.37700e-06;0.011009938279303967
1.37725e-06;0.010966891618582665
1.37750e-06;0.010923844957861327
1.37775e-06;0.010898600278012784
1.37800e-06;0.01088527465214144
1.37825e-06;0.010873688067990649
1.37850e-06;0.010862101483839858
1.37875e-06;0.010839964700350679
1.37900e-06;0.01080924330496171
1.37925e-06;0.010776799751752377
1.37950e-06;0.010744356198543073
1.37975e-06;0.010721555011511053
1.38000e-06;0.010704242701966113
1.38025e-06;0.010687432639935162
1.38050e-06;0.010670622577904196
1.38075e-06;0.010646070111763009
1.38100e-06;0.010614713135857995
1.38125e-06;0.010581862905124414
1.38150e-06;0.01054901267439086
1.38175e-06;0.01052144725334268
1.38200e-06;0.01049644078050145
1.38225e-06;0.010471505239447815
1.38250e-06;0.010446569698394201
1.38275e-06;0.010416406967531414
1.38300e-06;0.010381653177593915
1.38325e-06;0.010345892563814688
1.38350e-06;0.01031013195003543
1.38375e-06;0.010277682345070179
1.38400e-06;0.010245846464701718
1.38425e-06;0.01021360511197136
1.38450e-06;0.01018136375924103
1.38475e-06;0.010149122406510672
1.38500e-06;0.010116650518788446
1.38525e-06;0.010083179199377913
1.38550e-06;0.01004970787996735
1.38575e-06;0.010016236560556818
1.38600e-06;0.009982765241146257
1.38625e-06;0.009951582170632987
1.38650e-06;0.009921439542976527
1.38675e-06;0.009891296915320043
1.38700e-06;0.009861154287663583
1.38725e-06;0.009831011660007096
1.38750e-06;0.009805335341023838
1.38775e-06;0.00978168980591239
1.38800e-06;0.009758044270800962
1.38825e-06;0.009734398735689535
1.38850e-06;0.009710753200578088
1.38875e-06;0.009696754279370267
1.38900e-06;0.009687141572677934
1.38925e-06;0.009677528865985613
1.38950e-06;0.009667916159293289
1.38975e-06;0.009658303452600958
1.39000e-06;0.009648690745908637
1.39025e-06;0.009639078039216304
1.39050e-06;0.009629465332523983
1.39075e-06;0.009619852625831659
1.39100e-06;0.009610239919139328
1.39125e-06;0.009600627212447005
1.39150e-06;0.009594477919211027
1.39175e-06;0.009603343462244793
1.39200e-06;0.009612209005278566
1.39225e-06;0.00962107454831233
1.39250e-06;0.009629940091346096
1.39275e-06;0.009638805634379868
1.39300e-06;0.009647671177413634
1.39325e-06;0.009656536720447407
1.39350e-06;0.009665402263481173
1.39375e-06;0.009674267806514938
1.39400e-06;0.009683133349548711
1.39425e-06;0.009691998892582477
1.39450e-06;0.009706174392527162
1.39475e-06;0.00972276427437943
1.39500e-06;0.0097393541562317
1.39525e-06;0.009755944038083983
1.39550e-06;0.009772533919936252
1.39575e-06;0.009789123801788535
1.39600e-06;0.009805713683640804
1.39625e-06;0.009822303565493087
1.39650e-06;0.00983742326019768
1.39675e-06;0.009851874476172667
1.39700e-06;0.009866325692147666
1.39725e-06;0.009880776908122653
1.39750e-06;0.009895228124097653
1.39775e-06;0.00990967934007264
1.39800e-06;0.009924130556047626
1.39825e-06;0.009938581772022625
1.39850e-06;0.009953236231440685
1.39875e-06;0.009967983103528017
1.39900e-06;0.009982729975615338
1.39925e-06;0.009997476847702656
1.39950e-06;0.010012223719789989
1.39975e-06;0.010026970591877309
1.40000e-06;0.010041717463964641
1.40025e-06;0.01005646433605196
1.40050e-06;0.010071211208139292
1.40075e-06;0.010093640801527087
1.40100e-06;0.010119563647990078
1.40125e-06;0.010145486494453092
1.40150e-06;0.010171409340916083
1.40175e-06;0.010197332187379097
1.40200e-06;0.010223255033842088
