Time(s);Current(A)
4.25000e-06;-0.0006166995902654781
4.25025e-06;-0.0005919428714585175
4.25050e-06;-0.0005663103033667425
4.25075e-06;-0.0005406777352749675
4.25100e-06;-0.0005150451671831057
4.25125e-06;-0.0004894125990913307
4.25150e-06;-0.00046378003099955574
4.25175e-06;-0.0004381474629076939
4.25200e-06;-0.00041251489481591895
4.25225e-06;-0.0003868823267240571
4.25250e-06;-0.0003571959112750651
4.25275e-06;-0.000327015627142505
4.25300e-06;-0.0002968353430098427
4.25325e-06;-0.00026600151408463047
4.25350e-06;-0.000235088065657758
4.25375e-06;-0.00020417461723078076
4.25400e-06;-0.0001730379077710377
4.25425e-06;-0.0001418739990552122
4.25450e-06;-0.00011071009033928106
4.25475e-06;-8.010540112135637e-05
4.25500e-06;-5.013521012621438e-05
4.25525e-06;-2.090386796654534e-05
4.25550e-06;7.557706063452983e-06
4.25575e-06;3.518869790412642e-05
4.25600e-06;6.183361737411777e-05
4.25625e-06;8.729950927296797e-05
4.25650e-06;0.00011139020109180418
4.25675e-06;0.00013390955777119824
4.25700e-06;0.00015468108763004967
4.25725e-06;0.00017388372715703023
4.25750e-06;0.00019291860725405437
4.25775e-06;0.0002124741941100281
4.25800e-06;0.00023209321718821585
4.25825e-06;0.0002522965901155267
4.25850e-06;0.00027257115272149386
4.25875e-06;0.00029284571532752965
4.25900e-06;0.0003130689449103764
4.25925e-06;0.00033328592073714647
4.25950e-06;0.000353502896563985
4.25975e-06;0.0003757135325125954
4.26000e-06;0.0003981670503984741
4.26025e-06;0.0004206205682844288
4.26050e-06;0.00044463744307492707
4.26075e-06;0.0004688447771867642
4.26100e-06;0.0004930521112985193
4.26125e-06;0.0005183465622683542
4.26150e-06;0.0005437734535903776
4.26175e-06;0.0005692003449123148
4.26200e-06;0.0005965827424986334
4.26225e-06;0.0006242033738464479
4.26250e-06;0.0006518240051941687
4.26275e-06;0.0006794446365418896
4.26300e-06;0.0007070652678897039
4.26325e-06;0.0007346858992374248
4.26350e-06;0.0007625121480532657
4.26375e-06;0.0007903634466600042
4.26400e-06;0.0008182147452666482
4.26425e-06;0.0008460660438732924
4.26450e-06;0.0008739173424800308
4.26475e-06;0.0009017686410866749
4.26500e-06;0.0009269425203387727
4.26525e-06;0.0009517902172127323
4.26550e-06;0.000976637914086692
4.26575e-06;0.0010014856109607359
4.26600e-06;0.0010263333078346956
4.26625e-06;0.0010485607888806939
4.26650e-06;0.0010667140650058881
4.26675e-06;0.001084867341131021
4.26700e-06;0.0011030206172561539
4.26725e-06;0.0011211738933813483
4.26750e-06;0.0011393271695064812
4.26775e-06;0.0011489353526163834
4.26800e-06;0.0011575025113700857
4.26825e-06;0.0011660696701237588
4.26850e-06;0.0011675441201670267
4.26875e-06;0.0011681544856993675
4.26900e-06;0.001168764851231706
4.26925e-06;0.0011633323617721214
4.26950e-06;0.0011571636884914948
4.26975e-06;0.0011446282502266744
4.27000e-06;0.0011313171671085084
4.27025e-06;0.0011180060839903877
4.27050e-06;0.0010977883570751103
4.27075e-06;0.0010767292134076193
4.27100e-06;0.0010556700697401996
4.27125e-06;0.0010285066028988066
4.27150e-06;0.0010005994637426983
4.27175e-06;0.0009726923245866846
4.27200e-06;0.0009395405866210422
4.27225e-06;0.0009057499141125489
4.27250e-06;0.0008719592416041701
4.27275e-06;0.0008344410271561923
4.27300e-06;0.0007964686968851077
4.27325e-06;0.0007584963666141517
4.27350e-06;0.0007179725987348432
4.27375e-06;0.000677137996475278
4.27400e-06;0.0006363033942157129
4.27425e-06;0.0005954687919560093
4.27450e-06;0.0005546341896964441
4.27475e-06;0.000513799587436879
4.27500e-06;0.00047296498517717555
4.27525e-06;0.0004321303829176104
4.27550e-06;0.0003932962184513586
4.27575e-06;0.0003547057616264781
4.27600e-06;0.000317848209424031
4.27625e-06;0.00028267591881049744
4.27650e-06;0.0002493985344049917
4.27675e-06;0.00021828668324538932
4.27700e-06;0.00018959633094907993
4.27725e-06;0.00016321570048358566
4.27750e-06;0.00013848300532899322
4.27775e-06;0.00011484769224901749
4.27800e-06;9.22509359261321e-05
4.27825e-06;7.083507489860318e-05
4.27850e-06;5.0759936802055085e-05
4.27875e-06;3.218530802817445e-05
4.27900e-06;1.5261849754966745e-05
4.27925e-06;-9.016298491292193e-08
4.27950e-06;-1.429496964206246e-05
4.27975e-06;-2.7707074470691547e-05
4.28000e-06;-4.037296328840962e-05
4.28025e-06;-5.2213112629382095e-05
4.28050e-06;-6.31370435902785e-05
4.28075e-06;-7.305431531015396e-05
4.28100e-06;-8.188021500097656e-05
4.28125e-06;-8.967434246800119e-05
4.28150e-06;-9.671209090887273e-05
4.28175e-06;-0.00010322514398411521
4.28200e-06;-0.00010925222732662584
4.28225e-06;-0.00011475313977603648
4.28250e-06;-0.00011968082534403482
4.28275e-06;-0.0001239882498701739
4.28300e-06;-0.0001273598949793263
4.28325e-06;-0.00013062581041785914
4.28350e-06;-0.00013313381357326902
4.28375e-06;-0.0001355494824328812
4.28400e-06;-0.00013751266876741708
4.28425e-06;-0.00013942073044408224
4.28450e-06;-0.0001406826281796034
4.28475e-06;-0.00014186580560171465
4.28500e-06;-0.00014304898302382987
4.28525e-06;-0.00014362846991165644
4.28550e-06;-0.00014413441090031665
4.28575e-06;-0.0001445933603982933
4.28600e-06;-0.0001449792422655528
4.28625e-06;-0.0001453651241328136
4.28650e-06;-0.0001457226941428599
4.28675e-06;-0.00014605427032485886
4.28700e-06;-0.00014632965688000512
4.28725e-06;-0.00014582442526730357
4.28750e-06;-0.00014285689123571215
4.28775e-06;-0.00013613856419202044
4.28800e-06;-0.00012544384714434587
4.28825e-06;-0.00011095965881921416
4.28850e-06;-9.290834046440821e-05
4.28875e-06;-7.151219915391435e-05
4.28900e-06;-4.6975788801978315e-05
4.28925e-06;-1.9069452102364084e-05
4.28950e-06;1.3036045408198694e-05
4.28975e-06;4.992355240734921e-05
4.29000e-06;9.151010299800238e-05
4.29025e-06;0.0001374543195774858
4.29050e-06;0.00018739268486714372
4.29075e-06;0.00024096170420571432
4.29100e-06;0.00029780901495259044
4.29125e-06;0.00035785432806443565
4.29150e-06;0.0004213927989968325
4.29175e-06;0.0004885652774702107
4.29200e-06;0.0005590955619855184
4.29225e-06;0.0006336236030643656
4.29250e-06;0.0007085947210749462
4.29275e-06;0.0007876792261784192
4.29300e-06;0.0008672648535206831
4.29325e-06;0.000946850480862947
4.29350e-06;0.001029885025518921
4.29375e-06;0.0011133397419521433
4.29400e-06;0.0011967944583853654
4.29425e-06;0.0012802491748188703
4.29450e-06;0.001362727239615624
4.29475e-06;0.001443686697106108
4.29500e-06;0.0015246461545963177
4.29525e-06;0.0016056056120865275
4.29550e-06;0.0016865650695770116
4.29575e-06;0.0017601678084207375
4.29600e-06;0.0018328742991758186
4.29625e-06;0.0019055807899311461
4.29650e-06;0.0019682999636805366
4.29675e-06;0.00202980241103235
4.29700e-06;0.002091304858384372
4.29725e-06;0.0021249252342002206
4.29750e-06;0.002161441993815679
4.29775e-06;-0.044510405923726966
4.29800e-06;-0.026086888855464556
4.29825e-06;-0.015706460045579528
4.29850e-06;-0.0074095966727867136
4.29875e-06;0.0070172062486558474
4.29900e-06;0.01581195040484963
4.29925e-06;0.014760575064756181
4.29950e-06;0.007811482429878338
4.29975e-06;-0.0029192095947152595
4.30000e-06;-0.00930909284647721
4.30025e-06;-0.00739198191481078
4.30050e-06;-0.0012207801573001923
4.30075e-06;0.006913089000227991
4.30100e-06;0.011796820122959701
4.30125e-06;0.010889885119870112
4.30150e-06;0.006350631981596187
4.30175e-06;-0.0005174421876000526
4.30200e-06;-0.004640589539694124
4.30225e-06;-0.0035436363854647267
4.30250e-06;0.00022876832766045418
4.30275e-06;0.005237659301240999
4.30300e-06;0.008215680456354157
4.30325e-06;0.007570462740435133
4.30350e-06;0.00465356184754654
4.30375e-06;0.0002813042297759691
4.30400e-06;-0.00236826581998058
4.30425e-06;-0.0017449240440018236
4.30450e-06;0.00055723606597944
4.30475e-06;0.0036368905542988154
4.30500e-06;0.005447585552533083
4.30525e-06;0.0049922387907305864
4.30550e-06;0.003117861505603856
4.30575e-06;0.0003361451429780334
4.30600e-06;-0.0013619499887622677
4.30625e-06;-0.0010052584139266258
4.30650e-06;0.00040779275408714866
4.30675e-06;0.0023127997879481173
4.30700e-06;0.0034281049806052623
4.30725e-06;0.003129238158310344
4.30750e-06;0.0019464896705620575
4.30775e-06;0.0001999445462011111
4.30800e-06;-0.0008636098868205525
4.30825e-06;-0.000636159493102632
4.30850e-06;0.0002565734045042432
4.30875e-06;0.0014607832820839363
4.30900e-06;0.0021734311898404784
4.30925e-06;0.002003193797794554
4.30950e-06;0.0012820919221590956
4.30975e-06;0.0002104501247343736
4.31000e-06;-0.0004309668954347808
4.31025e-06;-0.0002615736140087845
4.31050e-06;0.0003264054080448629
4.31075e-06;0.0011111023871579304
4.31100e-06;0.0015892834252180664
4.31125e-06;0.0015156475627706876
4.31150e-06;0.0010979974579851406
4.31175e-06;0.00046162633278647907
4.31200e-06;9.538665188330919e-05
4.31225e-06;0.0002374262176231858
4.31250e-06;0.0006418061038475508
4.31275e-06;0.0011693164387464846
4.31300e-06;0.0015045211453751266
4.31325e-06;0.0014935745095441479
4.31350e-06;0.0012664555975756913
4.31375e-06;0.0009014503861029344
4.31400e-06;0.0007045604587555147
4.31425e-06;0.000824725717252115
4.31450e-06;0.0011076552366183672
4.31475e-06;0.0014659242833019164
4.31500e-06;0.0017017332892749792
4.31525e-06;0.001718516356342743
4.31550e-06;0.0015974959211120545
4.31575e-06;0.0013875081712737718
4.31600e-06;0.0012800190869614527
4.31625e-06;0.0013680986133764472
4.31650e-06;0.001554873669264135
4.31675e-06;0.0017853630053224986
4.31700e-06;0.0019354434589669905
4.31725e-06;0.0019443656444457444
4.31750e-06;0.0018627552986056162
4.31775e-06;0.001721132677190491
4.31800e-06;0.0016395741452345086
4.31825e-06;0.001676598278537311
4.31850e-06;0.0017717503339362386
4.31875e-06;0.0018908211313967674
4.31900e-06;0.001956296104959257
4.31925e-06;0.0019303632509628172
4.31950e-06;0.0018449764784532303
4.31975e-06;0.0017194932691988703
4.32000e-06;0.00162936455201647
4.32025e-06;0.0016114766186980391
4.32050e-06;0.001628191208343713
4.32075e-06;0.001658312881370966
4.32100e-06;0.0016535230670696606
4.32125e-06;0.0015903763220259785
4.32150e-06;0.0014891285347573252
4.32175e-06;0.0013621437842233186
4.32200e-06;0.0012569204100144067
4.32225e-06;0.001196796774347548
4.32250e-06;0.001158429275646163
4.32275e-06;0.0011287756553283804
4.32300e-06;0.0010778058772424215
4.32325e-06;0.0009910724832870002
4.32350e-06;0.0008815026209585635
4.32375e-06;0.0007570791569245366
4.32400e-06;0.0006477912634234649
4.32425e-06;0.0005684923697356709
4.32450e-06;0.0005047943574101546
4.32475e-06;0.00044876302614219076
4.32500e-06;0.0003818243397028277
4.32525e-06;0.00029516639408324805
4.32550e-06;0.00019712478094358955
4.32575e-06;9.29374209034201e-05
4.32600e-06;1.6259395188589435e-06
4.32625e-06;-6.727032801743801e-05
4.32650e-06;-0.00012252892273227387
4.32675e-06;-0.00016888395739128495
4.32700e-06;-0.0002178567322209864
4.32725e-06;-0.00027563807295741776
4.32750e-06;-0.00033876384134517995
4.32775e-06;-0.0004055776251700728
4.32800e-06;-0.0004647377617151772
4.32825e-06;-0.0005102956914305811
4.32850e-06;-0.0005477237853591825
4.32875e-06;-0.0005799612827664248
4.32900e-06;-0.0006141984416357496
4.32925e-06;-0.0006542858769563842
4.32950e-06;-0.0006980262919465102
4.32975e-06;-0.000744354988774339
4.33000e-06;-0.00078614065510799
4.33025e-06;-0.0008196307173121309
4.33050e-06;-0.0008474149783687584
4.33075e-06;-0.0008730906686359934
4.33100e-06;-0.0009006568413281792
4.33125e-06;-0.00093135276095339
4.33150e-06;-0.0009648334701375539
4.33175e-06;-0.000999512168422223
4.33200e-06;-0.0010299322147501611
4.33225e-06;-0.0010569294517507755
4.33250e-06;-0.0010810493359050407
4.33275e-06;-0.0011028566032356276
4.33300e-06;-0.0011262593342083983
4.33325e-06;-0.0011509443882946307
4.33350e-06;-0.001176224621745144
4.33375e-06;-0.0012019832191241609
4.33400e-06;-0.0012277418165030903
4.33425e-06;-0.0012498741906470522
4.33450e-06;-0.0012690920578443865
4.33475e-06;-0.0012883099250416555
4.33500e-06;-0.0013075277922389248
4.33525e-06;-0.001326671332193136
4.33550e-06;-0.0013445230526537165
4.33575e-06;-0.0013623747731142967
4.33600e-06;-0.0013802264935749377
4.33625e-06;-0.0013980782140355181
4.33650e-06;-0.0014130644639279548
4.33675e-06;-0.0014257476471488842
4.33700e-06;-0.0014384308303697706
4.33725e-06;-0.0014511154974974625
4.33750e-06;-0.001463825955165208
4.33775e-06;-0.00147653641283291
4.33800e-06;-0.0014892468705006553
4.33825e-06;-0.001500953709251
4.33850e-06;-0.0015117083462721265
4.33875e-06;-0.0015223459903296352
4.33900e-06;-0.0015329836343871076
4.33925e-06;-0.0015436212784445801
4.33950e-06;-0.0015542589225020888
4.33975e-06;-0.0015648965665595613
4.34000e-06;-0.0015755342106170338
4.34025e-06;-0.0015861718546745424
4.34050e-06;-0.001596809498732015
4.34075e-06;-0.001607610210246167
4.34100e-06;-0.0016185419840817903
4.34125e-06;-0.0016294737579173764
4.34150e-06;-0.0016404055317529626
4.34175e-06;-0.0016513373055885858
4.34200e-06;-0.001662269079424172
4.34225e-06;-0.0016732008532597952
4.34250e-06;-0.0016841326270953813
4.34275e-06;-0.0016950644009309675
4.34300e-06;-0.001705869409163514
4.34325e-06;-0.0017165725319888759
4.34350e-06;-0.0017272756548142377
4.34375e-06;-0.0017379787776396357
4.34400e-06;-0.0017486819004649975
4.34425e-06;-0.0017593850232903593
4.34450e-06;-0.0017700881461157573
4.34475e-06;-0.001780791268941119
4.34500e-06;-0.001790307402637055
4.34525e-06;-0.0017988695167268115
4.34550e-06;-0.001807431630816539
4.34575e-06;-0.0018159937449062663
4.34600e-06;-0.0018245558589960228
4.34625e-06;-0.0018331179730857502
4.34650e-06;-0.0018416800871755067
4.34675e-06;-0.001850242201265234
4.34700e-06;-0.0018564496511128536
4.34725e-06;-0.0018607645850163836
4.34750e-06;-0.001865079518919899
4.34775e-06;-0.0018641909092529652
4.34800e-06;-0.001859120051859703
4.34825e-06;-0.001854049194466458
4.34850e-06;-0.0018436631583781313
4.34875e-06;-0.0018290051499864233
4.34900e-06;-0.0018143471415947648
4.34925e-06;-0.001794092123686585
4.34950e-06;-0.0017693386173911181
4.34975e-06;-0.0017445851110957351
4.35000e-06;-0.0017134218038003751
4.35025e-06;-0.0016771067426482706
4.35050e-06;-0.0016407916814962895
4.35075e-06;-0.0015993021204078444
4.35100e-06;-0.001553653654853925
4.35125e-06;-0.0015080051893000056
4.35150e-06;-0.0014574756505708773
4.35175e-06;-0.0014030230434731521
4.35200e-06;-0.001348570436375427
4.35225e-06;-0.0012901927864873242
4.35250e-06;-0.0012286604592029087
4.35275e-06;-0.001167128131918493
4.35300e-06;-0.0011030295279345086
4.35325e-06;-0.0010368683285780793
4.35350e-06;-0.00097070712922165
4.35375e-06;-0.0009045459298649966
4.35400e-06;-0.00083748595911078
4.35425e-06;-0.0007697036181902497
4.35450e-06;-0.0007019212772694898
4.35475e-06;-0.0006341389363489595
4.35500e-06;-0.0005677736343441711
4.35525e-06;-0.0005025472500220121
4.35550e-06;-0.0004386319034184199
4.35575e-06;-0.0003768620121570497
4.35600e-06;-0.0003172835312412874
4.35625e-06;-0.00026032281281909833
4.35650e-06;-0.0002064274093398523
4.35675e-06;-0.00015604116626419435
4.35700e-06;-0.00010948529984107726
4.35725e-06;-6.626361681711598e-05
4.35750e-06;-2.4768588360349045e-05
4.35775e-06;1.6417136987643883e-05
4.35800e-06;5.758625297594877e-05
4.35825e-06;9.844511832261398e-05
4.35850e-06;0.00013863448649246638
4.35875e-06;0.00017779744764838314
4.35900e-06;0.0002154262003124403
4.35925e-06;0.00025224607225445684
4.35950e-06;0.0002890659441963487
4.35975e-06;0.0003266276233660553
4.36000e-06;0.0003647855157796478
4.36025e-06;0.00040297288292547945
4.36050e-06;0.0004416725256805444
4.36075e-06;0.00048037216843574047
4.36100e-06;0.0005190887081318242
4.36125e-06;0.0005578188284181697
4.36150e-06;0.0005965489487046464
4.36175e-06;0.0006352790689909919
4.36200e-06;0.0006740091892773374
4.36225e-06;0.000713166715685739
4.36250e-06;0.0007526677615162867
4.36275e-06;0.0007921688073468346
4.36300e-06;0.0008316698531775162
4.36325e-06;0.0008711708990080641
4.36350e-06;0.0009097508982145712
4.36375e-06;0.0009475906239714357
4.36400e-06;0.0009854303497283004
4.36425e-06;0.001023270075485293
4.36450e-06;0.0010611098012421577
4.36475e-06;0.0010989495269990222
4.36500e-06;0.0011364506895339542
4.36525e-06;0.0011680675685879494
4.36550e-06;0.0011996844476419447
4.36575e-06;0.001231301326696047
4.36600e-06;0.0012629182057500422
4.36625e-06;0.0012945350848040374
4.36650e-06;0.0013261519638581398
4.36675e-06;0.0013536202680657847
4.36700e-06;0.001377754235301469
4.36725e-06;0.0014018882025372353
4.36750e-06;0.0014260221697729196
4.36775e-06;0.0014501561370086858
4.36800e-06;0.001475782095099342
4.36825e-06;0.0015026072120466352
4.36850e-06;0.0015294323289940194
4.36875e-06;0.0015562574459413126
4.36900e-06;0.001583082562888606
4.36925e-06;0.0016144721630556866
4.36950e-06;0.0016495303785231529
4.36975e-06;0.0016845885939906192
4.37000e-06;0.0017196468094582043
4.37025e-06;0.0017547050249256705
4.37050e-06;0.0017897632403931368
4.37075e-06;0.0018248214558607217
4.37100e-06;0.001859879671328188
4.37125e-06;0.0018949378867956542
4.37150e-06;0.001935444544627465
4.37175e-06;0.001980330282862846
4.37200e-06;0.002025216021098379
4.37225e-06;0.00207010175933376
4.37250e-06;0.002114987497569141
4.37275e-06;0.002159873235804674
4.37300e-06;0.0022047589740400546
4.37325e-06;0.0022496447122754355
4.37350e-06;0.0022945304505109687
4.37375e-06;0.002340157639355378
4.37400e-06;0.0023863807548179135
4.37425e-06;0.002432603870280605
4.37450e-06;0.0024788269857431407
4.37475e-06;0.002525050101205676
4.37500e-06;0.002571273216668368
4.37525e-06;0.0026170649902104216
4.37550e-06;0.002655359971515828
4.37575e-06;0.0026936549528213632
4.37600e-06;0.002731949934126769
4.37625e-06;0.0027702449154323044
4.37650e-06;0.0028085398967377107
4.37675e-06;0.0028468348780431164
4.37700e-06;0.0028778592232312516
4.37725e-06;0.0029030399349526323
4.37750e-06;0.0029282206466740126
4.37775e-06;0.0029440173386476123
4.37800e-06;0.0029522718058468587
4.37825e-06;0.0029605262730461046
4.37850e-06;0.002959113727930605
4.37875e-06;0.0029499315082266125
4.37900e-06;0.0029407492885226206
4.37925e-06;0.0029213545094830683
4.37950e-06;0.002893751582965542
4.37975e-06;0.002866148656448016
4.38000e-06;0.002827923547782512
4.38025e-06;0.0027811610652089236
4.38050e-06;0.0027343985826351765
4.38075e-06;0.0026785626535760073
4.38100e-06;0.0026154341170089154
4.38125e-06;0.0025523055804416096
4.38150e-06;0.0024808790409102297
4.38175e-06;0.0024027831416362777
4.38200e-06;0.002324687242362061
4.38225e-06;0.0022400442194807153
4.38250e-06;0.002150139072350425
4.38275e-06;0.0020602339252198294
4.38300e-06;0.001965616389265355
4.38325e-06;0.0018672113617361301
4.38350e-06;0.001768806334206572
4.38375e-06;0.0016704013066773473
4.38400e-06;0.0015701736620144949
4.38425e-06;0.0014684811240041938
4.38450e-06;0.0013667885859942374
4.38475e-06;0.0012650960479839363
4.38500e-06;0.0011658181385647436
4.38525e-06;0.001068480940276253
4.38550e-06;0.0009711437419874329
4.38575e-06;0.0008777060011998461
4.38600e-06;0.0007874023741242187
4.38625e-06;0.0007004704709575063
4.38650e-06;0.0006189862110508819
4.38675e-06;0.0005428074645728593
4.38700e-06;0.0004725097337663254
4.38725e-06;0.00040809997581114465
4.38750e-06;0.00034876505520684334
4.38775e-06;0.00029370703915032945
4.38800e-06;0.00024281759524993942
4.38825e-06;0.00019636041518316706
4.38850e-06;0.00015463566620609574
4.38875e-06;0.00011794346385180653
4.38900e-06;8.652918676982055e-05
4.38925e-06;6.028212252054343e-05
4.38950e-06;3.8577887046675025e-05
4.38975e-06;2.0801643729647434e-05
4.39000e-06;6.770556360051053e-06
4.39025e-06;-3.465160296944441e-06
4.39050e-06;-9.832454681631626e-06
4.39075e-06;-1.2258340539969831e-05
4.39100e-06;-1.0704113777461417e-05
4.39125e-06;-5.354124359989256e-06
4.39150e-06;3.2855367349418267e-06
4.39175e-06;1.4714802765599302e-05
4.39200e-06;2.870423757184228e-05
4.39225e-06;4.517039701970346e-05
4.39250e-06;6.404414359327933e-05
4.39275e-06;8.525630399069995e-05
4.39300e-06;0.00010871622304453166
4.39325e-06;0.00013419353983836808
4.39350e-06;0.00016125639497666455
4.39375e-06;0.00018947671064883023
4.39400e-06;0.00021877931711710742
4.39425e-06;0.00024859446701807654
4.39450e-06;0.00027903613517187725
4.39475e-06;0.0003099813552804365
4.39500e-06;0.0003409265753888909
4.39525e-06;0.0003715031080739808
