Time(s);Current(A)
1.20000e-05;0.00036525104887825304
1.20003e-05;0.00034278343831847845
1.20005e-05;0.00032275794501539223
1.20008e-05;0.00030527690962976555
1.20010e-05;0.0002904426671475257
1.20013e-05;0.0002783563002912159
1.20015e-05;0.0002690706240488431
1.20018e-05;0.00026249222664961804
1.20020e-05;0.00025841525781133496
1.20023e-05;0.00025669088367344037
1.20025e-05;0.0002572706554861446
1.20028e-05;0.00026013629604393633
1.20030e-05;0.00026526951654847565
1.20033e-05;0.00027265124556714773
1.20035e-05;0.0002822321696590204
1.20038e-05;0.0002938713706500652
1.20040e-05;0.0003073575247201535
1.20043e-05;0.0003228142344149396
1.20045e-05;0.00033968314924159843
1.20048e-05;0.00035767407683542457
1.20050e-05;0.0003773598204448679
1.20052e-05;0.00039819427305567203
1.20055e-05;0.000420763866718689
1.20058e-05;0.0004433334603817059
1.20060e-05;0.0004667680813401147
1.20063e-05;0.0004915093381566343
1.20065e-05;0.000516250594973154
1.20068e-05;0.0005409918517896736
1.20070e-05;0.0005657331086060256
1.20073e-05;0.0005904743654225452
1.20075e-05;0.0006152156222390649
1.20078e-05;0.0006399568790554168
1.20080e-05;0.0006646981358719364
1.20083e-05;0.0006882877919330768
1.20085e-05;0.0007101379389070552
1.20088e-05;0.0007319880858811818
1.20090e-05;0.0007522085047369855
1.20093e-05;0.0007699671964202767
1.20095e-05;0.0007877258881036883
1.20098e-05;0.0008036075622676464
1.20100e-05;0.0008166539751515053
1.20103e-05;0.0008297003880354527
1.20105e-05;0.0008408412728958418
1.20108e-05;0.0008491038309598989
1.20110e-05;0.0008573663890240119
1.20113e-05;0.000863585820524177
1.20115e-05;0.0008667190807034809
1.20118e-05;0.0008698523408828061
1.20120e-05;0.0008710930646778866
1.20123e-05;0.0008694750857300359
1.20125e-05;0.0008678571067821742
1.20128e-05;0.0008644866631163685
1.20130e-05;0.0008584690969235005
1.20133e-05;0.0008524515307305918
1.20135e-05;0.0008448418897607476
1.20137e-05;0.0008348273975185288
1.20140e-05;0.0008248129052762423
1.20143e-05;0.0008130319867476741
1.20145e-05;0.0007985828565473014
1.20148e-05;0.000784133726346831
1.20150e-05;0.0007696845961463605
1.20153e-05;0.00075523546594589
1.20155e-05;0.0007407863357455174
1.20158e-05;0.000725069272555645
1.20160e-05;0.000707436978807907
1.20163e-05;0.0006898046850602885
1.20165e-05;0.0006721723913125505
1.20168e-05;0.0006545400975648125
1.20170e-05;0.0006369078038171939
1.20173e-05;0.000619441975398704
1.20175e-05;0.0006022275951940263
1.20178e-05;0.0005850132149894655
1.20180e-05;0.0005677988347847878
1.20183e-05;0.0005505844545801103
1.20185e-05;0.0005348109777879889
1.20188e-05;0.0005212140058030362
1.20190e-05;0.0005076170338180835
1.20193e-05;0.000494020061833223
1.20195e-05;0.00048042308984827027
1.20198e-05;0.0004687320504745511
1.20200e-05;0.00045991994903317533
1.20203e-05;0.00045259833679132515
1.20205e-05;0.00044752812938360993
1.20208e-05;0.00044394317703648495
1.20210e-05;0.0004426017232830686
1.20213e-05;0.00044274276550918836
1.20215e-05;0.00044512313869840607
1.20218e-05;0.00044909537992650404
1.20220e-05;0.0004554721601468331
1.20222e-05;0.00046344295306980656
1.20225e-05;0.0004738215245298301
1.20228e-05;0.00048565592858113363
1.20230e-05;0.0004996893881736491
1.20233e-05;0.0005147247187833839
1.20235e-05;0.0005322234293206469
1.20238e-05;0.0005511571881587491
1.20240e-05;0.000571559052475067
1.20243e-05;0.0005941785107009332
1.20245e-05;0.0006167979689267992
1.20248e-05;0.0006407644692554003
1.20250e-05;0.0006667656955675708
1.20253e-05;0.0006927669218797412
1.20255e-05;0.0007198370057901642
1.20258e-05;0.000748521614089788
1.20260e-05;0.0007772062223894118
1.20263e-05;0.0008058908306888414
1.20265e-05;0.0008345754389884651
1.20268e-05;0.000863260047288089
1.20270e-05;0.0008915953054497118
1.20273e-05;0.0009198910230751671
1.20275e-05;0.0009481867407006225
1.20278e-05;0.0009764824583258862
1.20280e-05;0.0010047781759513416
1.20283e-05;0.001031643003373424
1.20285e-05;0.001056346451080254
1.20288e-05;0.0010810498987872514
1.20290e-05;0.0011038821485496427
1.20293e-05;0.0011238879275799294
1.20295e-05;0.0011438937066103518
1.20298e-05;0.0011611328770192411
1.20300e-05;0.0011741930463136292
1.20303e-05;0.0011872532156081057
1.20305e-05;0.0011971273959623216
1.20307e-05;0.0012021890953502381
1.20310e-05;0.0012072507947381889
1.20313e-05;0.0012090651716643176
1.20315e-05;0.001205974422480041
1.20318e-05;0.0012028836732957435
1.20320e-05;0.0011964219917274194
1.20323e-05;0.001184868469528001
1.20325e-05;0.0011733149473286608
1.20328e-05;0.0011586822597693198
1.20330e-05;0.0011393984497597607
1.20333e-05;0.0011201146397503325
1.20335e-05;0.0010980994940769562
1.20338e-05;0.0010719586275862543
1.20340e-05;0.0010458177610957297
1.20343e-05;0.0010173525581736655
1.20345e-05;0.0009853764124814958
1.20348e-05;0.0009534002667895429
1.20350e-05;0.0009194450794080891
1.20353e-05;0.0008825005218058823
1.20355e-05;0.0008455559642039257
1.20358e-05;0.0008086114066017189
1.20360e-05;0.000771666848999512
1.20363e-05;0.0007323570565757444
1.20365e-05;0.0006927795595098493
1.20368e-05;0.0006532020624439542
1.20370e-05;0.0006136245653783272
1.20373e-05;0.0005744793256308071
1.20375e-05;0.0005359870166236342
1.20378e-05;0.0004974947076167224
1.20380e-05;0.00045999567551403337
1.20383e-05;0.00042399700210294717
1.20385e-05;0.0003892552639994468
1.20388e-05;0.0003564121443018015
1.20390e-05;0.00032477089421838694
1.20392e-05;0.0002958808772248174
1.20395e-05;0.00026930214373020695
1.20398e-05;0.00024473224400676634
1.20400e-05;0.0002216066103924666
1.20403e-05;0.0001996247331814024
1.20405e-05;0.00017883452714463526
1.20408e-05;0.00015938173563145278
1.20410e-05;0.0001414120611727632
1.20413e-05;0.000125068907970035
1.20415e-05;0.00011040572228285547
1.20418e-05;9.721569309127979e-05
1.20420e-05;8.512787982969704e-05
1.20423e-05;7.393676434679822e-05
1.20425e-05;6.36550879887608e-05
1.20428e-05;5.435685886763166e-05
1.20430e-05;4.611606847675835e-05
1.20433e-05;3.9005240130235686e-05
1.20435e-05;3.3040556390664954e-05
1.20438e-05;2.8075184245386842e-05
1.20440e-05;2.3859487710672283e-05
1.20443e-05;2.024746926526591e-05
1.20445e-05;1.72298579764033e-05
1.20448e-05;1.4835760240941138e-05
1.20450e-05;1.3094264111334877e-05
1.20453e-05;1.2033538613255945e-05
1.20455e-05;1.164645668471434e-05
1.20458e-05;1.182378467798143e-05
1.20460e-05;1.239190419185121e-05
1.20463e-05;1.3242128000255585e-05
1.20465e-05;1.4351420407838576e-05
1.20468e-05;1.572078588948461e-05
1.20470e-05;1.7351213451054565e-05
1.20473e-05;1.924311820262829e-05
1.20475e-05;2.1389474888867943e-05
1.20477e-05;2.3682784878761578e-05
1.20480e-05;2.5958246338619263e-05
1.20483e-05;2.820674734356149e-05
1.20485e-05;3.0376590990908635e-05
1.20488e-05;3.2427621596707225e-05
1.20490e-05;3.4403149891776165e-05
1.20493e-05;3.620529035798484e-05
1.20495e-05;3.784498043729164e-05
1.20498e-05;3.928032054255787e-05
1.20500e-05;4.0464016021577386e-05
1.20503e-05;4.137109962215063e-05
1.20505e-05;4.1998510136627345e-05
1.20508e-05;4.234874614712672e-05
1.20510e-05;4.242429966913313e-05
1.20513e-05;4.2227540993966246e-05
1.20515e-05;4.17564715542115e-05
1.20518e-05;4.09977226377455e-05
1.20520e-05;3.99345569163947e-05
1.20523e-05;3.8564220690748295e-05
1.20525e-05;3.689767857331292e-05
1.20528e-05;3.494937990657451e-05
1.20530e-05;3.2733770364602106e-05
1.20533e-05;3.026521957434133e-05
1.20535e-05;2.7555357161139615e-05
1.20538e-05;2.460869333759907e-05
1.20540e-05;2.1427623783037105e-05
1.20543e-05;1.8023305904159947e-05
1.20545e-05;1.4415492232192033e-05
1.20548e-05;1.0626113043011364e-05
1.20550e-05;6.677097903105084e-06
1.20553e-05;2.5903232753811503e-06
1.20555e-05;-1.6140490277178704e-06
1.20558e-05;-5.920317682021102e-06
1.20560e-05;-1.0324665826270156e-05
1.20562e-05;-1.4791504899087394e-05
1.20565e-05;-1.9275671249650377e-05
1.20568e-05;-2.3786010696171432e-05
1.20570e-05;-2.8296350142661923e-05
1.20573e-05;-3.274503002085484e-05
1.20575e-05;-3.710057225647454e-05
1.20578e-05;-4.145611449209424e-05
1.20580e-05;-4.5697001501593425e-05
1.20583e-05;-4.9764700184368215e-05
1.20585e-05;-5.3689664967897444e-05
1.20588e-05;-5.739902819511677e-05
1.20590e-05;-6.0918790097357604e-05
1.20593e-05;-6.415215653950338e-05
1.20595e-05;-6.718448393253249e-05
1.20598e-05;-6.99131390228552e-05
1.20600e-05;-7.249613376216875e-05
1.20603e-05;-7.485910649874421e-05
1.20605e-05;-7.707360328849534e-05
1.20608e-05;-7.90638250785334e-05
1.20610e-05;-8.088324178317159e-05
1.20613e-05;-8.244465501121774e-05
1.20615e-05;-8.380210008172941e-05
1.20618e-05;-8.485144839011665e-05
1.20620e-05;-8.590079669851101e-05
1.20623e-05;-8.676129962761415e-05
1.20625e-05;-8.733654896318492e-05
1.20628e-05;-8.791179829875958e-05
1.20630e-05;-8.829239234138863e-05
1.20633e-05;-8.837895683444338e-05
1.20635e-05;-8.846552132749872e-05
1.20638e-05;-8.839121574548121e-05
1.20640e-05;-8.80739136592466e-05
1.20643e-05;-8.775661157300984e-05
1.20645e-05;-8.725696527764658e-05
1.20647e-05;-8.648188549746523e-05
1.20650e-05;-8.570680571727863e-05
1.20653e-05;-8.493172593709205e-05
1.20655e-05;-8.415664615691069e-05
1.20658e-05;-8.338156637672409e-05
1.20660e-05;-8.260648659653749e-05
1.20663e-05;-8.153345787584314e-05
1.20665e-05;-8.042670636626673e-05
1.20668e-05;-7.931995485668281e-05
1.20670e-05;-7.82132033470989e-05
1.20673e-05;-7.710645183752249e-05
1.20675e-05;-7.599970032793857e-05
1.20678e-05;-7.490247016715317e-05
1.20680e-05;-7.381962213725086e-05
1.20683e-05;-7.27367741073412e-05
1.20685e-05;-7.165392607743155e-05
1.20688e-05;-7.061776650978004e-05
1.20690e-05;-6.967710136177327e-05
1.20693e-05;-6.879761300710765e-05
1.20695e-05;-6.780630970661919e-05
1.20698e-05;-6.604167921356002e-05
1.20700e-05;-6.259864619659066e-05
1.20703e-05;-5.6997755992526254e-05
1.20705e-05;-4.924058979302216e-05
1.20708e-05;-3.945751530844695e-05
1.20710e-05;-2.77788929732661e-05
1.20713e-05;-1.4332175577720736e-05
1.20715e-05;8.655354683428399e-07
1.20718e-05;1.8103118659164454e-05
1.20720e-05;3.78219920083191e-05
1.20723e-05;6.019692525028143e-05
1.20725e-05;8.510136197375426e-05
1.20728e-05;0.00011232808432485337
1.20730e-05;0.0001416698846842854
1.20732e-05;0.00017292139430655803
1.20735e-05;0.00020594639445718597
1.20738e-05;0.0002408003102592533
1.20740e-05;0.00027763409007676567
1.20743e-05;0.0003167513814591097
1.20745e-05;0.0003574711618315654
1.20748e-05;0.0003992664505429118
1.20750e-05;0.0004426863096818663
1.20753e-05;0.00048713357872618075
1.20755e-05;0.0005331327648396575
1.20758e-05;0.0005791319509528225
1.20760e-05;0.0006251311370662993
1.20763e-05;0.000671130323179776
1.20765e-05;0.0007178238077527639
1.20768e-05;0.0007645958751878497
1.20770e-05;0.0008113679426229354
1.20773e-05;0.0008581400100577043
1.20775e-05;0.0009037138325544313
1.20778e-05;0.0009474776892684019
1.20780e-05;0.0009912415459820756
1.20783e-05;0.0010331334319011354
1.20785e-05;0.0010721976796831672
1.20788e-05;0.001111261927464934
1.20790e-05;0.0011474175473749312
1.20793e-05;0.0011791796440953684
1.20795e-05;0.0012109417408155904
1.20798e-05;0.0012393968818295211
1.20800e-05;0.0012628568198738705
1.20803e-05;0.0012863167579180608
1.20805e-05;0.00130644573547804
1.20808e-05;0.0013215432505147024
1.20810e-05;0.0013366407655512624
1.20813e-05;0.0013481557568321145
1.20815e-05;0.0013542592957401926
1.20817e-05;0.0013603628346482294
1.20820e-05;0.001363173004585121
1.20823e-05;0.001361008494506383
1.20825e-05;0.0013588439844276596
1.20828e-05;0.0013536269878368637
1.20830e-05;0.0013437991675631044
1.20833e-05;0.001333971347289345
1.20835e-05;0.001321366067556752
1.20838e-05;0.0013045653963617615
1.20840e-05;0.001287764725166771
1.20843e-05;0.0012687657696763622
1.20845e-05;0.0012464462749297368
1.20848e-05;0.0012241267801831113
1.20850e-05;0.001199580118965567
1.20853e-05;0.0011716692915604936
1.20855e-05;0.0011437584641554202
1.20858e-05;0.0011158476367505359
1.20860e-05;0.0010879368093454625
1.20863e-05;0.001060025981940389
1.20865e-05;0.0010297531954597038
1.20868e-05;0.0009992130750951136
1.20870e-05;0.0009686729547305235
1.20873e-05;0.0009381328343661404
1.20875e-05;0.0009075927140015502
1.20878e-05;0.0008782221813697041
1.20880e-05;0.0008506183274103009
1.20883e-05;0.0008230144734507108
1.20885e-05;0.0007954106194911206
1.20888e-05;0.0007678067655317174
1.20890e-05;0.0007434651098828602
1.20893e-05;0.0007240510505307305
1.20895e-05;0.0007046369911787324
1.20898e-05;0.0006852229318266027
1.20900e-05;0.000665808872474473
1.20902e-05;0.0006495811227931114
1.20905e-05;0.0006381663385535063
1.20908e-05;0.0006286973440511993
1.20910e-05;0.0006221674922346268
1.20913e-05;0.0006176326530885335
1.20915e-05;0.0006161113085590635
1.20918e-05;0.0006166130196288925
1.20920e-05;0.0006201705845524202
1.20923e-05;0.0006256755737949443
1.20925e-05;0.0006341221747816175
1.20928e-05;0.0006443927949708365
1.20930e-05;0.000657418621745374
1.20933e-05;0.0006721440192562008
1.20935e-05;0.000689436642198561
1.20938e-05;0.0007082911136807531
1.20940e-05;0.0007295047792853444
1.20943e-05;0.0007523690013628092
1.20945e-05;0.0007777264121401694
1.20948e-05;0.0008030838229175296
1.20950e-05;0.0008303768460272143
1.20953e-05;0.0008605936387102467
1.20955e-05;0.0008908104313932791
1.20958e-05;0.0009210272240761068
1.20960e-05;0.0009512440167591392
1.20963e-05;0.0009814608094421717
1.20965e-05;0.001013453264089725
1.20968e-05;0.0010456466936884792
1.20970e-05;0.0010778401232872333
1.20973e-05;0.0011100335528857691
1.20975e-05;0.0011422269824845233
1.20978e-05;0.001172924589680923
1.20980e-05;0.0012013627361608353
1.20983e-05;0.0012298008826409404
1.20985e-05;0.0012582390291210456
1.20987e-05;0.001286677175600958
1.20990e-05;0.0013151153220810632
1.20993e-05;0.0013338342788699314
1.20995e-05;0.0013514531875013426
1.20998e-05;0.0013690720961328732
1.21000e-05;0.001386691004764404
1.21003e-05;0.0014043099133959347
1.21005e-05;0.0014167568076334262
1.21008e-05;0.0014213913015953773
1.21010e-05;0.0014260257955573286
1.21013e-05;0.0014268100808037378
1.21015e-05;0.001421778571789259
1.21018e-05;0.0014167470627747803
1.21020e-05;0.0014076576952145098
1.21023e-05;0.0013924388754124693
1.21025e-05;0.0013772200556104288
1.21028e-05;0.0013583009139773758
1.21030e-05;0.0013337923843242238
1.21033e-05;0.001309283854671072
1.21035e-05;0.0012815030549028846
1.21038e-05;0.0012487794452343715
1.21040e-05;0.0012160558355658584
1.21043e-05;0.001180523775081079
1.21045e-05;0.0011407495102512247
1.21048e-05;0.0011009752454213704
1.21050e-05;0.0010591908548040615
1.21053e-05;0.0010143701409934388
1.21055e-05;0.000969549427182816
1.21058e-05;0.0009233267321328088
1.21060e-05;0.0008749863247580282
1.21063e-05;0.0008266459173832476
1.21065e-05;0.0007783055100087946
1.21068e-05;0.000729965102634014
1.21070e-05;0.0006816246952592332
1.21072e-05;0.0006332842878847803
1.21075e-05;0.0005849438805099996
1.21078e-05;0.0005376211769868117
1.21080e-05;0.0004918357294045195
1.21083e-05;0.0004473451950668853
1.21085e-05;0.00040481064534629997
1.21088e-05;0.0003635647023997316
1.21090e-05;0.00032529450599212006
1.21093e-05;0.00028973031899091184
1.21095e-05;0.00025696639204587126
1.21098e-05;0.00022646436109367084
1.21100e-05;0.00019730316843539117
1.21103e-05;0.00016899309723495618
1.21105e-05;0.00014159319959768153
1.21108e-05;0.00011531497891645704
1.21110e-05;9.036989646949896e-05
1.21113e-05;6.696583540931916e-05
1.21115e-05;4.51725507360042e-05
1.21118e-05;2.466349405793965e-05
1.21120e-05;4.872446696141787e-06
1.21123e-05;-1.4496558224442973e-05
1.21125e-05;-3.339574993328575e-05
1.21128e-05;-5.168185903712938e-05
1.21130e-05;-6.921165397197085e-05
1.21133e-05;-8.584415731160866e-05
1.21135e-05;-0.00010152493054232127
1.21138e-05;-0.00011644776395007898
1.21140e-05;-0.00013095655479797172
1.21143e-05;-0.0001451580373859936
1.21145e-05;-0.0001591125528384903
1.21148e-05;-0.00017271557527771846
1.21150e-05;-0.00018578766259067843
1.21153e-05;-0.00019837697448186637
1.21155e-05;-0.00021023704732745947
1.21158e-05;-0.00022174203339869617
1.21160e-05;-0.0002327106559173995
1.21163e-05;-0.00024367927843610285
1.21165e-05;-0.0002542904685751514
1.21168e-05;-0.0002643617520919359
1.21170e-05;-0.0002744330356087204
1.21173e-05;-0.0002839531791627205
1.21175e-05;-0.0002926408180731489
1.21178e-05;-0.0003013284569836362
1.21180e-05;-0.00030961898530148846
1.21183e-05;-0.00031730967249962824
1.21185e-05;-0.0003250003596978201
1.21188e-05;-0.00033230636376084386
1.21190e-05;-0.0003390312985529444
1.21193e-05;-0.0003452521330091015
1.21195e-05;-0.00035071151683768547
1.21198e-05;-0.00035515894393432844
1.21200e-05;-0.00035697044249687494
1.21203e-05;-0.00035596464329074214
1.21205e-05;-0.0003521312600144791
1.21208e-05;-0.0003455857941783246
1.21210e-05;-0.0003364437413743467
1.21213e-05;-0.00032481782084631917
1.21215e-05;-0.0003107145152322613
1.21218e-05;-0.0002938484993004227
1.21220e-05;-0.00027379775278794704
1.21223e-05;-0.0002504100910333674
1.21225e-05;-0.0002238303858691207
1.21228e-05;-0.0001942823149062808
1.21230e-05;-0.00016198952936683755
1.21233e-05;-0.00012717392724861538
1.21235e-05;-8.999083950076073e-05
1.21238e-05;-5.041282464739603e-05
1.21240e-05;-8.326808226535765e-06
1.21243e-05;3.621121833757173e-05
1.21245e-05;8.295920852474065e-05
1.21248e-05;0.00013162578711670457
1.21250e-05;0.00018191959057933842
1.21253e-05;0.00023374462626954667
1.21255e-05;0.00028656305086180694
1.21258e-05;0.0003402703189591909
1.21260e-05;0.00039532019763696946
1.21263e-05;0.00045037007631512096
1.21265e-05;0.0005054199549932725
1.21268e-05;0.0005605089610711673
1.21270e-05;0.0006156023957104424
1.21273e-05;0.0006706958303497175
1.21275e-05;0.0007244998776347123
1.21278e-05;0.0007763562872378212
1.21280e-05;0.0008282126968409302
1.21283e-05;0.0008783424008806764
1.21285e-05;0.000925863891950023
1.21288e-05;0.0009713590814436911
1.21290e-05;0.0010137935139872176
1.21293e-05;0.0010537128702712965
1.21295e-05;0.0010898331685898614
1.21298e-05;0.0011238643092930788
1.21300e-05;0.0011547397481173748
1.21303e-05;0.001183451696437371
1.21305e-05;0.001208895662006337
1.21308e-05;0.0012343396275754756
1.21310e-05;0.0012567143821214622
1.21313e-05;0.0012744530503693995
1.21315e-05;0.0012921917186174568
1.21318e-05;0.0013072153274658774
1.21320e-05;0.0013181378010106793
1.21323e-05;0.001329060274555555
1.21325e-05;0.0013377282620215562
1.21328e-05;0.0013429908166447191
1.21330e-05;0.0013482533712679174
1.21333e-05;0.001349938799735534
1.21335e-05;0.0013462209289736018
1.21338e-05;0.0013425030582116442
1.21340e-05;0.0013387851874496867
1.21343e-05;0.001335067316687729
1.21345e-05;0.0013313494459257968
1.21348e-05;0.0013276315751638392
1.21350e-05;0.0013239137044018818
1.21353e-05;0.0013132247801026131
1.21355e-05;0.0013017468502521834
1.21358e-05;0.0012902689204017537
1.21360e-05;0.0012787909905514017
1.21363e-05;0.001267313060700972
1.21365e-05;0.0012558351308505423
1.21368e-05;0.0012443572010001902
1.21370e-05;0.0012322716484150895
1.21373e-05;0.0012192682731669044
1.21375e-05;0.001206264897918807
1.21378e-05;0.001193261522670622
1.21380e-05;0.0011802581474224367
1.21383e-05;0.0011672547721743396
1.21385e-05;0.0011542513969261545
1.21388e-05;0.0011422252795704707
1.21390e-05;0.001131675323968339
1.21393e-05;0.001121125368366136
1.21395e-05;0.0011105754127639328
1.21398e-05;0.0011000254571618012
1.21400e-05;0.001089475501559598
1.21403e-05;0.001078925545957395
1.21405e-05;0.0010665855323614315
1.21408e-05;0.0010515416110584276
1.21410e-05;0.0010364976897554235
1.21413e-05;0.0010214537684525215
1.21415e-05;0.0010064098471495174
1.21418e-05;0.0009913659258465133
1.21420e-05;0.0009763220045436113
1.21423e-05;0.0009612780832406073
1.21425e-05;0.0009462341619376033
1.21427e-05;0.0009311902406347011
1.21430e-05;0.0009130320332717868
1.21433e-05;0.0008901696531341197
1.21435e-05;0.0008673072729964527
1.21438e-05;0.0008444448928589406
1.21440e-05;0.0008215825127212735
1.21443e-05;0.0007987201325836065
1.21445e-05;0.0007758577524460943
1.21448e-05;0.0007529953723084273
1.21450e-05;0.0007301329921707601
1.21453e-05;0.000707270612033248
1.21455e-05;0.0006831696433201395
