Time(s);Current(A)
7.30000e-06;0.00016497742836566387
7.30025e-06;0.0001708376883549404
7.30050e-06;0.0001766979483442368
7.30075e-06;0.00018255820833351332
7.30100e-06;0.00018841846832278985
7.30125e-06;0.00019427872831208624
7.30150e-06;0.00020013898830136277
7.30175e-06;0.00020599924829065914
7.30200e-06;0.00021175087393260927
7.30225e-06;0.00021714377733645396
7.30250e-06;0.0002225366807403169
7.30275e-06;0.0002279295841441616
7.30300e-06;0.00023332248754800628
7.30325e-06;0.00023871539095186923
7.30350e-06;0.00024410829435571392
7.30375e-06;0.0002495011977595586
7.30400e-06;0.000254692346345864
7.30425e-06;0.0002592172789380399
7.30450e-06;0.0002637422115302158
7.30475e-06;0.00026826714412240703
7.30500e-06;0.00027251501710121126
7.30525e-06;0.00027584800959298925
7.30550e-06;0.0002791810020847785
7.30575e-06;0.0002825139945765565
7.30600e-06;0.00028532048771807257
7.30625e-06;0.0002860017487845531
7.30650e-06;0.00028502893707465805
7.30675e-06;0.00028244853327610267
7.30700e-06;0.000278326314089499
7.30725e-06;0.00027272798039021585
7.30750e-06;0.00026570917079461113
7.30775e-06;0.0002572460461366204
7.30800e-06;0.0002471366046936879
7.30825e-06;0.00023514292132152415
7.30850e-06;0.00022123441544312936
7.30875e-06;0.00020552710533621975
7.30900e-06;0.0001881489740732863
7.30925e-06;0.00016922803925710242
7.30950e-06;0.00014888596645540398
7.30975e-06;0.0001271946617025546
7.31000e-06;0.00010411438541065722
7.31025e-06;7.95829308247582e-05
7.31050e-06;5.366799150861472e-05
7.31075e-06;2.6529052714458005e-05
7.31100e-06;-1.6668859992685169e-06
7.31125e-06;-3.075284576099711e-05
7.31150e-06;-6.056581868568874e-05
7.31175e-06;-9.103343685769117e-05
7.31200e-06;-0.00012211177303601627
7.31225e-06;-0.00015337725102969663
7.31250e-06;-0.00018526069132069283
7.31275e-06;-0.00021714413161158096
7.31300e-06;-0.0002489110399605698
7.31325e-06;-0.0002802931473693934
7.31350e-06;-0.0003116752547781107
7.31375e-06;-0.00034269906316570397
7.31400e-06;-0.00037253972985012713
7.31425e-06;-0.0004019409917147169
7.31450e-06;-0.0004298912918513926
7.31475e-06;-0.00045721725525868897
7.31500e-06;-0.00048248159198624853
7.31525e-06;-0.0005069406683481075
7.31550e-06;-0.0005287406888249107
7.31575e-06;-0.0005497934070985702
7.31600e-06;-0.0005683784535414796
7.31625e-06;-0.0005869634999843261
7.31650e-06;-0.000605039275885917
7.31675e-06;-0.0006214333859720361
7.31700e-06;-0.0006378274960580996
7.31725e-06;-0.0006535173271993078
7.31750e-06;-0.000666881553911888
7.31775e-06;-0.0006802457806244227
7.31800e-06;-0.0006927636404678736
7.31825e-06;-0.0007024867063545531
7.31850e-06;-0.0007122097722411996
7.31875e-06;-0.0007219328381278791
7.31900e-06;-0.0007316559040145256
7.31925e-06;-0.0007413789699011721
7.31950e-06;-0.0007511020357878515
7.31975e-06;-0.000760825101674498
7.32000e-06;-0.0007705481675611446
7.32025e-06;-0.000780271233447824
7.32050e-06;-0.0007890925982275998
7.32075e-06;-0.0007949364494772648
7.32100e-06;-0.0008007803007269496
7.32125e-06;-0.0008066241519766146
7.32150e-06;-0.0008124680032262797
7.32175e-06;-0.0008183118544759644
7.32200e-06;-0.0008241557057256295
7.32225e-06;-0.0008299995569752945
7.32250e-06;-0.0008358434082249794
7.32275e-06;-0.0008416872594746444
7.32300e-06;-0.0008469339916911219
7.32325e-06;-0.000850208972972842
7.32350e-06;-0.0008534839542545621
7.32375e-06;-0.0008567589355362933
7.32400e-06;-0.0008600339168180134
7.32425e-06;-0.0008633088980997335
7.32450e-06;-0.0008665838793814647
7.32475e-06;-0.0008698588606631848
7.32500e-06;-0.0008731338419449049
7.32525e-06;-0.0008764088232266361
7.32550e-06;-0.0008796838045083562
7.32575e-06;-0.0008829587857900763
7.32600e-06;-0.0008853715869734253
7.32625e-06;-0.0008849373772255645
7.32650e-06;-0.0008845031674777037
7.32675e-06;-0.0008840689577298414
7.32700e-06;-0.0008836347479819806
7.32725e-06;-0.0008832005382341183
7.32750e-06;-0.0008827663284862574
7.32775e-06;-0.0008823321187383966
7.32800e-06;-0.0008818979089905343
7.32825e-06;-0.0008814636992426735
7.32850e-06;-0.0008810294894948126
7.32875e-06;-0.0008805952797469504
7.32900e-06;-0.0008792175525129192
7.32925e-06;-0.0008747242295910023
7.32950e-06;-0.0008702309066690703
7.32975e-06;-0.0008657375837471534
7.33000e-06;-0.0008612442608252366
7.33025e-06;-0.0008567509379033045
7.33050e-06;-0.0008522576149813876
7.33075e-06;-0.0008477642920594708
7.33100e-06;-0.0008432709691375387
7.33125e-06;-0.0008387776462156219
7.33150e-06;-0.0008339034987925979
7.33175e-06;-0.0008277718281220141
7.33200e-06;-0.0008216401574514303
7.33225e-06;-0.0008155084867808257
7.33250e-06;-0.0008093768161102418
7.33275e-06;-0.000803245145439658
7.33300e-06;-0.0007971134747690533
7.33325e-06;-0.0007909818040984695
7.33350e-06;-0.0007848501334278856
7.33375e-06;-0.000778718462757281
7.33400e-06;-0.0007730796764019762
7.33425e-06;-0.0007690684467900429
7.33450e-06;-0.0007650572171780961
7.33475e-06;-0.0007610459875661629
7.33500e-06;-0.0007570347579542297
7.33525e-06;-0.0007530235283422828
7.33550e-06;-0.0007490122987303497
7.33575e-06;-0.0007450010691184028
7.33600e-06;-0.0007409898395064696
7.33625e-06;-0.0007369786098945364
7.33650e-06;-0.0007329673802825895
7.33675e-06;-0.0007289561506706563
7.33700e-06;-0.000724944921058723
7.33725e-06;-0.0007209336914467762
7.33750e-06;-0.000716922461834843
7.33775e-06;-0.0007137135434922915
7.33800e-06;-0.000713153942801289
7.33825e-06;-0.0007125943421102883
7.33850e-06;-0.0007120347414192878
7.33875e-06;-0.0007114751407282852
7.33900e-06;-0.0007109155400372846
7.33925e-06;-0.000710355939346284
7.33950e-06;-0.0007097963386552815
7.33975e-06;-0.0007092367379642809
7.34000e-06;-0.0007086771372732784
7.34025e-06;-0.0007081175365822777
7.34050e-06;-0.0007075579358912771
7.34075e-06;-0.0007069983352002746
7.34100e-06;-0.0007064387345092739
7.34125e-06;-0.0007058791338182733
7.34150e-06;-0.0007056504641562608
7.34175e-06;-0.0007065145641584788
7.34200e-06;-0.0007073786641606969
7.34225e-06;-0.0007082427641629178
7.34250e-06;-0.0007091068641651359
7.34275e-06;-0.0007099709641673539
7.34300e-06;-0.0007108350641695749
7.34325e-06;-0.0007116991641717929
7.34350e-06;-0.0007125785328192322
7.34375e-06;-0.0007135083201667942
7.34400e-06;-0.0007144381075143531
7.34425e-06;-0.0007153678948619151
7.34450e-06;-0.000716297682209474
7.34475e-06;-0.0007172274695570329
7.34500e-06;-0.0007181572569045949
7.34525e-06;-0.0007190870442521538
7.34550e-06;-0.0007197423122503025
7.34575e-06;-0.0007194910879857991
7.34600e-06;-0.0007192398637212966
7.34625e-06;-0.0007180174309483475
7.34650e-06;-0.000713587963770693
7.34675e-06;-0.0007091584965930537
7.34700e-06;-0.0007037660967787546
7.34725e-06;-0.0006951939903738747
7.34750e-06;-0.0006866218839690237
7.34775e-06;-0.0006772038616957589
7.34800e-06;-0.0006649925347203421
7.34825e-06;-0.0006519234440753294
7.34850e-06;-0.000636021926020969
7.34875e-06;-0.0006193578957479382
7.34900e-06;-0.0006001759685475314
7.34925e-06;-0.0005803565398926484
7.34950e-06;-0.0005584320132291513
7.34975e-06;-0.0005358947924315943
7.35000e-06;-0.0005113343900512086
7.35025e-06;-0.0004861414720346199
7.35050e-06;-0.00045885991971427364
7.35075e-06;-0.00043099719598780055
7.35100e-06;-0.0004012153820993004
7.35125e-06;-0.0003714335682108003
7.35150e-06;-0.00034122949543979685
7.35175e-06;-0.00030963107866184835
7.35200e-06;-0.0002780326618838998
7.35225e-06;-0.0002462040202743397
7.35250e-06;-0.00021361515163958653
7.35275e-06;-0.0001810262830047229
7.35300e-06;-0.00014862246453405413
7.35325e-06;-0.0001162862433410688
7.35350e-06;-8.414758502244896e-05
7.35375e-06;-5.2824969911291176e-05
7.35400e-06;-2.222795048885577e-05
7.35425e-06;7.5371693680415e-06
7.35450e-06;3.630578541718374e-05
7.35475e-06;6.387164314641275e-05
7.35500e-06;9.002507863339623e-05
7.35525e-06;0.0001145564695923701
7.35550e-06;0.00013726107605476108
7.35575e-06;0.00015797719815324268
7.35600e-06;0.00017665973052407956
7.35625e-06;0.00019334728750882614
7.35650e-06;0.00020803883564969773
7.35675e-06;0.00022068350522928964
7.35700e-06;0.00023122549303529157
7.35725e-06;0.00023960900702465018
7.35750e-06;0.0002457813230899999
7.35775e-06;0.0002497167061998888
7.35800e-06;0.00025146241147205417
7.35825e-06;0.00025111816380656216
7.35850e-06;0.00024875888637921636
7.35875e-06;0.00024442822592081893
7.35900e-06;0.00023816673421471628
7.35925e-06;0.00023001500331746577
7.35950e-06;0.00022001555197704567
7.35975e-06;0.00020822776442247184
7.36000e-06;0.0001947567925573508
7.36025e-06;0.00017974061300734593
7.36050e-06;0.00016330164098969733
7.36075e-06;0.00014554273413064055
7.36100e-06;0.00012656479710174644
7.36125e-06;0.00010646874015910698
7.36150e-06;8.535666927569949e-05
7.36175e-06;6.334126429918406e-05
7.36200e-06;4.056386719598478e-05
7.36225e-06;1.718635992503325e-05
7.36250e-06;-6.639124638776831e-06
7.36275e-06;-3.077664137822616e-05
7.36300e-06;-5.508191958074499e-05
7.36325e-06;-7.938719778326381e-05
7.36350e-06;-0.00010359129740593459
7.36375e-06;-0.0001274613023581213
7.36400e-06;-0.00015107387047642545
7.36425e-06;-0.00017383635462650993
7.36450e-06;-0.00019630709738287477
7.36475e-06;-0.00021756963931936392
7.36500e-06;-0.0002377411607447151
7.36525e-06;-0.0002566594883504705
7.36550e-06;-0.00027415994372802276
7.36575e-06;-0.0002900615253381019
7.36600e-06;-0.00030416075263377186
7.36625e-06;-0.00031629260591830416
7.36650e-06;-0.0003263868035153602
7.36675e-06;-0.0003344242432995333
7.36700e-06;-0.0003403894487980529
7.36725e-06;-0.00034426696587690984
7.36750e-06;-0.00034603976415300056
7.36775e-06;-0.0003456805548315346
7.36800e-06;-0.0003431480747968456
7.36825e-06;-0.00033842509802185696
7.36850e-06;-0.0003315537100728995
7.36875e-06;-0.00032260810372754
7.36900e-06;-0.0003116647191745718
7.36925e-06;-0.00029880004128038677
7.36950e-06;-0.00028408955368887807
7.36975e-06;-0.0002676022611061767
7.37000e-06;-0.00024939842317982805
7.37025e-06;-0.0002295534351984158
7.37050e-06;-0.0002081797615881835
7.37075e-06;-0.00018541000461330085
7.37100e-06;-0.0001613781427353245
7.37125e-06;-0.00013621819232840203
7.37150e-06;-0.00011006352504648911
7.37175e-06;-8.304346845728173e-05
7.37200e-06;-5.528184969911243e-05
7.37225e-06;-2.69119358663797e-05
7.37250e-06;1.909742284705932e-06
7.37275e-06;3.099677968792719e-05
7.37300e-06;6.014350919075411e-05
7.37325e-06;8.929023869358105e-05
7.37350e-06;0.00011826344269694704
7.37375e-06;0.00014666366258653756
7.37400e-06;0.00017474374914824647
7.37425e-06;0.0002017667212110338
7.37450e-06;0.000228443065599159
7.37475e-06;0.0002536841493301872
7.37500e-06;0.000277630056687696
7.37525e-06;0.0003000883666748275
7.37550e-06;0.0003208624477761164
7.37575e-06;0.0003397260442917147
7.37600e-06;0.00035640314753470937
7.37625e-06;0.0003706579710463204
7.37650e-06;0.000382392807853305
7.37675e-06;0.00039158922761078804
7.37700e-06;0.0003982345613437598
7.37725e-06;0.0004023161935635563
7.37750e-06;0.00040381881221696595
7.37775e-06;0.0004027086000455039
7.37800e-06;0.00039892057784441596
7.37825e-06;0.0003924149385008342
7.37850e-06;0.00038323844333334225
7.37875e-06;0.00037148739839059557
7.37900e-06;0.00035726184911158534
7.37925e-06;0.0003406617827278263
7.37950e-06;0.00032178549789372895
7.37975e-06;0.0003007197358260537
7.38000e-06;0.0002775316752793236
7.38025e-06;0.0002523043164274113
7.38050e-06;0.00022517476458117314
7.38075e-06;0.0001963113052021795
7.38100e-06;0.00016588445086796814
7.38125e-06;0.00013406469181724348
7.38150e-06;0.00010102147309378541
7.38175e-06;6.691695601189872e-05
7.38200e-06;3.190106046023357e-05
7.38225e-06;-3.8664060449390235e-06
7.38250e-06;-4.020458389623568e-05
7.38275e-06;-7.688807043809312e-05
7.38300e-06;-0.00011357155697982626
7.38325e-06;-0.0001502550435216837
7.38350e-06;-0.00018671740843527788
7.38375e-06;-0.00022244962172661745
7.38400e-06;-0.00025777714488668766
7.38425e-06;-0.00029176833793627497
7.38450e-06;-0.00032514054876729524
7.38475e-06;-0.0003564688140897737
7.38500e-06;-0.00038719227328842527
7.38525e-06;-0.0004154403788501526
7.38550e-06;-0.00044157081097301743
7.38575e-06;-0.000465310527530028
7.38600e-06;-0.00048634746636785854
7.38625e-06;-0.0005044255976426836
7.38650e-06;-0.0005194364721052261
7.38675e-06;-0.0005313526372231831
7.38700e-06;-0.0005401524085991268
7.38725e-06;-0.0005458141506006973
7.38750e-06;-0.0005483136040361853
7.38775e-06;-0.0005476097651083278
7.38800e-06;-0.000543637068575419
7.38825e-06;-0.0005363651957280835
7.38850e-06;-0.0005258561790784165
7.38875e-06;-0.0005122228326781309
7.38900e-06;-0.0004955815095538103
7.38925e-06;-0.0004760486873225795
7.38950e-06;-0.000453739115701807
7.38975e-06;-0.00042875709798668424
7.39000e-06;-0.00040119154664914556
7.39025e-06;-0.0003711533861013546
7.39050e-06;-0.00033881148841382534
7.39075e-06;-0.0003043664199173997
7.39100e-06;-0.00026802107222286074
7.39125e-06;-0.00022997826654201953
7.39150e-06;-0.0001904398286075813
7.39175e-06;-0.00014960098686191313
7.39200e-06;-0.00010764731459656373
7.39225e-06;-6.477818834419134e-05
7.39250e-06;-2.1229228473063608e-05
7.39275e-06;2.2717240719407657e-05
7.39300e-06;6.67495123604038e-05
7.39325e-06;0.00011078178400154913
7.39350e-06;0.00015455031604048983
7.39375e-06;0.00019744793604602293
7.39400e-06;0.00024001369810216174
7.39425e-06;0.00028117950156317603
7.39450e-06;0.0003209696215898449
7.39475e-06;0.000359094305310062
7.39500e-06;0.00039526295774147885
7.39525e-06;0.0004291850130059638
7.39550e-06;0.0004603482785200521
7.39575e-06;0.0004886610668649718
7.39600e-06;0.0005163250088200651
7.39625e-06;0.0005418463905782185
7.39650e-06;0.0005668868472189772
7.39675e-06;0.0005903392376700408
7.39700e-06;0.0006131478825545358
7.39725e-06;0.0006338308107069182
7.39750e-06;0.0006536695277745739
7.39775e-06;0.0006707205695217069
7.39800e-06;0.0006877716112688398
7.39825e-06;0.000704298409234454
7.39850e-06;0.0007190940981467264
7.39875e-06;0.0007338897870589989
7.39900e-06;0.0007480777473597225
7.39925e-06;0.0007602589227667447
7.39950e-06;0.000772440098173767
7.39975e-06;0.0007837066809120926
7.40000e-06;0.0007919531808101042
7.40025e-06;0.0008001996807081439
7.40050e-06;0.0008084461806061555
7.40075e-06;0.0008166926805041671
7.40100e-06;0.0008249391804022066
7.40125e-06;0.0008331856803002184
7.40150e-06;0.00084143218019823
7.40175e-06;0.0008496786800962695
7.40200e-06;0.0008579251799942812
7.40225e-06;0.000863394671413508
7.40250e-06;0.0008678497448560285
7.40275e-06;0.0008723048182985338
7.40300e-06;0.0008767598917410392
7.40325e-06;0.0008812149651835597
7.40350e-06;0.000885670038626065
7.40375e-06;0.0008901251120685704
7.40400e-06;0.0008945801855110908
7.40425e-06;0.0008990352589535963
7.40450e-06;0.0009029963410281867
7.40475e-06;0.00090532621075619
7.40500e-06;0.0009076560804841932
7.40525e-06;0.0009099859502122044
7.40550e-06;0.0009123158199402075
7.40575e-06;0.0009146456896682107
7.40600e-06;0.0009169755593962219
7.40625e-06;0.0009181357053542391
7.40650e-06;0.0009154332982810097
7.40675e-06;0.0009127308912077709
7.40700e-06;0.0009100284841345414
7.40725e-06;0.0009073260770613118
7.40750e-06;0.0009046236699880732
7.40775e-06;0.0009019212629148436
7.40800e-06;0.0008974768975755786
7.40825e-06;0.0008872803996788578
7.40850e-06;0.0008770839017821716
7.40875e-06;0.0008668874038854508
7.40900e-06;0.0008566909059887646
7.40925e-06;0.0008464944080920784
7.40950e-06;0.0008362979101953577
7.40975e-06;0.0008261014122986715
7.41000e-06;0.0008144537791786179
7.41025e-06;0.0007980143423018815
7.41050e-06;0.0007815749054252008
7.41075e-06;0.0007651354685485201
7.41100e-06;0.0007486960316717837
7.41125e-06;0.000732256594795103
7.41150e-06;0.0007158171579184223
7.41175e-06;0.0006993777210416859
7.41200e-06;0.0006824173840958476
7.41225e-06;0.0006637369793934825
7.41250e-06;0.0006450565746910542
7.41275e-06;0.0006263761699886891
7.41300e-06;0.0006076957652862607
7.41325e-06;0.0005890153605838957
7.41350e-06;0.0005712722730555322
7.41375e-06;0.0005538715796530963
7.41400e-06;0.0005364708862507193
7.41425e-06;0.0005190701928483424
7.41450e-06;0.0005016694994459065
7.41475e-06;0.0004849580279051167
7.41500e-06;0.0004705224406870855
7.41525e-06;0.00045608685346900524
7.41550e-06;0.00044207862499094495
7.41575e-06;0.0004294815807928425
7.41600e-06;0.0004168845365946973
7.41625e-06;0.0004042874923965948
7.41650e-06;0.0003898670769217861
7.41675e-06;0.0003747805991662918
7.41700e-06;0.00035969412141084863
7.41725e-06;0.0003442283658299549
7.41750e-06;0.00032751019429303244
7.41775e-06;0.00031043133906543286
7.41800e-06;0.0002921614677038173
7.41825e-06;0.0002734044203481756
7.41850e-06;0.0002526002858196382
7.41875e-06;0.00023034857389407117
7.41900e-06;0.00020773947960659345
7.41925e-06;0.00018376601173506537
7.41950e-06;0.0001590284351811652
7.41975e-06;0.00013359393573985268
7.42000e-06;0.0001073098575323509
7.42025e-06;7.995941376117639e-05
7.42050e-06;5.155019254979473e-05
7.42075e-06;2.2255487048826362e-05
7.42100e-06;-7.737570633481653e-06
7.42125e-06;-3.824187713729615e-05
7.42150e-06;-6.910198337906156e-05
7.42175e-06;-0.00010020514148678745
7.42200e-06;-0.0001314453055812658
7.42225e-06;-0.00016313787810148767
7.42250e-06;-0.00019483045062160216
7.42275e-06;-0.0002264299556639032
7.42300e-06;-0.00025772214193789205
7.42325e-06;-0.0002890143282117748
7.42350e-06;-0.0003198558357627223
7.42375e-06;-0.00034920915395550737
7.42400e-06;-0.000378562472148193
7.42425e-06;-0.00040739224673837254
7.42450e-06;-0.0004344932243427418
7.42475e-06;-0.00046098870240847704
7.42500e-06;-0.00048548475621963975
7.42525e-06;-0.0005091994978264055
7.42550e-06;-0.0005303342629466287
7.42575e-06;-0.0005507209591600595
7.42600e-06;-0.0005686374518122075
7.42625e-06;-0.0005865539444643555
7.42650e-06;-0.000603924450567369
7.42675e-06;-0.0006194920506735687
7.42700e-06;-0.0006350596507797683
7.42725e-06;-0.0006498979278435483
7.42750e-06;-0.0006623279021958683
7.42775e-06;-0.0006747578765481883
7.42800e-06;-0.0006867080307357529
7.42825e-06;-0.000697073767406545
7.42850e-06;-0.0007074395040773371
7.42875e-06;-0.0007170069985524214
7.42900e-06;-0.0007239386118988863
7.42925e-06;-0.0007308702252453513
7.42950e-06;-0.0007378018385918398
7.42975e-06;-0.0007447334519383048
7.43000e-06;-0.0007516650652847933
7.43025e-06;-0.0007585966786312582
7.43050e-06;-0.0007655282919777233
7.43075e-06;-0.0007724599053242117
7.43100e-06;-0.0007793915186706768
7.43125e-06;-0.0007837671644264621
7.43150e-06;-0.0007872091365943415
7.43175e-06;-0.0007906511087622093
7.43200e-06;-0.000794093080930077
7.43225e-06;-0.0007975350530979564
7.43250e-06;-0.0008009770252658242
7.43275e-06;-0.000804418997433692
7.43300e-06;-0.0008078609696015713
7.43325e-06;-0.0008113029417694391
7.43350e-06;-0.0008143784076516165
7.43375e-06;-0.0008162436305686942
7.43400e-06;-0.0008181088534857656
7.43425e-06;-0.0008199740764028434
7.43450e-06;-0.0008218392993199148
7.43475e-06;-0.0008237045222369862
7.43500e-06;-0.000825569745154064
7.43525e-06;-0.0008269649655578626
7.43550e-06;-0.0008268081873808822
7.43575e-06;-0.0008266514092039013
7.43600e-06;-0.000826494631026921
7.43625e-06;-0.0008263378528499406
7.43650e-06;-0.0008261810746729597
7.43675e-06;-0.0008260242964959794
7.43700e-06;-0.0008244953289469297
7.43725e-06;-0.0008184352452914756
7.43750e-06;-0.0008123751616360421
7.43775e-06;-0.0008063150779806086
7.43800e-06;-0.0008002549943251545
7.43825e-06;-0.000794194910669721
7.43850e-06;-0.0007881348270142669
7.43875e-06;-0.0007820747433588334
7.43900e-06;-0.0007760146597033999
7.43925e-06;-0.0007684262562922983
7.43950e-06;-0.0007557911775454728
7.43975e-06;-0.0007431560987986473
7.44000e-06;-0.0007305210200517791
7.44025e-06;-0.0007178859413049536
7.44050e-06;-0.0007052508625581282
7.44075e-06;-0.00069261578381126
7.44100e-06;-0.0006799807050644345
7.44125e-06;-0.0006673456263176091
7.44150e-06;-0.000654022179946025
7.44175e-06;-0.000638425670034905
7.44200e-06;-0.0006228291601237851
7.44225e-06;-0.0006072326502126124
7.44250e-06;-0.0005916361403014924
7.44275e-06;-0.0005760396303903196
7.44300e-06;-0.0005605555776256692
7.44325e-06;-0.0005454428703895083
