Time(s);Current(A)
1.50000e-06;-0.01218534775626725
1.50025e-06;-0.012164135706032647
1.50050e-06;-0.012137139769003125
1.50075e-06;-0.012110143831973605
1.50100e-06;-0.012077700169013854
1.50125e-06;-0.012036048526029035
1.50150e-06;-0.011994396883044182
1.50175e-06;-0.011952745240059364
1.50200e-06;-0.01191109359707451
1.50225e-06;-0.011856561917586035
1.50250e-06;-0.011800134738474665
1.50275e-06;-0.011743707559363247
1.50300e-06;-0.011687280380251878
1.50325e-06;-0.011626842259650234
1.50350e-06;-0.011559624673709079
1.50375e-06;-0.011492407087767923
1.50400e-06;-0.011423421821925924
1.50425e-06;-0.011351448747698353
1.50450e-06;-0.011278792822942736
1.50475e-06;-0.011204564176894489
1.50500e-06;-0.011129259758723776
1.50525e-06;-0.011053104272199668
1.50550e-06;-0.010976500627911466
1.50575e-06;-0.010899896445832119
1.50600e-06;-0.010823738760797574
1.50625e-06;-0.01074847391527289
1.50650e-06;-0.010674507962508607
1.50675e-06;-0.010602133407856642
1.50700e-06;-0.010531588902947664
1.50725e-06;-0.01046321399805034
1.50750e-06;-0.01039745954533125
1.50775e-06;-0.010334804005641912
1.50800e-06;-0.010275725625366943
1.50825e-06;-0.010220696156118187
1.50850e-06;-0.010170011043242883
1.50875e-06;-0.010123432769839208
1.50900e-06;-0.010080357159192841
1.50925e-06;-0.010040467983037225
1.50950e-06;-0.010003858132169644
1.50975e-06;-0.00997073377506446
1.51000e-06;-0.009941300626777247
1.51025e-06;-0.009916489809199833
1.51050e-06;-0.00989543586541677
1.51075e-06;-0.009876942481294232
1.51100e-06;-0.00986277706493433
1.51125e-06;-0.009851362898644312
1.51150e-06;-0.009844599013225737
1.51175e-06;-0.009837835127807159
1.51200e-06;-0.009835378295408844
1.51225e-06;-0.009840201428758261
1.51250e-06;-0.009845024562107684
1.51275e-06;-0.009849847695457103
1.51300e-06;-0.009854670828806526
1.51325e-06;-0.009863505003655406
1.51350e-06;-0.009879118812883348
1.51375e-06;-0.009894732622111305
1.51400e-06;-0.00991034643133925
1.51425e-06;-0.009925960240567206
1.51450e-06;-0.009943839186449902
1.51475e-06;-0.009965546763459916
1.51500e-06;-0.009987254340469912
1.51525e-06;-0.010009742911543882
1.51550e-06;-0.010033551552282232
1.51575e-06;-0.01005736019302056
1.51600e-06;-0.01008144185857501
1.51625e-06;-0.010105985002383851
1.51650e-06;-0.010130430521934696
1.51675e-06;-0.010154711032777517
1.51700e-06;-0.010178477804617237
1.51725e-06;-0.010201376232759327
1.51750e-06;-0.010221488596128559
1.51775e-06;-0.010236891833322381
1.51800e-06;-0.010252295070516218
1.51825e-06;-0.01026769830771004
1.51850e-06;-0.010283101544903877
1.51875e-06;-0.010298504782097699
1.51900e-06;-0.010313908019291535
1.51925e-06;-0.010329311256485358
1.51950e-06;-0.01034471449367918
1.51975e-06;-0.010360117730873017
1.52000e-06;-0.01037164902382566
1.52025e-06;-0.010376635790551444
1.52050e-06;-0.010381622557277223
1.52075e-06;-0.010386609324003001
1.52100e-06;-0.010391596090728783
1.52125e-06;-0.010396582857454562
1.52150e-06;-0.010401569624180344
1.52175e-06;-0.010406556390906123
1.52200e-06;-0.010411543157631901
1.52225e-06;-0.010416529924357685
1.52250e-06;-0.010418906742318325
1.52275e-06;-0.010416872112933647
1.52300e-06;-0.010414837483548971
1.52325e-06;-0.010412802854164292
1.52350e-06;-0.010410768224779616
1.52375e-06;-0.01040873359539494
1.52400e-06;-0.01040669896601026
1.52425e-06;-0.010404664336625584
1.52450e-06;-0.010402629707240905
1.52475e-06;-0.010400595077856229
1.52500e-06;-0.010398560448471553
1.52525e-06;-0.010394012342015233
1.52550e-06;-0.010389094337939546
1.52575e-06;-0.010384176333863857
1.52600e-06;-0.01037925832978817
1.52625e-06;-0.010374340325712484
1.52650e-06;-0.010369422321636795
1.52675e-06;-0.010364504317561108
1.52700e-06;-0.010359586313485419
1.52725e-06;-0.010354668309409733
1.52750e-06;-0.010349750305334042
1.52775e-06;-0.010344896230145983
1.52800e-06;-0.010340705893567944
1.52825e-06;-0.010337454796673277
1.52850e-06;-0.010334203699778614
1.52875e-06;-0.010330952602883947
1.52900e-06;-0.010327701505989282
1.52925e-06;-0.010324450409094618
1.52950e-06;-0.010321199312199951
1.52975e-06;-0.010317948215305288
1.53000e-06;-0.010314697118410621
1.53025e-06;-0.010311446021515956
1.53050e-06;-0.010308194924621292
1.53075e-06;-0.010304943827726626
1.53100e-06;-0.010301692730831962
1.53125e-06;-0.010298441633937295
1.53150e-06;-0.01029519053704263
1.53175e-06;-0.010291939440147963
1.53200e-06;-0.010290570517933851
1.53225e-06;-0.01028947858727911
1.53250e-06;-0.010288386656624368
1.53275e-06;-0.010287294725969627
1.53300e-06;-0.010286202795314885
1.53325e-06;-0.010285110864660144
1.53350e-06;-0.010284018934005403
1.53375e-06;-0.01028292700335066
1.53400e-06;-0.01028183507269592
1.53425e-06;-0.010280743142041178
1.53450e-06;-0.010279651211386437
1.53475e-06;-0.010278559280731696
1.53500e-06;-0.010277467350076954
1.53525e-06;-0.010276375419422213
1.53550e-06;-0.01027528348876747
1.53575e-06;-0.010274385901335534
1.53600e-06;-0.010273816801154273
1.53625e-06;-0.010273247700973012
1.53650e-06;-0.010272678600791748
1.53675e-06;-0.010272109500610487
1.53700e-06;-0.010271540400429225
1.53725e-06;-0.010270971300247962
1.53750e-06;-0.0102704022000667
1.53775e-06;-0.010269126685097763
1.53800e-06;-0.010267747210100242
1.53825e-06;-0.010266367735102722
1.53850e-06;-0.010264988260105199
1.53875e-06;-0.010263608785107679
1.53900e-06;-0.01026222931011016
1.53925e-06;-0.010260849835112638
1.53950e-06;-0.010258257294199451
1.53975e-06;-0.010253614377246584
1.54000e-06;-0.01024897146029372
1.54025e-06;-0.010244328543340859
1.54050e-06;-0.010239685626387992
1.54075e-06;-0.010235042709435128
1.54100e-06;-0.010230399792482263
1.54125e-06;-0.0102257568755294
1.54150e-06;-0.010221113958576533
1.54175e-06;-0.010213067685167668
1.54200e-06;-0.010204520554414656
1.54225e-06;-0.010195973423661638
1.54250e-06;-0.010187426292908626
1.54275e-06;-0.010178879162155607
1.54300e-06;-0.010170332031402595
1.54325e-06;-0.010161784900649583
1.54350e-06;-0.010153237769896564
1.54375e-06;-0.010143803292369757
1.54400e-06;-0.010132868983267153
1.54425e-06;-0.010121934674164558
1.54450e-06;-0.010111000365061963
1.54475e-06;-0.010100066055959358
1.54500e-06;-0.010089131746856763
1.54525e-06;-0.01007819743775416
1.54550e-06;-0.010067263128651565
1.54575e-06;-0.01005642514561205
1.54600e-06;-0.010045749977015841
1.54625e-06;-0.010035074808419633
1.54650e-06;-0.010024399639823416
1.54675e-06;-0.010013724471227208
1.54700e-06;-0.01000304930263099
1.54725e-06;-0.009992374134034782
1.54750e-06;-0.009981698965438573
1.54775e-06;-0.009971714797149674
1.54800e-06;-0.009962898587217505
1.54825e-06;-0.00995408237728533
1.54850e-06;-0.009946053277357748
1.54875e-06;-0.009939354584519397
1.54900e-06;-0.00993265589168104
1.54925e-06;-0.009927067530533667
1.54950e-06;-0.009923355899632962
1.54975e-06;-0.009919644268732262
1.55000e-06;-0.009917847899828197
1.55025e-06;-0.00991928878889721
1.55050e-06;-0.009920729677966221
1.55075e-06;-0.009922170567035236
1.55100e-06;-0.009923611456104247
1.55125e-06;-0.00992505234517326
1.55150e-06;-0.009926493234242273
1.55175e-06;-0.009930477250068967
1.55200e-06;-0.009938759767817194
1.55225e-06;-0.009947042285565413
1.55250e-06;-0.00995532480331364
1.55275e-06;-0.009963607321061859
1.55300e-06;-0.009971889838810078
1.55325e-06;-0.009980172356558306
1.55350e-06;-0.00999022394389439
1.55375e-06;-0.010003265688523942
1.55400e-06;-0.010016307433153484
1.55425e-06;-0.010029349177783035
1.55450e-06;-0.010042390922412577
1.55475e-06;-0.010055432667042117
1.55500e-06;-0.01006847441167167
1.55525e-06;-0.010081516156301212
1.55550e-06;-0.01009531410897656
1.55575e-06;-0.01010922334954027
1.55600e-06;-0.010123132590103981
1.55625e-06;-0.010137041830667704
1.55650e-06;-0.010150951071231417
1.55675e-06;-0.01016486031179514
1.55700e-06;-0.01017876955235885
1.55725e-06;-0.010191261033288393
1.55750e-06;-0.01020135615607609
1.55775e-06;-0.010211451278863776
1.55800e-06;-0.010221546401651472
1.55825e-06;-0.01023164152443916
1.55850e-06;-0.010241736647226857
1.55875e-06;-0.010251831770014543
1.55900e-06;-0.01026192689280223
1.55925e-06;-0.010272022015589927
1.55950e-06;-0.010282336042889967
1.55975e-06;-0.01029302007198568
1.56000e-06;-0.010303704101081383
1.56025e-06;-0.010314388130177085
1.56050e-06;-0.010325072159272797
1.56075e-06;-0.0103357561883685
1.56100e-06;-0.010346440217464212
1.56125e-06;-0.010357124246559914
1.56150e-06;-0.010367808275655617
1.56175e-06;-0.010380046063624781
1.56200e-06;-0.010394910081483005
1.56225e-06;-0.010409774099341242
1.56250e-06;-0.010424638117199465
1.56275e-06;-0.010439502135057703
1.56300e-06;-0.010454366152915926
1.56325e-06;-0.010469230170774151
1.56350e-06;-0.010484094188632387
1.56375e-06;-0.01049895820649061
1.56400e-06;-0.010515727962607458
1.56425e-06;-0.010532778178034071
1.56450e-06;-0.010549828393460685
1.56475e-06;-0.010566878608887314
1.56500e-06;-0.010583928824313929
1.56525e-06;-0.010600979039740556
1.56550e-06;-0.010618029255167171
1.56575e-06;-0.010635079470593785
1.56600e-06;-0.0106512336769773
1.56625e-06;-0.010665873410446086
1.56650e-06;-0.010680513143914884
1.56675e-06;-0.01069515287738367
1.56700e-06;-0.010709792610852469
1.56725e-06;-0.010724432344321253
1.56750e-06;-0.010739072077790039
1.56775e-06;-0.010753711811258837
1.56800e-06;-0.010768351544727623
1.56825e-06;-0.010776938245462483
1.56850e-06;-0.010784634147382297
1.56875e-06;-0.01079233004930211
1.56900e-06;-0.01080002595122193
1.56925e-06;-0.010807721853141744
1.56950e-06;-0.010815417755061563
1.56975e-06;-0.010823113656981376
1.57000e-06;-0.01083080955890119
1.57025e-06;-0.010835439878806707
1.57050e-06;-0.010834888620508224
1.57075e-06;-0.010834337362209739
1.57100e-06;-0.010833786103911256
1.57125e-06;-0.010833234845612771
1.57150e-06;-0.010832683587314287
1.57175e-06;-0.010832132329015804
1.57200e-06;-0.010831581070717319
1.57225e-06;-0.010831029812418836
1.57250e-06;-0.010830478554120351
1.57275e-06;-0.010829927295821868
1.57300e-06;-0.010827127154793063
1.57325e-06;-0.010820525855718494
1.57350e-06;-0.010813924556643931
1.57375e-06;-0.010807323257569362
1.57400e-06;-0.0108007219584948
1.57425e-06;-0.010794120659420236
1.57450e-06;-0.010787519360345667
1.57475e-06;-0.010780918061271105
1.57500e-06;-0.010774316762196536
1.57525e-06;-0.010767715463121972
1.57550e-06;-0.01076111416404741
1.57575e-06;-0.010753937305665274
1.57600e-06;-0.010745787612255673
1.57625e-06;-0.010737637918846065
1.57650e-06;-0.010729488225436463
1.57675e-06;-0.010721338532026855
1.57700e-06;-0.010713644013944002
1.57725e-06;-0.010706016482057901
1.57750e-06;-0.010698388950171793
1.57775e-06;-0.01069076141828569
1.57800e-06;-0.010683494438402165
1.57825e-06;-0.010676836878977526
1.57850e-06;-0.010669980609183725
1.57875e-06;-0.010662788470601252
1.57900e-06;-0.010653886349669524
1.57925e-06;-0.010642093943229732
1.57950e-06;-0.010630301536789951
1.57975e-06;-0.010616549952273726
1.58000e-06;-0.010599486880943323
1.58025e-06;-0.010582423809612935
1.58050e-06;-0.01056332343772064
1.58075e-06;-0.01054077953303864
1.58100e-06;-0.01051823562835662
1.58125e-06;-0.010493262453173752
1.58150e-06;-0.010464183220798692
1.58175e-06;-0.010435103988423606
1.58200e-06;-0.010406024756048547
1.58225e-06;-0.010377156422296393
1.58250e-06;-0.013865496455114566
1.58275e-06;-0.02594516032007768
1.58300e-06;-0.025607937749761372
1.58325e-06;-0.02302076616171441
1.58350e-06;-0.01879489738012726
1.58375e-06;-0.009290424425870296
1.58400e-06;-0.0075265412677198665
1.58425e-06;-0.008211876839229793
1.58450e-06;-0.010470200462328655
1.58475e-06;-0.018269410475357913
1.58500e-06;-0.020442395562741356
1.58525e-06;-0.016646101666004113
1.58550e-06;-0.012914152339900497
1.58575e-06;-0.008644820595580392
1.58600e-06;-0.006576398972203317
1.58625e-06;-0.00713803123527353
1.58650e-06;-0.009663785048663198
1.58675e-06;-0.012970636731393842
1.58700e-06;-0.014281985453124273
1.58725e-06;-0.01324018345539109
1.58750e-06;-0.010868670899754521
1.58775e-06;-0.008170856605143283
1.58800e-06;-0.00689898550946118
1.58825e-06;-0.007272293146053265
1.58850e-06;-0.008874404026111341
1.58875e-06;-0.01096507370639309
1.58900e-06;-0.011805836790353238
1.58925e-06;-0.011173255877515845
1.58950e-06;-0.009708751165047713
1.58975e-06;-0.008041042549726353
1.59000e-06;-0.007267794201776359
1.59025e-06;-0.007526296785416498
1.59050e-06;-0.008555666272296893
1.59075e-06;-0.009892153835221058
1.59100e-06;-0.010446771340036971
1.59125e-06;-0.010079578257966775
1.59150e-06;-0.009192352882141132
1.59175e-06;-0.008178867095654366
1.59200e-06;-0.007726576894971657
1.59225e-06;-0.007921317538281535
1.59250e-06;-0.00859950287017357
1.59275e-06;-0.009470486464887996
1.59300e-06;-0.009852011583437943
1.59325e-06;-0.00965633433228935
1.59350e-06;-0.009135030589103855
1.59375e-06;-0.00853463613876156
1.59400e-06;-0.008285615919686915
1.59425e-06;-0.008441554218463694
1.59450e-06;-0.008899800993959229
1.59475e-06;-0.009478124482893133
1.59500e-06;-0.009749017896851252
1.59525e-06;-0.009657396198515383
1.59550e-06;-0.009360718353351215
1.59575e-06;-0.009013270177513093
1.59600e-06;-0.008884531087616568
1.59625e-06;-0.009007889302926588
1.59650e-06;-0.009318867649908944
1.59675e-06;-0.009703148581856507
1.59700e-06;-0.009892790206106939
1.59725e-06;-0.00985314892330774
1.59750e-06;-0.009679012253138013
1.59775e-06;-0.009476652621480413
1.59800e-06;-0.009407591872523388
1.59825e-06;-0.009492284903999872
1.59850e-06;-0.00969922341017617
1.59875e-06;-0.009936420094060039
1.59900e-06;-0.010050936833466787
1.59925e-06;-0.010021844033186306
1.59950e-06;-0.009905031570588876
1.59975e-06;-0.009769549747353126
1.60000e-06;-0.009715026794094063
1.60025e-06;-0.009754345163974918
1.60050e-06;-0.00986755447068805
1.60075e-06;-0.00999895430707926
1.60100e-06;-0.0100516014146047
1.60125e-06;-0.010012487974112583
1.60150e-06;-0.009916573330183849
1.60175e-06;-0.009808442588319314
1.60200e-06;-0.009749790041967906
1.60225e-06;-0.009748793870239358
1.60250e-06;-0.009793024649670762
1.60275e-06;-0.00984835778345768
1.60300e-06;-0.00985376738268732
1.60325e-06;-0.009801239317417347
1.60350e-06;-0.009712896644320877
1.60375e-06;-0.009616849347200782
1.60400e-06;-0.009551866161254296
1.60425e-06;-0.009523213537032985
1.60450e-06;-0.009523458439950741
1.60475e-06;-0.009530837308709426
1.60500e-06;-0.009507660437941778
1.60525e-06;-0.009449074937965292
1.60550e-06;-0.00936998669549307
1.60575e-06;-0.009285592000491465
1.60600e-06;-0.009222186148514774
1.60625e-06;-0.00918329022073032
1.60650e-06;-0.009162990950280338
1.60675e-06;-0.009150587254360031
1.60700e-06;-0.009120592512052692
1.60725e-06;-0.009070033533784133
1.60750e-06;-0.009008775647521033
1.60775e-06;-0.008946487088166966
1.60800e-06;-0.008899786615824272
1.60825e-06;-0.008871025720126262
1.60850e-06;-0.008856560042865717
1.60875e-06;-0.008849457495054124
1.60900e-06;-0.008833305801506847
1.60925e-06;-0.008805918616065502
1.60950e-06;-0.008773339872178411
1.60975e-06;-0.008746786202774257
1.61000e-06;-0.008722720361784906
1.61025e-06;-0.00871261452955658
1.61050e-06;-0.008716093517464815
1.61075e-06;-0.008722651425373975
1.61100e-06;-0.008724970048151032
1.61125e-06;-0.008721716923149662
1.61150e-06;-0.00871940409807668
1.61175e-06;-0.008717951855741996
1.61200e-06;-0.008716499613407312
1.61225e-06;-0.008726093378021297
1.61250e-06;-0.008744691985559624
1.61275e-06;-0.00876510005713719
1.61300e-06;-0.00878550812871474
1.61325e-06;-0.008801949257114128
1.61350e-06;-0.008818505844077524
1.61375e-06;-0.00883561610241836
1.61400e-06;-0.00885272636075921
1.61425e-06;-0.008876581107639944
1.61450e-06;-0.008905538191040325
1.61475e-06;-0.008935457860072422
1.61500e-06;-0.008965377529104519
1.61525e-06;-0.008991722838454324
1.61550e-06;-0.009016783797614652
1.61575e-06;-0.009043486345005564
1.61600e-06;-0.00907077875305467
1.61625e-06;-0.0090980711611038
1.61650e-06;-0.009127292914919713
1.61675e-06;-0.009157207927338937
1.61700e-06;-0.009187122939758185
1.61725e-06;-0.009212597921906884
1.61750e-06;-0.009236477498381331
1.61775e-06;-0.009258774750974919
1.61800e-06;-0.009280503437963272
1.61825e-06;-0.009301868317209394
1.61850e-06;-0.009323102471910627
1.61875e-06;-0.009341116482753912
1.61900e-06;-0.009357973421354452
1.61925e-06;-0.009368399664156936
1.61950e-06;-0.009376515209072142
1.61975e-06;-0.009384630753987341
1.62000e-06;-0.009388322597730283
1.62025e-06;-0.009390424903222049
1.62050e-06;-0.009392527208713815
1.62075e-06;-0.009388682753502187
1.62100e-06;-0.009382701489487149
1.62125e-06;-0.009376720225472104
1.62150e-06;-0.009363287944426629
1.62175e-06;-0.009347178340452062
1.62200e-06;-0.009331068736477509
1.62225e-06;-0.009314959132502956
1.62250e-06;-0.009296637701158345
1.62275e-06;-0.009271142435237386
1.62300e-06;-0.009245647169316404
1.62325e-06;-0.009220151903395445
1.62350e-06;-0.009194656637474485
1.62375e-06;-0.009164733902127761
1.62400e-06;-0.00913322027450921
1.62425e-06;-0.009100387415614338
1.62450e-06;-0.009067080526378364
1.62475e-06;-0.009032832258916641
1.62500e-06;-0.008997383830128387
1.62525e-06;-0.008960978245419469
1.62550e-06;-0.00892397004135889
1.62575e-06;-0.008886717219753681
1.62600e-06;-0.008849681196269972
1.62625e-06;-0.008813111577177247
1.62650e-06;-0.008777164192950779
1.62675e-06;-0.00874193814704165
1.62700e-06;-0.008707394758306295
1.62725e-06;-0.008673727741614084
1.62750e-06;-0.008641267899925002
1.62775e-06;-0.008610348860399774
1.62800e-06;-0.008581368139791903
1.62825e-06;-0.008554590045719793
1.62850e-06;-0.008530261315926033
1.62875e-06;-0.008508681088403053
1.62900e-06;-0.008490044443973423
1.62925e-06;-0.008474510285772336
1.62950e-06;-0.008462176014865009
1.62975e-06;-0.008453109970824489
1.63000e-06;-0.008447420756047033
1.63025e-06;-0.008445132891571349
1.63050e-06;-0.00844625986645823
1.63075e-06;-0.008452110377150194
1.63100e-06;-0.008459333249377629
1.63125e-06;-0.008472712876796334
1.63150e-06;-0.008488304768899701
1.63175e-06;-0.008503896661003055
1.63200e-06;-0.008527888408743295
1.63225e-06;-0.008554898419091742
1.63250e-06;-0.008581908429440165
1.63275e-06;-0.008608918439788612
1.63300e-06;-0.008638547624413406
1.63325e-06;-0.008676671831406758
1.63350e-06;-0.008714796038400077
1.63375e-06;-0.008752920245393396
1.63400e-06;-0.008791044452386746
1.63425e-06;-0.008833878823941045
1.63450e-06;-0.008878405666674308
1.63475e-06;-0.008922932509407532
1.63500e-06;-0.008969488271150333
1.63525e-06;-0.00901677307046789
1.63550e-06;-0.00906405786978541
1.63575e-06;-0.009111780700019265
1.63600e-06;-0.009159660924902821
1.63625e-06;-0.009206963236734403
1.63650e-06;-0.009254057891026311
1.63675e-06;-0.009299754865856378
1.63700e-06;-0.009344949622096069
1.63725e-06;-0.00938788308369666
1.63750e-06;-0.009430004009778831
1.63775e-06;-0.009468966111763587
1.63800e-06;-0.009506793175115456
1.63825e-06;-0.009540550524740333
1.63850e-06;-0.009572845531998986
1.63875e-06;-0.009600291824771776
1.63900e-06;-0.009625995862169875
1.63925e-06;-0.009645190070447205
1.63950e-06;-0.009662045146402612
1.63975e-06;-0.009678900222358003
1.64000e-06;-0.009687637338485048
1.64025e-06;-0.009693457483694679
1.64050e-06;-0.00969927762890431
1.64075e-06;-0.009696804190836862
1.64100e-06;-0.009691350676280772
1.64125e-06;-0.009685897161724678
1.64150e-06;-0.009670842061249182
1.64175e-06;-0.00965233688865213
1.64200e-06;-0.009633831716055094
1.64225e-06;-0.009615326543458058
1.64250e-06;-0.009593654775406881
1.64275e-06;-0.00956171248070329
1.64300e-06;-0.009529770185999669
1.64325e-06;-0.009497827891296077
1.64350e-06;-0.009465885596592484
1.64375e-06;-0.009428342839871042
1.64400e-06;-0.009388787707481973
1.64425e-06;-0.009346662626239295
1.64450e-06;-0.009303614102872844
1.64475e-06;-0.009259034298331307
1.64500e-06;-0.009213122527703718
1.64525e-06;-0.009166346807745947
1.64550e-06;-0.009118979277415527
1.64575e-06;-0.00907129144395292
1.64600e-06;-0.00902355637763823
1.64625e-06;-0.008976046517034495
1.64650e-06;-0.008929033123196468
1.64675e-06;-0.00888279543263722
1.64700e-06;-0.008837626598288795
1.64725e-06;-0.008793833989107283
