Time(s);Current(A)
9.75000e-06;0.006284234128133775
9.75025e-06;0.00629356460552192
9.75050e-06;0.0063028950829100636
9.75075e-06;0.006312225560298145
9.75100e-06;0.006321556037686289
9.75125e-06;0.006330886515074434
9.75150e-06;0.0063402169924625775
9.75175e-06;0.006349547469850658
9.75200e-06;0.006358877947238803
9.75225e-06;0.0063777092017501275
9.75250e-06;0.006408394595333146
9.75275e-06;0.006439079988916373
9.75300e-06;0.006469765382499599
9.75325e-06;0.006500450776082619
9.75350e-06;0.0065311361696658455
9.75375e-06;0.006561821563249072
9.75400e-06;0.006592506956832091
9.75425e-06;0.006623192350415317
9.75450e-06;0.006653877743998544
9.75475e-06;0.006684563137581563
9.75500e-06;0.006727016175659122
9.75525e-06;0.006770155436453557
9.75550e-06;0.0068132946972477
9.75575e-06;0.0068564339580421355
9.75600e-06;0.00689957321883657
9.75625e-06;0.006942712479630714
9.75650e-06;0.006985851740425149
9.75675e-06;0.007028991001219584
9.75700e-06;0.007072130262013727
9.75725e-06;0.007115269522808162
9.75750e-06;0.007154296613542297
9.75775e-06;0.007188192941270384
9.75800e-06;0.007222089268998701
9.75825e-06;0.007255985596727018
9.75850e-06;0.007289881924455105
9.75875e-06;0.007323778252183422
9.75900e-06;0.007357674579911739
9.75925e-06;0.007391570907639826
9.75950e-06;0.007425467235368143
9.75975e-06;0.00745936356309646
9.76000e-06;0.007493259890824777
9.76025e-06;0.007494821016359519
9.76050e-06;0.007494496535107953
9.76075e-06;0.007494172053856388
9.76100e-06;0.007493847572604825
9.76125e-06;0.00749352309135326
9.76150e-06;0.007493198610101694
9.76175e-06;0.007492874128850131
9.76200e-06;0.007492549647598566
9.76225e-06;0.007492225166347001
9.76250e-06;0.007491900685095438
9.76275e-06;0.007491576203843872
9.76300e-06;0.007457553987909164
9.76325e-06;0.007421566709970824
9.76350e-06;0.007385579432032241
9.76375e-06;0.007349592154093657
9.76400e-06;0.007313604876155319
9.76425e-06;0.007277617598216735
9.76450e-06;0.007241630320278152
9.76475e-06;0.0072056430423398125
9.76500e-06;0.007169655764401229
9.76525e-06;0.007133668486462646
9.76550e-06;0.007097681208524307
9.76575e-06;0.0070480185908309585
9.76600e-06;0.006997558504381762
9.76625e-06;0.0069470984179329075
9.76650e-06;0.006896638331483711
9.76675e-06;0.006846178245034514
9.76700e-06;0.006795718158585659
9.76725e-06;0.006745258072136463
9.76750e-06;0.006694797985687267
9.76775e-06;0.006644337899238412
9.76800e-06;0.0065994206275905316
9.76825e-06;0.006561419137323833
9.76850e-06;0.006523417647057133
9.76875e-06;0.006485416156790691
9.76900e-06;0.006447414666523991
9.76925e-06;0.006409413176257292
9.76950e-06;0.00637141168599085
9.76975e-06;0.00633341019572415
9.77000e-06;0.006295408705457451
9.77025e-06;0.006257407215191009
9.77050e-06;0.00624857670470312
9.77075e-06;0.006241447281382819
9.77100e-06;0.006234317858062566
9.77125e-06;0.006227188434742265
9.77150e-06;0.006220059011421963
9.77175e-06;0.00621292958810171
9.77200e-06;0.00620580016478141
9.77225e-06;0.0061986707414611085
9.77250e-06;0.006191541318140856
9.77275e-06;0.006184411894820554
9.77300e-06;0.006177282471500253
9.77325e-06;0.00617015304818
9.77350e-06;0.006174990982661556
9.77375e-06;0.006194760613987776
9.77400e-06;0.006214530245313862
9.77425e-06;0.006234299876640082
9.77450e-06;0.006254069507966302
9.77475e-06;0.006273839139292388
9.77500e-06;0.006293608770618608
9.77525e-06;0.006313378401944828
9.77550e-06;0.006333148033270914
9.77575e-06;0.006352917664597134
9.77600e-06;0.0063726872959233545
9.77625e-06;0.00639245692724944
9.77650e-06;0.006412226558575661
9.77675e-06;0.006436959879124304
9.77700e-06;0.006461982654059072
9.77725e-06;0.006487005428993671
9.77750e-06;0.00651202820392844
9.77775e-06;0.006537050978863208
9.77800e-06;0.006562073753797808
9.77825e-06;0.006587096528732577
9.77850e-06;0.006612119303667345
9.77875e-06;0.006637142078601944
9.77900e-06;0.006658136227338534
9.77925e-06;0.006674103850914271
9.77950e-06;0.0066900714744899
9.77975e-06;0.006706039098065638
9.78000e-06;0.006722006721641375
9.78025e-06;0.006737974345217005
9.78050e-06;0.0067539419687927425
9.78075e-06;0.00676990959236848
9.78100e-06;0.00678587721594411
9.78125e-06;0.006801844839519847
9.78150e-06;0.006809866310952478
9.78175e-06;0.006817424407566575
9.78200e-06;0.006824982504180724
9.78225e-06;0.006832540600794873
9.78250e-06;0.00684009869740897
9.78275e-06;0.0068476567940231195
9.78300e-06;0.006855214890637268
9.78325e-06;0.006862772987251366
9.78350e-06;0.006870331083865515
9.78375e-06;0.006877889180479664
9.78400e-06;0.006885447277093761
9.78425e-06;0.00689300537370791
9.78450e-06;0.006900563470322059
9.78475e-06;0.006908121566936157
9.78500e-06;0.006915679663550306
9.78525e-06;0.0069232377601644544
9.78550e-06;0.006930795856778604
9.78575e-06;0.006938353953392701
9.78600e-06;0.006941590098028684
9.78625e-06;0.006944574210778182
9.78650e-06;0.006947558323527658
9.78675e-06;0.0069505424362771556
9.78700e-06;0.006953526549026652
9.78725e-06;0.0069565106617761295
9.78750e-06;0.006959494774525626
9.78775e-06;0.006962478887275123
9.78800e-06;0.0069654630000246
9.78825e-06;0.006968447112774097
9.78850e-06;0.006971431225523595
9.78875e-06;0.006974415338273071
9.78900e-06;0.006977399451022569
9.78925e-06;0.006980383563772065
9.78950e-06;0.006983367676521543
9.78975e-06;0.006986351789271039
9.79000e-06;0.0069893359020205366
9.79025e-06;0.006992320014770013
9.79050e-06;0.007003309118746193
9.79075e-06;0.007014765028705394
9.79100e-06;0.007026220938664517
9.79125e-06;0.007037676848623719
9.79150e-06;0.00704913275858292
9.79175e-06;0.007060588668542043
9.79200e-06;0.007072044578501245
9.79225e-06;0.007083500488460446
9.79250e-06;0.007094956398419569
9.79275e-06;0.007106412308378771
9.79300e-06;0.007117868218337971
9.79325e-06;0.007129324128297095
9.79350e-06;0.007140780038256297
9.79375e-06;0.007152235948215497
9.79400e-06;0.007168443587398772
9.79425e-06;0.0071905799688726565
9.79450e-06;0.007212716350346691
9.79475e-06;0.0072348527318207255
9.79500e-06;0.007256989113294611
9.79525e-06;0.007279125494768645
9.79550e-06;0.00730126187624268
9.79575e-06;0.007323398257716564
9.79600e-06;0.007345534639190599
9.79625e-06;0.007367671020664633
9.79650e-06;0.007389807402138518
9.79675e-06;0.007411943783612552
9.79700e-06;0.007434080165086587
9.79725e-06;0.007456216546560471
9.79750e-06;0.007478352928034506
9.79775e-06;0.007496195755459206
9.79800e-06;0.007513788207004009
9.79825e-06;0.0075313806585489305
9.79850e-06;0.007548973110093852
9.79875e-06;0.007566565561638654
9.79900e-06;0.0075841580131835755
9.79925e-06;0.007601750464728497
9.79950e-06;0.0076193429162733
9.79975e-06;0.007636935367818221
9.80000e-06;0.007651399470655985
9.80025e-06;0.0076522759364103105
9.80050e-06;0.007653152402164642
9.80075e-06;0.007654028867918974
9.80100e-06;0.007654905333673299
9.80125e-06;0.00765578179942763
9.80150e-06;0.0076566582651819625
9.80175e-06;0.007657534730936288
9.80200e-06;0.007658411196690619
9.80225e-06;0.00765928766244495
9.80250e-06;0.0076572763255768304
9.80275e-06;0.0043698941163863286
9.80300e-06;-0.012760469961973192
9.80325e-06;-0.009782290613533367
9.80350e-06;-0.006674754634269908
9.80375e-06;-0.0020208220305751303
9.80400e-06;0.011060516506822531
9.80425e-06;0.010835864245312299
9.80450e-06;0.010235375103167747
9.80475e-06;0.009585531785060534
9.80500e-06;-0.0025750072824028036
9.80525e-06;-0.0019688313070549703
9.80550e-06;0.0006180385048827259
9.80575e-06;0.005445146227384851
9.80600e-06;0.011622238249073855
9.80625e-06;0.012563914905119418
9.80650e-06;0.01036454120751254
9.80675e-06;0.006410157005488603
9.80700e-06;0.0010887386942347622
9.80725e-06;0.0007431739815766125
9.80750e-06;0.0033477425900419475
9.80775e-06;0.006542010860049321
9.80800e-06;0.010357762861239133
9.80825e-06;0.010902077183651262
9.80850e-06;0.00948590783811478
9.80875e-06;0.0069766467385453616
9.80900e-06;0.0036166367176492104
9.80925e-06;0.0033783327996175162
9.80950e-06;0.004991987630481209
9.80975e-06;0.006977897781993073
9.81000e-06;0.009354612509246187
9.81025e-06;0.009682834210266809
9.81050e-06;0.008783575049420149
9.81075e-06;0.007200075732099555
9.81100e-06;0.005084062140019637
9.81125e-06;0.004923705866537381
9.81150e-06;0.005923418903129484
9.81175e-06;0.007156197318193764
9.81200e-06;0.008633597767676974
9.81225e-06;0.008827671435933115
9.81250e-06;0.008252778540904901
9.81275e-06;0.0072492550063188495
9.81300e-06;0.0059121798920027425
9.81325e-06;0.00580010954667451
9.81350e-06;0.00641461505680075
9.81375e-06;0.007175001908616833
9.81400e-06;0.00808851857288758
9.81425e-06;0.008198115319000384
9.81450e-06;0.007826072805993376
9.81475e-06;0.007185642354188923
9.81500e-06;0.0063364341030187465
9.81525e-06;0.006254733759940801
9.81550e-06;0.0066283038174139546
9.81575e-06;0.007093407494037547
9.81600e-06;0.007654612574971381
9.81625e-06;0.007712478772053682
9.81650e-06;0.007468956342841481
9.81675e-06;0.007057683042197331
9.81700e-06;0.006516050895452618
9.81725e-06;0.00645562429300738
9.81750e-06;0.00668082136346035
9.81775e-06;0.006963820637984612
9.81800e-06;0.0073075153411717875
9.81825e-06;0.00733646700907199
9.81850e-06;0.0071772387216210536
9.81875e-06;0.006913592497726108
9.81900e-06;0.006568997768124642
9.81925e-06;0.0065265659575920966
9.81950e-06;0.006663842382659861
9.81975e-06;0.006838352226664901
9.82000e-06;0.007052232677691372
9.82025e-06;0.007070456219164897
9.82050e-06;0.006972270139263313
9.82075e-06;0.006810070070748846
9.82100e-06;0.006598479992774642
9.82125e-06;0.006577391869724338
9.82150e-06;0.006670003867436025
9.82175e-06;0.00678698118514352
9.82200e-06;0.006929577916377106
9.82225e-06;0.006950494981789024
9.82250e-06;0.00689929890320082
9.82275e-06;0.006808733689562869
9.82300e-06;0.006687879972469514
9.82325e-06;0.006686919819952733
9.82350e-06;0.006757652722529484
9.82375e-06;0.0068440338393874955
9.82400e-06;0.006946764403226757
9.82425e-06;0.00697349687576376
9.82450e-06;0.006955202966731091
9.82475e-06;0.006912314636963477
9.82500e-06;0.006850438977745784
9.82525e-06;0.006863565083111178
9.82550e-06;0.006921412529521501
9.82575e-06;0.006988789792924644
9.82600e-06;0.007066052811156657
9.82625e-06;0.007095275141604598
9.82650e-06;0.007095777921252635
9.82675e-06;0.007080279117520653
9.82700e-06;0.007052210808592882
9.82725e-06;0.007070363157175253
9.82750e-06;0.007115682616343092
9.82775e-06;0.0071660415204124655
9.82800e-06;0.007221580443912446
9.82825e-06;0.007245932645052511
9.82850e-06;0.007251121268213711
9.82875e-06;0.007245031183283283
9.82900e-06;0.007244150233150236
9.82925e-06;0.0072444112363017725
9.82950e-06;0.007269866890446224
9.82975e-06;0.007300328998865318
9.83000e-06;0.00732524062460399
9.83025e-06;0.0073491891189490215
9.83050e-06;0.007356277617262264
9.83075e-06;0.007356000808996789
9.83100e-06;0.007360693509720938
9.83125e-06;0.007366359443434236
9.83150e-06;0.007389191306947608
9.83175e-06;0.007416227004651456
9.83200e-06;0.007441043579154683
9.83225e-06;0.007465446326085484
9.83250e-06;0.0074802715745620925
9.83275e-06;0.00749121761011245
9.83300e-06;0.00750609068229349
9.83325e-06;0.007521695224861868
9.83350e-06;0.0075486356386289056
9.83375e-06;0.00757970037414415
9.83400e-06;0.007611138564634263
9.83425e-06;0.0076368756783585364
9.83450e-06;0.0076592251317613965
9.83475e-06;0.007681529413222759
9.83500e-06;0.007703895745733715
9.83525e-06;0.007726262078244822
9.83550e-06;0.007756383509988498
9.83575e-06;0.0077874511418742675
9.83600e-06;0.00781845595692622
9.83625e-06;0.007849460771978173
9.83650e-06;0.007875789464689099
9.83675e-06;0.007901398512167753
9.83700e-06;0.007927020127518
9.83725e-06;0.007952641742868246
9.83750e-06;0.007978263358218319
9.83775e-06;0.008003395519348677
9.83800e-06;0.008028444604146178
9.83825e-06;0.008053493688943512
9.83850e-06;0.008078542773741013
9.83875e-06;0.008097048617965018
9.83900e-06;0.008114443861013568
9.83925e-06;0.008131839104062236
9.83950e-06;0.008149234347110904
9.83975e-06;0.00816211699793644
9.84000e-06;0.008166796997354177
9.84025e-06;0.008171476996771912
9.84050e-06;0.008176156996189617
9.84075e-06;0.008180836995607352
9.84100e-06;0.008164191810168253
9.84125e-06;0.008143927045851993
9.84150e-06;0.008123662281535595
9.84175e-06;0.008103397517219198
9.84200e-06;0.008083132752902938
9.84225e-06;0.00806286798858654
9.84250e-06;0.008042603224270145
9.84275e-06;0.008022338459953884
9.84300e-06;0.007976549523921645
9.84325e-06;0.007926428304092879
9.84350e-06;0.00787630708426445
9.84375e-06;0.007826185864435684
9.84400e-06;0.007776064644606916
9.84425e-06;0.007725943424778488
9.84450e-06;0.007675822204949721
9.84475e-06;0.007625700985120954
9.84500e-06;0.00756035116233902
9.84525e-06;0.0074924165493220046
9.84550e-06;0.00742448193630453
9.84575e-06;0.007356547323287055
9.84600e-06;0.007288612710270041
9.84625e-06;0.007220678097252566
9.84650e-06;0.007152743484235091
9.84675e-06;0.007084808871218077
9.84700e-06;0.007018224599725517
9.84725e-06;0.006954094877694793
9.84750e-06;0.0068899651556645035
9.84775e-06;0.00682583543363378
9.84800e-06;0.006761705711603056
9.84825e-06;0.0066975759895727665
9.84850e-06;0.006633446267542043
9.84875e-06;0.006569316545511319
9.84900e-06;0.0065051868234810295
9.84925e-06;0.0064678332955421065
9.84950e-06;0.006435024560403217
9.84975e-06;0.0064022158252645504
9.85000e-06;0.006369407090125661
9.85025e-06;0.006336598354986771
9.85050e-06;0.006303789619848104
9.85075e-06;0.0062709808847092145
9.85100e-06;0.006238172149570325
9.85125e-06;0.006205363414431658
9.85150e-06;0.006209745282391152
9.85175e-06;0.006220439607775335
9.85200e-06;0.006231133933159445
9.85225e-06;0.006241828258543628
9.85250e-06;0.0062525225839278106
9.85275e-06;0.00626321690931192
9.85300e-06;0.006273911234696103
9.85325e-06;0.0062846055600802855
9.85350e-06;0.006295299885464468
9.85375e-06;0.00633584399587932
9.85400e-06;0.006381454587648538
9.85425e-06;0.006427065179417757
9.85450e-06;0.0064726757711866655
9.85475e-06;0.006518286362955884
9.85500e-06;0.006563896954725102
9.85525e-06;0.006609507546494012
9.85550e-06;0.0066551181382632305
9.85575e-06;0.006700728730032449
9.85600e-06;0.006757063789902683
9.85625e-06;0.0068152191415315425
9.85650e-06;0.006873374493160403
9.85675e-06;0.006931529844788869
9.85700e-06;0.006989685196417728
9.85725e-06;0.007047840548046588
9.85750e-06;0.007105995899675054
9.85775e-06;0.007164151251303914
9.85800e-06;0.0072223066029327735
9.85825e-06;0.007266107373192358
9.85850e-06;0.007307471703162966
9.85875e-06;0.007348836033133573
9.85900e-06;0.007390200363103901
9.85925e-06;0.007431564693074508
9.85950e-06;0.007472929023045116
9.85975e-06;0.007514293353015443
9.86000e-06;0.00755565768298605
9.86025e-06;0.007597022012956658
9.86050e-06;0.007606327721842127
9.86075e-06;0.007610192037904925
9.86100e-06;0.0076140563539677224
9.86125e-06;0.007617920670030494
9.86150e-06;0.007621784986093292
9.86175e-06;0.007625649302156089
9.86200e-06;0.007629513618218861
9.86225e-06;0.007633377934281659
9.86250e-06;0.007637242250344457
9.86275e-06;0.007608962923562028
9.86300e-06;0.007575227772992892
9.86325e-06;0.007541492622423529
9.86350e-06;0.0075077574718541654
9.86375e-06;0.00747402232128503
9.86400e-06;0.007440287170715667
9.86425e-06;0.007406552020146303
9.86450e-06;0.007372816869577168
9.86475e-06;0.007339081719007805
9.86500e-06;0.007297911038642749
9.86525e-06;0.007243224610350318
9.86550e-06;0.007188538182057516
9.86575e-06;0.007133851753764715
9.86600e-06;0.007079165325472284
9.86625e-06;0.007024478897179482
9.86650e-06;0.006969792468886681
9.86675e-06;0.00691510604059425
9.86700e-06;0.006860419612301449
9.86725e-06;0.006805733184008647
9.86750e-06;0.006754286300605415
9.86775e-06;0.006703389273549992
9.86800e-06;0.00665249224649457
9.86825e-06;0.006601595219439493
9.86850e-06;0.00655069819238407
9.86875e-06;0.006499801165328648
9.86900e-06;0.00644890413827357
9.86925e-06;0.006404468613266244
9.86950e-06;0.006371778321662838
9.86975e-06;0.006339088030059653
9.87000e-06;0.006306397738456247
9.87025e-06;0.00627370744685284
9.87050e-06;0.006241017155249656
9.87075e-06;0.006208326863646249
9.87100e-06;0.006175636572042843
9.87125e-06;0.006162368520982948
9.87150e-06;0.00615239705713717
9.87175e-06;0.006142425593291324
9.87200e-06;0.0061324541294454785
9.87225e-06;0.006122482665599701
9.87250e-06;0.006112511201753854
9.87275e-06;0.006102539737908009
9.87300e-06;0.00609256827406223
9.87325e-06;0.0060825968102163844
9.87350e-06;0.006072625346370539
9.87375e-06;0.00606265388252476
9.87400e-06;0.006052682418678915
9.87425e-06;0.006042710954833069
9.87450e-06;0.006038531574018945
9.87475e-06;0.006044880606970677
9.87500e-06;0.006051229639922409
9.87525e-06;0.0060575786728740985
9.87550e-06;0.00606392770582583
9.87575e-06;0.006070276738777563
9.87600e-06;0.006076625771729252
9.87625e-06;0.006082974804680984
9.87650e-06;0.0060893238376327164
9.87675e-06;0.006095672870584406
9.87700e-06;0.006102021903536137
9.87725e-06;0.00610837093648787
9.87750e-06;0.006114719969439559
9.87775e-06;0.006121069002391292
9.87800e-06;0.006124943716098699
9.87825e-06;0.006128398457189213
9.87850e-06;0.006131853198279751
9.87875e-06;0.006135307939370288
9.87900e-06;0.006138762680460802
9.87925e-06;0.006142217421551339
9.87950e-06;0.006145672162641877
9.87975e-06;0.006149126903732414
9.88000e-06;0.006152581644822928
9.88025e-06;0.006156036385913465
9.88050e-06;0.006159491127004003
9.88075e-06;0.006162945868094517
9.88100e-06;0.006166400609185055
9.88125e-06;0.006169855350275592
9.88150e-06;0.006173310091366106
9.88175e-06;0.006176764832456643
9.88200e-06;0.006180219573547181
9.88225e-06;0.0061836743146376945
9.88250e-06;0.006177332120073233
9.88275e-06;0.0061693270662334775
9.88300e-06;0.006161322012393776
9.88325e-06;0.00615331695855402
9.88350e-06;0.006145311904714264
9.88375e-06;0.006137306850874563
9.88400e-06;0.006129301797034807
9.88425e-06;0.0061212967431950515
9.88450e-06;0.00611329168935535
9.88475e-06;0.006105286635515594
9.88500e-06;0.006097281581675838
9.88525e-06;0.006089276527836137
9.88550e-06;0.00608127147399638
9.88575e-06;0.006073266420156625
9.88600e-06;0.006065261366316924
9.88625e-06;0.006057256312477168
9.88650e-06;0.006049251258637412
9.88675e-06;0.00604124620479771
9.88700e-06;0.006031915341805467
9.88725e-06;0.006022359445790185
9.88750e-06;0.0060128035497749675
9.88775e-06;0.006003247653759686
9.88800e-06;0.0059936917577444035
9.88825e-06;0.005984135861729121
9.88850e-06;0.005974579965713904
9.88875e-06;0.005965024069698622
9.88900e-06;0.00595546817368334
9.88925e-06;0.005945912277668122
9.88950e-06;0.00593635638165284
9.88975e-06;0.005931893555878565
9.89000e-06;0.005936688530892375
9.89025e-06;0.005941483505906217
9.89050e-06;0.005946278480920059
9.89075e-06;0.005951073455933869
9.89100e-06;0.005955868430947711
9.89125e-06;0.005960663405961554
9.89150e-06;0.005965458380975363
9.89175e-06;0.005970253355989206
9.89200e-06;0.005975048331003048
9.89225e-06;0.005979843306016857
9.89250e-06;0.0059846382810307
9.89275e-06;0.0060085024900628885
9.89300e-06;0.006035603369599728
9.89325e-06;0.006062704249136751
9.89350e-06;0.006089805128673773
9.89375e-06;0.006116906008210612
9.89400e-06;0.0061440068877476346
9.89425e-06;0.006171107767284657
9.89450e-06;0.006198208646821496
9.89475e-06;0.0062253095263585185
9.89500e-06;0.006252410405895541
9.89525e-06;0.006279511285432381
9.89550e-06;0.006309574857142439
9.89575e-06;0.006345023788300028
9.89600e-06;0.006380472719457376
9.89625e-06;0.006415921650614965
9.89650e-06;0.006451370581772554
9.89675e-06;0.006486819512930143
9.89700e-06;0.006522268444087492
9.89725e-06;0.006557717375245081
9.89750e-06;0.00659316630640267
9.89775e-06;0.0066286152375600186
9.89800e-06;0.0066640641687176075
9.89825e-06;0.0066995130998751965
9.89850e-06;0.0067248682734961955
9.89875e-06;0.006748510207493668
9.89900e-06;0.00677215214149114
9.89925e-06;0.006795794075488452
9.89950e-06;0.006819436009485924
9.89975e-06;0.006843077943483396
9.90000e-06;0.006866719877480708
9.90025e-06;0.00689036181147818
9.90050e-06;0.006914003745475653
9.90075e-06;0.006937645679472964
9.90100e-06;0.006961287613470436
