Time(s);Current(A)
7.50000e-07;-0.0033909142400639714
7.50250e-07;-0.0034082939998748363
7.50500e-07;-0.0034256737596857012
7.50750e-07;-0.003441093460324046
7.51000e-07;-0.0034532271299643827
7.51250e-07;-0.0034653607996047143
7.51500e-07;-0.003477494469245051
7.51750e-07;-0.003489628138885388
7.52000e-07;-0.003501761808525724
7.52250e-07;-0.003513895478166061
7.52500e-07;-0.0035260291478063925
7.52750e-07;-0.0035381628174467293
7.53000e-07;-0.003550296487087066
7.53250e-07;-0.003562430156727403
7.53500e-07;-0.0035745638263677396
7.53750e-07;-0.0035866974960080764
7.54000e-07;-0.0035988311656484076
7.54250e-07;-0.0036049122661978086
7.54500e-07;-0.0036008462600019926
7.54750e-07;-0.0035967802538061765
7.55000e-07;-0.00359271424761036
7.55250e-07;-0.003588648241414544
7.55500e-07;-0.0035845822352187297
7.55750e-07;-0.0035805162290229136
7.56000e-07;-0.0035764502228270976
7.56250e-07;-0.003572384216631281
7.56500e-07;-0.003568318210435465
7.56750e-07;-0.0035642522042396508
7.57000e-07;-0.0035495820293470317
7.57250e-07;-0.003517134010022653
7.57500e-07;-0.0034846859906982747
7.57750e-07;-0.003452237971373896
7.58000e-07;-0.0034197899520495177
7.58250e-07;-0.003387341932725153
7.58500e-07;-0.0033548939134007746
7.58750e-07;-0.003322445894076396
7.59000e-07;-0.0032899978747520176
7.59250e-07;-0.0032575498554276387
7.59500e-07;-0.00322510183610326
7.59750e-07;-0.0031872875845875056
7.60000e-07;-0.0031404768672655733
7.60250e-07;-0.003093666149943641
7.60500e-07;-0.0030468554326217086
7.60750e-07;-0.0030000447152997763
7.61000e-07;-0.0029532339979778635
7.61250e-07;-0.0029063535139949004
7.61500e-07;-0.0028593560664967577
7.61750e-07;-0.002812358618998615
7.62000e-07;-0.0027653611715004723
7.62250e-07;-0.0027183637240023296
7.62500e-07;-0.002671366276504207
7.62750e-07;-0.0026258358861818154
7.63000e-07;-0.002588895923144109
7.63250e-07;-0.0025622344085290895
7.63500e-07;-0.0025355728939140706
7.63750e-07;-0.0025089113792990513
7.64000e-07;-0.0024822498646840433
7.64250e-07;-0.0024555883500690244
7.64500e-07;-0.002428926835454005
7.64750e-07;-0.002402265320838986
7.65000e-07;-0.002375603806223967
7.65250e-07;-0.002348942291608959
7.65500e-07;-0.00232228077699394
7.65750e-07;-0.0022956192623789207
7.66000e-07;-0.0022799462795964746
7.66250e-07;-0.002282695524434186
7.66500e-07;-0.0022854447692718972
7.66750e-07;-0.0022881940141096075
7.67000e-07;-0.0022909432589473186
7.67250e-07;-0.0022936925037850297
7.67500e-07;-0.0022964417486227412
7.67750e-07;-0.0022991909934604524
7.68000e-07;-0.0023019402382981635
7.68250e-07;-0.0023046894831358737
7.68500e-07;-0.002307438727973585
7.68750e-07;-0.0023101879728112964
7.69000e-07;-0.0023192232348300023
7.69250e-07;-0.0023387969783398984
7.69500e-07;-0.0023583707218497864
7.69750e-07;-0.0023779444653596825
7.70000e-07;-0.0023975182088695787
7.70250e-07;-0.002417091952379475
7.70500e-07;-0.002436665695889371
7.70750e-07;-0.0024562394393992672
7.71000e-07;-0.002475813182909155
7.71250e-07;-0.0024987967796092827
7.71500e-07;-0.00252227364124571
7.71750e-07;-0.0025457505028821377
7.72000e-07;-0.0025692273645185654
7.72250e-07;-0.002592704226154983
7.72500e-07;-0.002616181087791411
7.72750e-07;-0.0026396579494278385
7.73000e-07;-0.0026631348110642663
7.73250e-07;-0.0026851809252495403
7.73500e-07;-0.002704828397321933
7.73750e-07;-0.0027244758693943175
7.74000e-07;-0.00274412334146671
7.74250e-07;-0.002763770813539103
7.74500e-07;-0.0027834182856114956
7.74750e-07;-0.0028030657576838883
7.75000e-07;-0.002822713229756281
7.75250e-07;-0.002843956614199727
7.75500e-07;-0.0028678755390529327
7.75750e-07;-0.0028917944639061384
7.76000e-07;-0.002915713388759344
7.76250e-07;-0.0029396323136125497
7.76500e-07;-0.002963551238465745
7.76750e-07;-0.0029874701633189507
7.77000e-07;-0.0030113890881721564
7.77250e-07;-0.0030390388807067506
7.77500e-07;-0.0030729434572921563
7.77750e-07;-0.003106848033877562
7.78000e-07;-0.003140752610462953
7.78250e-07;-0.0031746571870483586
7.78500e-07;-0.0032085617636337643
7.78750e-07;-0.00324246634021917
7.79000e-07;-0.0032763709168045756
7.79250e-07;-0.0033102754933899813
7.79500e-07;-0.0033441800699753727
7.79750e-07;-0.0033780846465607784
7.80000e-07;-0.003416074762008649
7.80250e-07;-0.0034546558862051
7.80500e-07;-0.0034932370104015504
7.80750e-07;-0.003531818134597985
7.81000e-07;-0.0035703992587944357
7.81250e-07;-0.0036089803829908863
7.81500e-07;-0.003647561507187337
7.81750e-07;-0.0036861426313837876
7.82000e-07;-0.0037247237555802382
7.82250e-07;-0.003763304879776673
7.82500e-07;-0.0037969453934911875
7.82750e-07;-0.0038223029944135733
7.83000e-07;-0.003847660595335959
7.83250e-07;-0.003873018196258345
7.83500e-07;-0.0038983757971807306
7.83750e-07;-0.003923733398103106
7.84000e-07;-0.003949090999025491
7.84250e-07;-0.003974448599947878
7.84500e-07;-0.003999806200870264
7.84750e-07;-0.00402516380179265
7.85000e-07;-0.004050521402715024
7.85250e-07;-0.00407587900363741
7.85500e-07;-0.004101236604559796
7.85750e-07;-0.004126594205482182
7.86000e-07;-0.004151951806404568
7.86250e-07;-0.004168829173988889
7.86500e-07;-0.004171489465879192
7.86750e-07;-0.004174149757769495
7.87000e-07;-0.004176810049659798
7.87250e-07;-0.004179470341550102
7.87500e-07;-0.004182130633440405
7.87750e-07;-0.004184790925330707
7.88000e-07;-0.00418745121722101
7.88250e-07;-0.004190111509111314
7.88500e-07;-0.004192771801001617
7.88750e-07;-0.0041954320928919205
7.89000e-07;-0.004198092384782223
7.89250e-07;-0.004200752676672526
7.89500e-07;-0.004203412968562829
7.89750e-07;-0.004206073260453132
7.90000e-07;-0.004205022012371801
7.90250e-07;-0.004197748383064054
7.90500e-07;-0.004190474753756307
7.90750e-07;-0.004183201124448563
7.91000e-07;-0.004175927495140816
7.91250e-07;-0.004168653865833069
7.91500e-07;-0.004161380236525322
7.91750e-07;-0.004154106607217575
7.92000e-07;-0.004146832977909832
7.92250e-07;-0.004139559348602085
7.92500e-07;-0.004132285719294338
7.92750e-07;-0.004125012089986591
7.93000e-07;-0.004118370130231569
7.93250e-07;-0.004112787161837608
7.93500e-07;-0.004107204193443649
7.93750e-07;-0.004101621225049687
7.94000e-07;-0.004096038256655725
7.94250e-07;-0.004090455288261764
7.94500e-07;-0.004084872319867802
7.94750e-07;-0.00407928935147384
7.95000e-07;-0.004073706383079882
7.95250e-07;-0.00406812341468592
7.95500e-07;-0.004062540446291958
7.95750e-07;-0.004056957477897997
7.96000e-07;-0.004049697673895565
7.96250e-07;-0.004039626662014536
7.96500e-07;-0.004029555650133502
7.96750e-07;-0.004019484638252469
7.97000e-07;-0.0040094136263714355
7.97250e-07;-0.0039993426144904025
7.97500e-07;-0.003989271602609369
7.97750e-07;-0.00397920059072834
7.98000e-07;-0.003969129578847306
7.98250e-07;-0.003959058566966273
7.98500e-07;-0.003948987555085239
7.98750e-07;-0.003938916543204206
7.99000e-07;-0.003928845531323172
7.99250e-07;-0.003918774519442144
7.99500e-07;-0.0039051552752472395
7.99750e-07;-0.0038910227483715935
8.00000e-07;-0.003876890221495947
8.00250e-07;-0.003862757694620301
8.00500e-07;-0.0038486251677446607
8.00750e-07;-0.003834492640869014
8.01000e-07;-0.003820360113993368
8.01250e-07;-0.0038062275871177218
8.01500e-07;-0.0037920950602420758
8.01750e-07;-0.0037779625333664293
8.02000e-07;-0.003763830006490789
8.02250e-07;-0.003749697479615143
8.02500e-07;-0.0037355649527394965
8.02750e-07;-0.0037251248277680843
8.03000e-07;-0.0037208749991333007
8.03250e-07;-0.003716625170498517
8.03500e-07;-0.003712375341863735
8.03750e-07;-0.0037081255132289516
8.04000e-07;-0.003703875684594168
8.04250e-07;-0.0036996258559593843
8.04500e-07;-0.0036953760273246007
8.04750e-07;-0.0036911261986898192
8.05000e-07;-0.0036868763700550356
8.05250e-07;-0.003682626541420252
8.05500e-07;-0.0036783767127854684
8.05750e-07;-0.0036741268841506847
8.06000e-07;-0.003669877055515901
8.06250e-07;-0.0036656272268811192
8.06500e-07;-0.0036613773982463356
8.06750e-07;-0.003663832019599637
8.07000e-07;-0.00367752662329424
8.07250e-07;-0.003691221226988843
8.07500e-07;-0.00370491583068344
8.07750e-07;-0.003718610434378043
8.08000e-07;-0.0037323050380726457
8.08250e-07;-0.0037459996417672486
8.08500e-07;-0.0037596942454618514
8.08750e-07;-0.0037733888491564543
8.09000e-07;-0.003787083452851051
8.09250e-07;-0.003800778056545654
8.09500e-07;-0.0038144726602402567
8.09750e-07;-0.0038281672639348596
8.10000e-07;-0.0038418618676294624
8.10250e-07;-0.0038555564713240653
8.10500e-07;-0.0038692510750186625
8.10750e-07;-0.0038850473885028787
8.11000e-07;-0.00390436720965199
8.11250e-07;-0.003923687030801101
8.11500e-07;-0.003943006851950212
8.11750e-07;-0.003962326673099315
8.12000e-07;-0.003981646494248426
8.12250e-07;-0.004000966315397538
8.12500e-07;-0.004020286136546649
8.12750e-07;-0.004039605957695759
8.13000e-07;-0.004058925778844871
8.13250e-07;-0.004078245599993974
8.13500e-07;-0.004097565421143085
8.13750e-07;-0.004109258978942041
8.14000e-07;-0.004119849331383994
8.14250e-07;-0.004130439683825948
8.14500e-07;-0.004141030036267901
8.14750e-07;-0.00415162038870985
8.15000e-07;-0.0041622107411518035
8.15250e-07;-0.004172801093593756
8.15500e-07;-0.00418339144603571
8.15750e-07;-0.004193981798477664
8.16000e-07;-0.004204572150919612
8.16250e-07;-0.004215162503361566
8.16500e-07;-0.004220181942912148
8.16750e-07;-0.00421586177031915
8.17000e-07;-0.0042115415977261525
8.17250e-07;-0.004207221425133155
8.17500e-07;-0.004202901252540159
8.17750e-07;-0.004198581079947162
8.18000e-07;-0.004194260907354164
8.18250e-07;-0.0041899407347611665
8.18500e-07;-0.004185620562168169
8.18750e-07;-0.004181300389575171
8.19000e-07;-0.0041769802169821756
8.19250e-07;-0.004172660044389178
8.19500e-07;-0.004165192310897918
8.19750e-07;-0.004152447704735807
8.20000e-07;-0.004139703098573696
8.20250e-07;-0.004126958492411591
8.20500e-07;-0.004114213886249479
8.20750e-07;-0.004101469280087368
8.21000e-07;-0.004088724673925258
8.21250e-07;-0.0040759800677631465
8.21500e-07;-0.004063235461601035
8.21750e-07;-0.00405049085543893
8.22000e-07;-0.004037746249276819
8.22250e-07;-0.0040250016431147085
8.22500e-07;-0.00401513974054059
8.22750e-07;-0.004010110678465316
8.23000e-07;-0.004005081616390041
8.23250e-07;-0.00400005255431477
8.23500e-07;-0.003995023492239495
8.23750e-07;-0.003989994430164221
8.24000e-07;-0.0039849653680889465
8.24250e-07;-0.003979936306013673
8.24500e-07;-0.0039749072439384005
8.24750e-07;-0.003969878181863126
8.25000e-07;-0.003964849119787852
8.25250e-07;-0.003959820057712577
8.25500e-07;-0.003954790995637303
8.25750e-07;-0.003949761933562029
8.26000e-07;-0.003944732871486757
8.26250e-07;-0.003939703809411482
8.26500e-07;-0.0039346747473362085
8.26750e-07;-0.003929645685260934
8.27000e-07;-0.003938031248539104
8.27250e-07;-0.00394835735410819
8.27500e-07;-0.003958683459677281
8.27750e-07;-0.0039690095652463704
8.28000e-07;-0.003979335670815461
8.28250e-07;-0.0039896617763845515
8.28500e-07;-0.003999987881953641
8.28750e-07;-0.004010313987522727
8.29000e-07;-0.004020640093091818
8.29250e-07;-0.0040309661986609084
8.29500e-07;-0.004041292304229998
8.29750e-07;-0.004051618409799089
8.30000e-07;-0.004061944515368179
8.30250e-07;-0.0040722706209372645
8.30500e-07;-0.004082596726506355
8.30750e-07;-0.004092922832075446
8.31000e-07;-0.004103248937644536
8.31250e-07;-0.004114907650088446
8.31500e-07;-0.00412880047237998
8.31750e-07;-0.00414269329467152
8.32000e-07;-0.00415658611696306
8.32250e-07;-0.004170478939254601
8.32500e-07;-0.004184371761546141
8.32750e-07;-0.0041982645838376815
8.33000e-07;-0.0042121574061292156
8.33250e-07;-0.0042260502284207566
8.33500e-07;-0.004239943050712297
8.33750e-07;-0.004253835873003837
8.34000e-07;-0.004267728695295377
8.34250e-07;-0.0042733441953022155
8.34500e-07;-0.004277762308611618
8.34750e-07;-0.0042821804219210224
8.35000e-07;-0.004286598535230426
8.35250e-07;-0.00429101664853983
8.35500e-07;-0.004295434761849235
8.35750e-07;-0.004299852875158636
8.36000e-07;-0.004304270988468041
8.36250e-07;-0.004308689101777444
8.36500e-07;-0.0043131072150868486
8.36750e-07;-0.004317525328396253
8.37000e-07;-0.004316188414573231
8.37250e-07;-0.0043052032218519306
8.37500e-07;-0.0042942180291306266
8.37750e-07;-0.004283232836409322
8.38000e-07;-0.004272247643688018
8.38250e-07;-0.004261262450966713
8.38500e-07;-0.004250277258245409
8.38750e-07;-0.004239292065524108
8.39000e-07;-0.004228306872802804
8.39250e-07;-0.004217321680081499
8.39500e-07;-0.004206336487360195
8.39750e-07;-0.0041953512946388905
8.40000e-07;-0.004178113997596218
8.40250e-07;-0.004159972279257853
8.40500e-07;-0.004141830560919487
8.40750e-07;-0.0041236888425811215
8.41000e-07;-0.004105547124242756
8.41250e-07;-0.0040874054059043905
8.41500e-07;-0.004069263687566033
8.41750e-07;-0.004051121969227667
8.42000e-07;-0.004032980250889302
8.42250e-07;-0.004014838532550936
8.42500e-07;-0.003996696814212571
8.42750e-07;-0.003980934818148979
8.43000e-07;-0.0039691624165181065
8.43250e-07;-0.003957390014887228
8.43500e-07;-0.00394561761325635
8.43750e-07;-0.0039338452116254715
8.44000e-07;-0.0039220728099945935
8.44250e-07;-0.00391030040836372
8.44500e-07;-0.0038985280067328418
8.44750e-07;-0.0038867556051019633
8.45000e-07;-0.0038749832034710853
8.45250e-07;-0.003863210801840207
8.45500e-07;-0.0038514384002093288
8.45750e-07;-0.0038396659985784555
8.46000e-07;-0.003830763348842817
8.46250e-07;-0.0038222758336913165
8.46500e-07;-0.0038137883185398154
8.46750e-07;-0.003805300803388315
8.47000e-07;-0.0037968132882368172
8.47250e-07;-0.0037883257730853166
8.47500e-07;-0.0037798382579338156
8.47750e-07;-0.003771350742782315
8.48000e-07;-0.003762863227630814
8.48250e-07;-0.0037543757124793133
8.48500e-07;-0.0037458881973278157
8.48750e-07;-0.003737400682176315
8.49000e-07;-0.0037295567412752185
8.49250e-07;-0.003722791749911087
8.49500e-07;-0.0037160267585469556
8.49750e-07;-0.0037092617671828244
8.50000e-07;-0.0037024967758186957
8.50250e-07;-0.0036957317844545645
8.50500e-07;-0.003688966793090433
8.50750e-07;-0.0036822018017263016
8.51000e-07;-0.0036754368103621704
8.51250e-07;-0.0036686718189980418
8.51500e-07;-0.0036619068276339106
8.51750e-07;-0.003655141836269779
8.52000e-07;-0.0036483768449056477
8.52250e-07;-0.0036416118535415164
8.52500e-07;-0.0036348468621773848
8.52750e-07;-0.0036280818708132566
8.53000e-07;-0.003621316879449125
8.53250e-07;-0.0036145518880849937
8.53500e-07;-0.0036077868967208625
8.53750e-07;-0.003601021905356731
8.54000e-07;-0.0035942569139925996
8.54250e-07;-0.003587491922628471
8.54500e-07;-0.0035807269312643397
8.54750e-07;-0.0035739619399002085
8.55000e-07;-0.0035708611263396937
8.55250e-07;-0.003573903291529675
8.55500e-07;-0.0035769454567196554
8.55750e-07;-0.003579987621909637
8.56000e-07;-0.0035830297870996183
8.56250e-07;-0.0035860719522895997
8.56500e-07;-0.003589114117479581
8.56750e-07;-0.0035921562826695627
8.57000e-07;-0.003595198447859543
8.57250e-07;-0.0035982406130495243
8.57500e-07;-0.0036012827782395057
8.57750e-07;-0.003604324943429487
8.58000e-07;-0.0036073671086194687
8.58250e-07;-0.00361040927380945
8.58500e-07;-0.0036134514389994303
8.58750e-07;-0.0036164936041894117
8.59000e-07;-0.003619535769379393
8.59250e-07;-0.0036225779345693747
8.59500e-07;-0.003625620099759356
8.59750e-07;-0.0036286622649493363
8.60000e-07;-0.0036317044301393177
8.60250e-07;-0.003634746595329299
8.60500e-07;-0.0036377887605192807
8.60750e-07;-0.003640830925709262
8.61000e-07;-0.0036451627675198133
8.61250e-07;-0.0036516567467865225
8.61500e-07;-0.0036581507260532342
8.61750e-07;-0.003664644705319946
8.62000e-07;-0.0036711386845866578
8.62250e-07;-0.0036776326638533695
8.62500e-07;-0.0036841266431200813
8.62750e-07;-0.0036906206223867905
8.63000e-07;-0.0036971146016535022
8.63250e-07;-0.003703608580920214
8.63500e-07;-0.0037101025601869258
8.63750e-07;-0.0037197259530802568
8.64000e-07;-0.0037298020428867523
8.64250e-07;-0.003739878132693252
8.64500e-07;-0.003749954222499752
8.64750e-07;-0.0037600303123062513
8.65000e-07;-0.003770106402112751
8.65250e-07;-0.003780182491919251
8.65500e-07;-0.0037902585817257465
8.65750e-07;-0.0038003346715322463
8.66000e-07;-0.0038104107613387457
8.66250e-07;-0.003825793432750623
8.66500e-07;-0.0038500725660121147
8.66750e-07;-0.0038743516992735963
8.67000e-07;-0.0038986308325350883
8.67250e-07;-0.00392290996579658
8.67500e-07;-0.003947189099058072
8.67750e-07;-0.0039714682323195635
8.68000e-07;-0.003995747365581056
8.68250e-07;-0.004020026498842537
8.68500e-07;-0.0040443056321040295
8.68750e-07;-0.004068584765365521
8.69000e-07;-0.004092863898627013
8.69250e-07;-0.004120904552452288
8.69500e-07;-0.004155251379758141
8.69750e-07;-0.00418959820706398
8.70000e-07;-0.004223945034369833
8.70250e-07;-0.0042582918616756865
8.70500e-07;-0.00429263868898154
8.70750e-07;-0.004326985516287393
8.71000e-07;-0.004361332343593232
8.71250e-07;-0.004395679170899085
8.71500e-07;-0.004430025998204939
8.71750e-07;-0.004464372825510792
8.72000e-07;-0.004498719652816645
8.72250e-07;-0.004530855160874517
8.72500e-07;-0.004559283401469044
8.72750e-07;-0.004587711642063582
8.73000e-07;-0.004616139882658121
8.73250e-07;-0.00464456812325266
8.73500e-07;-0.0046729963638471985
8.73750e-07;-0.004701424604441737
8.74000e-07;-0.004729852845036265
8.74250e-07;-0.004758281085630803
8.74500e-07;-0.004786709326225342
8.74750e-07;-0.004815137566819881
8.75000e-07;-0.0048416650099107695
8.75250e-07;-0.004865005773942928
8.75500e-07;-0.004888346537975098
8.75750e-07;-0.004911687302007266
8.76000e-07;-0.004935028066039435
8.76250e-07;-0.004958368830071604
8.76500e-07;-0.004981709594103772
8.76750e-07;-0.005005050358135932
8.77000e-07;-0.0050283911221681
8.77250e-07;-0.005051731886200269
8.77500e-07;-0.005075072650232438
8.77750e-07;-0.005099304822090559
8.78000e-07;-0.005125031435437737
8.78250e-07;-0.005150758048784902
8.78500e-07;-0.00517648466213208
8.78750e-07;-0.005202211275479258
8.79000e-07;-0.005227937888826435
8.79250e-07;-0.005253664502173613
8.79500e-07;-0.00527939111552078
8.79750e-07;-0.005305117728867957
8.80000e-07;-0.005330844342215135
8.80250e-07;-0.005356570955562312
8.80500e-07;-0.00538229756890949
8.80750e-07;-0.005408024182256667
8.81000e-07;-0.005433750795603834
8.81250e-07;-0.005456457927211932
8.81500e-07;-0.005478728264510996
8.81750e-07;-0.005500998601810059
8.82000e-07;-0.005523268939109123
8.82250e-07;-0.005545539276408178
8.82500e-07;-0.005567809613707242
8.82750e-07;-0.005590079951006306
8.83000e-07;-0.00561235028830537
8.83250e-07;-0.0056346206256044345
8.83500e-07;-0.005656890962903498
8.83750e-07;-0.005679161300202552
8.84000e-07;-0.0057014316375016165
8.84250e-07;-0.005723701974800681
8.84500e-07;-0.005738839189733261
8.84750e-07;-0.005742017754875316
8.85000e-07;-0.005745196320017371
8.85250e-07;-0.0057483748851594255
8.85500e-07;-0.0057515534503014805
8.85750e-07;-0.0057547320154435365
8.86000e-07;-0.0057579105805855915
8.86250e-07;-0.005761089145727647
8.86500e-07;-0.005764267710869701
8.86750e-07;-0.005767446276011757
8.87000e-07;-0.005770624841153812
8.87250e-07;-0.005773803406295867
8.87500e-07;-0.005768715390525775
8.87750e-07;-0.005749768486457582
8.88000e-07;-0.0057308215823893985
8.88250e-07;-0.005711874678321207
8.88500e-07;-0.0056929277742530145
8.88750e-07;-0.005673980870184823
8.89000e-07;-0.005655033966116631
8.89250e-07;-0.005636087062048439
8.89500e-07;-0.005617140157980255
8.89750e-07;-0.005598193253912064
8.90000e-07;-0.005579246349843872
8.90250e-07;-0.00556029944577568
8.90500e-07;-0.005538657942160963
8.90750e-07;-0.0055124989536851745
8.91000e-07;-0.005486339965209375
8.91250e-07;-0.005460180976733575
8.91500e-07;-0.005434021988257776
8.91750e-07;-0.005407862999781976
8.92000e-07;-0.005381704011306177
8.92250e-07;-0.005355545022830388
8.92500e-07;-0.005329386034354589
8.92750e-07;-0.005303227045878789
8.93000e-07;-0.00527706805740299
8.93250e-07;-0.00525576113379581
8.93500e-07;-0.0052425886766318255
8.93750e-07;-0.005229416219467847
8.94000e-07;-0.005216243762303863
8.94250e-07;-0.005203071305139879
8.94500e-07;-0.005189898847975895
8.94750e-07;-0.005176726390811911
8.95000e-07;-0.005163553933647932
8.95250e-07;-0.0051503814764839485
