Time(s);Current(A)
1.33000e-05;0.009665879768745259
1.33003e-05;0.00965768599273384
1.33005e-05;0.009649492216722367
1.33008e-05;0.009641298440710893
1.33010e-05;0.009633104664699474
1.33013e-05;0.00959468353397393
1.33015e-05;0.00955617497532802
1.33018e-05;0.009517666416682372
1.33020e-05;0.009479157858036462
1.33023e-05;0.009440649299390553
1.33025e-05;0.009402140740744904
1.33028e-05;0.009363632182098994
1.33030e-05;0.009325123623453084
1.33033e-05;0.009257751021991145
1.33035e-05;0.009190294935775925
1.33038e-05;0.009122838849560704
1.33040e-05;0.009055382763345943
1.33043e-05;0.008987926677130722
1.33045e-05;0.008920470590915502
1.33048e-05;0.008853014504700283
1.33050e-05;0.00878555841848552
1.33053e-05;0.008718102332270298
1.33055e-05;0.008645903526566573
1.33058e-05;0.008568906971897513
1.33060e-05;0.008491910417227933
1.33063e-05;0.008414913862558352
1.33065e-05;0.008337917307889292
1.33068e-05;0.008260920753219712
1.33070e-05;0.008183924198550132
1.33073e-05;0.008106927643881072
1.33075e-05;0.008029931089211491
1.33078e-05;0.007952934534541909
1.33080e-05;0.0078953169125944
1.33083e-05;0.007837755341194977
1.33085e-05;0.007780193769795554
1.33088e-05;0.0077226321983965215
1.33090e-05;0.007665070626997099
1.33093e-05;0.007607509055597676
1.33095e-05;0.007549947484198643
1.33098e-05;0.007510298768616503
1.33100e-05;0.0074887707505988735
1.33103e-05;0.00746724273258139
1.33105e-05;0.007445714714563761
1.33108e-05;0.007424186696546132
1.33110e-05;0.007402658678528648
1.33113e-05;0.007381130660511019
1.33115e-05;0.007359602642493389
1.33118e-05;0.007381213495360189
1.33120e-05;0.0074029491207017375
1.33123e-05;0.007424684746043287
1.33125e-05;0.007446420371384689
1.33128e-05;0.007468155996726239
1.33130e-05;0.007489891622067788
1.33133e-05;0.007511627247409337
1.33135e-05;0.007533362872750739
1.33138e-05;0.0075550984980922884
1.33140e-05;0.007576834123433838
1.33143e-05;0.007630034140351694
1.33145e-05;0.007683325163129287
1.33148e-05;0.00773661618590688
1.33150e-05;0.007789907208684113
1.33153e-05;0.007843198231461707
1.33155e-05;0.0078964892542393
1.33158e-05;0.007949780277016533
1.33160e-05;0.008003071299794126
1.33163e-05;0.008056362322571719
1.33165e-05;0.008109653345348952
1.33168e-05;0.0081652229947986
1.33170e-05;0.008220799234821576
1.33173e-05;0.008276375474844177
1.33175e-05;0.008331951714867154
1.33178e-05;0.008387527954890131
1.33180e-05;0.008443104194912732
1.33183e-05;0.008498680434935709
1.33185e-05;0.008545001303867391
1.33188e-05;0.00858195941221281
1.33190e-05;0.008618917520558477
1.33193e-05;0.008655875628904144
1.33195e-05;0.00869283373724956
1.33198e-05;0.008729791845595228
1.33200e-05;0.008766749953940896
1.33203e-05;0.008803708062286314
1.33205e-05;0.008812507136816352
1.33208e-05;0.008821224765718763
1.33210e-05;0.008829942394621116
1.33213e-05;0.008838660023523525
1.33215e-05;0.008847377652425936
1.33218e-05;0.008856095281328346
1.33220e-05;0.008864812910230698
1.33223e-05;0.008873530539133109
1.33225e-05;0.008882248168035518
1.33228e-05;0.00889096579693787
1.33230e-05;0.008899683425840282
1.33233e-05;0.008908401054742691
1.33235e-05;0.008917118683645043
1.33238e-05;0.008925836312547454
1.33240e-05;0.008923931626591112
1.33243e-05;0.008911281375716468
1.33245e-05;0.00889863112484174
1.33248e-05;0.008885980873967012
1.33250e-05;0.008873330623092368
1.33253e-05;0.00886068037221764
1.33255e-05;0.008848030121342911
1.33258e-05;0.00883537987046827
1.33260e-05;0.008822729619593541
1.33263e-05;0.008810079368718813
1.33265e-05;0.00879742911784417
1.33268e-05;0.00878477886696944
1.33270e-05;0.008772128616094712
1.33273e-05;0.00875947836522007
1.33275e-05;0.00874682811434534
1.33278e-05;0.008733212377413492
1.33280e-05;0.008719593847963378
1.33283e-05;0.008705975318513172
1.33285e-05;0.008692356789062968
1.33288e-05;0.008678738259612854
1.33290e-05;0.008665119730162648
1.33293e-05;0.008651501200712442
1.33295e-05;0.00863788267126233
1.33298e-05;0.008624264141812124
1.33300e-05;0.008610645612361918
1.33303e-05;0.008593761198493567
1.33305e-05;0.008569893340876664
1.33308e-05;0.0085460254832596
1.33310e-05;0.008522157625642535
1.33313e-05;0.008498289768025632
1.33315e-05;0.008474421910408567
1.33318e-05;0.008450554052791503
1.33320e-05;0.0084266861951746
1.33323e-05;0.008402818337557535
1.33325e-05;0.008378950479940469
1.33328e-05;0.008355082622323567
1.33330e-05;0.008321433875013785
1.33333e-05;0.008282287471758114
1.33335e-05;0.00824314106850271
1.33338e-05;0.008203994665247039
1.33340e-05;0.00816484826199137
1.33343e-05;0.008125701858735965
1.33345e-05;0.008086555455480295
1.33348e-05;0.008047409052224626
1.33350e-05;0.00800826264896922
1.33353e-05;0.00796911624571355
1.33355e-05;0.00792996984245788
1.33358e-05;0.007890676513760802
1.33360e-05;0.007850481927193545
1.33363e-05;0.0078102873406262876
1.33365e-05;0.007770092754059304
1.33368e-05;0.007729898167492047
1.33370e-05;0.00768970358092479
1.33373e-05;0.0076495089943578055
1.33375e-05;0.0076093144077905486
1.33378e-05;0.007569119821223292
1.33380e-05;0.007528925234656308
1.33383e-05;0.007488730648089051
1.33385e-05;0.007448536061521794
1.33388e-05;0.007422545853955504
1.33390e-05;0.007404539663297996
1.33393e-05;0.007386533472640366
1.33395e-05;0.0073685272819827355
1.33398e-05;0.0073505210913252265
1.33400e-05;0.007332514900667596
1.33403e-05;0.007314508710009966
1.33405e-05;0.007296502519352458
1.33408e-05;0.007278496328694827
1.33410e-05;0.007260490138037197
1.33413e-05;0.007242483947379688
1.33415e-05;0.007224477756722057
1.33418e-05;0.007206471566064427
1.33420e-05;0.007188465375406919
1.33423e-05;0.0071704591847492885
1.33425e-05;0.007152452994091658
1.33428e-05;0.007137122530724461
1.33430e-05;0.007138205291994089
1.33433e-05;0.007139288053263717
1.33435e-05;0.0071403708145333375
1.33438e-05;0.007141453575802966
1.33440e-05;0.007142536337072594
1.33443e-05;0.007143619098342215
1.33445e-05;0.0071447018596118425
1.33448e-05;0.007145784620881471
1.33450e-05;0.0071468673821510915
1.33453e-05;0.00714795014342072
1.33455e-05;0.007149032904690347
1.33458e-05;0.007150115665959969
1.33460e-05;0.007151198427229596
1.33463e-05;0.007152281188499225
1.33465e-05;0.007153363949768845
1.33468e-05;0.007154446711038474
1.33470e-05;0.0071579860766490915
1.33473e-05;0.007162906253810785
1.33475e-05;0.007167826430972446
1.33478e-05;0.007172746608134139
1.33480e-05;0.007177666785295833
1.33483e-05;0.0071825869624574925
1.33485e-05;0.007187507139619186
1.33488e-05;0.00719242731678088
1.33490e-05;0.00719734749394254
1.33493e-05;0.007202267671104234
1.33495e-05;0.0072071878482659274
1.33498e-05;0.007212108025427588
1.33500e-05;0.007224269946458904
1.33503e-05;0.007240502316857842
1.33505e-05;0.007256734687256672
1.33508e-05;0.00727296705765561
1.33510e-05;0.007289199428054549
1.33513e-05;0.0073054317984533775
1.33515e-05;0.007321664168852316
1.33518e-05;0.007337896539251255
1.33520e-05;0.007354128909650083
1.33523e-05;0.007370361280049022
1.33525e-05;0.007386593650447961
1.33528e-05;0.007402826020846789
1.33530e-05;0.007430465107295995
1.33533e-05;0.007464515696412906
1.33535e-05;0.007498566285529587
1.33538e-05;0.007532616874646497
1.33540e-05;0.007566667463763409
1.33543e-05;0.007600718052880089
1.33545e-05;0.007634768641997
1.33548e-05;0.007668819231113911
1.33550e-05;0.007702869820230592
1.33553e-05;0.0077369204093475025
1.33555e-05;0.007770970998464414
1.33557e-05;0.0078050215875810946
1.33560e-05;0.007839546930712683
1.33563e-05;0.007874339124234738
1.33565e-05;0.007909131317756795
1.33568e-05;0.007943923511278615
1.33570e-05;0.00797871570480067
1.33573e-05;0.008013507898322727
1.33575e-05;0.008048300091844547
1.33578e-05;0.008083092285366602
1.33580e-05;0.008117884478888658
1.33583e-05;0.008152676672410479
1.33585e-05;0.008187468865932536
1.33588e-05;0.00822226105945459
1.33590e-05;0.008241116835614435
1.33593e-05;0.008251015048352779
1.33595e-05;0.008260913261091123
1.33598e-05;0.008270811473829399
1.33600e-05;0.008280709686567743
1.33603e-05;0.008290607899306086
1.33605e-05;0.008300506112044363
1.33608e-05;0.008310404324782706
1.33610e-05;0.00832030253752105
1.33613e-05;0.008330200750259326
1.33615e-05;0.00834009896299767
1.33618e-05;0.008349997175736012
1.33620e-05;0.00835989538847429
1.33623e-05;0.008369793601212632
1.33625e-05;0.008379691813950976
1.33628e-05;0.008389590026689252
1.33630e-05;0.00838435205497248
1.33633e-05;0.008370606315847753
1.33635e-05;0.00835686057672312
1.33638e-05;0.008343114837598392
1.33640e-05;0.008329369098473665
1.33642e-05;0.00831562335934903
1.33645e-05;0.008301877620224305
1.33648e-05;0.008288131881099578
1.33650e-05;0.00827438614197485
1.33653e-05;0.008260640402850216
1.33655e-05;0.00824689466372549
1.33658e-05;0.008233148924600763
1.33660e-05;0.00821940318547613
1.33663e-05;0.008205657446351402
1.33665e-05;0.008191911707226674
1.33668e-05;0.00817816596810204
1.33670e-05;0.008163639189157669
1.33673e-05;0.008148673402275581
1.33675e-05;0.008133707615393596
1.33678e-05;0.00811874182851151
1.33680e-05;0.008103776041629424
1.33683e-05;0.008088810254747439
1.33685e-05;0.008073844467865353
1.33688e-05;0.008058878680983267
1.33690e-05;0.008043912894101281
1.33693e-05;0.008028947107219195
1.33695e-05;0.008013981320337107
1.33698e-05;0.008001730208871577
1.33700e-05;0.008006131234436355
1.33703e-05;0.008010532260001134
1.33705e-05;0.008014933285565885
1.33708e-05;0.008019334311130664
1.33710e-05;0.008023735336695443
1.33713e-05;0.008028136362260192
1.33715e-05;0.008032537387824973
1.33718e-05;0.008036938413389752
1.33720e-05;0.008041339438954501
1.33723e-05;0.008045740464519282
1.33725e-05;0.00805014149008406
1.33727e-05;0.008069273936589669
1.33730e-05;0.008096686640471331
1.33733e-05;0.008124099344352992
1.33735e-05;0.008151512048234652
1.33738e-05;0.008178924752116129
1.33740e-05;0.00820633745599779
1.33743e-05;0.00823375015987945
1.33745e-05;0.008261162863760925
1.33748e-05;0.008288575567642587
1.33750e-05;0.008315988271524247
1.33753e-05;0.008343400975405722
1.33755e-05;0.008370813679287385
1.33758e-05;0.008401598922807002
1.33760e-05;0.008434279808052184
1.33763e-05;0.008466960693297587
1.33765e-05;0.008499641578542988
1.33768e-05;0.00853232246378817
1.33770e-05;0.008565003349033573
1.33773e-05;0.008597684234278976
1.33775e-05;0.008630365119524157
1.33778e-05;0.008663046004769559
1.33780e-05;0.008695726890014962
1.33783e-05;0.008728407775260143
1.33785e-05;0.008761088660505546
1.33788e-05;0.00877971016094986
1.33790e-05;0.008790429143015676
1.33793e-05;0.008801148125081563
1.33795e-05;0.00881186710714745
1.33798e-05;0.008822586089213264
1.33800e-05;0.00883330507127915
1.33803e-05;0.008844024053345037
1.33805e-05;0.008854743035410851
1.33808e-05;0.00886546201747674
1.33810e-05;0.008876180999542627
1.33812e-05;0.00888689998160844
1.33815e-05;0.008897618963674327
1.33818e-05;0.008908337945740214
1.33820e-05;0.008919056927806101
1.33823e-05;0.008929775909871917
1.33825e-05;0.008937100699402028
1.33828e-05;0.008923605114271916
1.33830e-05;0.008910109529141893
1.33833e-05;0.008896613944011781
1.33835e-05;0.008883118358881668
1.33838e-05;0.008869622773751647
1.33840e-05;0.008856127188621533
1.33843e-05;0.00884263160349142
1.33845e-05;0.008829136018361399
1.33848e-05;0.008815640433231286
1.33850e-05;0.008802144848101174
1.33853e-05;0.008788649262971151
1.33855e-05;0.00877515367784104
1.33858e-05;0.008761658092710926
1.33860e-05;0.008748162507580905
1.33863e-05;0.008734666922450791
1.33865e-05;0.00871816354123945
1.33868e-05;0.008699969533862742
1.33870e-05;0.008681775526485913
1.33873e-05;0.008663581519109084
1.33875e-05;0.008645387511732376
1.33878e-05;0.008627193504355547
1.33880e-05;0.008608999496978718
1.33883e-05;0.00859080548960201
1.33885e-05;0.00857261148222518
1.33888e-05;0.008556469815262967
1.33890e-05;0.008541481730628922
1.33893e-05;0.008526493645994778
1.33895e-05;0.008511505561360632
1.33897e-05;0.008496517476726589
1.33900e-05;0.008481529392092443
1.33903e-05;0.0084665413074583
1.33905e-05;0.008451553222824154
1.33908e-05;0.00843656513819011
1.33910e-05;0.008417784477047021
1.33913e-05;0.008396872079273986
1.33915e-05;0.008375959681501092
1.33918e-05;0.008355047283728058
1.33920e-05;0.008334134885955023
1.33923e-05;0.008313222488182129
1.33925e-05;0.008292310090409094
1.33928e-05;0.00827139769263606
1.33930e-05;0.008250485294863165
1.33933e-05;0.00822957289709013
1.33935e-05;0.008208660499317096
1.33938e-05;0.008187748101544202
1.33940e-05;0.008166835703771167
1.33943e-05;0.008145923305998132
1.33945e-05;0.008125010908225238
1.33948e-05;0.008103657074995772
1.33950e-05;0.008079595424958006
1.33953e-05;0.008055533774920404
1.33955e-05;0.008031472124882639
1.33958e-05;0.008007410474844873
1.33960e-05;0.00798334882480727
1.33963e-05;0.007959287174769505
1.33965e-05;0.00793522552473174
1.33968e-05;0.007911163874694137
1.33970e-05;0.007887102224656372
1.33973e-05;0.007863040574618606
1.33975e-05;0.007838978924581004
1.33978e-05;0.007814917274543238
1.33980e-05;0.007790855624505472
1.33983e-05;0.007766793974467869
1.33985e-05;0.007742732324430104
1.33988e-05;0.00772816406543061
1.33990e-05;0.00771893186474844
1.33993e-05;0.007709699664066333
1.33995e-05;0.0077004674633841625
1.33998e-05;0.007691235262701993
1.34000e-05;0.0076820030620198855
1.34003e-05;0.007672770861337716
1.34005e-05;0.007663538660655546
1.34008e-05;0.007654306459973439
1.34010e-05;0.007645074259291269
1.34013e-05;0.007635842058609099
1.34015e-05;0.007626609857926992
1.34018e-05;0.007617377657244822
1.34020e-05;0.0076081454565626525
1.34023e-05;0.007598913255880545
1.34025e-05;0.007589681055198375
1.34028e-05;0.007580448854516205
1.34030e-05;0.007571216653834098
1.34033e-05;0.007561984453151928
1.34035e-05;0.0075604436260118205
1.34038e-05;0.007563225976711956
1.34040e-05;0.00756600832741211
1.34043e-05;0.007568790678112265
1.34045e-05;0.007571573028812401
1.34048e-05;0.0075743553795125556
1.34050e-05;0.00757713773021271
1.34053e-05;0.007579920080912845
1.34055e-05;0.007582702431613
1.34058e-05;0.007585484782313154
1.34060e-05;0.007588267133013291
1.34063e-05;0.007591049483713445
1.34065e-05;0.0075938318344135995
1.34068e-05;0.007596614185113735
1.34070e-05;0.007599396535813889
1.34073e-05;0.007602178886514044
1.34075e-05;0.007604961237214198
1.34078e-05;0.0076077435879143345
1.34080e-05;0.007610525938614489
1.34083e-05;0.007611135763102477
1.34085e-05;0.00761052445106296
1.34088e-05;0.007609913139023439
1.34090e-05;0.007609301826983918
1.34093e-05;0.007608690514944401
1.34095e-05;0.00760807920290488
1.34098e-05;0.007607467890865359
1.34100e-05;0.007606856578825842
1.34103e-05;0.007606245266786321
1.34105e-05;0.0076056339547467995
1.34108e-05;0.007605022642707282
1.34110e-05;0.0076022612221956585
1.34113e-05;0.007586310784398487
1.34115e-05;0.007570360346601424
1.34118e-05;0.007554409908804253
1.34120e-05;0.007538459471007081
1.34123e-05;0.007522509033210018
1.34125e-05;0.007506558595412847
1.34128e-05;0.007490608157615676
1.34130e-05;0.007474657719818613
1.34133e-05;0.007458707282021441
1.34135e-05;0.0074427568442242695
1.34138e-05;0.007426806406427206
1.34140e-05;0.007403316734081734
1.34143e-05;0.007375589398390282
1.34145e-05;0.007347862062699017
1.34148e-05;0.007320134727007565
1.34150e-05;0.007292407391316113
1.34153e-05;0.007264680055624849
1.34155e-05;0.007236952719933397
1.34158e-05;0.007209225384241945
1.34160e-05;0.007181498048550493
1.34163e-05;0.007153770712859229
1.34165e-05;0.007126043377167777
1.34168e-05;0.007098316041476325
1.34170e-05;0.007071368643647757
1.34173e-05;0.007049205476051894
1.34175e-05;0.007027042308456031
1.34178e-05;0.007004879140860318
1.34180e-05;0.006982715973264455
1.34183e-05;0.006960552805668591
1.34185e-05;0.006938389638072878
1.34188e-05;0.006916226470477014
1.34190e-05;0.006894063302881151
1.34193e-05;0.0068719001352854385
1.34195e-05;0.006849736967689575
1.34198e-05;0.006827573800093712
1.34200e-05;0.006805410632497998
1.34203e-05;0.006795527641335789
1.34205e-05;0.0067925471086703795
1.34208e-05;0.006789566576004991
1.34210e-05;0.006786586043339582
1.34213e-05;0.006783605510674173
1.34215e-05;0.006780624978008784
1.34218e-05;0.006777644445343374
1.34220e-05;0.0067746639126779655
1.34223e-05;0.006771683380012577
1.34225e-05;0.006768702847347168
1.34228e-05;0.006765722314681758
1.34230e-05;0.006762741782016369
1.34233e-05;0.0067597612493509604
1.34235e-05;0.006756780716685551
1.34238e-05;0.006753800184020162
1.34240e-05;0.006752582007433082
1.34243e-05;0.0067621743295249925
1.34245e-05;0.006771766651616903
1.34248e-05;0.006781358973708749
1.34250e-05;0.00679095129580066
1.34253e-05;0.0068005436178925705
1.34255e-05;0.006810135939984417
1.34258e-05;0.006819728262076327
1.34260e-05;0.006829320584168239
1.34263e-05;0.006838912906260084
1.34265e-05;0.006848505228351995
1.34268e-05;0.006858097550443906
1.34270e-05;0.006867689872535752
1.34273e-05;0.006877282194627662
1.34275e-05;0.006886874516719574
1.34278e-05;0.006896466838811419
1.34280e-05;0.0069061292285924275
1.34283e-05;0.006915831002116712
1.34285e-05;0.006925532775640931
1.34288e-05;0.006935234549165215
1.34290e-05;0.0069449363226895
1.34293e-05;0.006954638096213718
1.34295e-05;0.006964339869738002
1.34298e-05;0.006974041643262287
1.34300e-05;0.006983743416786505
1.34303e-05;0.00699344519031079
1.34305e-05;0.007012074555203755
1.34308e-05;0.007035721952960171
1.34310e-05;0.0070593693507167475
1.34313e-05;0.007083016748473324
1.34315e-05;0.0071066641462297405
1.34318e-05;0.007130311543986316
1.34320e-05;0.007153958941742893
1.34323e-05;0.007177606339499309
1.34325e-05;0.007201253737255886
1.34328e-05;0.007224901135012463
1.34330e-05;0.007260375870464322
1.34333e-05;0.007302498532192787
1.34335e-05;0.007344621193921538
1.34338e-05;0.007386743855650288
1.34340e-05;0.007428866517378754
1.34343e-05;0.007470989179107504
1.34345e-05;0.007513111840836254
1.34348e-05;0.00755523450256472
1.34350e-05;0.00759735716429347
1.34353e-05;0.0076394798260222205
1.34355e-05;0.007681602487750686
1.34358e-05;0.007725530841202214
1.34360e-05;0.007770474140346721
1.34363e-05;0.007815417439490923
1.34365e-05;0.007860360738635429
1.34368e-05;0.007905304037779936
1.34370e-05;0.007950247336924137
1.34373e-05;0.007995190636068643
1.34375e-05;0.00804013393521315
1.34378e-05;0.008085077234357353
1.34380e-05;0.008130020533501859
1.34383e-05;0.008174963832646365
1.34385e-05;0.008203949507719422
1.34388e-05;0.00822396569945364
1.34390e-05;0.008243981891187859
1.34393e-05;0.008263998082921942
1.34395e-05;0.00828401427465616
1.34398e-05;0.008304030466390378
1.34400e-05;0.00832404665812446
1.34403e-05;0.008344062849858678
1.34405e-05;0.008364079041592896
1.34408e-05;0.008384095233326979
1.34410e-05;0.008404111425061197
1.34413e-05;0.008424127616795415
1.34415e-05;0.008444143808529633
1.34418e-05;0.008459810689196458
1.34420e-05;0.008448798386139907
1.34423e-05;0.008437786083083355
1.34425e-05;0.008426773780026878
1.34428e-05;0.008415761476970327
1.34430e-05;0.008404749173913775
1.34433e-05;0.008393736870857298
1.34435e-05;0.008382724567800747
1.34438e-05;0.008371712264744197
1.34440e-05;0.00836069996168772
1.34443e-05;0.008349687658631168
1.34445e-05;0.008338675355574617
1.34448e-05;0.00832766305251814
1.34450e-05;0.008316650749461588
1.34453e-05;0.008297305162192637
1.34455e-05;0.008273275591043716
1.34458e-05;0.008249246019894633
1.34460e-05;0.008225216448745548
1.34463e-05;0.008201186877596627
1.34465e-05;0.008177157306447542
1.34468e-05;0.008153127735298457
1.34470e-05;0.008129098164149536
1.34473e-05;0.008105068593000453
1.34475e-05;0.00808334773092285
1.34478e-05;0.008062924551223673
1.34480e-05;0.008042501371524359
1.34483e-05;0.008022078191825042
1.34485e-05;0.008001655012125866
1.34488e-05;0.007981231832426551
1.34490e-05;0.007960808652727237
1.34493e-05;0.00794038547302806
1.34495e-05;0.007919962293328744
1.34498e-05;0.007900461905572764
1.34500e-05;0.00788148020198474
1.34503e-05;0.007862498498396844
1.34505e-05;0.00784351679480882
1.34508e-05;0.007824535091220794
1.34510e-05;0.007805553387632899
1.34513e-05;0.007786571684044874
1.34515e-05;0.0077675899804568495
