Time(s);Current(A)
1.37500e-05;-0.0002591870655598981
1.37503e-05;-0.00027464585291153785
1.37505e-05;-0.00029010464026317756
1.37508e-05;-0.00030556342761471253
1.37510e-05;-0.0003210222149663523
1.37513e-05;-0.000336481002317992
1.37515e-05;-0.00035193978966952704
1.37518e-05;-0.00036659519692575836
1.37520e-05;-0.00038071135666949124
1.37523e-05;-0.00039482751641312845
1.37525e-05;-0.00040894367615686134
1.37528e-05;-0.00042305983590059423
1.37530e-05;-0.00043717599564423144
1.37533e-05;-0.00045129215538796427
1.37535e-05;-0.00046540831513169716
1.37538e-05;-0.0004795244748753344
1.37540e-05;-0.0004922525090375506
1.37543e-05;-0.0005040488008386978
1.37545e-05;-0.000515845092639765
1.37548e-05;-0.0005276413844409122
1.37550e-05;-0.0005394376762420593
1.37553e-05;-0.0005512339680431265
1.37555e-05;-0.0005630302598442737
1.37558e-05;-0.0005748265516454208
1.37560e-05;-0.000583920031949002
1.37563e-05;-0.0005911993219517727
1.37565e-05;-0.0005984786119545434
1.37568e-05;-0.0006057579019572648
1.37570e-05;-0.0006130371919600355
1.37573e-05;-0.0006203164819628062
1.37575e-05;-0.000627595771965577
1.37578e-05;-0.0006348750619682984
1.37580e-05;-0.0006384070627592165
1.37583e-05;-0.0006394237953749472
1.37585e-05;-0.000640440527990671
1.37588e-05;-0.0006414572606064017
1.37590e-05;-0.0006424739932221324
1.37593e-05;-0.0006434907258378562
1.37595e-05;-0.0006445074584535869
1.37598e-05;-0.0006455241910693177
1.37600e-05;-0.0006465409236850415
1.37603e-05;-0.0006441789595585634
1.37605e-05;-0.000639549135144535
1.37608e-05;-0.0006349193107305379
1.37610e-05;-0.0006302894863165095
1.37613e-05;-0.0006256596619024812
1.37615e-05;-0.0006210298374884841
1.37618e-05;-0.0006164000130744557
1.37620e-05;-0.0006117701886604273
1.37623e-05;-0.0006071403642464303
1.37625e-05;-0.0006007931803536717
1.37628e-05;-0.0005932932646064336
1.37630e-05;-0.0005857933488592464
1.37633e-05;-0.0005782934331120083
1.37635e-05;-0.0005707935173647703
1.37638e-05;-0.0005632936016175831
1.37640e-05;-0.000555793685870345
1.37643e-05;-0.0005482937701231069
1.37645e-05;-0.0005407938543759198
1.37648e-05;-0.0005332939386286816
1.37650e-05;-0.0005257940228814436
1.37653e-05;-0.0005182941071342563
1.37655e-05;-0.0005107941913870183
1.37658e-05;-0.0005032942756397803
1.37660e-05;-0.000496756454118121
1.37663e-05;-0.0004908644127460257
1.37665e-05;-0.0004849723713738904
1.37668e-05;-0.00047908033000175514
1.37670e-05;-0.00047271571065181074
1.37673e-05;-0.0004660338859085287
1.37675e-05;-0.00045935206116524664
1.37678e-05;-0.0004526702364220099
1.37680e-05;-0.0004446808952923155
1.37683e-05;-0.00043581391857855383
1.37685e-05;-0.00042694694186485227
1.37688e-05;-0.00041698730390331794
1.37690e-05;-0.00040629424615265574
1.37693e-05;-0.00039560118840206607
1.37695e-05;-0.0003832335228446325
1.37698e-05;-0.0003697418213546972
1.37700e-05;-0.0003562501198648533
1.37703e-05;-0.00034151398813947746
1.37705e-05;-0.00032594256573021123
1.37708e-05;-0.00031037114332105054
1.37710e-05;-0.000293806665862549
1.37713e-05;-0.000276575626625318
1.37715e-05;-0.0002583396206938185
1.37718e-05;-0.0002394290576085903
1.37720e-05;-0.0002205184945233621
1.37723e-05;-0.00020093738766472082
1.37725e-05;-0.0001809061961396713
1.37728e-05;-0.0001608750046146218
1.37730e-05;-0.00014049396946450794
1.37733e-05;-0.0001198781110894131
1.37735e-05;-9.924754494367606e-05
1.37738e-05;-7.848216272936743e-05
1.37740e-05;-5.771678051491808e-05
1.37743e-05;-3.7146164800709144e-05
1.37745e-05;-1.6931427772654766e-05
1.37748e-05;2.8532805172388877e-06
1.37750e-05;2.2151617867712284e-05
1.37753e-05;4.091970873617725e-05
1.37755e-05;5.907159574269417e-05
1.37758e-05;7.648442525247948e-05
1.37760e-05;9.30264973483478e-05
1.37763e-05;0.00010856614039712267
1.37765e-05;0.00012297409774125818
1.37768e-05;0.0001361578976457935
1.37770e-05;0.0001488389240648666
1.37773e-05;0.0001614492512129158
1.37775e-05;0.0001740121233563781
1.37778e-05;0.00018640356533169137
1.37780e-05;0.00019867993936813758
1.37783e-05;0.0002109563134045838
1.37785e-05;0.0002232326874409468
1.37788e-05;0.0002353418456633204
1.37790e-05;0.00024733876471972103
1.37793e-05;0.0002593356837760404
1.37795e-05;0.0002713326028324411
1.37798e-05;0.00028391120142258323
1.37800e-05;0.000296880236922535
1.37803e-05;0.0003098492724225747
1.37805e-05;0.0003228183079226143
1.37808e-05;0.0003357873434225661
1.37810e-05;0.00034875637892260573
1.37813e-05;0.0003617254144226454
1.37815e-05;0.00037475816909062707
1.37818e-05;0.000388374993768462
1.37820e-05;0.00040199181844629694
1.37823e-05;0.0004156086431240395
1.37825e-05;0.0004292254678018745
1.37828e-05;0.0004428422924797094
1.37830e-05;0.0004564591171575443
1.37833e-05;0.0004700759418352869
1.37835e-05;0.00048337136919690977
1.37838e-05;0.0004964510671616227
1.37840e-05;0.0005095307651262471
1.37843e-05;0.0005226104630909601
1.37845e-05;0.000535690161055673
1.37848e-05;0.0005487698590202973
1.37850e-05;0.0005604884309395898
1.37853e-05;0.0005712933832170813
1.37855e-05;0.0005820983354944996
1.37858e-05;0.0005929032877719911
1.37860e-05;0.0006037082400494826
1.37863e-05;0.0006145131923269008
1.37865e-05;0.0006233799481121897
1.37868e-05;0.000630945741072615
1.37870e-05;0.000638511534032989
1.37873e-05;0.000643822444438074
1.37875e-05;0.0006476198249245901
1.37878e-05;0.0006493874366955136
1.37880e-05;0.0006497926202231337
1.37883e-05;0.000648239957687949
1.37885e-05;0.000645373143076479
1.37888e-05;0.0006404843092846273
1.37890e-05;0.0006342382489187952
1.37893e-05;0.0006257200074096462
1.37895e-05;0.0006156766247649929
1.37898e-05;0.0006034923851233727
1.37900e-05;0.0005898711521854436
1.37903e-05;0.000574350638773342
1.37905e-05;0.0005575552838780483
1.37908e-05;0.0005390169975588556
1.37910e-05;0.0005193088148961302
1.37913e-05;0.0004978975804401121
1.37915e-05;0.0004753432177817008
1.37918e-05;0.0004510809794621736
1.37920e-05;0.00042567237504704
1.37923e-05;0.0004002637706319064
1.37925e-05;0.0003734656484286988
1.37928e-05;0.00034573484938142245
1.37930e-05;0.00031800405033414607
1.37933e-05;0.00028947552661131486
1.37935e-05;0.0002604115514250725
1.37938e-05;0.00023134757623883006
1.37940e-05;0.00020228360105278457
1.37943e-05;0.00017321962586654217
1.37945e-05;0.00014415565068029977
1.37948e-05;0.0001155928977277948
1.37950e-05;8.774753617830424e-05
1.37953e-05;6.062232222163925e-05
1.37955e-05;3.4379284807702925e-05
1.37958e-05;9.203501873883767e-06
1.37960e-05;-1.4714638598472676e-05
1.37963e-05;-3.718476956131143e-05
1.37965e-05;-5.8018838994455134e-05
1.37968e-05;-7.719109810283194e-05
1.37970e-05;-9.504435258872844e-05
1.37973e-05;-0.0001120509740322198
1.37975e-05;-0.00012841173091685906
1.37978e-05;-0.0001440719703101807
1.37980e-05;-0.00015891426690433334
1.37983e-05;-0.0001728212245544883
1.37985e-05;-0.00018567690708668703
1.37988e-05;-0.00019725225334877206
1.37990e-05;-0.0002082640659518732
1.37993e-05;-0.0002186745973410968
1.37995e-05;-0.00022868153471406068
1.37998e-05;-0.00023792733566643378
1.38000e-05;-0.0002466622440482212
1.38003e-05;-0.00025539715242994945
1.38005e-05;-0.0002629966261934001
1.38008e-05;-0.0002698339696800469
1.38010e-05;-0.0002766713131666474
1.38013e-05;-0.0002828601801894883
1.38015e-05;-0.0002886137746401409
1.38018e-05;-0.0002943673690907545
1.38020e-05;-0.0002994947836804574
1.38023e-05;-0.00030420189169937724
1.38025e-05;-0.00030890899971826514
1.38028e-05;-0.00031270680920069625
1.38030e-05;-0.00031589427623436063
1.38033e-05;-0.0003190817432680034
1.38035e-05;-0.00032226921030166776
1.38038e-05;-0.00032545667733533215
1.38040e-05;-0.00032864414436897495
1.38043e-05;-0.00033183161140263933
1.38045e-05;-0.00033489361808414653
1.38048e-05;-0.00033680561556879773
1.38050e-05;-0.0003387176130534618
1.38053e-05;-0.000340629610538126
1.38055e-05;-0.0003425416080227771
1.38058e-05;-0.00034445360550744127
1.38060e-05;-0.00034636560299210537
1.38063e-05;-0.00034827760047675656
1.38065e-05;-0.0003503337613752173
1.38068e-05;-0.0003524866881294237
1.38070e-05;-0.00035463961488361556
1.38073e-05;-0.000356792541637822
1.38075e-05;-0.0003589454683920284
1.38078e-05;-0.00036137381398444225
1.38080e-05;-0.00036632673560120244
1.38083e-05;-0.00037127965721796264
1.38085e-05;-0.0003762325788346892
1.38088e-05;-0.0003811855004514494
1.38090e-05;-0.00038613842206820955
1.38093e-05;-0.00039274891253999154
1.38095e-05;-0.00040047200200270624
1.38098e-05;-0.0004081950914654733
1.38100e-05;-0.00041705661957974044
1.38103e-05;-0.00042668229434833667
1.38105e-05;-0.0004363079691169981
1.38108e-05;-0.00044704956099460785
1.38110e-05;-0.0004585401825403477
1.38113e-05;-0.0004700308040861654
1.38115e-05;-0.0004815214256319831
1.38118e-05;-0.0004938036012495455
1.38120e-05;-0.0005072481357520237
1.38123e-05;-0.0005211162452900287
1.38125e-05;-0.0005349843548279397
1.38128e-05;-0.0005488524643659446
1.38130e-05;-0.0005627205739039496
1.38133e-05;-0.0005765886834418606
1.38135e-05;-0.0005904721189327533
1.38138e-05;-0.0006044960369464864
1.38140e-05;-0.0006185199549601245
1.38143e-05;-0.0006325438729738578
1.38145e-05;-0.0006465677909875909
1.38148e-05;-0.000660591709001229
1.38150e-05;-0.0006746156270149622
1.38153e-05;-0.0006871151710390254
1.38155e-05;-0.0006985915195812456
1.38158e-05;-0.0007100678681235434
1.38160e-05;-0.0007215442166658413
1.38163e-05;-0.0007330205652080614
1.38165e-05;-0.0007444969137503593
1.38168e-05;-0.0007523565977401622
1.38170e-05;-0.0007577886918770054
1.38173e-05;-0.0007632207860138854
1.38175e-05;-0.0007686528801507654
1.38178e-05;-0.0007740849742876454
1.38180e-05;-0.0007795170684244886
1.38183e-05;-0.0007812562042699894
1.38185e-05;-0.0007805165401202049
1.38188e-05;-0.0007797768759704256
1.38190e-05;-0.000776425159863295
1.38193e-05;-0.0007713201733781897
1.38195e-05;-0.0007662151868931188
1.38198e-05;-0.0007585899238453588
1.38200e-05;-0.0007492729922114591
1.38203e-05;-0.0007399560605776226
1.38205e-05;-0.000728431178967762
1.38208e-05;-0.0007154242696830213
1.38210e-05;-0.0007024173603983688
1.38213e-05;-0.0006874447858576827
1.38215e-05;-0.0006711528108139686
1.38218e-05;-0.0006548608357703651
1.38220e-05;-0.0006366464187211239
1.38223e-05;-0.0006171416136256301
1.38225e-05;-0.0005976368085302685
1.38228e-05;-0.0005781320034347747
1.38230e-05;-0.0005586271983392809
1.38233e-05;-0.0005389613014948985
1.38235e-05;-0.0005178187868183655
1.38238e-05;-0.0004966762721418327
1.38240e-05;-0.0004755337574654429
1.38243e-05;-0.00045439124278890997
1.38245e-05;-0.000433248728112377
1.38248e-05;-0.0004127033503501378
1.38250e-05;-0.00039255878485354407
1.38253e-05;-0.00037241421935695036
1.38255e-05;-0.00035324860301344426
1.38258e-05;-0.0003347400802421454
1.38260e-05;-0.0003173959556139029
1.38263e-05;-0.0003008334022584326
1.38265e-05;-0.0002857014392273762
1.38268e-05;-0.0002715297218881809
1.38270e-05;-0.000258290234453339
1.38273e-05;-0.0002456764815383662
1.38275e-05;-0.00023355714461689527
1.38278e-05;-0.00022176967127637647
1.38280e-05;-0.00021065539309492038
1.38283e-05;-0.00019999297925240995
1.38285e-05;-0.00019017758525614615
1.38288e-05;-0.00018093073079541059
1.38290e-05;-0.00017222581700599625
1.38293e-05;-0.00016388466647305398
1.38295e-05;-0.00015581838934233328
1.38298e-05;-0.0001479366136693201
1.38300e-05;-0.00014044886267936484
1.38303e-05;-0.00013322559027431467
1.38305e-05;-0.00012651238095805686
1.38308e-05;-0.00012014153791916262
1.38310e-05;-0.00011409680881887921
1.38313e-05;-0.00010827097502305419
1.38315e-05;-0.00010261115978153293
1.38318e-05;-9.706278007744716e-05
1.38320e-05;-9.176225271347876e-05
1.38323e-05;-8.662808963835205e-05
1.38325e-05;-8.182164918342987e-05
1.38328e-05;-7.723518381771082e-05
1.38330e-05;-7.286840471454594e-05
1.38333e-05;-6.864908417006718e-05
1.38335e-05;-6.455637274568003e-05
1.38338e-05;-6.054864432455074e-05
1.38340e-05;-5.6725994831455526e-05
1.38343e-05;-5.302757464446279e-05
1.38345e-05;-4.957146783908452e-05
1.38348e-05;-4.6278007444013796e-05
1.38350e-05;-4.316638249172254e-05
1.38353e-05;-4.01768097423658e-05
1.38355e-05;-3.731798427786184e-05
1.38358e-05;-3.454691944961423e-05
1.38360e-05;-3.190061451950544e-05
1.38363e-05;-2.943770906848075e-05
1.38365e-05;-2.7152055249719954e-05
1.38368e-05;-2.494847251884628e-05
1.38370e-05;-2.2483313376921927e-05
1.38373e-05;-1.9353975630893283e-05
1.38375e-05;-1.538349896135915e-05
1.38378e-05;-1.0590177942560587e-05
1.38380e-05;-5.038902852112401e-06
1.38383e-05;1.205445034250627e-06
1.38385e-05;8.079027715249151e-06
1.38388e-05;1.5589529324509804e-05
1.38390e-05;2.3900265427308718e-05
1.38393e-05;3.321146141913358e-05
1.38395e-05;4.3581983633401186e-05
1.38398e-05;5.49483918246777e-05
1.38400e-05;6.721806159132547e-05
1.38403e-05;8.029838305383965e-05
1.38405e-05;9.40974016200551e-05
1.38408e-05;0.00010856796709985376
1.38410e-05;0.00012376041137371124
1.38413e-05;0.00013974819530560822
1.38415e-05;0.000156708997860335
1.38418e-05;0.00017410216726096501
1.38420e-05;0.00019224000169145816
1.38423e-05;0.0002108776727104088
1.38425e-05;0.00022951534372923313
1.38428e-05;0.00024875219700824135
1.38430e-05;0.00026839123543731953
1.38433e-05;0.00028803027386639765
1.38435e-05;0.0003076693122953427
1.38438e-05;0.00032729150300098354
1.38440e-05;0.00034675926215406487
1.38443e-05;0.00036622702130701426
1.38445e-05;0.00038569478046009554
1.38448e-05;0.0004051625396131769
1.38450e-05;0.0004236603510710928
1.38453e-05;0.00044150711094546646
1.38455e-05;0.00045935387081984014
1.38458e-05;0.0004758202265924857
1.38460e-05;0.0004913600228393223
1.38463e-05;0.0005068998190861589
1.38465e-05;0.0005207502352303121
1.38468e-05;0.0005334666999286268
1.38470e-05;0.0005461831646269414
1.38473e-05;0.00055889962932517
1.38475e-05;0.0005716160940234846
1.38478e-05;0.0005844340306135452
1.38480e-05;0.0005973200775110779
1.38483e-05;0.0006102061244086978
1.38485e-05;0.0006230921713063178
1.38488e-05;0.0006359782182038504
1.38490e-05;0.0006502096192452138
1.38493e-05;0.0006653440534609383
1.38495e-05;0.0006804784876765603
1.38498e-05;0.0006956129218922847
1.38500e-05;0.0007107473561080091
1.38503e-05;0.000725881790323631
1.38505e-05;0.0007410162245393556
1.38508e-05;0.00075615065875508
1.38510e-05;0.0007712850929707019
1.38513e-05;0.0007864195271864264
1.38515e-05;0.0008030400784518924
1.38518e-05;0.0008206581462473032
1.38520e-05;0.0008382762140425945
1.38523e-05;0.0008558942818380052
1.38525e-05;0.0008735123496334161
1.38528e-05;0.0008911304174287074
1.38530e-05;0.0009087484852241182
1.38533e-05;0.0009263665530195289
1.38535e-05;0.0009439846208148203
1.38538e-05;0.000961602688610231
1.38540e-05;0.0009769535001374723
1.38543e-05;0.0009907824762172002
1.38545e-05;0.0010046114522970218
1.38548e-05;0.0010184404283768433
1.38550e-05;0.001032269404456571
1.38553e-05;0.0010460983805363926
1.38555e-05;0.0010599273566162142
1.38558e-05;0.0010737563326959421
1.38560e-05;0.0010875853087757637
1.38563e-05;0.0011014142848555853
1.38565e-05;0.0011152432609353132
1.38568e-05;0.0011290722370151348
1.38570e-05;0.0011429012130949564
1.38573e-05;0.0011567301891746843
1.38575e-05;0.0011696645806177626
1.38578e-05;0.0011743989268112487
1.38580e-05;0.001179133273004703
1.38583e-05;0.0011838676191981892
1.38585e-05;0.0011886019653916755
1.38588e-05;0.0011933363115851296
1.38590e-05;0.001198070657778616
1.38593e-05;0.001202805003972102
1.38595e-05;0.0012075393501655564
1.38598e-05;0.0012122736963590425
1.38600e-05;0.0012170080425525289
1.38603e-05;0.001221742388746015
1.38605e-05;0.0012264767349394693
1.38608e-05;0.0012312110811329555
1.38610e-05;0.0012359454273264416
1.38613e-05;0.0012381389342152002
1.38615e-05;0.0012386269703217685
1.38618e-05;0.0012391150064283369
1.38620e-05;0.001239603042534902
1.38623e-05;0.0012400910786414703
1.38625e-05;0.0012403487866647766
1.38628e-05;0.0012397262599001724
1.38630e-05;0.0012391037331355638
1.38633e-05;0.0012384812063709553
1.38635e-05;0.001237858679606351
1.38638e-05;0.0012372361528417424
1.38640e-05;0.001235560751414397
1.38643e-05;-0.0016377737996502934
1.38645e-05;-0.011162643401149119
1.38648e-05;-0.012301503485981033
1.38650e-05;-0.01038534987104913
1.38653e-05;-0.006981061477569641
1.38655e-05;0.00032384908616950813
1.38658e-05;0.0028070977161377087
1.38660e-05;0.002414282222617386
1.38663e-05;0.0004882190941571684
1.38665e-05;-0.005247895942610536
1.38668e-05;-0.006812881462419169
1.38670e-05;-0.005404679729728065
1.38673e-05;-0.003462160990320288
1.38675e-05;0.0007063707077689932
1.38678e-05;0.003084051179794525
1.38680e-05;0.00323965435107228
1.38683e-05;0.0015949318922561873
1.38685e-05;-0.001222628173566118
1.38688e-05;-0.0027711956548736316
1.38690e-05;-0.0024163806473881232
1.38693e-05;-0.0008952138242326554
1.38695e-05;0.0013432052024802328
1.38698e-05;0.002764458455739814
1.38700e-05;0.0028285423368410814
1.38703e-05;0.0017668947181899385
1.38705e-05;-2.7618663257556386e-05
1.38708e-05;-0.0010256682361535433
1.38710e-05;-0.0008301477031655061
1.38713e-05;9.703338968586903e-05
1.38715e-05;0.0014743905913384584
1.38718e-05;0.0023406811387915085
1.38720e-05;0.0023576448545722193
1.38723e-05;0.0016702801450479959
1.38725e-05;0.0005247027146564869
1.38728e-05;-0.00012113285620596217
1.38730e-05;-1.8537320546783157e-05
1.38733e-05;0.000543104386385493
1.38735e-05;0.0013874558254012368
1.38738e-05;0.0019124245588893393
1.38740e-05;0.0019061974377127967
1.38743e-05;0.0014596849154428957
1.38745e-05;0.000727131194060253
1.38748e-05;0.0003086451304405538
1.38750e-05;0.0003600217800695539
1.38753e-05;0.0007000115399829922
1.38755e-05;0.0012181942150678799
1.38758e-05;0.0015374812433968563
1.38760e-05;0.0015252796957134598
1.38763e-05;0.0012386275243571896
1.38765e-05;0.000774228992539157
1.38768e-05;0.0005079826198207446
1.38770e-05;0.0005372141396234087
1.38773e-05;0.0007479993977493902
1.38775e-05;0.0010709568971050255
1.38778e-05;0.0012698298019033897
1.38780e-05;0.001261545660136165
1.38783e-05;0.0010818193431817746
1.38785e-05;0.0007912090298062171
1.38788e-05;0.000625146261584355
1.38790e-05;0.0006445518621564826
1.38793e-05;0.0007780207113447905
1.38795e-05;0.0009820547795119285
1.38798e-05;0.0011086343610204078
1.38800e-05;0.0011057034539178434
1.38803e-05;0.0009956160793976507
1.38805e-05;0.0008162851616816738
1.38808e-05;0.0007151557535734861
1.38810e-05;0.0007303513750555407
1.38813e-05;0.0008171070240075537
1.38815e-05;0.0009481420499740978
1.38818e-05;0.0010307089932223513
1.38820e-05;0.0010321779443791385
1.38823e-05;0.0009665300125117965
1.38825e-05;0.0008574907485875657
1.38828e-05;0.0007973913535651725
1.38830e-05;0.0008100786911535204
1.38833e-05;0.0008674786500222533
1.38835e-05;0.0009524713914509449
1.38838e-05;0.0010069322409936414
1.38840e-05;0.0010103977210937237
1.38843e-05;0.0009716017032412837
1.38845e-05;0.0009053812160454152
1.38848e-05;0.0008695443575579251
1.38850e-05;0.0008789974352802361
1.38853e-05;0.0009161236096032936
1.38855e-05;0.0009701691469293445
1.38858e-05;0.0010046969648432518
1.38860e-05;0.0010068633190761067
1.38863e-05;0.0009821139045540857
1.38865e-05;0.0009397169154240078
1.38868e-05;0.0009158608932796125
1.38870e-05;0.0009198822545159668
1.38873e-05;0.0009407709451181835
1.38875e-05;0.0009718202967310783
1.38878e-05;0.000990231599932946
1.38880e-05;0.000987985686482466
1.38883e-05;0.0009685200071130314
1.38885e-05;0.0009376658059433593
1.38888e-05;0.0009181162726126578
1.38890e-05;0.0009157428738862257
1.38893e-05;0.0009236722137851017
1.38895e-05;0.0009377271098065679
1.38898e-05;0.0009436511228711075
1.38900e-05;0.0009364464738951321
1.38903e-05;0.0009182921369379963
1.38905e-05;0.0008928661678469954
1.38908e-05;0.0008744081356659095
1.38910e-05;0.000866619637179875
1.38913e-05;0.0008652190779701119
1.38915e-05;0.0008676138819263391
1.38918e-05;0.0008648984923183742
1.38920e-05;0.0008539675337277115
1.38923e-05;0.0008362111442325861
1.38925e-05;0.0008139583695336092
1.38928e-05;0.0007961534562171146
1.38930e-05;0.0007851391519314167
1.38933e-05;0.0007782575892829844
1.38935e-05;0.0007739089707054039
1.38938e-05;0.0007665396135913897
1.38940e-05;0.0007542291628945438
