Time(s);Current(A)
3.00000e-06;-0.0035754896153158645
3.00025e-06;-0.0035316812576294643
3.00050e-06;-0.003485074516160708
3.00075e-06;-0.0034358978594445336
3.00100e-06;-0.0033844185438443005
3.00125e-06;-0.0033310054300975133
3.00150e-06;-0.0032760896874227206
3.00175e-06;-0.003220049940199115
3.00200e-06;-0.003163211732379127
3.00225e-06;-0.0031058952588678464
3.00250e-06;-0.003048421000171171
3.00275e-06;-0.0029911122243389235
3.00300e-06;-0.0029343155744468016
3.00325e-06;-0.0028784424361822532
3.00350e-06;-0.0028239425830987085
3.00375e-06;-0.002771233009553388
3.00400e-06;-0.0027206972746179003
3.00425e-06;-0.0026727158980844965
3.00450e-06;-0.0026276690178736587
3.00475e-06;-0.002585899634260318
3.00500e-06;-0.002547437963964968
3.00525e-06;-0.0025115547624682158
3.00550e-06;-0.002477228270843973
3.00575e-06;-0.002444114674172834
3.00600e-06;-0.002412609779748523
3.00625e-06;-0.0023830342344077467
3.00650e-06;-0.0023543791309529856
3.00675e-06;-0.002328864734114185
3.00700e-06;-0.0023041303843992617
3.00725e-06;-0.0022820576901349094
3.00750e-06;-0.002260376945539981
3.00775e-06;-0.002240033600881368
3.00800e-06;-0.0022202229383826533
3.00825e-06;-0.0022022298793733337
3.00850e-06;-0.0021842368203640445
3.00875e-06;-0.002168550976333263
3.00900e-06;-0.002153733075377591
3.00925e-06;-0.00213939038997935
3.00950e-06;-0.0021266692221020337
3.00975e-06;-0.002113948054224717
3.01000e-06;-0.0021018375310036465
3.01025e-06;-0.002091810632768564
3.01050e-06;-0.0020817837345334816
3.01075e-06;-0.0020717568362983987
3.01100e-06;-0.002061729938063333
3.01125e-06;-0.0020523126396371524
3.01150e-06;-0.0020449754009975595
3.01175e-06;-0.0020376381623579787
3.01200e-06;-0.0020303009237183857
3.01225e-06;-0.0020229636850787923
3.01250e-06;-0.002016033080510379
3.01275e-06;-0.0020104899815923606
3.01300e-06;-0.0020049468826743326
3.01325e-06;-0.001999403783756305
3.01350e-06;-0.001994532399168858
3.01375e-06;-0.0019899137044291746
3.01400e-06;-0.001985295009689491
3.01425e-06;-0.001980780015669184
3.01450e-06;-0.0019766796575224773
3.01475e-06;-0.001972882506831387
3.01500e-06;-0.0019696720586655243
3.01525e-06;-0.0019681502763882522
3.01550e-06;-0.0019693646046102303
3.01575e-06;-0.0019717460747793254
3.01600e-06;-0.001978110034762311
3.01625e-06;-0.001985782516495747
3.01650e-06;-0.0019979199003392154
3.01675e-06;-0.002010057284182684
3.01700e-06;-0.002023944224402846
3.01725e-06;-0.0020438009530162225
3.01750e-06;-0.002063657681629599
3.01775e-06;-0.002085489998404737
3.01800e-06;-0.0021140633630450127
3.01825e-06;-0.0021426367276852886
3.01850e-06;-0.0021728028160643946
3.01875e-06;-0.002208403552801646
3.01900e-06;-0.002244004289538897
3.01925e-06;-0.0022811325262127617
3.01950e-06;-0.0023234728563713606
3.01975e-06;-0.0023658131865300315
3.02000e-06;-0.0024093520832104273
3.02025e-06;-0.002456980695778328
3.02050e-06;-0.002504609308346309
3.02075e-06;-0.002552937352966463
3.02100e-06;-0.0026036519804956467
3.02125e-06;-0.002654366608024745
3.02150e-06;-0.0027054651026080863
3.02175e-06;-0.002757873417849423
3.02200e-06;-0.002810281733090671
3.02225e-06;-0.0028625785715664072
3.02250e-06;-0.0029144950320730252
3.02275e-06;-0.0029660043187460083
3.02300e-06;-0.003016124258006193
3.02325e-06;-0.0030656483440598594
3.02350e-06;-0.0031131392761072265
3.02375e-06;-0.0031597778132694382
3.02400e-06;-0.0032035078319298644
3.02425e-06;-0.0032457252494025365
3.02450e-06;-0.0032827814104932056
3.02475e-06;-0.0033198375715839373
3.02500e-06;-0.003354095441585374
3.02525e-06;-0.0033788050593044363
3.02550e-06;-0.003403514677023457
3.02575e-06;-0.0034282242947425196
3.02600e-06;-0.0034529339124615825
3.02625e-06;-0.003474020464059099
3.02650e-06;-0.003482744488578426
3.02675e-06;-0.0034914685130977533
3.02700e-06;-0.0035001925376170655
3.02725e-06;-0.003508916562136393
3.02750e-06;-0.0035148416236275956
3.02775e-06;-0.003511216140065045
3.02800e-06;-0.0035075906565024996
3.02825e-06;-0.003502364489716125
3.02850e-06;-0.0034916765154345067
3.02875e-06;-0.003479769605385556
3.02900e-06;-0.0034637034760661863
3.02925e-06;-0.0034465901775461
3.02950e-06;-0.003425903756934063
3.02975e-06;-0.0034045370510090724
3.03000e-06;-0.003380435482372717
3.03025e-06;-0.003354538643928806
3.03050e-06;-0.003326977386499122
3.03075e-06;-0.0032978851994086306
3.03100e-06;-0.0032674193506299297
3.03125e-06;-0.003235800823153985
3.03150e-06;-0.00320328874573791
3.03175e-06;-0.0031701080274578715
3.03200e-06;-0.0031364500893343956
3.03225e-06;-0.0031025030802779904
3.03250e-06;-0.0030684546400369475
3.03275e-06;-0.003034494711704037
3.03300e-06;-0.003000827980491121
3.03325e-06;-0.0029676992344624203
3.03350e-06;-0.0029353768129066304
3.03375e-06;-0.002904272196722818
3.03400e-06;-0.0028746791890838174
3.03425e-06;-0.0028456306629914565
3.03450e-06;-0.002818870658446762
3.03475e-06;-0.002794017381043286
3.03500e-06;-0.0027708886960349935
3.03525e-06;-0.002748443164761138
3.03550e-06;-0.0027253635218943196
3.03575e-06;-0.0027011884539020724
3.03600e-06;-0.0026760471822394162
3.03625e-06;-0.002650157578818324
3.03650e-06;-0.0026241430950347823
3.03675e-06;-0.0025977024978954834
3.03700e-06;-0.0025709499505077657
3.03725e-06;-0.002543132975018554
3.03750e-06;-0.002514582627529403
3.03775e-06;-0.0024835298881699646
3.03800e-06;-0.0024518925883983073
3.03825e-06;-0.00241826066758385
3.03850e-06;-0.002384262575277541
3.03875e-06;-0.002349015042626713
3.03900e-06;-0.0023133748742957773
3.03925e-06;-0.0022763949652408423
3.03950e-06;-0.00223884904445209
3.03975e-06;-0.00219937179391339
3.04000e-06;-0.0021595788992215563
3.04025e-06;-0.0021185761499302683
3.04050e-06;-0.0020770456768324412
3.04075e-06;-0.002035233676075408
3.04100e-06;-0.0019932968691899443
3.04125e-06;-0.0019511814770138975
3.04150e-06;-0.0019087654467920222
3.04175e-06;-0.0018661374253862478
3.04200e-06;-0.0018235444612534567
3.04225e-06;-0.001781247557545185
3.04250e-06;-0.0017395076646429717
3.04275e-06;-0.0016985787719140165
3.04300e-06;-0.001658659198195546
3.04325e-06;-0.001619814935872109
3.04350e-06;-0.001582069549258141
3.04375e-06;-0.0015455784377656247
3.04400e-06;-0.0015105963535901434
3.04425e-06;-0.0014773865381592637
3.04450e-06;-0.0014462122965459851
3.04475e-06;-0.0014173515402564917
3.04500e-06;-0.001391195730902689
3.04525e-06;-0.0013683762610994957
3.04550e-06;-0.0013495147737261329
3.04575e-06;-0.0013353274457949455
3.04600e-06;-0.0013260044993694102
3.04625e-06;-0.001318563689714908
3.04650e-06;-0.0013175450556489215
3.04675e-06;-0.0013184242970263177
3.04700e-06;-0.0013257794170593495
3.04725e-06;-0.001335187028830762
3.04750e-06;-0.0013515980967486912
3.04775e-06;-0.0013700053903215668
3.04800e-06;-0.0013952241504506312
3.04825e-06;-0.0014222549291247593
3.04850e-06;-0.0014554686278956102
3.04875e-06;-0.0014907314015430155
3.04900e-06;-0.0015329859724146071
3.04925e-06;-0.0015752405432861271
3.04950e-06;-0.001619707965333292
3.04975e-06;-0.0016717260176107576
3.05000e-06;-0.0017237440698881351
3.05025e-06;-0.001777172358219005
3.05050e-06;-0.001835412615422584
3.05075e-06;-0.0018944595158633954
3.05100e-06;-0.0019562588222857627
3.05125e-06;-0.002018645802554327
3.05150e-06;-0.0020830380274398505
3.05175e-06;-0.0021477162133158767
3.05200e-06;-0.0022133701474593604
3.05225e-06;-0.002278958250944828
3.05250e-06;-0.002344321728860243
3.05275e-06;-0.002409276238760041
3.05300e-06;-0.002472835279187249
3.05325e-06;-0.002535676541169305
3.05350e-06;-0.002596068619181431
3.05375e-06;-0.0026553821825736103
3.05400e-06;-0.0027110156678908405
3.05425e-06;-0.0027651786625336417
3.05450e-06;-0.0028143240891348132
3.05475e-06;-0.0028611695323856345
3.05500e-06;-0.002900167035383152
3.05525e-06;-0.0029391645383806033
3.05550e-06;-0.0029752743577966837
3.05575e-06;-0.0030015309023121743
3.05600e-06;-0.0030277874468276206
3.05625e-06;-0.0030509786485376656
3.05650e-06;-0.0030637103714041686
3.05675e-06;-0.0030764420942706494
3.05700e-06;-0.0030860578502478657
3.05725e-06;-0.0030850413892678863
3.05750e-06;-0.003084024928287907
3.05775e-06;-0.003080604588491579
3.05800e-06;-0.00306898179917569
3.05825e-06;-0.0030555396562755416
3.05850e-06;-0.0030358895648584412
3.05875e-06;-0.0030149307494059755
3.05900e-06;-0.002988685292145541
3.05925e-06;-0.002958881180221148
3.05950e-06;-0.0029257970160084393
3.05975e-06;-0.002889689553611529
3.06000e-06;-0.0028507816679382695
3.06025e-06;-0.0028092925581645455
3.06050e-06;-0.002765441572506914
3.06075e-06;-0.0027194497135928286
3.06100e-06;-0.0026715577489604347
3.06125e-06;-0.002622059326511674
3.06150e-06;-0.002571290374518861
3.06175e-06;-0.0025195727027406746
3.06200e-06;-0.0024672070135593606
3.06225e-06;-0.0024144918703803485
3.06250e-06;-0.0023617255602779367
3.06275e-06;-0.0023092082204905066
3.06300e-06;-0.002257251039316409
3.06325e-06;-0.0022061996112194573
3.06350e-06;-0.0021564247858566793
3.06375e-06;-0.0021082894720471177
3.06400e-06;-0.0020621431393174246
3.06425e-06;-0.0020183336366493
3.06450e-06;-0.001977208760254362
3.06475e-06;-0.0019390556781722261
3.06500e-06;-0.00190366390274419
3.06525e-06;-0.0018696354605911164
3.06550e-06;-0.0018351809054934856
3.06575e-06;-0.0017996767805682622
3.06600e-06;-0.001763383386856441
3.06625e-06;-0.0017266373338235524
3.06650e-06;-0.0016897754109955166
3.06675e-06;-0.001653096360680465
3.06700e-06;-0.0016165867281604663
3.06725e-06;-0.0015794897676003233
3.06750e-06;-0.0015408035311481347
3.06775e-06;-0.0015002563125550703
3.06800e-06;-0.0014581299830542045
3.06825e-06;-0.0014147545273127061
3.06850e-06;-0.001370459723552348
3.06875e-06;-0.0013255514870496444
3.06900e-06;-0.0012801403685968322
3.06925e-06;-0.0012338712308662741
3.06950e-06;-0.0011862351910382504
3.06975e-06;-0.001137181032732048
3.07000e-06;-0.001087004389516807
3.07025e-06;-0.0010360308222776107
3.07050e-06;-0.0009845857250315698
3.07075e-06;-0.0009329796424593955
3.07100e-06;-0.0008814006881638778
3.07125e-06;-0.0008297451800623274
3.07150e-06;-0.0007778133208707943
3.07175e-06;-0.0007256918932509867
3.07200e-06;-0.000673684913752539
3.07225e-06;-0.0006221151943080414
3.07250e-06;-0.0005713053349666182
3.07275e-06;-0.0005215686536835398
3.07300e-06;-0.0004731417815542485
3.07325e-06;-0.00042607855293584526
3.07350e-06;-0.00038037260308384005
3.07375e-06;-0.00033619706903352113
3.07400e-06;-0.00029386111385921554
3.07425e-06;-0.0002536856616219842
3.07450e-06;-0.00021599153044120996
3.07475e-06;-0.0001811394749029797
3.07500e-06;-0.00014980708804249838
3.07525e-06;-0.00012337886252613203
3.07550e-06;-0.00010333158864201641
3.07575e-06;-9.022148135693747e-05
3.07600e-06;-8.396921417294768e-05
3.07625e-06;-8.444288028507623e-05
3.07650e-06;-9.151053485952108e-05
3.07675e-06;-0.00010506521066361033
3.07700e-06;-0.00012519842092487758
3.07725e-06;-0.00015244441301435842
3.07750e-06;-0.00018739521135644139
3.07775e-06;-0.00023006612131520331
3.07800e-06;-0.0002800743795194464
3.07825e-06;-0.0003370042509437895
3.07850e-06;-0.0004004400455777371
3.07875e-06;-0.00046998173952437876
3.07900e-06;-0.0005453536477623759
3.07925e-06;-0.0006265574395107444
3.07950e-06;-0.0007136308885340685
3.07975e-06;-0.000806250515062589
3.08000e-06;-0.0009042879624977644
3.08025e-06;-0.0010073329846128757
3.08050e-06;-0.001111891425851021
3.08075e-06;-0.0012216139144108035
3.08100e-06;-0.0013324462762024797
3.08125e-06;-0.0014470657170672513
3.08150e-06;-0.0015624230813497408
3.08175e-06;-0.0016802983677277072
3.08200e-06;-0.0017983028879986183
3.08225e-06;-0.0019167483766226925
3.08250e-06;-0.002034687668383732
3.08275e-06;-0.002150899729058757
3.08300e-06;-0.002266051269706631
3.08325e-06;-0.0023775841329359555
3.08350e-06;-0.002487522126444598
3.08375e-06;-0.0025920181491309604
3.08400e-06;-0.002694236615745536
3.08425e-06;-0.0027886836678517974
3.08450e-06;-0.002879385100635472
3.08475e-06;-0.00295730583365505
3.08500e-06;-0.0030352265666747594
3.08525e-06;-0.0031090316566653765
3.08550e-06;-0.0031687934621252335
3.08575e-06;-0.003228555267584989
3.08600e-06;-0.003284291473339312
3.08625e-06;-0.0033262916379276047
3.08650e-06;-0.003368291802515826
3.08675e-06;-0.0034065810792804057
3.08700e-06;-0.003432208166150778
3.08725e-06;-0.0034552787279928687
3.08750e-06;-0.0034696259850854516
3.08775e-06;-0.0034816617021836515
3.08800e-06;-0.003485810045761636
3.08825e-06;-0.003487625345543094
3.08850e-06;-0.0034814798971191667
3.08875e-06;-0.00347304839664295
3.08900e-06;-0.0034568164919053126
3.08925e-06;-0.0034391326451720214
3.08950e-06;-0.0034156796990922156
3.08975e-06;-0.0033886714036739166
3.09000e-06;-0.003358277719595442
3.09025e-06;-0.0033246496266539074
3.09050e-06;-0.003287938306457538
3.09075e-06;-0.0032483045322856227
3.09100e-06;-0.0032059947832425197
3.09125e-06;-0.003161470861163518
3.09150e-06;-0.00311529910652662
3.09175e-06;-0.003067888814300841
3.09200e-06;-0.003019515432772725
3.09225e-06;-0.002970442420690835
3.09250e-06;-0.002920932823912517
3.09275e-06;-0.0028712560517225386
3.09300e-06;-0.0028217355029574007
3.09325e-06;-0.0027728285229025418
3.09350e-06;-0.0027250588086987115
3.09375e-06;-0.0026788511511758647
3.09400e-06;-0.0026345470355219943
3.09425e-06;-0.002592479260516706
3.09450e-06;-0.0025529815997627245
3.09475e-06;-0.0025163888387635656
3.09500e-06;-0.0024830403390575947
3.09525e-06;-0.002453697104283906
3.09550e-06;-0.002428767694437242
3.09575e-06;-0.002406077811034087
3.09600e-06;-0.0023910295784836813
3.09625e-06;-0.0023759813459332505
3.09650e-06;-0.0023637093114029463
3.09675e-06;-0.002360910143794728
3.09700e-06;-0.0023581109761865054
3.09725e-06;-0.002358124699384671
3.09750e-06;-0.002367736491626199
3.09775e-06;-0.0023773482838677436
3.09800e-06;-0.0023895717722420325
3.09825e-06;-0.0024107068186992836
3.09850e-06;-0.0024318418651564986
3.09875e-06;-0.0024553214328996327
3.09900e-06;-0.0024868009120237815
3.09925e-06;-0.002518280391147877
3.09950e-06;-0.0025517522920839803
3.09975e-06;-0.0025920226802103536
3.10000e-06;-0.002632293068336727
3.10025e-06;-0.0026740743690079104
3.10050e-06;-0.0027210111641233813
3.10075e-06;-0.002767947959238852
3.10100e-06;-0.00281577625185819
3.10125e-06;-0.0028666464878675493
3.10150e-06;-0.0029179413118322036
3.10175e-06;-0.0029706849032003126
3.10200e-06;-0.003023571976379403
3.10225e-06;-0.0030769486342676964
3.10250e-06;-0.003130185451479688
3.10275e-06;-0.003182945108162209
3.10300e-06;-0.0032352808892854292
3.10325e-06;-0.00328617033382289
3.10350e-06;-0.00333633271238364
3.10375e-06;-0.0033840142163128377
3.10400e-06;-0.003430949577886361
3.10425e-06;-0.0034747339113468034
3.10450e-06;-0.0035157678176751905
3.10475e-06;-0.003553659529981718
3.10500e-06;-0.003587738194030294
3.10525e-06;-0.0036167161795248146
3.10550e-06;-0.0036392454967621966
3.10575e-06;-0.0036540414069530496
3.10600e-06;-0.00366084343779207
3.10625e-06;-0.0036638525585343403
3.10650e-06;-0.003653919615224988
3.10675e-06;-0.0036439866719156356
3.10700e-06;-0.003629215804087079
3.10725e-06;-0.0035979371025879566
3.10750e-06;-0.0035666584010888343
3.10775e-06;-0.003531946215211142
3.10800e-06;-0.003483927898077553
3.10825e-06;-0.003428981352296801
3.10850e-06;-0.0033675005273179483
3.10875e-06;-0.0032998656523728826
3.10900e-06;-0.003226347766724446
3.10925e-06;-0.0031469755267964092
3.10950e-06;-0.003061754063236853
3.10975e-06;-0.0029710164638398007
3.11000e-06;-0.0028753199942980834
3.11025e-06;-0.002775239746301701
3.11050e-06;-0.0026713509170802683
3.11075e-06;-0.002564220198613889
3.11100e-06;-0.002454345088396445
3.11125e-06;-0.002342071729692807
3.11150e-06;-0.0022277317402564123
3.11175e-06;-0.0021118621076819458
3.11200e-06;-0.001995139480954866
3.11225e-06;-0.001878252441193538
3.11250e-06;-0.0017618891985205778
3.11275e-06;-0.0016467326922922848
3.11300e-06;-0.0015334225493487807
3.11325e-06;-0.0014225034827130248
3.11350e-06;-0.0013145109239946471
3.11375e-06;-0.0012101090963524707
3.11400e-06;-0.00111004961881576
3.11425e-06;-0.0010150914292527168
3.11450e-06;-0.0009259934368291455
3.11475e-06;-0.0008434340933831946
3.11500e-06;-0.0007674273032745451
3.11525e-06;-0.0006963760018148985
3.11550e-06;-0.0006280753692871932
3.11575e-06;-0.0005617795685872218
3.11600e-06;-0.0004978829841813817
3.11625e-06;-0.00043687977272589417
3.11650e-06;-0.00037926397446135483
3.11675e-06;-0.00032547935526511593
3.11700e-06;-0.00027555327367650474
3.11725e-06;-0.00022850404783114682
3.11750e-06;-0.00018296951715348288
3.11775e-06;-0.0001385013758053605
3.11800e-06;-9.536557085793447e-05
3.11825e-06;-5.389055562877688e-05
3.11850e-06;-1.4404691007068871e-05
3.11875e-06;2.2795184748139714e-05
3.11900e-06;5.767310673755494e-05
3.11925e-06;9.082512446717928e-05
3.11950e-06;0.0001230855848496459
3.11975e-06;0.0001547163114505164
3.12000e-06;0.00018553173329352975
3.12025e-06;0.00021530712709049102
3.12050e-06;0.00024381785550530545
3.12075e-06;0.0002707129783880003
3.12100e-06;0.00029589081853144243
3.12125e-06;0.0003207087635230766
3.12150e-06;0.00034429868412484417
3.12175e-06;0.00036760989632218967
3.12200e-06;0.00038997010732762406
3.12225e-06;0.0004119104005286795
3.12250e-06;0.0004324178616872382
3.12275e-06;0.000452532265005315
3.12300e-06;0.00047107191360764916
3.12325e-06;0.0004886598010716323
3.12350e-06;0.0005055924570876912
3.12375e-06;0.0005219416726346724
3.12400e-06;0.0005376037181950389
3.12425e-06;0.0005524595459097585
3.12450e-06;0.0005663900892896089
3.12475e-06;0.000579268680638467
3.12500e-06;0.0005909086619736167
3.12525e-06;0.0006009945723184874
3.12550e-06;0.0006092103359426526
3.12575e-06;0.0006154334696672893
3.12600e-06;0.0006196698281239976
3.12625e-06;0.0006219356698802654
3.12650e-06;0.0006222471712282376
3.12675e-06;0.0006206158468670272
3.12700e-06;0.0006167684211121169
3.12725e-06;0.0006104962546103916
3.12750e-06;0.000603243020013204
3.12775e-06;0.0005926422117038129
3.12800e-06;0.0005811365814488324
3.12825e-06;0.0005665435425080549
3.12850e-06;0.0005511357733177361
3.12875e-06;0.0005329480038619009
3.12900e-06;0.0005139973804301038
3.12925e-06;0.0004924437675338626
3.12950e-06;0.0004701784150673111
3.12975e-06;0.00044548448431287307
3.13000e-06;0.00042020892848156213
3.13025e-06;0.0003929487674766016
3.13050e-06;0.0003651600065165669
3.13075e-06;0.0003355675712528989
3.13100e-06;0.0003059751359891807
3.13125e-06;0.00027597420104428323
3.13150e-06;0.0002445793946642632
3.13175e-06;0.00021318458828418997
3.13200e-06;0.00018171505289366855
3.13225e-06;0.000149990529218351
3.13250e-06;0.00011826600554308717
3.13275e-06;8.668836130135199e-05
3.13300e-06;5.574908155096669e-05
3.13325e-06;2.5449042057281963e-05
3.13350e-06;-4.054892156060212e-06
3.13375e-06;-3.2576075184347464e-05
3.13400e-06;-5.990812673648062e-05
3.13425e-06;-8.584310172273435e-05
3.13450e-06;-0.00011017307709136914
3.13475e-06;-0.0001327255996653695
3.13500e-06;-0.00015362959166489822
3.13525e-06;-0.00017370379137540516
3.13550e-06;-0.00019397492072882952
3.13575e-06;-0.00021491800802162916
3.13600e-06;-0.00023597874123056862
3.13625e-06;-0.00025744090261555717
3.13650e-06;-0.00027885388284824077
3.13675e-06;-0.00030009904849862717
3.13700e-06;-0.0003213442141490495
3.13725e-06;-0.00034289992944216524
3.13750e-06;-0.0003655152937291755
3.13775e-06;-0.0003886108788140318
3.13800e-06;-0.0004133450601659915
3.13825e-06;-0.0004380792415179512
3.13850e-06;-0.0004631615090701839
3.13875e-06;-0.0004894315068313031
3.13900e-06;-0.0005157015045924222
3.13925e-06;-0.0005419715023534969
3.13950e-06;-0.000568769291478315
3.13975e-06;-0.0005973679958536416
3.14000e-06;-0.0006259667002289199
3.14025e-06;-0.0006545654046042466
3.14050e-06;-0.0006833639734077434
3.14075e-06;-0.0007128445141446322
3.14100e-06;-0.0007423250548814712
3.14125e-06;-0.0007718055956183599
3.14150e-06;-0.0008012861363552488
3.14175e-06;-0.0008307666770920877
3.14200e-06;-0.0008598781703688141
3.14225e-06;-0.0008877304099993097
3.14250e-06;-0.0009155826496298052
3.14275e-06;-0.0009434348892602535
3.14300e-06;-0.000971287128890749
3.14325e-06;-0.0009991393685212446
3.14350e-06;-0.0010261568846433359
3.14375e-06;-0.001050326180048684
