Time(s);Current(A)
8.55000e-06;0.0012353410725203596
8.55025e-06;0.001241680856921475
8.55050e-06;0.0012464801083155541
8.55075e-06;0.001248290832231252
8.55100e-06;0.0012501015561469377
8.55125e-06;0.0012519122800626356
8.55150e-06;0.0012537230039783335
8.55175e-06;0.0012555337278940192
8.55200e-06;0.0012573444518097171
8.55225e-06;0.0012569809637894436
8.55250e-06;0.0012523996549988503
8.55275e-06;0.0012478183462082256
8.55300e-06;0.0012432370374176013
8.55325e-06;0.0012386557286270079
8.55350e-06;0.0012340744198363833
8.55375e-06;0.0012294931110457589
8.55400e-06;0.0012231215436454804
8.55425e-06;0.0012132769983705075
8.55450e-06;0.0012034324530955346
8.55475e-06;0.0011935879078206284
8.55500e-06;0.0011837433625456555
8.55525e-06;0.0011738988172706826
8.55550e-06;0.0011640542719957097
8.55575e-06;0.0011542097267208033
8.55600e-06;0.0011422144875687067
8.55625e-06;0.001129810031454931
8.55650e-06;0.0011174055753412396
8.55675e-06;0.001105001119227464
8.55700e-06;0.0010925966631136885
8.55725e-06;0.001080192206999997
8.55750e-06;0.0010677877508862214
8.55775e-06;0.0010558760333894857
8.55800e-06;0.0010449201947283846
8.55825e-06;0.0010339643560672094
8.55850e-06;0.0010230085174060342
8.55875e-06;0.0010120526787449331
8.55900e-06;0.001001096840083758
8.55925e-06;0.0009901410014225827
8.55950e-06;0.0009791851627614818
8.55975e-06;0.0009699607284444491
8.56000e-06;0.0009640950987984534
8.56025e-06;0.0009582294691524972
8.56050e-06;0.0009523638395065014
8.56075e-06;0.0009464982098605056
8.56100e-06;0.0009406325802145496
8.56125e-06;0.0009347669505685538
8.56150e-06;0.000928901320922558
8.56175e-06;0.0009248644650609212
8.56200e-06;0.0009243753038497623
8.56225e-06;0.0009238861426386033
8.56250e-06;0.0009233969814274476
8.56275e-06;0.0009229078202162887
8.56300e-06;0.0009224186590051298
8.56325e-06;0.0009219294977939742
8.56350e-06;0.0009233711640052607
8.56375e-06;0.0009272129512902808
8.56400e-06;0.0009310547385753008
8.56425e-06;0.0009348965258602948
8.56450e-06;0.0009387383131453149
8.56475e-06;0.000942580100430335
8.56500e-06;0.000946421887715329
8.56525e-06;0.0009494348975397044
8.56550e-06;0.0009557149775336324
8.56575e-06;0.0009619950575275179
8.56600e-06;0.0009693681279564812
8.56625e-06;0.0009772061463440118
8.56650e-06;0.0009855732930324837
8.56675e-06;0.0009959962284314002
8.56700e-06;0.0010064191638303164
8.56725e-06;0.0010167655651266852
8.56750e-06;0.001026814613317001
8.56775e-06;0.0010368636615073164
8.56800e-06;0.001047222007557673
8.56825e-06;0.0010587820490150876
8.56850e-06;0.0010703420904725023
8.56875e-06;0.0010819124741614336
8.56900e-06;0.0010935230398685211
8.56925e-06;0.0011049360784841536
8.56950e-06;0.0011155816775885454
8.56975e-06;0.001125967243441485
8.57000e-06;0.0011353425185541735
8.57025e-06;0.001144332986395402
8.57050e-06;0.0011518283868912293
8.57075e-06;0.0011586679254767913
8.57100e-06;0.0011629592852776221
8.57125e-06;0.001166416574285093
8.57150e-06;0.0011666333008092285
8.57175e-06;0.0011668500273333624
8.57200e-06;0.0011661260000061454
8.57225e-06;0.0011617469212602935
8.57250e-06;0.0011573678425144418
8.57275e-06;0.001151915928022527
8.57300e-06;0.0011422957926829293
8.57325e-06;0.0011326756573433313
8.57350e-06;0.001122111018894943
8.57375e-06;0.0011078767622747347
8.57400e-06;0.0010936425056545262
8.57425e-06;0.0010783061460439144
8.57450e-06;0.0010586878554121931
8.57475e-06;0.0010390695647804716
8.57500e-06;0.001019451274148883
8.57525e-06;0.0009998329835171618
8.57550e-06;0.0009802146928854403
8.57575e-06;0.0009598121203296936
8.57600e-06;0.0009363624268336649
8.57625e-06;0.0009129127333376364
8.57650e-06;0.0008894630398417667
8.57675e-06;0.0008660133463457381
8.57700e-06;0.0008425636528497096
8.57725e-06;0.0008191765092022857
8.57750e-06;0.0007960323865234992
8.57775e-06;0.0007728882638447127
8.57800e-06;0.0007502232120797272
8.57825e-06;0.0007294194642258422
8.57850e-06;0.0007086157163719571
8.57875e-06;0.0006884262192300229
8.57900e-06;0.0006706232315166562
8.57925e-06;0.0006534956284627875
8.57950e-06;0.0006389920546969075
8.57975e-06;0.0006253740225959503
8.58000e-06;0.0006151965295005524
8.58025e-06;0.0006061408885300625
8.58050e-06;0.0006014439086441257
8.58075e-06;0.0005979019403652376
8.58100e-06;0.0005988474656091191
8.58125e-06;0.0006009515769640493
8.58150e-06;0.0006075570696360233
8.58175e-06;0.0006153543972638575
8.58200e-06;0.0006277822858416194
8.58225e-06;0.0006414516294484291
8.58250e-06;0.0006599443197359595
8.58275e-06;0.0006796007970377449
8.58300e-06;0.0007037788623973373
8.58325e-06;0.0007290245725285532
8.58350e-06;0.0007584183353440977
8.58375e-06;0.0007888021404494547
8.58400e-06;0.0008230324942258202
8.58425e-06;0.0008583861438292102
8.58450e-06;0.0008981040636433002
8.58475e-06;0.0009378219834573901
8.58500e-06;0.0009784436014306588
8.58525e-06;0.0010225763006892843
8.58550e-06;0.0010671315539814692
8.58575e-06;0.0011135623022883998
8.58600e-06;0.0011611060361002114
8.58625e-06;0.0012096124569698837
8.58650e-06;0.0012588887869654061
8.58675e-06;0.0013087003937344572
8.58700e-06;0.0013588009807430817
8.58725e-06;0.0014089508039180569
8.58750e-06;0.0014589091816117037
8.58775e-06;0.001508434904409971
8.58800e-06;0.0015573063464544477
8.58825e-06;0.0016053094160525614
8.58850e-06;0.0016522034092788247
8.58875e-06;0.001697721291648136
8.58900e-06;0.0017411333047894887
8.58925e-06;0.00178129162376605
8.58950e-06;0.0018214499427426111
8.58975e-06;0.0018604036300391
8.59000e-06;0.0018946770380819879
8.59025e-06;0.0019289504461248756
8.59050e-06;0.001962605111495912
8.59075e-06;0.001993855815110117
8.59100e-06;0.0020251065187243222
8.59125e-06;0.0020563572223383153
8.59150e-06;0.002086753750560466
8.59175e-06;0.0021138316051714456
8.59200e-06;0.0021409094597822417
8.59225e-06;0.0021679873143932212
8.59250e-06;0.0021944068084459793
8.59275e-06;0.0022182684158729236
8.59300e-06;0.0022421300233000296
8.59325e-06;0.002265991630727136
8.59350e-06;0.0022898532381540803
8.59375e-06;0.002313714845581187
8.59400e-06;0.002337576453008293
8.59425e-06;0.0023614380604352375
8.59450e-06;0.0023852996678623436
8.59475e-06;0.0024067750788501477
8.59500e-06;0.0024272505617468558
8.59525e-06;0.0024477260446437027
8.59550e-06;0.0024682015275405496
8.59575e-06;0.0024886770104372577
8.59600e-06;0.0025091524933341046
8.59625e-06;0.0025296279762309515
8.59650e-06;0.0025501034591276597
8.59675e-06;0.0025701220316342393
8.59700e-06;0.0025883653991075235
8.59725e-06;0.002606608766580684
8.59750e-06;0.002624852134053969
8.59775e-06;0.002643095501527253
8.59800e-06;0.0026613388690005374
8.59825e-06;0.002679127360980839
8.59850e-06;0.0026951485539859835
8.59875e-06;0.002711169746991128
8.59900e-06;0.002727190939996164
8.59925e-06;0.0027432121330013084
8.59950e-06;0.002759233326006453
8.59975e-06;0.002774774336030313
8.60000e-06;0.002788449721495538
8.60025e-06;0.0028021251069607622
8.60050e-06;0.0028150167069613524
8.60075e-06;0.0028248631148814745
8.60100e-06;0.0028347095228015966
8.60125e-06;0.002844555930721652
8.60150e-06;0.002854402338641774
8.60175e-06;0.0028642487465618963
8.60200e-06;0.0028740951544819517
8.60225e-06;0.0028828312465642575
8.60250e-06;0.002887253498763737
8.60275e-06;0.002891675750963187
8.60300e-06;0.002896098003162666
8.60325e-06;0.0029005202553621457
8.60350e-06;0.0029049425075615954
8.60375e-06;0.0029093647597610746
8.60400e-06;0.0029128923850986503
8.60425e-06;0.0029129441732861027
8.60450e-06;0.0029129959614735555
8.60475e-06;0.0029130477496610084
8.60500e-06;0.002913099537848461
8.60525e-06;0.0029131513260359137
8.60550e-06;0.0029132031142233665
8.60575e-06;0.002912809941343944
8.60600e-06;0.002910687989380722
8.60625e-06;0.0029085660374174992
8.60650e-06;0.002906444085454277
8.60675e-06;0.002904322133491069
8.60700e-06;0.0029022001815278468
8.60725e-06;0.002900078229564624
8.60750e-06;0.0028979706414336923
8.60775e-06;0.0028959188601915997
8.60800e-06;0.0028938670789495076
8.60825e-06;0.0028920929048089636
8.60850e-06;0.0028913972999779812
8.60875e-06;0.002890701695146999
8.60900e-06;0.0028900060903160217
8.60925e-06;0.0028893104854850393
8.60950e-06;0.002889004411036273
8.60975e-06;0.0028902117543389357
8.61000e-06;0.0028913591889545183
8.61025e-06;0.0028922738641381156
8.61050e-06;0.002892785756267317
8.61075e-06;0.002891732740876283
8.61100e-06;0.0028906797254852484
8.61125e-06;0.0028892803327129975
8.61150e-06;0.0028865351818140976
8.61175e-06;0.0028837900309151977
8.61200e-06;0.0028805457680507224
8.61225e-06;0.0028753623370412706
8.61250e-06;0.002870178906031819
8.61275e-06;0.002864233927738945
8.61300e-06;0.00285533015796272
8.61325e-06;0.002846426388186495
8.61350e-06;0.00283752261841033
8.61375e-06;0.002828618848634105
8.61400e-06;0.002818955406203213
8.61425e-06;0.0028063404556656173
8.61450e-06;0.0027937255051279355
8.61475e-06;0.002781110554590254
8.61500e-06;0.0027684956040525724
8.61525e-06;0.002755461680340513
8.61550e-06;0.0027407999466585557
8.61575e-06;0.002726138212976599
8.61600e-06;0.002711358361795821
8.61625e-06;0.002696119596168675
8.61650e-06;0.0026808217559053846
8.61675e-06;0.002665294396695535
8.61700e-06;0.002649794799466664
8.61725e-06;0.0026344622102328604
8.61750e-06;0.0026194490662620824
8.61775e-06;0.0026048965629173154
8.61800e-06;0.002590900991268765
8.61825e-06;0.002577503404517971
8.61850e-06;0.0025647648738585755
8.61875e-06;0.002552921187022272
8.61900e-06;0.0025422225025311276
8.61925e-06;0.0025318815782304402
8.61950e-06;0.0025232111640398746
8.61975e-06;0.002515869059530731
8.62000e-06;0.002509510608678499
8.62025e-06;0.0025032605229790943
8.62050e-06;0.0024964173245934857
8.62075e-06;0.0024888883220469866
8.62100e-06;0.00248083653898063
8.62125e-06;0.0024724244489933147
8.62150e-06;0.0024638150757259124
8.62175e-06;0.002455124757845674
8.62200e-06;0.0024462042546533323
8.62225e-06;0.0024365715473471444
8.62250e-06;0.002425757112993966
8.62275e-06;0.002413683796382698
8.62300e-06;0.002401293373606385
8.62325e-06;0.0023876709183074845
8.62350e-06;0.0023738251851906506
8.62375e-06;0.00235911196489246
8.62400e-06;0.00234439874459417
8.62425e-06;0.0023284418985822014
8.62450e-06;0.0023119639151373836
8.62475e-06;0.0022951710369539875
8.62500e-06;0.002277154718163373
8.62525e-06;0.0022590113853307157
8.62550e-06;0.0022403745728747635
8.62575e-06;0.002221698178744508
8.62600e-06;0.002202868000439129
8.62625e-06;0.0021839804870894502
8.62650e-06;0.0021648464311530093
8.62675e-06;0.0021456318901054696
8.62700e-06;0.002126511206438613
8.62725e-06;0.002107658394493862
8.62750e-06;0.002089247056081022
8.62775e-06;0.002071440053088655
8.62800e-06;0.0020543348196316834
8.62825e-06;0.0020379465701798444
8.62850e-06;0.0020223177065148497
8.62875e-06;0.0020075841087757455
8.62900e-06;0.0019939211460973426
8.62925e-06;0.0019815042774646682
8.62950e-06;0.001970508639181897
8.62975e-06;0.0019611449641433725
8.63000e-06;0.0019538208560982255
8.63025e-06;0.0019491520375953097
8.63050e-06;0.0019475865648819722
8.63075e-06;0.001949221607964549
8.63100e-06;0.001954018146615048
8.63125e-06;0.001961937411796373
8.63150e-06;0.0019729403383554446
8.63175e-06;0.001987010480520482
8.63200e-06;0.0020042540263237735
8.63225e-06;0.0020252652387331795
8.63250e-06;0.0020504923225577545
8.63275e-06;0.0020773871349120485
8.63300e-06;0.002110761467424241
8.63325e-06;0.002144135799936659
8.63350e-06;0.002179254204440843
8.63375e-06;0.0022211487415268473
8.63400e-06;0.0022630432786131353
8.63425e-06;0.0023062891370782893
8.63450e-06;0.002354785199013982
8.63475e-06;0.00240418959007644
8.63500e-06;0.0024571230548345382
8.63525e-06;0.0025107542627730425
8.63550e-06;0.0025670963681542333
8.63575e-06;0.0026239503663382253
8.63600e-06;0.0026827931892471815
8.63625e-06;0.0027420022320063194
8.63650e-06;0.002802634125581511
8.63675e-06;0.0028634057822626755
8.63700e-06;0.002924720451700382
8.63725e-06;0.0029859814797480676
8.63750e-06;0.0030469138043213327
8.63775e-06;0.0031072005097255847
8.63800e-06;0.0031665677199480716
8.63825e-06;0.0032247738599065394
8.63850e-06;0.0032815509852612834
8.63875e-06;0.0033365778014328744
8.63900e-06;0.00338923434865295
8.63925e-06;0.003438932980863443
8.63950e-06;0.003487384563948712
8.63975e-06;0.0035309910659523844
8.64000e-06;0.0035731265880706384
8.64025e-06;0.003609547005088873
8.64050e-06;0.003644003089179437
8.64075e-06;0.0036708272748039736
8.64100e-06;0.0036976514604286923
8.64125e-06;0.003722019246905311
8.64150e-06;0.0037368433411560423
8.64175e-06;0.003751667435406874
8.64200e-06;0.0037639924747618716
8.64225e-06;0.003766608094212667
8.64250e-06;0.0037692237136634807
8.64275e-06;0.003768955751612715
8.64300e-06;0.0037574843927605213
8.64325e-06;0.0037460130339082498
8.64350e-06;0.0037345416750559786
8.64375e-06;0.003723070316203785
8.64400e-06;0.0037014134132908427
8.64425e-06;0.0036754882902615186
8.64450e-06;0.0036495631672323705
8.64475e-06;0.0036236380442030464
8.64500e-06;0.0035960489207199553
8.64525e-06;0.003561994761533406
8.64550e-06;0.003527181687487636
8.64575e-06;0.0034894200495466333
8.64600e-06;0.003451099049390153
8.64625e-06;0.0034106047945999065
8.64650e-06;0.0033698347072510988
8.64675e-06;0.0033278897134355117
8.64700e-06;0.003285501032033302
8.64725e-06;0.003242964775963427
8.64750e-06;0.003200576825314203
8.64775e-06;0.0031586335422432417
8.64800e-06;0.0031174361213197883
8.64825e-06;0.0030772984635752893
8.64850e-06;0.003038551644811786
8.64875e-06;0.003001533417912633
8.64900e-06;0.002967154111657975
8.64925e-06;0.0029368527555907148
8.64950e-06;0.0029065513995234545
8.64975e-06;0.002877731476779878
8.65000e-06;0.002854667273219682
8.65025e-06;0.0028316030696593298
8.65050e-06;0.0028090661610420844
8.65075e-06;0.0027885779181130426
8.65100e-06;0.0027680896751838624
8.65125e-06;0.0027483730326310165
8.65150e-06;0.002731654240212491
8.65175e-06;0.0027149354477938523
8.65200e-06;0.002698839897948929
8.65225e-06;0.002685165793052337
8.65250e-06;0.0026714916881556525
8.65275e-06;0.0026578175832589683
8.65300e-06;0.0026441434783623765
8.65325e-06;0.002630469373465692
8.65350e-06;0.0026173269958970017
8.65375e-06;0.002606250504881424
8.65400e-06;0.002595174013865771
8.65425e-06;0.0025840975228501183
8.65450e-06;0.0025730210318345406
8.65475e-06;0.0025619445408188875
8.65500e-06;0.0025512602205517956
8.65525e-06;0.002542099576487511
8.65550e-06;0.002532938932423164
8.65575e-06;0.002523778288358817
8.65600e-06;0.002514617644294532
8.65625e-06;0.0025054570002301852
8.65650e-06;0.0024967590955666183
8.65675e-06;0.002489859043026661
8.65700e-06;0.0024829589904866566
8.65725e-06;0.0024760589379466524
8.65750e-06;0.0024691588854066945
8.65775e-06;0.0024622588328666903
8.65800e-06;0.002455781763299648
8.65825e-06;0.002450948082722072
8.65850e-06;0.002446312834776401
8.65875e-06;0.002442448544583678
8.65900e-06;0.0024387768963263523
8.65925e-06;0.0024360082214880557
8.65950e-06;0.0024340138288982036
8.65975e-06;0.002432930082385698
8.66000e-06;0.002433126421812723
8.66025e-06;0.002435235169857297
8.66050e-06;0.0024397295522931408
8.66075e-06;0.002446700073755239
8.66100e-06;0.0024563196387839817
8.66125e-06;0.002468734168703606
8.66150e-06;0.0024820781173223528
8.66175e-06;0.002499033077623871
8.66200e-06;0.0025173271583293607
8.66225e-06;0.0025408240388356774
8.66250e-06;0.002564320919342153
8.66275e-06;0.002589867747705993
8.66300e-06;0.002623379108812996
8.66325e-06;0.0026568904699202263
8.66350e-06;0.0026904018310274563
8.66375e-06;0.0027239131921344595
8.66400e-06;0.0027595321093939924
8.66425e-06;0.0028033393812619827
8.66450e-06;0.0028471466531296763
8.66475e-06;0.002890953924997667
8.66500e-06;0.0029347611968656576
8.66525e-06;0.0029796639922501024
8.66550e-06;0.0030288231558592495
8.66575e-06;0.0030783634092544396
8.66600e-06;0.0031293842866898973
8.66625e-06;0.003180686263119949
8.66650e-06;0.003233080375692023
8.66675e-06;0.0032855711190221226
8.66700e-06;0.0033384372957238465
8.66725e-06;0.0033911853708139036
8.66750e-06;0.0034434745931810114
8.66775e-06;0.0034954494021762947
8.66800e-06;0.003546202640787218
8.66825e-06;0.003596478802264836
8.66850e-06;0.0036449014061324557
8.66875e-06;0.0036926313426161213
8.66900e-06;0.003737670102324526
8.66925e-06;0.0037817818263363896
8.66950e-06;0.0038222917971950827
8.66975e-06;0.0038613962254226684
8.67000e-06;0.0038950397877691376
8.67025e-06;0.003928683350115834
8.67050e-06;0.003960572704768413
8.67075e-06;0.003985646547224186
8.67100e-06;0.004010720389680129
8.67125e-06;0.004032843168075539
8.67150e-06;0.004043500363937012
8.67175e-06;0.004054157559798557
8.67200e-06;0.004064814755660102
8.67225e-06;0.004075471951521575
8.67250e-06;0.0040861291473831204
8.67275e-06;0.004096786343244666
8.67300e-06;0.0040948056459604995
8.67325e-06;0.004087529079404618
8.67350e-06;0.004080252512848735
8.67375e-06;0.004072975946292903
8.67400e-06;0.004065699379737021
8.67425e-06;0.004058422813181139
8.67450e-06;0.004049018476989676
8.67475e-06;0.004031347252018064
8.67500e-06;0.004013676027046452
8.67525e-06;0.003995050616035016
8.67550e-06;0.003972717966357176
8.67575e-06;0.0039503853166791844
8.67600e-06;0.003927423490751319
8.67625e-06;0.0039020171661364104
8.67650e-06;0.0038766108415213296
8.67675e-06;0.0038509661848665482
8.67700e-06;0.0038243955518129486
8.67725e-06;0.0037978274924020455
8.67750e-06;0.003771269432203023
8.67775e-06;0.0037448859031192303
8.67800e-06;0.0037191804687372685
8.67825e-06;0.003693845329139134
8.67850e-06;0.003669948872443203
8.67875e-06;0.003646452927004693
8.67900e-06;0.003624844157012553
8.67925e-06;0.003604900855175636
8.67950e-06;0.0035868576725920495
8.67975e-06;0.003570998709617098
8.68000e-06;0.0035578797151814712
8.68025e-06;0.003548791049989573
8.68050e-06;0.0035447423579270626
8.68075e-06;0.0035424502486175596
8.68100e-06;0.003546982879172907
8.68125e-06;0.003553227077560987
8.68150e-06;0.0035661211221911728
8.68175e-06;0.003581253656259682
8.68200e-06;0.003605083251755939
8.68225e-06;0.003628912847252035
8.68250e-06;0.0036555848724380297
8.68275e-06;0.003693300409911589
8.68300e-06;0.003731015947384893
8.68325e-06;0.0037708305765841105
8.68350e-06;0.0038188006740961173
8.68375e-06;0.0038682787356932183
8.68400e-06;0.003923615594770059
8.68425e-06;0.003980067031852737
8.68450e-06;0.004041536412290723
8.68475e-06;0.004106292831553402
8.68500e-06;0.004173985742012426
8.68525e-06;0.0042442649663793075
8.68550e-06;0.004316780422685595
8.68575e-06;0.00439119421899872
8.68600e-06;0.004467234879513952
8.68625e-06;0.004544703021491972
8.68650e-06;0.004623342267090778
8.68675e-06;0.004702776935450285
8.68700e-06;0.004782586343787298
8.68725e-06;0.004862349163957997
8.68750e-06;0.004941644342838007
8.68775e-06;0.005020058177890418
8.68800e-06;0.005097219451149497
8.68825e-06;0.005172800883977498
8.68850e-06;0.005246440263740868
8.68875e-06;0.00531770109078647
8.68900e-06;0.005386117524125524
8.68925e-06;0.005451224643152666
8.68950e-06;0.005512556786581455
8.68975e-06;0.005569630182303907
8.69000e-06;0.005621871343406181
8.69025e-06;0.005668060016697192
8.69050e-06;0.005707258685370827
8.69075e-06;0.005743380055613124
8.69100e-06;0.005767545392897584
8.69125e-06;0.005791710730182045
8.69150e-06;0.005812099739034342
8.69175e-06;0.005817816817879061
8.69200e-06;0.00582353389672378
8.69225e-06;0.00582507863294539
8.69250e-06;0.005810412830270826
8.69275e-06;0.005795747027596164
8.69300e-06;0.005781081224921501
8.69325e-06;0.005752405072848404
8.69350e-06;0.00571785792803514
8.69375e-06;0.005683310783221876
8.69400e-06;0.005646401932981951
8.69425e-06;0.005598468532783605
8.69450e-06;0.005543352241936144
8.69475e-06;0.0054882359510890575
8.69500e-06;0.005430898669987198
8.69525e-06;0.005364932315925038
8.69550e-06;0.005298965961863325
8.69575e-06;0.0052316762469895505
8.69600e-06;0.005159244962055268
8.69625e-06;0.005086122082088942
8.69650e-06;0.005010312191684598
8.69675e-06;0.004934200470163099
8.69700e-06;0.0048569160632930194
8.69725e-06;0.004779660824374997
8.69750e-06;0.0047026745675921786
8.69775e-06;0.004626548249883201
8.69800e-06;0.004551764876067469
8.69825e-06;0.004478801044233463
8.69850e-06;0.004408165951892821
