Time(s);Current(A)
1.00000e-05;0.009176977804902755
1.00003e-05;0.009141780371332578
1.00005e-05;0.009106582937762639
1.00008e-05;0.009071385504192462
1.00010e-05;0.009036188070622283
1.00013e-05;0.009000990637052344
1.00015e-05;0.008965793203482167
1.00018e-05;0.008930595769911988
1.00020e-05;0.00889539833634205
1.00023e-05;0.008860200902771872
1.00025e-05;0.008828765827900978
1.00028e-05;0.008811747441793047
1.00030e-05;0.008794729055684998
1.00033e-05;0.00877771066957695
1.00035e-05;0.00876069228346902
1.00038e-05;0.008743673897360972
1.00040e-05;0.008726655511252924
1.00042e-05;0.008709637125144993
1.00045e-05;0.008692618739036945
1.00048e-05;0.008675600352928898
1.00050e-05;0.008658581966820966
1.00053e-05;0.008641563580712918
1.00055e-05;0.008624545194604871
1.00057e-05;0.008607526808496939
1.00060e-05;0.008590508422388891
1.00063e-05;0.008573490036280844
1.00065e-05;0.008556471650172912
1.00068e-05;0.008543963390177833
1.00070e-05;0.008548737130560593
1.00073e-05;0.00855351087094335
1.00075e-05;0.008558284611326078
1.00078e-05;0.008563058351708838
1.00080e-05;0.008567832092091597
1.00083e-05;0.008572605832474324
1.00085e-05;0.008577379572857083
1.00088e-05;0.008582153313239842
1.00090e-05;0.00858692705362257
1.00093e-05;0.00859170079400533
1.00095e-05;0.008596474534388087
1.00098e-05;0.008601248274770814
1.00100e-05;0.008606022015153574
1.00103e-05;0.008610795755536334
1.00105e-05;0.008615569495919061
1.00108e-05;0.00862034323630182
1.00110e-05;0.008625874113586842
1.00113e-05;0.008634306204697068
1.00115e-05;0.00864273829580735
1.00118e-05;0.008651170386917633
1.00120e-05;0.008659602478027858
1.00123e-05;0.008668034569138141
1.00125e-05;0.008676466660248423
1.00127e-05;0.008684898751358649
1.00130e-05;0.00869333084246893
1.00133e-05;0.008702190319479686
1.00135e-05;0.008712687463178678
1.00138e-05;0.008723184606877741
1.00140e-05;0.008733681750576804
1.00142e-05;0.008744178894275796
1.00145e-05;0.008754676037974859
1.00148e-05;0.008765173181673922
1.00150e-05;0.008775670325372914
1.00153e-05;0.008786167469071977
1.00155e-05;0.008799824905709854
1.00157e-05;0.00882559202230216
1.00160e-05;0.00885135913889464
1.00163e-05;0.008877126255487122
1.00165e-05;0.008902893372079602
1.00168e-05;0.008928660488671908
1.00170e-05;0.008954427605264388
1.00173e-05;0.008980194721856868
1.00175e-05;0.009005961838449175
1.00178e-05;0.009031728955041656
1.00180e-05;0.009057496071634136
1.00183e-05;0.009083263188226443
1.00185e-05;0.009109030304818922
1.00188e-05;0.009136844876442436
1.00190e-05;0.009172504931263427
1.00193e-05;0.009208164986084663
1.00195e-05;0.009243825040905897
1.00198e-05;0.00927948509572689
1.00200e-05;0.009315145150548125
1.00203e-05;0.009350805205369359
1.00205e-05;0.009386465260190352
1.00208e-05;0.009422125315011586
1.00210e-05;0.00945778536983282
1.00212e-05;0.009493445424653814
1.00215e-05;0.009529105479475048
1.00218e-05;0.009564765534296282
1.00220e-05;0.00959806198337822
1.00223e-05;0.009622301516027774
1.00225e-05;0.009646541048677328
1.00227e-05;0.009670780581326718
1.00230e-05;0.009695020113976272
1.00233e-05;0.009719259646625825
1.00235e-05;0.009743499179275214
1.00238e-05;0.009767738711924767
1.00240e-05;0.00979197824457432
1.00242e-05;0.009810587317074876
1.00245e-05;0.009807621468595868
1.00248e-05;0.00980465562011686
1.00250e-05;0.009801689771637851
1.00253e-05;0.009798723923158862
1.00255e-05;0.009795758074679854
1.00258e-05;0.009792792226200846
1.00260e-05;0.009789826377721859
1.00263e-05;0.00978686052924285
1.00265e-05;0.009777457452726696
1.00268e-05;0.00974338806429941
1.00270e-05;0.009709318675871891
1.00273e-05;0.009675249287444374
1.00275e-05;0.009641179899017086
1.00278e-05;0.00960711051058957
1.00280e-05;0.009573041122162052
1.00283e-05;0.009538971733734764
1.00285e-05;0.009504902345307247
1.00288e-05;0.00947083295687973
1.00290e-05;0.009436763568452442
1.00293e-05;0.009399585475028619
1.00295e-05;0.009350495377454948
1.00297e-05;0.00930140527988161
1.00300e-05;0.00925231518230794
1.00303e-05;0.009203225084734269
1.00305e-05;0.00915413498716093
1.00308e-05;0.009105044889587261
1.00310e-05;0.00905595479201359
1.00312e-05;0.009006864694440252
1.00315e-05;0.008957774596866582
1.00318e-05;0.008908684499292911
1.00320e-05;0.008862442054487324
1.00323e-05;0.00882711130816443
1.00325e-05;0.008791780561841536
1.00327e-05;0.008756449815518881
1.00330e-05;0.008721119069195987
1.00333e-05;0.008685788322873093
1.00335e-05;0.008650457576550198
1.00338e-05;0.008615126830227544
1.00340e-05;0.00857979608390465
1.00343e-05;0.008544465337581755
1.00345e-05;0.008514499453641865
1.00348e-05;0.008505090767331806
1.00350e-05;0.008495682081021748
1.00353e-05;0.008486273394711752
1.00355e-05;0.008476864708401692
1.00358e-05;0.008467456022091634
1.00360e-05;0.008458047335781638
1.00363e-05;0.008448638649471579
1.00365e-05;0.008439229963161519
1.00368e-05;0.008429821276851523
1.00370e-05;0.008425153833160379
1.00373e-05;0.008438653987178787
1.00375e-05;0.008452154141197106
1.00378e-05;0.008465654295215515
1.00380e-05;0.008479154449233925
1.00382e-05;0.008492654603252242
1.00385e-05;0.008506154757270653
1.00388e-05;0.008519654911289061
1.00390e-05;0.00853315506530738
1.00393e-05;0.008546655219325789
1.00395e-05;0.0085601553733442
1.00397e-05;0.008573655527362516
1.00400e-05;0.008587155681380926
1.00403e-05;0.00860528081616229
1.00405e-05;0.008625323026979503
1.00408e-05;0.00864536523779685
1.00410e-05;0.008665407448614198
1.00412e-05;0.00868544965943141
1.00415e-05;0.008705491870248758
1.00418e-05;0.008725534081066105
1.00420e-05;0.008745576291883453
1.00423e-05;0.008765618502700665
1.00425e-05;0.008785660713518013
1.00428e-05;0.008805702924335362
1.00430e-05;0.008825745135152574
1.00433e-05;0.008842050594838039
1.00435e-05;0.008844037489375463
1.00438e-05;0.008846024383912873
1.00440e-05;0.008848011278450297
1.00443e-05;0.008849998172987721
1.00445e-05;0.008851985067525131
1.00448e-05;0.008853971962062555
1.00450e-05;0.008855958856599979
1.00453e-05;0.00885794575113739
1.00455e-05;0.008838187178403092
1.00458e-05;0.008809415008350236
1.00460e-05;0.008780642838297577
1.00463e-05;0.008751870668244722
1.00465e-05;0.008723098498191868
1.00467e-05;0.008694326328139209
1.00470e-05;0.008665554158086354
1.00473e-05;0.008636781988033498
1.00475e-05;0.008602426239354371
1.00478e-05;0.00854667521132483
1.00480e-05;0.008490924183295287
1.00482e-05;0.008435173155266122
1.00485e-05;0.00837942212723658
1.00488e-05;0.008323671099207038
1.00490e-05;0.008267920071177874
1.00493e-05;0.00821216904314833
1.00495e-05;0.008156418015118789
1.00497e-05;0.008100666987089625
1.00500e-05;0.008039503698572656
1.00503e-05;0.007976097002911865
1.00505e-05;0.007912690307251074
1.00508e-05;0.00784928361159071
1.00510e-05;0.0077858769159299185
1.00513e-05;0.007722470220269127
1.00515e-05;0.007659063524608764
1.00518e-05;0.007595656828947973
1.00520e-05;0.007532250133287181
1.00523e-05;0.00747181861994061
1.00525e-05;0.007422787475603447
1.00528e-05;0.007373756331266285
1.00530e-05;0.007324725186929454
1.00533e-05;0.007275694042592292
1.00535e-05;0.007226662898255128
1.00538e-05;0.007188438671538588
1.00540e-05;0.007164443161598041
1.00543e-05;0.007140447651657493
1.00545e-05;0.007116452141717108
1.00548e-05;0.00709245663177656
1.00550e-05;0.007068461121836013
1.00552e-05;0.007048122663532357
1.00555e-05;0.007041005182044478
1.00558e-05;-0.054451210043198583
1.00560e-05;-0.019644958778051187
1.00563e-05;0.0006813007773224192
1.00565e-05;0.02059776215802812
1.00567e-05;0.03481991302024117
1.00570e-05;0.02844478590930972
1.00573e-05;0.01389562760672534
1.00575e-05;-0.002892570818335187
1.00578e-05;-0.015867334957214346
1.00580e-05;-0.009233407473110715
1.00582e-05;0.004335431939591122
1.00585e-05;0.016654181272815555
1.00588e-05;0.025503265922601173
1.00590e-05;0.0214887182190816
1.00593e-05;0.012370043853862867
1.00595e-05;0.0018560697497898401
1.00598e-05;-0.006265668969857729
1.00600e-05;-0.0021032776732865287
1.00603e-05;0.006402906019658727
1.00605e-05;0.014125227209733322
1.00608e-05;0.019673186393001203
1.00610e-05;0.01716263948383199
1.00613e-05;0.0114544209251911
1.00615e-05;0.004871705828748905
1.00618e-05;-0.00021323938115734125
1.00620e-05;0.002395227009820736
1.00623e-05;0.007722605162046774
1.00625e-05;0.01255663190508451
1.00628e-05;0.01602618161942344
1.00630e-05;0.014445524104444477
1.00633e-05;0.010859618382363134
1.00635e-05;0.0067237964793887325
1.00637e-05;0.003524436309308459
1.00640e-05;0.005142852344498033
1.00643e-05;0.008463071610726137
1.00645e-05;0.01147296086029041
1.00648e-05;0.013626968469656204
1.00650e-05;0.012616610174813
1.00652e-05;0.010349516587548265
1.00655e-05;0.007737447697002026
1.00658e-05;0.005711528500914123
1.00660e-05;0.006702916386121279
1.00663e-05;0.008759654859435877
1.00665e-05;0.010621379751172225
1.00667e-05;0.011946465724790495
1.00670e-05;0.011289069447678627
1.00673e-05;0.009844329205037127
1.00675e-05;0.008183492349550014
1.00678e-05;0.006889883468519662
1.00680e-05;0.0074863482334535224
1.00683e-05;0.008750143753375229
1.00685e-05;0.009891832356172072
1.00688e-05;0.010697518950197684
1.00690e-05;0.010261679669254663
1.00693e-05;0.009333106040734312
1.00695e-05;0.008269733240971638
1.00698e-05;0.007437029266327639
1.00700e-05;0.007788918822779295
1.00703e-05;0.008559484634973887
1.00705e-05;0.009254288944658705
1.00708e-05;0.009739440177870397
1.00710e-05;0.009447847537819088
1.00713e-05;0.008848682824647026
1.00715e-05;0.008166256884006615
1.00718e-05;0.007629576478894949
1.00720e-05;0.007836220637256943
1.00722e-05;0.008306456721306284
1.00725e-05;0.008730641886691459
1.00728e-05;0.009024998535999761
1.00730e-05;0.008834412771496755
1.00733e-05;0.008452859670178926
1.00735e-05;0.008020677662819218
1.00737e-05;0.007680556370537201
1.00740e-05;0.007805823804781007
1.00743e-05;0.008095530163625539
1.00745e-05;0.008355714849859025
1.00748e-05;0.008533943770521496
1.00750e-05;0.008407831951124593
1.00752e-05;0.00816158466922517
1.00755e-05;0.007883156683878404
1.00758e-05;0.0076619666247724275
1.00760e-05;0.007731891781519518
1.00763e-05;0.007904439715130303
1.00765e-05;0.008058150600175009
1.00768e-05;0.008160224135404348
1.00770e-05;0.008071410017442274
1.00773e-05;0.007907147472538519
1.00775e-05;0.0077225755328849495
1.00778e-05;0.0075737479228804505
1.00780e-05;0.007607195611002079
1.00783e-05;0.0077048772132625445
1.00785e-05;0.007790749696234757
1.00788e-05;0.007844310192313209
1.00790e-05;0.007778381092469204
1.00793e-05;0.007665322333021633
1.00795e-05;0.007539718446246193
1.00798e-05;0.007436721798677884
1.00800e-05;0.007448154646008196
1.00803e-05;0.007500111389982054
1.00805e-05;0.00754499949036624
1.00808e-05;0.007570018576727147
1.00810e-05;0.007520607664114066
1.00813e-05;0.007442139940190781
1.00815e-05;0.007356322148881091
1.00818e-05;0.007285216841458348
1.00820e-05;0.007286378895105293
1.00822e-05;0.007313552455059159
1.00825e-05;0.007336966702639161
1.00828e-05;0.007348646682510322
1.00830e-05;0.007314460537462569
1.00833e-05;0.007262878007825628
1.00835e-05;0.007207560948654358
1.00837e-05;0.007162425660761357
1.00840e-05;0.007163600340375158
1.00843e-05;0.007182102431793419
1.00845e-05;0.007199229323154379
1.00848e-05;0.007209929642599957
1.00850e-05;0.00719276788897491
1.00853e-05;0.007165521774262837
1.00855e-05;0.007136693146499742
1.00858e-05;0.0071149425111053976
1.00860e-05;0.007122841381814758
1.00863e-05;0.007142177336879325
1.00865e-05;0.007159181965722668
1.00868e-05;0.007168840013652107
1.00870e-05;0.00717502571293904
1.00873e-05;0.007167471183129107
1.00875e-05;0.007161390950310886
1.00878e-05;0.007164099003527215
1.00880e-05;0.007170855270949506
1.00883e-05;0.007193380550552148
1.00885e-05;0.007215839860100212
1.00888e-05;0.007235831187954293
1.00890e-05;0.007245256319466728
1.00893e-05;0.007250861022256506
1.00895e-05;0.0072558973819094
1.00898e-05;0.007263600790829123
1.00900e-05;0.007282821155039886
1.00903e-05;0.007305705248518125
1.00905e-05;0.007325893217527252
1.00907e-05;0.007346081186536243
1.00910e-05;0.007364444678352676
1.00913e-05;0.007375901897292731
1.00915e-05;0.007388171140890688
1.00918e-05;0.007400440384488728
1.00920e-05;0.007414227179737414
1.00922e-05;0.007433149021330825
1.00925e-05;0.007449019068443203
1.00928e-05;0.0074648891155555805
1.00930e-05;0.0074792285267636345
1.00933e-05;0.007487413540033704
1.00935e-05;0.007494874365178982
1.00938e-05;0.00750233519032426
1.00940e-05;0.007510657200132039
1.00943e-05;0.007521843823879917
1.00945e-05;0.007531105826884509
1.00948e-05;0.0075403678298890395
1.00950e-05;0.007548562024739542
1.00953e-05;0.0075525923231812035
1.00955e-05;0.00755682084964895
1.00958e-05;0.007561822362315505
1.00960e-05;0.007566823874982059
1.00963e-05;0.007571841798407337
1.00965e-05;0.007576923715256178
1.00968e-05;0.0075820056321050195
1.00970e-05;0.007586365887421626
1.00973e-05;0.00758791203811592
1.00975e-05;0.007589458188810214
1.00978e-05;0.007591321244562078
1.00980e-05;0.007594420065208696
1.00983e-05;0.007597518885855314
1.00985e-05;0.007600316135049026
1.00988e-05;0.0076019374124310065
1.00990e-05;0.007603558689812986
1.00992e-05;0.007604928198276365
1.00995e-05;0.007605315938908265
1.00998e-05;0.007605703679540166
1.01000e-05;0.007606269942615287
1.01003e-05;0.007607532350365181
1.01005e-05;0.007608794758115075
1.01007e-05;0.007609754010361994
1.01010e-05;0.007609531113825802
1.01013e-05;0.0076093082172896094
1.01015e-05;0.00760909859509303
1.01018e-05;0.007608940735916633
1.01020e-05;0.007608782876740236
1.01023e-05;0.007608637278111403
1.01025e-05;0.00760853948924107
1.01028e-05;0.007608441700370735
1.01030e-05;0.0076082325210992605
1.01033e-05;0.007607588977200203
1.01035e-05;0.00760694543330114
1.01038e-05;0.007607113493297549
1.01040e-05;0.007610446386351225
1.01043e-05;0.007613779279404923
1.01045e-05;0.007618001521531682
1.01048e-05;0.007625691762471105
1.01050e-05;0.007633382003410581
1.01053e-05;0.0076419257305294554
1.01055e-05;0.007653797609828857
1.01058e-05;0.0076656694891283385
1.01060e-05;0.007678771826843586
1.01063e-05;0.007696672312388861
1.01065e-05;0.007714572797934258
1.01068e-05;0.0077334000794963805
1.01070e-05;0.007755841383474592
1.01073e-05;0.007778282687452956
1.01075e-05;0.007801614987916365
1.01077e-05;0.007828421711242628
1.01080e-05;0.007855228434569072
1.01083e-05;0.007882846983557889
1.01085e-05;0.00791363123037988
1.01088e-05;0.007944415477202076
1.01090e-05;0.007975639139514488
1.01092e-05;0.008008576293688117
1.01095e-05;0.008041513447861968
1.01098e-05;0.008074761012488087
1.01100e-05;0.008109219016426285
1.01103e-05;0.00814367702036425
1.01105e-05;0.008178108982519252
1.01108e-05;0.008212439395264727
1.01110e-05;0.00824676980800997
1.01113e-05;0.008280709530645514
1.01115e-05;0.008313125765059296
1.01118e-05;0.00834554199947286
1.01120e-05;0.00837730478155067
1.01123e-05;0.008406519439393783
1.01125e-05;0.008435734097236698
1.01128e-05;0.008463870207066375
1.01130e-05;0.00848780054062112
1.01133e-05;0.008511730874175703
1.01135e-05;0.008534587095057252
1.01138e-05;0.008553254835183701
1.01140e-05;0.008571922575310026
1.01143e-05;0.008589790560235873
1.01145e-05;0.008604539915850059
1.01148e-05;0.008619289271464145
1.01150e-05;0.008633067921193935
1.01153e-05;0.008643061322860416
1.01155e-05;0.008653054724526831
1.01158e-05;0.008662287275262541
1.01160e-05;0.008668552903103696
1.01162e-05;0.008674818530944808
1.01165e-05;0.00868041296508931
1.01168e-05;0.008683390092919506
1.01170e-05;0.00868636722074968
1.01173e-05;0.008688657757916517
1.01175e-05;0.00868827094860719
1.01177e-05;0.008687884139297868
1.01180e-05;0.00868703428047138
1.01183e-05;0.008684378769370288
1.01185e-05;0.008681723258269193
1.01188e-05;0.008678639800200562
1.01190e-05;0.008673887571543158
1.01193e-05;0.008669135342885752
1.01195e-05;0.008664054962415395
1.01198e-05;0.008657694960553346
1.01200e-05;0.008651334958691297
1.01203e-05;0.008644812876825893
1.01205e-05;0.008637658767248556
1.01208e-05;0.008630504657671217
1.01210e-05;0.008623245050359118
1.01213e-05;0.008615574056752867
1.01215e-05;0.008607903063146618
1.01218e-05;0.008600276803114459
1.01220e-05;0.008592824980754102
1.01223e-05;0.008585373158393746
1.01225e-05;0.008578086394050955
1.01228e-05;0.008571443270126223
1.01230e-05;0.008564800146201491
1.01233e-05;0.008558323854430396
1.01235e-05;0.008552498121285317
1.01238e-05;0.008546672388140239
1.01240e-05;0.008540795902030893
1.01243e-05;0.008534721505758392
1.01245e-05;0.008528647109485893
1.01247e-05;0.008522540525315972
1.01250e-05;0.008516308425087502
1.01253e-05;0.008510076324859034
1.01255e-05;0.008503784030727874
1.01258e-05;0.008497257011684111
1.01260e-05;0.008490729992640347
1.01262e-05;0.008484068519426529
1.01265e-05;0.008476882744881653
1.01268e-05;0.008469696970336778
1.01270e-05;0.008462438202764593
1.01273e-05;0.008454894800351116
1.01275e-05;0.008447351397937588
1.01278e-05;0.00843971003786762
1.01280e-05;0.008431686693887362
1.01283e-05;0.00842366334990705
1.01285e-05;0.008415564098247298
1.01288e-05;0.008407168846118914
1.01290e-05;0.008398773593990471
1.01293e-05;0.008390361677655275
1.01295e-05;0.008381884779581182
1.01298e-05;0.008373407881507032
1.01300e-05;0.008364920211892394
1.01303e-05;0.008356390538872407
1.01305e-05;0.008347860865852362
1.01308e-05;0.008339384226828716
1.01310e-05;0.008331114392807044
1.01313e-05;0.008322844558785316
1.01315e-05;0.008314680159136351
1.01318e-05;0.008306926898702731
1.01320e-05;0.008299173638269057
1.01323e-05;0.008291566870785996
1.01325e-05;0.00828453134961654
1.01328e-05;0.008277495828447036
1.01330e-05;0.008270711284170852
1.01332e-05;0.008264905419240739
1.01335e-05;0.008259099554310586
1.01338e-05;0.008254750698636102
1.01340e-05;0.00825608342124037
1.01343e-05;0.008257416143844646
1.01345e-05;0.008258748866448925
1.01347e-05;0.008260081589053192
1.01350e-05;0.008261414311657469
1.01353e-05;0.008262747034261745
1.01355e-05;0.008264079756866022
1.01358e-05;0.00826541247947029
1.01360e-05;0.008269170636181806
1.01363e-05;0.008282386724397336
1.01365e-05;0.008295602812612777
1.01368e-05;0.008308818900828307
1.01370e-05;0.008322034989043837
1.01373e-05;0.008335251077259277
1.01375e-05;0.008348467165474808
1.01378e-05;0.008361683253690338
1.01380e-05;0.008374899341905778
1.01383e-05;0.008389860977265462
1.01385e-05;0.008411629338595494
1.01388e-05;0.008433397699925379
1.01390e-05;0.00845516606125541
1.01393e-05;0.008476934422585444
1.01395e-05;0.008498702783915329
1.01398e-05;0.00852047114524536
1.01400e-05;0.008542239506575393
1.01403e-05;0.008564007867905277
1.01405e-05;0.008585776229235311
1.01408e-05;0.008607272007229102
1.01410e-05;0.008627704851986998
1.01413e-05;0.008648137696745032
1.01415e-05;0.008668570541503065
1.01417e-05;0.00868900338626096
1.01420e-05;0.008709436231018995
1.01423e-05;0.008729869075777028
1.01425e-05;0.008750301920534923
1.01428e-05;0.008770734765292956
1.01430e-05;0.008791167610050991
1.01432e-05;0.00880779306057132
1.01435e-05;0.008809571653858194
1.01438e-05;0.008811350247145067
1.01440e-05;0.008813128840431941
1.01443e-05;0.0088149074337188
1.01445e-05;0.008816686027005674
1.01448e-05;0.008818464620292548
1.01450e-05;0.00882024321357941
1.01453e-05;0.00881529076626213
1.01455e-05;0.008784090761520529
1.01458e-05;0.008752890756779137
1.01460e-05;0.008721690752037535
1.01463e-05;0.008690490747295932
1.01465e-05;0.008659290742554542
1.01468e-05;0.008628090737812939
1.01470e-05;0.008596890733071337
1.01473e-05;0.008559427874845135
1.01475e-05;0.008497543145446514
1.01478e-05;0.008435658416047893
1.01480e-05;0.008373773686649691
1.01483e-05;0.00831188895725107
1.01485e-05;0.008250004227852447
1.01488e-05;0.008188119498454246
1.01490e-05;0.008126234769055624
1.01493e-05;0.008064350039657003
1.01495e-05;0.007999864923102474
1.01498e-05;0.00792523964914297
1.01500e-05;0.007850614375183465
1.01502e-05;0.007775989101224467
1.01505e-05;0.007701363827264962
1.01508e-05;0.007626738553305458
1.01510e-05;0.007552113279346459
1.01513e-05;0.007477488005386955
1.01515e-05;0.007402862731427451
