Time(s);Current(A)
1.75000e-06;-0.00781120437802789
1.75025e-06;-0.007813250055454872
1.75050e-06;-0.007815295732881856
1.75075e-06;-0.007817281767567012
1.75100e-06;-0.00781894033665708
1.75125e-06;-0.00782059890574715
1.75150e-06;-0.007822257474837219
1.75175e-06;-0.007823916043927289
1.75200e-06;-0.007825574613017357
1.75225e-06;-0.007827233182107426
1.75250e-06;-0.007828891751197496
1.75275e-06;-0.007829959495355756
1.75300e-06;-0.007827783343744843
1.75325e-06;-0.007825607192133932
1.75350e-06;-0.007823431040523021
1.75375e-06;-0.007821254888912109
1.75400e-06;-0.007819078737301198
1.75425e-06;-0.007816902585690285
1.75450e-06;-0.007814726434079374
1.75475e-06;-0.0078118302309177455
1.75500e-06;-0.0078049806194736065
1.75525e-06;-0.0077981310080294745
1.75550e-06;-0.0077912813965853355
1.75575e-06;-0.007784431785141203
1.75600e-06;-0.0077775821736970644
1.75625e-06;-0.0077707325622529315
1.75650e-06;-0.007763359443738925
1.75675e-06;-0.007753112034927381
1.75700e-06;-0.007742864626115846
1.75725e-06;-0.007732617217304302
1.75750e-06;-0.007722369808492767
1.75775e-06;-0.007712122399681232
1.75800e-06;-0.0077018749908696876
1.75825e-06;-0.0076913901451534615
1.75850e-06;-0.007679601663573092
1.75875e-06;-0.007667813181992732
1.75900e-06;-0.007656024700412373
1.75925e-06;-0.007644236218832003
1.75950e-06;-0.007632447737251644
1.75975e-06;-0.007620659255671274
1.76000e-06;-0.007609024586386035
1.76025e-06;-0.007598234416082613
1.76050e-06;-0.0075874442457792
1.76075e-06;-0.0075766540754757875
1.76100e-06;-0.007565863905172365
1.76125e-06;-0.007555073734868953
1.76150e-06;-0.00754428356456553
1.76175e-06;-0.007533843970545446
1.76200e-06;-0.007525329198686595
1.76225e-06;-0.0075168144268277365
1.76250e-06;-0.00750831964074027
1.76275e-06;-0.007499934585565862
1.76300e-06;-0.007491549530391461
1.76325e-06;-0.007483164475217061
1.76350e-06;-0.007476314702775624
1.76375e-06;-0.010453214094017912
1.76400e-06;-0.018775050930116135
1.76425e-06;-0.021127908694164848
1.76450e-06;-0.01925665576938799
1.76475e-06;-0.015729318644889852
1.76500e-06;-0.008979461688271928
1.76525e-06;-0.00619231697192014
1.76550e-06;-0.006355147003598186
1.76575e-06;-0.008296888832974107
1.76600e-06;-0.013616879353564221
1.76625e-06;-0.015289269740007027
1.76650e-06;-0.014287189062040096
1.76675e-06;-0.013181609770865224
1.76700e-06;-0.008925966818433015
1.76725e-06;-0.006081172207120403
1.76750e-06;-0.0054354659979923975
1.76775e-06;-0.006664383564401225
1.76800e-06;-0.0092671239786711
1.76825e-06;-0.010998711677124483
1.76850e-06;-0.010988241189857431
1.76875e-06;-0.009684689239150002
1.76900e-06;-0.007550998976389262
1.76925e-06;-0.00597588160563739
1.76950e-06;-0.005586653182416791
1.76975e-06;-0.006369604169774838
1.77000e-06;-0.008011277099141872
1.77025e-06;-0.009105701060828114
1.77050e-06;-0.009107673484731432
1.77075e-06;-0.008298743584289585
1.77100e-06;-0.006969155875777391
1.77125e-06;-0.00598897671835014
1.77150e-06;-0.005751258554034958
1.77175e-06;-0.006247481516611215
1.77200e-06;-0.007281354389653042
1.77225e-06;-0.007972244010365928
1.77250e-06;-0.007978646458654872
1.77275e-06;-0.007476870388580548
1.77300e-06;-0.006648724448995532
1.77325e-06;-0.006039255036345162
1.77350e-06;-0.00589467446527738
1.77375e-06;-0.006209633515230581
1.77400e-06;-0.006861165530145081
1.77425e-06;-0.007297659906049879
1.77450e-06;-0.0073052460145644
1.77475e-06;-0.006994413688126441
1.77500e-06;-0.006479084818885267
1.77525e-06;-0.006100689218270553
1.77550e-06;-0.006013443444570673
1.77575e-06;-0.006213978113849351
1.77600e-06;-0.0066252499098496285
1.77625e-06;-0.006901731962301068
1.77650e-06;-0.00690947864896755
1.77675e-06;-0.006717723979689336
1.77700e-06;-0.00639784642476214
1.77725e-06;-0.006163720695396772
1.77750e-06;-0.006111935523845173
1.77775e-06;-0.006240364648493181
1.77800e-06;-0.0065007341430193535
1.77825e-06;-0.0066766032213886215
1.77850e-06;-0.006684079550731787
1.77875e-06;-0.0065665437795640255
1.77900e-06;-0.006368715246653736
1.77925e-06;-0.006224564783464559
1.77950e-06;-0.006194586488700245
1.77975e-06;-0.006277435698991478
1.78000e-06;-0.006442862524515053
1.78025e-06;-0.006555286377303353
1.78050e-06;-0.006562161840701034
1.78075e-06;-0.006492798836387109
1.78100e-06;-0.006379793552167033
1.78125e-06;-0.006280541160038112
1.78150e-06;-0.0062637107395580585
1.78175e-06;-0.006315340786318224
1.78200e-06;-0.006411878657604497
1.78225e-06;-0.006495035247560176
1.78250e-06;-0.006501052632564257
1.78275e-06;-0.0064593990947386815
1.78300e-06;-0.0063905522375634505
1.78325e-06;-0.006330346551604333
1.78350e-06;-0.006321920921506687
1.78375e-06;-0.006356476528323985
1.78400e-06;-0.006419262105353028
1.78425e-06;-0.006473683013803019
1.78450e-06;-0.00647988402401449
1.78475e-06;-0.006456293320299453
1.78500e-06;-0.006415742836908764
1.78525e-06;-0.006380616961945531
1.78550e-06;-0.006377992674911922
1.78575e-06;-0.006402327898825435
1.78600e-06;-0.006444375483254854
1.78625e-06;-0.00648118693387373
1.78650e-06;-0.00648781272393086
1.78675e-06;-0.006475783491435514
1.78700e-06;-0.006453130001130548
1.78725e-06;-0.006433871855683867
1.78750e-06;-0.0064349554845839225
1.78775e-06;-0.006452899488711201
1.78800e-06;-0.006481896682733141
1.78825e-06;-0.0065076034840137915
1.78850e-06;-0.006514339646993489
1.78875e-06;-0.006509332674385082
1.78900e-06;-0.006497596147299768
1.78925e-06;-0.006487969566670276
1.78950e-06;-0.00649098483938051
1.78975e-06;-0.0065044711569062896
1.79000e-06;-0.006524766771282954
1.79025e-06;-0.006542976708434316
1.79050e-06;-0.006549159089665797
1.79075e-06;-0.006547864990498911
1.79100e-06;-0.006542206507366191
1.79125e-06;-0.006537838382494341
1.79150e-06;-0.0065412054121330825
1.79175e-06;-0.006551202922788177
1.79200e-06;-0.006565993859594876
1.79225e-06;-0.006577518747271139
1.79250e-06;-0.006583168702778966
1.79275e-06;-0.006585359746744606
1.79300e-06;-0.0065861161823136454
1.79325e-06;-0.006590908049120752
1.79350e-06;-0.006602904415204374
1.79375e-06;-0.006616185308875743
1.79400e-06;-0.00663608092020661
1.79425e-06;-0.006655392252652401
1.79450e-06;-0.006671694821490415
1.79475e-06;-0.006688053084615607
1.79500e-06;-0.006704698147330437
1.79525e-06;-0.006722637543765145
1.79550e-06;-0.006747242154863932
1.79575e-06;-0.006772846839995268
1.79600e-06;-0.006803601439715507
1.79625e-06;-0.006834107238806332
1.79650e-06;-0.006863331830756907
1.79675e-06;-0.006892556422707508
1.79700e-06;-0.006922729807373277
1.79725e-06;-0.006957789031773535
1.79750e-06;-0.006992848256173824
1.79775e-06;-0.007027907480574082
1.79800e-06;-0.007062966704974371
1.79825e-06;-0.007099362172475924
1.79850e-06;-0.007136438020691076
1.79875e-06;-0.00717351386890626
1.79900e-06;-0.0072105897171214125
1.79925e-06;-0.007247862790170214
1.79950e-06;-0.007286151479078235
1.79975e-06;-0.007324440167986288
1.80000e-06;-0.007362360514844441
1.80025e-06;-0.007398384072030567
1.80050e-06;-0.007434407629216724
1.80075e-06;-0.0074697935606444195
1.80100e-06;-0.007501896016960799
1.80125e-06;-0.007533685926478512
1.80150e-06;-0.007563866365831501
1.80175e-06;-0.007593536318390322
1.80200e-06;-0.007620577502174926
1.80225e-06;-0.007646423713473002
1.80250e-06;-0.007666116374092817
1.80275e-06;-0.007685809034712632
1.80300e-06;-0.007704217382293208
1.80325e-06;-0.007716012117039425
1.80350e-06;-0.007727806851785653
1.80375e-06;-0.007738326839835163
1.80400e-06;-0.0077422824772504124
1.80425e-06;-0.007746238114665666
1.80450e-06;-0.007748294265161038
1.80475e-06;-0.007740568944404597
1.80500e-06;-0.007732843623648161
1.80525e-06;-0.007725118302891719
1.80550e-06;-0.007717392982135284
1.80575e-06;-0.007707707903976752
1.80600e-06;-0.007687930989708004
1.80625e-06;-0.007668154075439272
1.80650e-06;-0.007648377161170523
1.80675e-06;-0.007628600246901791
1.80700e-06;-0.0076075393174376725
1.80725e-06;-0.0075798663088963835
1.80750e-06;-0.007552193300355117
1.80775e-06;-0.007523984122292562
1.80800e-06;-0.007493013921396299
1.80825e-06;-0.007461661735684573
1.80850e-06;-0.007428342506424457
1.80875e-06;-0.007394817575558421
1.80900e-06;-0.007360163409333329
1.80925e-06;-0.007325123042881174
1.80950e-06;-0.0072899572684623085
1.80975e-06;-0.007254872949380742
1.81000e-06;-0.007220049874772389
1.81025e-06;-0.007185574590404664
1.81050e-06;-0.007151611695510241
1.81075e-06;-0.00711840830478657
1.81100e-06;-0.007086222490124054
1.81125e-06;-0.007055366175939735
1.81150e-06;-0.007026110622672607
1.81175e-06;-0.006998692007641531
1.81200e-06;-0.006973326082055109
1.81225e-06;-0.006950107176296031
1.81250e-06;-0.006928969626463817
1.81275e-06;-0.006909737307851696
1.81300e-06;-0.006892352973133264
1.81325e-06;-0.006877102464366994
1.81350e-06;-0.006864462787214956
1.81375e-06;-0.006852537670418009
1.81400e-06;-0.006844292206003651
1.81425e-06;-0.006836884667377748
1.81450e-06;-0.006833792055548306
1.81475e-06;-0.006830699443718866
1.81500e-06;-0.006828800342921663
1.81525e-06;-0.0068330472669941664
1.81550e-06;-0.00683729419106667
1.81575e-06;-0.006841541115139178
1.81600e-06;-0.006845788039211682
1.81625e-06;-0.006851308230857888
1.81650e-06;-0.006863385156344214
1.81675e-06;-0.00687546208183054
1.81700e-06;-0.006887539007316877
1.81725e-06;-0.006899615932803203
1.81750e-06;-0.006912623229274886
1.81775e-06;-0.006930421502167719
1.81800e-06;-0.006948219775060566
1.81825e-06;-0.006966018047953399
1.81850e-06;-0.006983816320846232
1.81875e-06;-0.007001614593739079
1.81900e-06;-0.007019769824986608
1.81925e-06;-0.007039763225187827
1.81950e-06;-0.007059756625389028
1.81975e-06;-0.00707975002559023
1.82000e-06;-0.007099743425791448
1.82025e-06;-0.007119736825992649
1.82050e-06;-0.007139569731235702
1.82075e-06;-0.007158576162338455
1.82100e-06;-0.0071772621588270845
1.82125e-06;-0.007194298066582394
1.82150e-06;-0.00721133397433769
1.82175e-06;-0.007227816043865101
1.82200e-06;-0.007241446104965028
1.82225e-06;-0.0072550761660649665
1.82250e-06;-0.007268078306574451
1.82275e-06;-0.007277846949059592
1.82300e-06;-0.007287615591544742
1.82325e-06;-0.007296340875549218
1.82350e-06;-0.007299693350257044
1.82375e-06;-0.0073030458249648674
1.82400e-06;-0.007306398299672691
1.82425e-06;-0.0073097507743805175
1.82450e-06;-0.007313103249088341
1.82475e-06;-0.007316455723796167
1.82500e-06;-0.007314273362739118
1.82525e-06;-0.007309272805275215
1.82550e-06;-0.007304272247811308
1.82575e-06;-0.007299271690347405
1.82600e-06;-0.007294271132883497
1.82625e-06;-0.007289270575419594
1.82650e-06;-0.007283278175492591
1.82675e-06;-0.007272178249719882
1.82700e-06;-0.007261078323947172
1.82725e-06;-0.007249978398174453
1.82750e-06;-0.007238878472401743
1.82775e-06;-0.007227778546629025
1.82800e-06;-0.007214432855031554
1.82825e-06;-0.00719994367707844
1.82850e-06;-0.007185454499125313
1.82875e-06;-0.007170965321172199
1.82900e-06;-0.007156476143219072
1.82925e-06;-0.007141831753709973
1.82950e-06;-0.007126388097116412
1.82975e-06;-0.00711095216427171
1.83000e-06;-0.0070955560051294535
1.83025e-06;-0.007080228526773724
1.83050e-06;-0.007065254722419056
1.83075e-06;-0.0070504200212671
1.83100e-06;-0.007036301636697217
1.83125e-06;-0.007022329321848648
1.83150e-06;-0.007009228158779206
1.83175e-06;-0.006996874905766217
1.83200e-06;-0.006985378626626874
1.83225e-06;-0.006974943625645608
1.83250e-06;-0.006966073754700946
1.83275e-06;-0.006959390398448378
1.83300e-06;-0.006955162932040759
1.83325e-06;-0.006953556504923773
1.83350e-06;-0.0069549192626810795
1.83375e-06;-0.006957021948008039
1.83400e-06;-0.006962934915034277
1.83425e-06;-0.0069698694361923965
1.83450e-06;-0.00698206448442528
1.83475e-06;-0.006994259532658154
1.83500e-06;-0.007008105504447384
1.83525e-06;-0.007030452962154312
1.83550e-06;-0.00705280041986124
1.83575e-06;-0.007075147877568188
1.83600e-06;-0.0070974953352751155
1.83625e-06;-0.007121543062711778
1.83650e-06;-0.007154346385831657
1.83675e-06;-0.007187149708951536
1.83700e-06;-0.007219953032071442
1.83725e-06;-0.007252756355191321
1.83750e-06;-0.0072867800356812805
1.83775e-06;-0.007327087987151496
1.83800e-06;-0.007367395938621712
1.83825e-06;-0.007407703890091963
1.83850e-06;-0.0074480118415621785
1.83875e-06;-0.007488319793032429
1.83900e-06;-0.007528900397886049
1.83925e-06;-0.007570885040431466
1.83950e-06;-0.007612869682976848
1.83975e-06;-0.007654854325522231
1.84000e-06;-0.007696838968067648
1.84025e-06;-0.00773882361061303
1.84050e-06;-0.0077803128857287076
1.84075e-06;-0.007819251249742736
1.84100e-06;-0.007857526014999455
1.84125e-06;-0.007892383556322193
1.84150e-06;-0.0079272410976449
1.84175e-06;-0.007960030087766266
1.84200e-06;-0.00798216700448316
1.84225e-06;-0.008004303921200053
1.84250e-06;-0.008026440837916966
1.84275e-06;-0.008048577754633858
1.84300e-06;-0.008070714671350772
1.84325e-06;-0.008092851588067666
1.84350e-06;-0.008114988504784558
1.84375e-06;-0.008137125421501471
1.84400e-06;-0.008156680923360865
1.84425e-06;-0.008162943343313156
1.84450e-06;-0.008169205763265443
1.84475e-06;-0.008175468183217734
1.84500e-06;-0.00818173060317002
1.84525e-06;-0.008187993023122307
1.84550e-06;-0.0081942554430746
1.84575e-06;-0.008200517863026887
1.84600e-06;-0.008206780282979179
1.84625e-06;-0.008211215659687538
1.84650e-06;-0.008206242616273816
1.84675e-06;-0.008201269572860088
1.84700e-06;-0.008196296529446366
1.84725e-06;-0.008191323486032638
1.84750e-06;-0.008186350442618914
1.84775e-06;-0.008181377399205192
1.84800e-06;-0.008176404355791464
1.84825e-06;-0.008171431312377742
1.84850e-06;-0.008163029475360998
1.84875e-06;-0.008152881784587986
1.84900e-06;-0.008142734093814967
1.84925e-06;-0.008132586403041956
1.84950e-06;-0.008122438712268944
1.84975e-06;-0.008112291021495925
1.85000e-06;-0.008102143330722915
1.85025e-06;-0.008091995639949896
1.85050e-06;-0.008081806099583316
1.85075e-06;-0.008071401053338855
1.85100e-06;-0.008060996007094383
1.85125e-06;-0.008050796119774243
1.85150e-06;-0.008041652705177519
1.85175e-06;-0.008032509290580803
1.85200e-06;-0.008023479056670191
1.85225e-06;-0.008015031650477563
1.85250e-06;-0.008006584244284944
1.85275e-06;-0.007997555790056147
1.85300e-06;-0.007985535209585585
1.85325e-06;-0.007973514629115013
1.85350e-06;-0.007960928246177952
1.85375e-06;-0.007945428244568627
1.85400e-06;-0.007929928242959287
1.85425e-06;-0.007913498362564008
1.85450e-06;-0.007892280040346526
1.85475e-06;-0.007871061718129062
1.85500e-06;-0.007849843395911597
1.85525e-06;-0.007828625073694114
1.85550e-06;-0.007806213735167785
1.85575e-06;-0.007777658919368763
1.85600e-06;-0.007749104103569765
1.85625e-06;-0.0077205492877707674
1.85650e-06;-0.007691994471971745
1.85675e-06;-0.007662495970554638
1.85700e-06;-0.007628137928572755
1.85725e-06;-0.007593779886590902
1.85750e-06;-0.007559421844609021
1.85775e-06;-0.007525063802627168
1.85800e-06;-0.007488779082950933
1.85825e-06;-0.007451513348410806
1.85850e-06;-0.007414247613870711
1.85875e-06;-0.007376981879330584
1.85900e-06;-0.007339578295224532
1.85925e-06;-0.007301474164113433
1.85950e-06;-0.007263463580671137
1.85975e-06;-0.0072257698995464425
1.86000e-06;-0.007188615612004153
1.86025e-06;-0.007152197025416807
1.86050e-06;-0.007116629494277086
1.86075e-06;-0.00708198797589702
1.86100e-06;-0.0070484277484992265
1.86125e-06;-0.007017243280289063
1.86150e-06;-0.00699282307106007
1.86175e-06;-0.006968402861831056
1.86200e-06;-0.006943982652602062
1.86225e-06;-0.006919562443373068
1.86250e-06;-0.006895142234144054
1.86275e-06;-0.006870722024915061
1.86300e-06;-0.0068463018156860464
1.86325e-06;-0.006821881606457053
1.86350e-06;-0.006797461397228059
1.86375e-06;-0.006778807698852924
1.86400e-06;-0.00676309015989696
1.86425e-06;-0.006747372620940982
1.86450e-06;-0.006731655081985019
1.86475e-06;-0.006715937543029055
1.86500e-06;-0.006700220004073078
1.86525e-06;-0.006684502465117114
1.86550e-06;-0.006668784926161137
1.86575e-06;-0.006653067387205173
1.86600e-06;-0.006638039857903619
1.86625e-06;-0.00662656555633073
1.86650e-06;-0.006615091254757841
1.86675e-06;-0.006603616953184941
1.86700e-06;-0.006592142651612052
1.86725e-06;-0.0065806683500391535
1.86750e-06;-0.006569194048466264
1.86775e-06;-0.006557719746893375
1.86800e-06;-0.006546630657830213
1.86825e-06;-0.00653752523343352
1.86850e-06;-0.006528419809036818
1.86875e-06;-0.0065193143846401245
1.86900e-06;-0.006510208960243431
1.86925e-06;-0.006501103535846729
1.86950e-06;-0.0064919981114500355
1.86975e-06;-0.006482892687053334
1.87000e-06;-0.006474052526734615
1.87025e-06;-0.006466578352632462
1.87050e-06;-0.006459104178530314
1.87075e-06;-0.0064517246708339
1.87100e-06;-0.006444832650951096
1.87125e-06;-0.006438003216151091
1.87150e-06;-0.006431547026920215
1.87175e-06;-0.006425410891362182
1.87200e-06;-0.006419643435696118
1.87225e-06;-0.006414375226247157
1.87250e-06;-0.00640998633957638
1.87275e-06;-0.006406967405054707
1.87300e-06;-0.0064055282356505865
1.87325e-06;-0.006405642034609799
1.87350e-06;-0.006407254168115674
1.87375e-06;-0.006410420800357051
1.87400e-06;-0.006415331431462359
1.87425e-06;-0.006420742061722769
1.87450e-06;-0.006428727454308173
1.87475e-06;-0.006437433263163222
1.87500e-06;-0.006449848879625851
1.87525e-06;-0.0064622644960884885
1.87550e-06;-0.006475642330118478
1.87575e-06;-0.006493975135603027
1.87600e-06;-0.00651230794108756
1.87625e-06;-0.006530640746572093
1.87650e-06;-0.006548973552056642
1.87675e-06;-0.006568296269544055
1.87700e-06;-0.006592716571905325
1.87725e-06;-0.006617136874266576
1.87750e-06;-0.006641557176627825
1.87775e-06;-0.006665977478989096
1.87800e-06;-0.006690879768521164
1.87825e-06;-0.006718264067064322
1.87850e-06;-0.006745648365607457
1.87875e-06;-0.006773206044644133
1.87900e-06;-0.006801656552314799
1.87925e-06;-0.0068301070599854396
1.87950e-06;-0.006858494111758482
1.87975e-06;-0.0068865543952703594
1.88000e-06;-0.006914614678782261
1.88025e-06;-0.006942449421254676
1.88050e-06;-0.006969122732622307
1.88075e-06;-0.0069955142028790395
1.88100e-06;-0.007020454322935311
1.88125e-06;-0.007044865959357362
1.88150e-06;-0.0070665561516792975
1.88175e-06;-0.007088246344001234
1.88200e-06;-0.007109113401765751
1.88225e-06;-0.007125741700674223
1.88250e-06;-0.007142369999582709
1.88275e-06;-0.007158224409143072
1.88300e-06;-0.007170093649695259
1.88325e-06;-0.0071819628902474566
1.88350e-06;-0.007192523782493709
1.88375e-06;-0.0071963472915036976
1.88400e-06;-0.007200170800513683
1.88425e-06;-0.007203994309523671
1.88450e-06;-0.007207817818533656
1.88475e-06;-0.007211641327543641
1.88500e-06;-0.00721546483655363
1.88525e-06;-0.007212769365994232
1.88550e-06;-0.007206754598246569
1.88575e-06;-0.0072007398304989095
1.88600e-06;-0.007194725062751251
1.88625e-06;-0.007188710295003588
1.88650e-06;-0.007182695527255929
1.88675e-06;-0.007175537678652939
1.88700e-06;-0.00716249349706266
1.88725e-06;-0.007149449315472381
1.88750e-06;-0.007136405133882091
1.88775e-06;-0.007123360952291812
1.88800e-06;-0.007110316770701522
1.88825e-06;-0.007096682858167666
1.88850e-06;-0.007080012106471821
1.88875e-06;-0.007063341354775989
1.88900e-06;-0.0070466706030801575
1.88925e-06;-0.0070299998513843115
1.88950e-06;-0.00701332909968848
1.88975e-06;-0.006996566205687825
1.89000e-06;-0.006979328821815555
1.89025e-06;-0.006962156294716934
1.89050e-06;-0.0069453177497372275
1.89075e-06;-0.0069286302343372725
1.89100e-06;-0.006912720450795103
1.89125e-06;-0.006897104573566386
1.89150e-06;-0.0068830021767007
1.89175e-06;-0.0068688997798350025
1.89200e-06;-0.006855244047871639
1.89225e-06;-0.006843888431719343
1.89250e-06;-0.006832532815567056
1.89275e-06;-0.006821854900324319
1.89300e-06;-0.006814666828517093
1.89325e-06;-0.006807478756709867
1.89350e-06;-0.006800290684902635
1.89375e-06;-0.006793102613095409
1.89400e-06;-0.006785914541288177
1.89425e-06;-0.006778726469480951
1.89450e-06;-0.006771538397673725
1.89475e-06;-0.006768080122651848
1.89500e-06;-0.006766520964485599
1.89525e-06;-0.006764961806319348
1.89550e-06;-0.006763402648153099
1.89575e-06;-0.006761843489986849
1.89600e-06;-0.006760284331820598
1.89625e-06;-0.006758725173654349
1.89650e-06;-0.006757864157457949
