Time(s);Current(A)
1.38000e-05;-0.0004491296467982623
1.38003e-05;-0.0004207984194961666
1.38005e-05;-0.000394726887557064
1.38008e-05;-0.0003713231826225652
1.38010e-05;-0.00035113889942090204
1.38013e-05;-0.0003345895040838463
1.38015e-05;-0.0003217912277670094
1.38018e-05;-0.00031273244679832265
1.38020e-05;-0.00030740098097021293
1.38023e-05;-0.00030578465109309033
1.38025e-05;-0.0003078879528899716
1.38028e-05;-0.0003137997182425589
1.38030e-05;-0.0003236986088247446
1.38033e-05;-0.0003376780009935224
1.38035e-05;-0.00035564384345489853
1.38038e-05;-0.00037742199572957054
1.38040e-05;-0.00040283792929482037
1.38043e-05;-0.0004317171375835872
1.38045e-05;-0.0004638956226483169
1.38048e-05;-0.0004992621773816905
1.38050e-05;-0.0005377619003405619
1.38053e-05;-0.0005796046087966822
1.38055e-05;-0.0006245872272158308
1.38058e-05;-0.0006707070284457038
1.38060e-05;-0.0007203193386950622
1.38063e-05;-0.0007709705821144598
1.38065e-05;-0.0008248125908492025
1.38068e-05;-0.0008786545995839453
1.38070e-05;-0.0009333298060609774
1.38073e-05;-0.0009905639244431133
1.38075e-05;-0.0010477980428252494
1.38078e-05;-0.0011050321612069976
1.38080e-05;-0.0011622662795891337
1.38083e-05;-0.0012182676089327938
1.38085e-05;-0.0012738483710438954
1.38088e-05;-0.001329429133155374
1.38090e-05;-0.0013850098952668522
1.38093e-05;-0.0014390473025036202
1.38095e-05;-0.0014883447675147635
1.38098e-05;-0.001537642232526241
1.38100e-05;-0.0015847607482807294
1.38103e-05;-0.001625187288158506
1.38105e-05;-0.0016656138280365565
1.38108e-05;-0.0017036591479768384
1.38110e-05;-0.0017343912795397573
1.38113e-05;-0.001762487763415146
1.38115e-05;-0.0017824896619348409
1.38118e-05;-0.0018024915604544002
1.38120e-05;-0.001819202349813908
1.38123e-05;-0.0018258055044781763
1.38125e-05;-0.0018324086591423997
1.38128e-05;-0.0018356510951660395
1.38130e-05;-0.0018285721122763712
1.38133e-05;-0.0018214931293867509
1.38135e-05;-0.0018112538494014325
1.38138e-05;-0.0017913086839485297
1.38140e-05;-0.0017713635184957621
1.38143e-05;-0.001748555337897396
1.38145e-05;-0.0017169542823721527
1.38148e-05;-0.0016853532268471237
1.38150e-05;-0.0016512800863731534
1.38153e-05;-0.001609614693445328
1.38155e-05;-0.0015679493005177848
1.38158e-05;-0.0015243579372757545
1.38160e-05;-0.001474851545566705
1.38163e-05;-0.0014253451538579908
1.38165e-05;-0.0013742898153859759
1.38168e-05;-0.0013184773609139903
1.38170e-05;-0.001262664906442383
1.38173e-05;-0.0012068524519703975
1.38175e-05;-0.001151039997498412
1.38178e-05;-0.00109380459854538
1.38180e-05;-0.0010360837606381125
1.38183e-05;-0.0009783629227304539
1.38185e-05;-0.0009206420848227952
1.38188e-05;-0.0008637779846022301
1.38190e-05;-0.0008095450920218997
1.38193e-05;-0.0007553121994415693
1.38195e-05;-0.0007023637819212604
1.38198e-05;-0.0006533602364935655
1.38200e-05;-0.000605409261612837
1.38203e-05;-0.0005615179706228258
1.38205e-05;-0.0005208440313871605
1.38208e-05;-0.00048225041194616776
1.38210e-05;-0.0004436567925054366
1.38213e-05;-0.0004041957806061552
1.38215e-05;-0.0003613634579445491
1.38218e-05;-0.0003163586333027621
1.38220e-05;-0.0002708637924237601
1.38223e-05;-0.00022368221391838176
1.38225e-05;-0.0001757449686242726
1.38228e-05;-0.0001267024412509111
1.38230e-05;-7.52886685936169e-05
1.38233e-05;-2.0415711246006434e-05
1.38235e-05;3.7947282877444865e-05
1.38238e-05;9.932253676393576e-05
1.38240e-05;0.00016323000858013402
1.38243e-05;0.00022918974348449397
1.38245e-05;0.0002967995823371167
1.38248e-05;0.0003660757404361709
1.38250e-05;0.00043760834879189963
1.38253e-05;0.0005121428517736075
1.38255e-05;0.0005895146574465483
1.38258e-05;0.0006678085123168181
1.38260e-05;0.0007489341591464232
1.38263e-05;0.0008300598059760283
1.38265e-05;0.0009117198085874119
1.38268e-05;0.0009950209214710328
1.38270e-05;0.0010783220343546535
1.38273e-05;0.00116162314723771
1.38275e-05;0.0012449242601213306
1.38278e-05;0.0013269106809428277
1.38280e-05;0.0014084485932315768
1.38283e-05;0.0014899865055208782
1.38285e-05;0.0015715244178101798
1.38288e-05;0.0016512868451306784
1.38290e-05;0.0017255964136724238
1.38293e-05;0.0017999059822141692
1.38295e-05;0.0018719451931858983
1.38298e-05;0.0019370116956154433
1.38300e-05;0.002002078198044988
1.38303e-05;0.0020643919567362055
1.38305e-05;0.002118251505379437
1.38308e-05;0.0021692115041481996
1.38310e-05;0.002211266422742573
1.38313e-05;0.0022500628684736877
1.38315e-05;0.0022788519119002013
1.38318e-05;0.0023043164854698547
1.38320e-05;0.0023195709671654987
1.38323e-05;0.002331447363596087
1.38325e-05;0.0023329490048323276
1.38328e-05;0.0023309675031981877
1.38330e-05;0.0023182885940826515
1.38333e-05;0.0023021782130529457
1.38335e-05;0.0022755291160721646
1.38338e-05;0.002245683740101372
1.38340e-05;0.002206021971277779
1.38343e-05;0.002163406922791716
1.38345e-05;0.002111721779529568
1.38348e-05;0.0020572940151186913
1.38350e-05;0.0019944431290945825
1.38353e-05;0.0019286380579032554
1.38355e-05;0.0018537601109552436
1.38358e-05;0.0017788821640077393
1.38360e-05;0.0017013109220867604
1.38363e-05;0.0016154680488065134
1.38365e-05;0.001529625175526848
1.38368e-05;0.0014418798393115108
1.38370e-05;0.0013482916703458582
1.38373e-05;0.0012547035013808399
1.38375e-05;0.0011611153324151873
1.38378e-05;0.0010672057783949285
1.38380e-05;0.0009723091885240756
1.38383e-05;0.0008774125986525796
1.38385e-05;0.0007825160087810836
1.38388e-05;0.0006887256048648534
1.38390e-05;0.0005983325126144019
1.38393e-05;0.0005089767069445907
1.38395e-05;0.0004237023014595713
1.38398e-05;0.000342228929467669
1.38400e-05;0.00026518554363533253
1.38403e-05;0.0001932009865988665
1.38405e-05;0.00012669607218533348
1.38408e-05;6.496537997653274e-05
1.38410e-05;5.726799773233401e-06
1.38413e-05;-5.307812468887552e-05
1.38415e-05;-0.00011179102214425693
1.38418e-05;-0.00016991506939276833
1.38420e-05;-0.00022694966765937025
1.38423e-05;-0.0002823942670578899
1.38425e-05;-0.00033583636287812095
1.38428e-05;-0.00038768684500109355
1.38430e-05;-0.00043953732712406616
1.38433e-05;-0.0004918098196998027
1.38435e-05;-0.0005453783882457645
1.38438e-05;-0.0005989469567920895
1.38440e-05;-0.0006525155253384145
1.38443e-05;-0.0007060840938843765
1.38445e-05;-0.0007596526624307014
1.38448e-05;-0.0008136874908491939
1.38450e-05;-0.000867881384296345
1.38453e-05;-0.0009220752777438633
1.38455e-05;-0.0009762691711913817
1.38458e-05;-0.0010304630646385327
1.38460e-05;-0.001084561838302893
1.38463e-05;-0.0011383684806598666
1.38465e-05;-0.0011921751230164752
1.38468e-05;-0.0012459817653734488
1.38470e-05;-0.0012997884077304222
1.38473e-05;-0.0013535950500870308
1.38475e-05;-0.0014074016924440044
1.38478e-05;-0.0014574929588395266
1.38480e-05;-0.0015063167209511345
1.38483e-05;-0.0015551404830630735
1.38485e-05;-0.0016039642451750125
1.38488e-05;-0.0016527880072866204
1.38490e-05;-0.0017016117693985594
1.38493e-05;-0.0017486224560015764
1.38495e-05;-0.001790064835977608
1.38498e-05;-0.0018315072159539201
1.38500e-05;-0.0018710856669856672
1.38503e-05;-0.0019049396306237833
1.38505e-05;-0.0019387935942621287
1.38508e-05;-0.0019699153929493953
1.38510e-05;-0.0019926461830278813
1.38513e-05;-0.0020122470628452073
1.38515e-05;-0.0020222353810426708
1.38518e-05;-0.0020291383112137204
1.38520e-05;-0.002026565416186032
1.38523e-05;-0.002020986340961692
1.38525e-05;-0.002006174703150279
1.38528e-05;-0.0019880700784518325
1.38530e-05;-0.0019598520521787845
1.38533e-05;-0.00192816003340031
1.38535e-05;-0.0018857987096788903
1.38538e-05;-0.0018402923775968135
1.38540e-05;-0.0017851271147039712
1.38543e-05;-0.0017271675168160085
1.38545e-05;-0.0016606259740512554
1.38548e-05;-0.001591411481575269
1.38550e-05;-0.001513987841980285
1.38553e-05;-0.001434078920899902
1.38555e-05;-0.0013465372182307881
1.38558e-05;-0.001257017321459868
1.38560e-05;-0.0011614220068267669
1.38563e-05;-0.0010643690894078283
1.38565e-05;-0.0009628395910567784
1.38568e-05;-0.0008600387141038564
1.38570e-05;-0.0007533331868168798
1.38573e-05;-0.0006466276595306263
1.38575e-05;-0.000539391311107225
1.38578e-05;-0.00043052470799351413
1.38580e-05;-0.00032165810488054094
1.38583e-05;-0.00021316971915396138
1.38585e-05;-0.0001062831985562895
1.38588e-05;-1.3081051088818796e-06
1.38590e-05;0.00010126890090251246
1.38593e-05;0.00020091909936220507
1.38595e-05;0.00029698914926678133
1.38598e-05;0.0003887697734153926
1.38600e-05;0.00047555151054327877
1.38603e-05;0.0005566250635407116
1.38605e-05;0.0006313223634988993
1.38608e-05;0.0006992170035630155
1.38610e-05;0.0007603011825257524
1.38613e-05;0.0008147142200099065
1.38615e-05;0.0008623948801332841
1.38618e-05;0.0009031513727243642
1.38620e-05;0.000936791276535526
1.38623e-05;0.0009631223469785733
1.38625e-05;0.0009819780861043041
1.38628e-05;0.0009933435611630403
1.38630e-05;0.0009974657965717427
1.38633e-05;0.0009946841921977588
1.38635e-05;0.0009852125258791485
1.38638e-05;0.000969182477642266
1.38640e-05;0.000946725728531365
1.38643e-05;0.000917973813563117
1.38645e-05;0.0008830744514398974
1.38648e-05;0.0008422703502854807
1.38650e-05;0.0007959682789518496
1.38653e-05;0.0007446327885526224
1.38655e-05;0.0006886496999482807
1.38658e-05;0.0006283535192869736
1.38660e-05;0.0005640785331644935
1.38663e-05;0.0004961590424753107
1.38665e-05;0.0004249395146132832
1.38668e-05;0.00035082380004374674
1.38670e-05;0.00027431853201461716
1.38673e-05;0.00019596646406744653
1.38675e-05;0.00011626101555878538
1.38678e-05;3.565324797474556e-05
1.38680e-05;-4.539648878852155e-05
1.38683e-05;-0.00012636363095235424
1.38685e-05;-0.0002068647353831778
1.38688e-05;-0.00028636386309939733
1.38690e-05;-0.0003642920946585042
1.38693e-05;-0.0004400579459697687
1.38695e-05;-0.000513100870484959
1.38698e-05;-0.0005828804299913645
1.38700e-05;-0.0006488564870094215
1.38703e-05;-0.0007104888448325973
1.38705e-05;-0.000767232333280383
1.38708e-05;-0.0008185321285021361
1.38710e-05;-0.0008638959055116265
1.38713e-05;-0.0009030187377358739
1.38715e-05;-0.0009357699132246091
1.38718e-05;-0.0009620726979472463
1.38720e-05;-0.0009818506652449301
1.38723e-05;-0.0009950274027565507
1.38725e-05;-0.0010015233965934825
1.38728e-05;-0.0010012531041695915
1.38730e-05;-0.0009941700447013736
1.38733e-05;-0.000980345333448301
1.38735e-05;-0.0009599590430833172
1.38738e-05;-0.0009332251735623757
1.38740e-05;-0.0009003578269601451
1.38743e-05;-0.0008615711492612893
1.38745e-05;-0.0008170773134027397
1.38748e-05;-0.0007670847346002368
1.38750e-05;-0.000711826311899471
1.38753e-05;-0.0006516084720053194
1.38755e-05;-0.00058680603792781
1.38758e-05;-0.0005178148932488527
1.38760e-05;-0.0004450311196538492
1.38763e-05;-0.0003688507186668432
1.38765e-05;-0.0002896684111729995
1.38768e-05;-0.00020787656743794956
1.38770e-05;-0.00012388290722543761
1.38773e-05;-3.8141158314227775e-05
1.38775e-05;4.885864175860288e-05
1.38778e-05;0.00013653235940266851
1.38780e-05;0.0002242060770467341
1.38783e-05;0.0003118797946902056
1.38785e-05;0.0003989416142323052
1.38788e-05;0.00048412411674885055
1.38790e-05;0.0005682138478865502
1.38793e-05;0.0006489474661199031
1.38795e-05;0.0007285118681259661
1.38798e-05;0.0008035157134379842
1.38800e-05;0.0008744292399938786
1.38803e-05;0.000940671840672965
1.38805e-05;0.001001283684015995
1.38808e-05;0.0010564387605681775
1.38810e-05;0.0011101318950617837
1.38813e-05;0.001159335121869909
1.38815e-05;0.0012071992645405472
1.38818e-05;0.0012509508200355113
1.38820e-05;0.0012930417848099384
1.38823e-05;0.001330032753320447
1.38825e-05;0.0013649918265371212
1.38828e-05;0.0013937105551090566
1.38830e-05;0.0014224292836811868
1.38833e-05;0.0014495873987805188
1.38835e-05;0.001471952567138256
1.38838e-05;0.0014943177354961449
1.38840e-05;0.0015149503969996887
1.38843e-05;0.0015302621938386237
1.38845e-05;0.001545573990677662
1.38848e-05;0.0015594337011618062
1.38850e-05;0.00156883377273798
1.38853e-05;0.0015782338443142178
1.38855e-05;0.0015858608471927271
1.38858e-05;0.0015880424121161067
1.38860e-05;0.0015902239770394714
1.38863e-05;0.001592405541962851
1.38865e-05;0.0015945871068862305
1.38868e-05;0.0015967686718095953
1.38870e-05;0.0015989502367329748
1.38873e-05;0.0016011318016563544
1.38875e-05;0.0016018504665927964
1.38878e-05;0.0015980762818591607
1.38880e-05;0.0015943020971255252
1.38883e-05;0.001590527912391915
1.38885e-05;0.0015867537276582795
1.38888e-05;0.0015829795429246438
1.38890e-05;0.0015792053581910339
1.38893e-05;0.0015754311734573982
1.38895e-05;0.0015715553951845815
1.38898e-05;0.0015673676034432898
1.38900e-05;0.0015631798117019698
1.38903e-05;0.0015589920199606496
1.38905e-05;0.001554804228219358
1.38908e-05;0.0015506164364780378
1.38910e-05;0.0015464286447367179
1.38913e-05;0.0015410251047216904
1.38915e-05;0.001531887765896056
1.38918e-05;0.0015227504270704214
1.38920e-05;0.0015136130882448487
1.38923e-05;0.0015044757494192143
1.38925e-05;0.0014953384105935797
1.38928e-05;0.001486201071768007
1.38930e-05;0.0014748198070921484
1.38933e-05;0.0014565470107956338
1.38935e-05;0.001438274214499243
1.38938e-05;0.0014200014182027285
1.38940e-05;0.001401728621906214
1.38943e-05;0.0013834558256096993
1.38945e-05;0.0013651830293133086
1.38948e-05;0.001346910233016794
1.38950e-05;0.0013267668380210957
1.38953e-05;0.0013008784715129735
1.38955e-05;0.001274990105004676
1.38958e-05;0.0012491017384963783
1.38960e-05;0.001223213371988256
1.38963e-05;0.0011973250054799585
1.38965e-05;0.0011714366389716608
1.38968e-05;0.0011455482724635388
1.38970e-05;0.0011190771009443267
1.38973e-05;0.0010908160221687203
1.38975e-05;0.0010625549433933056
1.38978e-05;0.0010342938646176992
1.38980e-05;0.0010060327858420928
1.38983e-05;0.0009777717070666779
1.38985e-05;0.0009513369617347742
1.38988e-05;0.0009255252719136177
1.38990e-05;0.0008997135820926359
1.38993e-05;0.0008739018922714794
1.38995e-05;0.0008480902024503228
1.38998e-05;0.0008232378274573694
1.39000e-05;0.000801331694414721
1.39003e-05;0.0007802281339913716
1.39005e-05;0.000761589429786566
1.39008e-05;0.0007442695645405534
1.39010e-05;0.0007310001096012625
1.39013e-05;0.0007194707606060112
1.39015e-05;0.0007132856145573252
1.39018e-05;0.0007083953020621433
1.39020e-05;0.0007083263103106148
1.39023e-05;0.0007116820257342095
1.39025e-05;0.0007184334594604997
1.39028e-05;0.000728696110112955
1.39030e-05;0.0007427605357087181
1.39033e-05;0.000761284910418573
1.39035e-05;0.0007842214936823725
1.39038e-05;0.000808905653303558
1.39040e-05;0.0008389569589608107
1.39043e-05;0.000870562746870256
1.39045e-05;0.0009069426513562484
1.39048e-05;0.0009448082602490368
1.39050e-05;0.0009872367556114378
1.39053e-05;0.0010313318942766394
1.39055e-05;0.001080545617866616
1.39058e-05;0.0011297593414565925
1.39060e-05;0.001180799630005851
1.39063e-05;0.001237449653913274
1.39065e-05;0.001294099677820697
1.39068e-05;0.001350749701727736
1.39070e-05;0.001407399725635159
1.39073e-05;0.0014640497495425821
1.39075e-05;0.0015227313317836251
1.39078e-05;0.00158210598221593
1.39080e-05;0.001641480632648235
1.39083e-05;0.0017008552830801375
1.39085e-05;0.0017602299335124426
1.39088e-05;0.0018177112300005506
1.39090e-05;0.0018693776692006415
1.39093e-05;0.0019210441084010824
1.39095e-05;0.0019727105476015235
1.39098e-05;0.0020243769868016144
1.39100e-05;0.0020760434260020553
1.39103e-05;0.0021229241014462264
1.39105e-05;0.002155106767919099
1.39108e-05;0.0021872894343921896
1.39110e-05;0.00221947210086528
1.39113e-05;0.002251654767338371
1.39115e-05;0.0022838374338112434
1.39118e-05;0.0023114356635774167
1.39120e-05;0.0023249541987990638
1.39123e-05;0.0023384727340206193
1.39125e-05;0.002348768435143435
1.39128e-05;0.0023491661874930113
1.39130e-05;0.0023495639398425847
1.39133e-05;0.0023469242863867062
1.39135e-05;0.002334956170421127
1.39138e-05;0.0023229880544556286
1.39140e-05;0.0023082203849325686
1.39143e-05;0.002284854743298899
1.39145e-05;0.0022614891016653877
1.39148e-05;0.0022356530717196842
1.39150e-05;0.0022022299999925276
1.39153e-05;0.0021688069282655973
1.39155e-05;0.002132670416475319
1.39158e-05;0.0020882004038217
1.39160e-05;0.0020437303911683825
1.39163e-05;0.0019992603785147635
1.39165e-05;0.0019547903658611444
1.39168e-05;0.0019103203532078266
1.39170e-05;0.0018641394609655393
1.39173e-05;0.0018127041255814782
1.39175e-05;0.0017612687901977658
1.39178e-05;0.001709833454813705
1.39180e-05;0.001658398119429644
1.39183e-05;0.0016069627840459317
1.39185e-05;0.0015563760664099619
1.39188e-05;0.0015083956185175237
1.39190e-05;0.0014604151706254106
1.39193e-05;0.0014124347227329722
1.39195e-05;0.001364454274840534
1.39198e-05;0.0013164738269480956
1.39200e-05;0.0012783743495169255
1.39203e-05;0.0012436457752043795
1.39205e-05;0.0012089172008918334
1.39208e-05;0.0011741886265795227
1.39210e-05;0.0011394600522669767
1.39213e-05;0.001107596132964508
1.39215e-05;0.0010845301249668238
1.39218e-05;0.0010630551363338303
1.39220e-05;0.0010464664768424403
1.39223e-05;0.0010315629424803283
1.39225e-05;0.0010218347543194885
1.39228e-05;0.0010137417932146956
1.39230e-05;0.0010106709316478942
1.39233e-05;0.0010090892487653364
1.39235e-05;0.0010120811225362988
1.39238e-05;0.0010165082593370763
1.39240e-05;0.0010253433673565178
1.39243e-05;0.0010355637974403156
1.39245e-05;0.0010500388203485177
1.39248e-05;0.0010660264983411228
1.39250e-05;0.0010866598335664069
1.39253e-05;0.0011072931687915513
1.39255e-05;0.0011293864539634417
1.39258e-05;0.0011559635286650292
1.39260e-05;0.0011825406033664364
1.39263e-05;0.0012105873169145677
1.39265e-05;0.001243147576484004
1.39268e-05;0.0012757078360532195
1.39270e-05;0.0013082680956226559
1.39273e-05;0.0013408283551920924
1.39275e-05;0.001373388614761308
1.39278e-05;0.0014063520145417962
1.39280e-05;0.001440553536123456
1.39283e-05;0.0014747550577051155
1.39285e-05;0.0015089565792865435
1.39288e-05;0.0015431581008682033
1.39290e-05;0.0015773596224498629
1.39293e-05;0.001609942139806568
1.39295e-05;0.0016375523810868158
1.39298e-05;0.0016651626223670637
1.39300e-05;0.0016927728636471242
1.39303e-05;0.001720383104927372
1.39305e-05;0.0017479933462076199
1.39308e-05;0.0017742662714686482
1.39310e-05;0.0017964320397828011
1.39313e-05;0.001818597808096954
1.39315e-05;0.0018407635764109568
1.39318e-05;0.0018629293447251097
1.39320e-05;0.0018850951130392627
1.39323e-05;0.0019074594695255634
1.39325e-05;0.0019304337288172672
1.39328e-05;0.0019534079881089713
1.39330e-05;0.0019763822474005194
1.39333e-05;0.001999356506692223
1.39335e-05;0.002022330765983927
1.39338e-05;0.002045305025275475
1.39340e-05;0.002068279284567179
1.39343e-05;0.0020912535438588832
1.39345e-05;0.0021142278031504314
1.39348e-05;0.002137202062442135
1.39350e-05;0.002160176321733839
1.39353e-05;0.002183150581025387
1.39355e-05;0.0022066018997704342
1.39358e-05;0.002231518360651301
1.39360e-05;0.0022564348215319985
1.39363e-05;0.002281351282412865
1.39365e-05;0.002306267743293731
1.39368e-05;0.002331184204174598
1.39370e-05;0.0023561006650552954
1.39373e-05;0.0023810171259361617
1.39375e-05;0.002405933586817028
1.39378e-05;0.0024308500476977256
1.39380e-05;0.0024557665085785923
1.39383e-05;0.0024806829694594586
1.39385e-05;0.002505599430340156
1.39388e-05;0.00252957455994672
1.39390e-05;0.002550658678581211
1.39393e-05;0.0025717427972155593
1.39395e-05;0.00259282691585005
1.39398e-05;0.002613911034484541
1.39400e-05;0.0026329049013883664
1.39403e-05;0.002645479199695683
1.39405e-05;0.0026580534980029996
1.39408e-05;0.002670627796310231
1.39410e-05;0.0026832020946175477
1.39413e-05;0.002690809755091218
1.39415e-05;0.0026831639071945176
1.39418e-05;0.0026755180592977655
1.39420e-05;0.0026643667454679665
1.39423e-05;0.0026424494656583273
1.39425e-05;0.0026177330898114527
1.39428e-05;0.0025844201469787443
1.39430e-05;0.002547675017370228
1.39433e-05;0.0025003889762892765
1.39435e-05;0.0024497941639530477
1.39438e-05;0.0023890374731532697
1.39440e-05;0.002325427527605215
1.39443e-05;0.0022530546831624897
1.39445e-05;0.002178126342502952
1.39448e-05;0.0020953495771638755
1.39450e-05;0.00200993827934722
1.39453e-05;0.0019164358211622625
1.39455e-05;0.0018202592933070389
1.39458e-05;0.001715870178691221
