Time(s);Current(A)
1.27500e-05;-0.010029485867693855
1.27503e-05;-0.01001404398061329
1.27505e-05;-0.009998602093532621
1.27508e-05;-0.009983160206451952
1.27510e-05;-0.009967718319371387
1.27513e-05;-0.009952276432290718
1.27515e-05;-0.00993683454521005
1.27518e-05;-0.009921392658129484
1.27520e-05;-0.00990904186722158
1.27523e-05;-0.009896730776195909
1.27525e-05;-0.009884419685170323
1.27528e-05;-0.009872108594144653
1.27530e-05;-0.009859797503118982
1.27533e-05;-0.009847486412093395
1.27535e-05;-0.009835175321067724
1.27538e-05;-0.009824097314865266
1.27540e-05;-0.00981431656518672
1.27543e-05;-0.009804535815508109
1.27545e-05;-0.009794755065829497
1.27548e-05;-0.009784974316150951
1.27550e-05;-0.00977519356647234
1.27553e-05;-0.009765412816793727
1.27555e-05;-0.009755632067115183
1.27558e-05;-0.00974789367072953
1.27560e-05;-0.00974018150490446
1.27563e-05;-0.009732469339079446
1.27565e-05;-0.009724757173254377
1.27568e-05;-0.009717045007429308
1.27570e-05;-0.00970933284160429
1.27573e-05;-0.009701620675779222
1.27575e-05;-0.009693908509954153
1.27577e-05;-0.009685468319718232
1.27580e-05;-0.009677018779244711
1.27583e-05;-0.00966856923877119
1.27585e-05;-0.00966011969829767
1.27588e-05;-0.009651670157824206
1.27590e-05;-0.009643220617350685
1.27593e-05;-0.009634771076877165
1.27595e-05;-0.009626321536403701
1.27598e-05;-0.009616612960429398
1.27600e-05;-0.009606888214281606
1.27603e-05;-0.00959716346813388
1.27605e-05;-0.00958743872198609
1.27608e-05;-0.009577713975838297
1.27610e-05;-0.009567989229690571
1.27613e-05;-0.009558264483542779
1.27615e-05;-0.009548242192217834
1.27618e-05;-0.009537906870990194
1.27620e-05;-0.009527571549762484
1.27623e-05;-0.009517236228534775
1.27625e-05;-0.009506900907307136
1.27628e-05;-0.009496565586079427
1.27630e-05;-0.009486230264851717
1.27633e-05;-0.009475894943624077
1.27635e-05;-0.009465936438820205
1.27638e-05;-0.009455982773583574
1.27640e-05;-0.009446029108347008
1.27643e-05;-0.009436729216847193
1.27645e-05;-0.009427437721961113
1.27648e-05;-0.009418146227075095
1.27650e-05;-0.009411069435689874
1.27653e-05;-0.009404021088411228
1.27655e-05;-0.009396972741132631
1.27658e-05;-0.009389924393853987
1.27660e-05;-0.009382876046575341
1.27662e-05;-0.009375827699296744
1.27665e-05;-0.009368779352018098
1.27668e-05;-0.009361731004739453
1.27670e-05;-0.009354682657460808
1.27673e-05;-0.00934925656726765
1.27675e-05;-0.009345537159006502
1.27678e-05;-0.009341817750745352
1.27680e-05;-0.00933809834248423
1.27683e-05;-0.00933437893422308
1.27685e-05;-0.009330659525961932
1.27688e-05;-0.009326940117700808
1.27690e-05;-0.00932322070943966
1.27693e-05;-0.009319501301178512
1.27695e-05;-0.009315781892917388
1.27698e-05;-0.009314540189843856
1.27700e-05;-0.009313330308687171
1.27703e-05;-0.009312120427530496
1.27705e-05;-0.009310910546373813
1.27708e-05;-0.009309700665217129
1.27710e-05;-0.009308490784060453
1.27713e-05;-0.009307280902903768
1.27715e-05;-0.009306071021747086
1.27718e-05;-0.00930486114059041
1.27720e-05;-0.009303651259433726
1.27723e-05;-0.009303574310233556
1.27725e-05;-0.009303511911621057
1.27728e-05;-0.009303449513008558
1.27730e-05;-0.009303387114396058
1.27733e-05;-0.009303324715783559
1.27735e-05;-0.00930326231717106
1.27738e-05;-0.00930319991855856
1.27740e-05;-0.009303137519946063
1.27743e-05;-0.009303075121333564
1.27745e-05;-0.009303012722721065
1.27747e-05;-0.009302836488400251
1.27750e-05;-0.009302658792053014
1.27753e-05;-0.009302481095705776
1.27755e-05;-0.00930230339935854
1.27758e-05;-0.009302125703011305
1.27760e-05;-0.009301948006664068
1.27763e-05;-0.00930177031031683
1.27765e-05;-0.00930266539837054
1.27768e-05;-0.009304689100237013
1.27770e-05;-0.009306712802103486
1.27773e-05;-0.009308736503969945
1.27775e-05;-0.009310760205836419
1.27778e-05;-0.009312783907702892
1.27780e-05;-0.009314807609569351
1.27783e-05;-0.009316831311435824
1.27785e-05;-0.009322838273522179
1.27788e-05;-0.00932889639382393
1.27790e-05;-0.00933495451412572
1.27793e-05;-0.009341012634427513
1.27795e-05;-0.009347070754729264
1.27798e-05;-0.009353128875031055
1.27800e-05;-0.009359186995332846
1.27803e-05;-0.009368483377671653
1.27805e-05;-0.009377821349989077
1.27808e-05;-0.0093871593223065
1.27810e-05;-0.00939649729462386
1.27813e-05;-0.009405835266941283
1.27815e-05;-0.009415173239258706
1.27818e-05;-0.009424511211576066
1.27820e-05;-0.00943528543930229
1.27823e-05;-0.009446078113291066
1.27825e-05;-0.009456870787279768
1.27828e-05;-0.009467663461268545
1.27830e-05;-0.00947845613525732
1.27832e-05;-0.00948903657168559
1.27835e-05;-0.0094993937253722
1.27838e-05;-0.009509750879058811
1.27840e-05;-0.00952010803274542
1.27843e-05;-0.00953046518643196
1.27845e-05;-0.009540822340118571
1.27848e-05;-0.009550149722847148
1.27850e-05;-0.009558407359488952
1.27853e-05;-0.009566651426919448
1.27855e-05;-0.009574895494349945
1.27858e-05;-0.009581534092097804
1.27860e-05;-0.009588152070313022
1.27863e-05;-0.009595364360424866
1.27865e-05;-0.009602584283464093
1.27868e-05;-0.009609804206503371
1.27870e-05;-0.009619256094076531
1.27873e-05;-0.009628736647445194
1.27875e-05;-0.009638217200813922
1.27878e-05;-0.009651041975776974
1.27880e-05;-0.009663909701589358
1.27883e-05;-0.00967677742740183
1.27885e-05;-0.009689645153214303
1.27888e-05;-0.009702512879026686
1.27890e-05;-0.009715380604839159
1.27893e-05;-0.009731029394246062
1.27895e-05;-0.009749603978234858
1.27898e-05;-0.009768178562223782
1.27900e-05;-0.009786753146212706
1.27903e-05;-0.009805327730201503
1.27905e-05;-0.009823902314190426
1.27908e-05;-0.00984247689817935
1.27910e-05;-0.009865155642515458
1.27913e-05;-0.009887887097824509
1.27915e-05;-0.009910618553133558
1.27917e-05;-0.009933350008442454
1.27920e-05;-0.009956081463751505
1.27923e-05;-0.009978812919060555
1.27925e-05;-0.010001544374369606
1.27928e-05;-0.010024457893250743
1.27930e-05;-0.010047373750429568
1.27933e-05;-0.010070289607608392
1.27935e-05;-0.01009320546478706
1.27938e-05;-0.010116121321965885
1.27940e-05;-0.01013903717914471
1.27943e-05;-0.010161953036323378
1.27945e-05;-0.010181222980706159
1.27948e-05;-0.010200446099527938
1.27950e-05;-0.010219669218349587
1.27953e-05;-0.010238892337171367
1.27955e-05;-0.010255680592030303
1.27958e-05;-0.010269907268719462
1.27960e-05;-0.010284133945408714
1.27963e-05;-0.010298360622097968
1.27965e-05;-0.010312587298787127
1.27968e-05;-0.010323818490079748
1.27970e-05;-0.010335011209447166
1.27973e-05;-0.010346203928814508
1.27975e-05;-0.010357396648181924
1.27978e-05;-0.010368589367549343
1.27980e-05;-0.010379782086916685
1.27983e-05;-0.010390974806284101
1.27985e-05;-0.01040216752565152
1.27988e-05;-0.010413360245018861
1.27990e-05;-0.010424552964386278
1.27993e-05;-0.010435745683753696
1.27995e-05;-0.010445537232506848
1.27998e-05;-0.01045531078560193
1.28000e-05;-0.01046508433869701
1.28002e-05;-0.010474857891792025
1.28005e-05;-0.010484631444887104
1.28008e-05;-0.010494404997982185
1.28010e-05;-0.010504178551077267
1.28013e-05;-0.01051395210417228
1.28015e-05;-0.010523725657267361
1.28018e-05;-0.010533499210362441
1.28020e-05;-0.010543272763457456
1.28023e-05;-0.010552181865028229
1.28025e-05;-0.010561079864186501
1.28028e-05;-0.010569977863344713
1.28030e-05;-0.010578875862502985
1.28033e-05;-0.010587773861661258
1.28035e-05;-0.01059667186081947
1.28038e-05;-0.010604699093116659
1.28040e-05;-0.010611810242455234
1.28043e-05;-0.01061892139179376
1.28045e-05;-0.010626032541132336
1.28048e-05;-0.010633143690470912
1.28050e-05;-0.010640254839809439
1.28053e-05;-0.010647365989148014
1.28055e-05;-0.010652636697869214
1.28058e-05;-0.01065788376925458
1.28060e-05;-0.010661012742465179
1.28063e-05;-0.010664114512299946
1.28065e-05;-0.010662193442421275
1.28068e-05;-0.010660207862692188
1.28070e-05;-0.010651377121753621
1.28073e-05;-0.010642458466338284
1.28075e-05;-0.010633539810922889
1.28078e-05;-0.010616925444781353
1.28080e-05;-0.010600212240298276
1.28083e-05;-0.010583499035815085
1.28085e-05;-0.010555261370679326
1.28087e-05;-0.010526875693408098
1.28090e-05;-0.01049849001613668
1.28093e-05;-0.01047010433886526
1.28095e-05;-0.010435833919547765
1.28098e-05;-0.010395372506813584
1.28100e-05;-0.010354911094079128
1.28103e-05;-0.010314449681344673
1.28105e-05;-0.010273988268610491
1.28108e-05;-0.010224927672552384
1.28110e-05;-0.01017575663458041
1.28113e-05;-0.01012658559660877
1.28115e-05;-0.010073406401509086
1.28118e-05;-0.010020175728434364
1.28120e-05;-0.009965325792982887
1.28123e-05;-0.009909529111272351
1.28125e-05;-0.009852884700002291
1.28128e-05;-0.009795643824045842
1.28130e-05;-0.009738137042233764
1.28133e-05;-0.009680695905403007
1.28135e-05;-0.00962365196439052
1.28138e-05;-0.009567338609058068
1.28140e-05;-0.009512043277238206
1.28143e-05;-0.009457968221089111
1.28145e-05;-0.009405322881903079
1.28148e-05;-0.009354416114662796
1.28150e-05;-0.009305604025435487
1.28153e-05;-0.009259246069305525
1.28155e-05;-0.009215701736787056
1.28158e-05;-0.009175327759855183
1.28160e-05;-0.009138490030185322
1.28163e-05;-0.009105519616055935
1.28165e-05;-0.009076620244188456
1.28168e-05;-0.009051882750509254
1.28170e-05;-0.009031359761466075
1.28172e-05;-0.009015107109175172
1.28175e-05;-0.00900317791445172
1.28178e-05;-0.008995627101708781
1.28180e-05;-0.008992512377517104
1.28183e-05;-0.008996056017457064
1.28185e-05;-0.008999684450207778
1.28188e-05;-0.0090138385481659
1.28190e-05;-0.009028127830428159
1.28193e-05;-0.009042417112690517
1.28195e-05;-0.009070915016193308
1.28198e-05;-0.009099595405319256
1.28200e-05;-0.009128275794445398
1.28203e-05;-0.009156956183571539
1.28205e-05;-0.009192479345261054
1.28208e-05;-0.009235201388324961
1.28210e-05;-0.009277923431388866
1.28213e-05;-0.009320645474452481
1.28215e-05;-0.009363367517516387
1.28218e-05;-0.009414055505956935
1.28220e-05;-0.009464845803444963
1.28223e-05;-0.009515636100933334
1.28225e-05;-0.009569953956759218
1.28228e-05;-0.009624317118084303
1.28230e-05;-0.009678680279409758
1.28233e-05;-0.00973386778413157
1.28235e-05;-0.009789065876144793
1.28238e-05;-0.009843399625946936
1.28240e-05;-0.009897722274740395
1.28243e-05;-0.009949857861884619
1.28245e-05;-0.010001965359934355
1.28248e-05;-0.010050456873147361
1.28250e-05;-0.010098901945172092
1.28253e-05;-0.01014224372009767
1.28255e-05;-0.010185519951833614
1.28257e-05;-0.010222229481544814
1.28260e-05;-0.010258854673114142
1.28263e-05;-0.010286076005325622
1.28265e-05;-0.010313176560924358
1.28268e-05;-0.01034027711652291
1.28270e-05;-0.010355554267580544
1.28273e-05;-0.01037067956707405
1.28275e-05;-0.010385804866567453
1.28278e-05;-0.010388457891852563
1.28280e-05;-0.010390950731943956
1.28283e-05;-0.010393443572035333
1.28285e-05;-0.010380014431680861
1.28288e-05;-0.010366380800511048
1.28290e-05;-0.010352747169341325
1.28293e-05;-0.010339113538171511
1.28295e-05;-0.010325479907001696
1.28298e-05;-0.010294486790077146
1.28300e-05;-0.010263270720021141
1.28303e-05;-0.010232054649965138
1.28305e-05;-0.010200838579909345
1.28308e-05;-0.010169622509853342
1.28310e-05;-0.010127595725563614
1.28313e-05;-0.010085430095998184
1.28315e-05;-0.010043264466432469
1.28318e-05;-0.00999615461551483
1.28320e-05;-0.009948981264465726
1.28323e-05;-0.009898991904881775
1.28325e-05;-0.009848966378447592
1.28328e-05;-0.009797556525206008
1.28330e-05;-0.009745588218997115
1.28333e-05;-0.009693357344141515
1.28335e-05;-0.009641153530150685
1.28338e-05;-0.009589264579318635
1.28340e-05;-0.009537987465451186
1.28342e-05;-0.009487643187787744
1.28345e-05;-0.00943857420141465
1.28348e-05;-0.009391118635474755
1.28350e-05;-0.00934561088201068
1.28353e-05;-0.009302383446801026
1.28355e-05;-0.009261770651030307
1.28358e-05;-0.009224105919990127
1.28360e-05;-0.009189528649921367
1.28363e-05;-0.009157736218032385
1.28365e-05;-0.009128324727200193
1.28368e-05;-0.009101231110937602
1.28370e-05;-0.009077865158168389
1.28373e-05;-0.009054546703545167
1.28375e-05;-0.00903660969870089
1.28378e-05;-0.009018741809445605
1.28380e-05;-0.009007596019909725
1.28383e-05;-0.008996536564336242
1.28385e-05;-0.008985477108762683
1.28388e-05;-0.008983314860888254
1.28390e-05;-0.008981266882546681
1.28393e-05;-0.008979218904205097
1.28395e-05;-0.008977170925863512
1.28398e-05;-0.008975122947521941
1.28400e-05;-0.008982876425954685
1.28403e-05;-0.008990755787464983
1.28405e-05;-0.00899863514897523
1.28408e-05;-0.009006514510485527
1.28410e-05;-0.009014393871995825
1.28413e-05;-0.009029601997246315
1.28415e-05;-0.009044904248028965
1.28418e-05;-0.009060206498811613
1.28420e-05;-0.009075508749594159
1.28423e-05;-0.009090811000376807
1.28425e-05;-0.009106113251159455
1.28427e-05;-0.009124926662297382
1.28430e-05;-0.009143785168331201
1.28433e-05;-0.009162643674365019
1.28435e-05;-0.009181502180398836
1.28438e-05;-0.009200360686432527
1.28440e-05;-0.009219219192466344
1.28443e-05;-0.009237427449563504
1.28445e-05;-0.009255627355316516
1.28448e-05;-0.009273827261069652
1.28450e-05;-0.009286685934790949
1.28453e-05;-0.009299476009451527
1.28455e-05;-0.009312266084112193
1.28458e-05;-0.009325056158772856
1.28460e-05;-0.009337846233433434
1.28463e-05;-0.009350636308094098
1.28465e-05;-0.009363426382754763
1.28468e-05;-0.009376216457415341
1.28470e-05;-0.009389006532076005
1.28473e-05;-0.00940179660673667
1.28475e-05;-0.0094130147984403
1.28478e-05;-0.009422579303886826
1.28480e-05;-0.00943214380933335
1.28483e-05;-0.00944170831477981
1.28485e-05;-0.009451272820226335
1.28488e-05;-0.00946083732567286
1.28490e-05;-0.00947040183111932
1.28493e-05;-0.009479966336565846
1.28495e-05;-0.00948953084201237
1.28498e-05;-0.00949909534745883
1.28500e-05;-0.009508659852905355
1.28503e-05;-0.00951796523083382
1.28505e-05;-0.009527267280709018
1.28508e-05;-0.009536569330584277
1.28510e-05;-0.009545871380459536
1.28512e-05;-0.009555173430334732
1.28515e-05;-0.009564475480209991
1.28518e-05;-0.00957377753008525
1.28520e-05;-0.00958307957996051
1.28523e-05;-0.009592381629835707
1.28525e-05;-0.009601683679710966
1.28528e-05;-0.009610985729586225
1.28530e-05;-0.009618427688273283
1.28533e-05;-0.009625845757245784
1.28535e-05;-0.009633263826218284
1.28538e-05;-0.009640681895190736
1.28540e-05;-0.009648099964163236
1.28543e-05;-0.009655518033135737
1.28545e-05;-0.009662936102108189
1.28548e-05;-0.009670354171080689
1.28550e-05;-0.00967777224005319
1.28553e-05;-0.00968519030902564
1.28555e-05;-0.009692608377998142
1.28558e-05;-0.009697395943216483
1.28560e-05;-0.009702149724078147
1.28563e-05;-0.009706903504939841
1.28565e-05;-0.009714347596909716
1.28568e-05;-0.00972182624136017
1.28570e-05;-0.009729304885810676
1.28573e-05;-0.009736783530261181
1.28575e-05;-0.009744262174711638
1.28578e-05;-0.009751740819162143
1.28580e-05;-0.009759219463612648
1.28583e-05;-0.00976936076523643
1.28585e-05;-0.00978230329296769
1.28588e-05;-0.009795245820698949
1.28590e-05;-0.00980818834843012
1.28593e-05;-0.00982113087616138
1.28595e-05;-0.00983407340389264
1.28597e-05;-0.009847015931623813
1.28600e-05;-0.009859958459355072
1.28603e-05;-0.009878049746439299
1.28605e-05;-0.009896207160599968
1.28608e-05;-0.009914364574760514
1.28610e-05;-0.009932521988921183
1.28613e-05;-0.009950679403081851
1.28615e-05;-0.009968836817242399
1.28618e-05;-0.009986994231403068
1.28620e-05;-0.010005151645563736
1.28623e-05;-0.010024890277250821
1.28625e-05;-0.010044649216993863
1.28628e-05;-0.010064408156736905
1.28630e-05;-0.010084167096479812
1.28633e-05;-0.010103926036222854
1.28635e-05;-0.010123684975965896
1.28638e-05;-0.010143443915708804
1.28640e-05;-0.010163202855451846
1.28643e-05;-0.010178352763373852
1.28645e-05;-0.010193443476103384
1.28648e-05;-0.010208534188833019
1.28650e-05;-0.010223624901562653
1.28653e-05;-0.010238715614292185
1.28655e-05;-0.01025380632702182
1.28658e-05;-0.010268897039751455
1.28660e-05;-0.010283987752480987
1.28663e-05;-0.010293028034667962
1.28665e-05;-0.010295703012236986
1.28668e-05;-0.010298377989805992
1.28670e-05;-0.010301052967375015
1.28673e-05;-0.010303727944944038
1.28675e-05;-0.010306402922513043
1.28678e-05;-0.010309077900082066
1.28680e-05;-0.01031175287765109
1.28682e-05;-0.010314427855220095
1.28685e-05;-0.010303473200809229
1.28688e-05;-0.010292343496904317
1.28690e-05;-0.010281213792999405
1.28693e-05;-0.010270084089094569
1.28695e-05;-0.010258954385189657
1.28698e-05;-0.010247824681284745
1.28700e-05;-0.010236694977379909
1.28703e-05;-0.010215865199578088
1.28705e-05;-0.010194910840787486
1.28708e-05;-0.010173956481997027
1.28710e-05;-0.010153002123206424
1.28713e-05;-0.010132047764415822
1.28715e-05;-0.010111093405625363
1.28718e-05;-0.01009013904683476
1.28720e-05;-0.010064200303679889
1.28723e-05;-0.010038197544566158
1.28725e-05;-0.01001219478545225
1.28728e-05;-0.009986192026338343
1.28730e-05;-0.00996018926722461
1.28733e-05;-0.009934186508110702
1.28735e-05;-0.009908183748996794
1.28738e-05;-0.009882180989883063
1.28740e-05;-0.009858989296920471
1.28743e-05;-0.009835833707332485
1.28745e-05;-0.009812678117744654
1.28748e-05;-0.009789522528156668
1.28750e-05;-0.009766366938568681
1.28753e-05;-0.009743211348980853
1.28755e-05;-0.009720055759392866
1.28758e-05;-0.00969690016980488
1.28760e-05;-0.009683911897414842
1.28763e-05;-0.009671054206961313
1.28765e-05;-0.009658196516507784
1.28767e-05;-0.009645338826054341
1.28770e-05;-0.009632481135600812
1.28773e-05;-0.009619623445147283
1.28775e-05;-0.009606765754693753
1.28778e-05;-0.009593908064240311
1.28780e-05;-0.009581050373786782
1.28783e-05;-0.009568192683333252
1.28785e-05;-0.00955533499287981
1.28788e-05;-0.00954247730242628
1.28790e-05;-0.009533674395705686
1.28793e-05;-0.009529137290145413
1.28795e-05;-0.00952460018458511
1.28798e-05;-0.009520063079024808
1.28800e-05;-0.009515525973464535
1.28803e-05;-0.009510988867904233
1.28805e-05;-0.00950645176234393
1.28808e-05;-0.009501914656783659
1.28810e-05;-0.009497377551223356
1.28813e-05;-0.009492840445663052
1.28815e-05;-0.009488303340102781
1.28818e-05;-0.009483766234542479
1.28820e-05;-0.009479229128982176
1.28823e-05;-0.00947821806149634
1.28825e-05;-0.009477252279986463
1.28828e-05;-0.009476286498476587
1.28830e-05;-0.009475320716966718
1.28833e-05;-0.009474354935456841
1.28835e-05;-0.009473389153946965
1.28838e-05;-0.009472423372437096
1.28840e-05;-0.00947145759092722
1.28843e-05;-0.009470491809417343
1.28845e-05;-0.009469526027907472
1.28848e-05;-0.009468560246397596
1.28850e-05;-0.009467775525354756
1.28853e-05;-0.009466993129726396
1.28855e-05;-0.00946621073409803
1.28858e-05;-0.009465428338469665
1.28860e-05;-0.009464645942841299
1.28863e-05;-0.00946386354721294
1.28865e-05;-0.009463081151584573
1.28868e-05;-0.009462298755956208
1.28870e-05;-0.009461516360327847
1.28873e-05;-0.009460733964699482
1.28875e-05;-0.009459951569071116
1.28878e-05;-0.00945919209655106
1.28880e-05;-0.009458432918439431
1.28883e-05;-0.0094576737403278
1.28885e-05;-0.009456914562216175
1.28888e-05;-0.009456155384104546
1.28890e-05;-0.009455396205992915
1.28893e-05;-0.009454637027881291
1.28895e-05;-0.00945387784976966
1.28898e-05;-0.00945311867165803
1.28900e-05;-0.009452359493546406
1.28903e-05;-0.009451600315434775
1.28905e-05;-0.009450841137323146
1.28908e-05;-0.00945008195921152
1.28910e-05;-0.00944932278109989
1.28913e-05;-0.00944856360298826
1.28915e-05;-0.009447835608880753
1.28918e-05;-0.009447140421642799
1.28920e-05;-0.009446445234404842
1.28923e-05;-0.009445750047166893
1.28925e-05;-0.009445054859928938
1.28928e-05;-0.009444359672690982
1.28930e-05;-0.009443664485453033
1.28933e-05;-0.009442969298215078
1.28935e-05;-0.009442274110977122
1.28938e-05;-0.009441578923739173
1.28940e-05;-0.009440883736501218
1.28943e-05;-0.009440188549263264
1.28945e-05;-0.009439493362025307
1.28948e-05;-0.009438798174787358
1.28950e-05;-0.009438102987549404
1.28953e-05;-0.009437407800311447
1.28955e-05;-0.00943632100929919
1.28958e-05;-0.009435229188800881
1.28960e-05;-0.009434137368302573
1.28963e-05;-0.009431025071260049
1.28965e-05;-0.009427886824624454
1.28968e-05;-0.009424748577988858
1.28970e-05;-0.009418151429987778
1.28973e-05;-0.009411509858267338
