Time(s);Current(A)
4.05000e-06;0.0014382112173929697
4.05025e-06;0.001435620101947708
4.05050e-06;0.0014351799612093048
4.05075e-06;0.0014354589434295679
4.05100e-06;0.001435737925649831
4.05125e-06;0.0014360169078700949
4.05150e-06;0.001436295890090358
4.05175e-06;0.0014365748723106219
4.05200e-06;0.001436853854530885
4.05225e-06;0.001437132836751148
4.05250e-06;0.001437411818971412
4.05275e-06;0.001437690801191675
4.05300e-06;0.001437969783411938
4.05325e-06;0.001438248765632202
4.05350e-06;0.001438527747852465
4.05375e-06;0.0014388067300727281
4.05400e-06;0.001439085712292992
4.05425e-06;0.0014393646945132551
4.05450e-06;0.0014396436767335182
4.05475e-06;0.0014399226589537823
4.05500e-06;0.0014402016411740452
4.05525e-06;0.0014404806233943082
4.05550e-06;0.0014408267948993385
4.05575e-06;0.0014413751343482079
4.05600e-06;0.001441923473797079
4.05625e-06;0.001442471813245948
4.05650e-06;0.0014430201526948174
4.05675e-06;0.001443988483074405
4.05700e-06;0.001446220537322857
4.05725e-06;0.0014484525915713093
4.05750e-06;0.001450684645819769
4.05775e-06;0.0014529167000682211
4.05800e-06;0.0014568327196125587
4.05825e-06;0.0014658156750907208
4.05850e-06;0.0014747986305688526
4.05875e-06;0.0014850709366186685
4.05900e-06;0.0014992228099961788
4.05925e-06;0.001513374683373641
4.05950e-06;0.0015291944886519878
4.05975e-06;0.001550032986479509
4.06000e-06;0.0015708714843069593
4.06025e-06;0.00159332952539629
4.06050e-06;0.0016206606609424578
4.06075e-06;0.0016479917964886254
4.06100e-06;0.001677465355521968
4.06125e-06;0.001713385319702429
4.06150e-06;0.00174930528388289
4.06175e-06;0.0017852252480634726
4.06200e-06;0.0018211452122439335
4.06225e-06;0.0018570651764243946
4.06250e-06;0.0018929851406049773
4.06275e-06;0.0019306968852185918
4.06300e-06;0.0019737999741094594
4.06325e-06;0.002016903063000473
4.06350e-06;0.0020600061518913403
4.06375e-06;0.002103109240782208
4.06400e-06;0.0021462123296732217
4.06425e-06;0.002189315418564089
4.06450e-06;0.0022318126946363572
4.06475e-06;0.0022724871215396756
4.06500e-06;0.0023131615484429935
4.06525e-06;0.0023538359753464493
4.06550e-06;0.0023945104022497677
4.06575e-06;0.0024351848291530856
4.06600e-06;0.002475859256056542
4.06625e-06;0.0025165336829598597
4.06650e-06;0.002546496547552029
4.06675e-06;0.002572878277343686
4.06700e-06;0.002599260007135254
4.06725e-06;0.002625641736926822
4.06750e-06;0.002652023466718479
4.06775e-06;0.0026784051965100465
4.06800e-06;0.0027047869263016142
4.06825e-06;0.002725359396209079
4.06850e-06;0.0027284522020640553
4.06875e-06;0.002731545007919042
4.06900e-06;0.002734637813774018
4.06925e-06;0.0027377306196289942
4.06950e-06;0.002740823425483981
4.06975e-06;0.002743916231338957
4.07000e-06;0.002747009037193933
4.07025e-06;0.0027501018430489198
4.07050e-06;0.002753194648903896
4.07075e-06;0.0027507672528654715
4.07100e-06;0.0027317299484193058
4.07125e-06;0.0027126926439732042
4.07150e-06;0.002693655339527103
4.07175e-06;0.0026746180350809374
4.07200e-06;0.0026555807306348363
4.07225e-06;0.0026365434261887352
4.07250e-06;0.0026175061217425695
4.07275e-06;0.0025984688172964684
4.07300e-06;0.0025794315128503027
4.07325e-06;0.002558034054708451
4.07350e-06;0.002529535056175752
4.07375e-06;0.0025010360576429563
4.07400e-06;0.0024725370591102574
4.07425e-06;0.002444038060577558
4.07450e-06;0.0024155390620447625
4.07475e-06;0.0023870400635120637
4.07500e-06;0.002358541064979365
4.07525e-06;0.0023321384988027796
4.07550e-06;0.002306436820755208
4.07575e-06;0.002280735142707636
4.07600e-06;0.002255033464659977
4.07625e-06;0.0022293317866124056
4.07650e-06;0.002203630108564834
4.07675e-06;0.002177928430517175
4.07700e-06;0.0021566523425497275
4.07725e-06;0.0021486925512120354
4.07750e-06;0.0021407327598743702
4.07775e-06;0.002132772968536705
4.07800e-06;0.002124813177199013
4.07825e-06;0.002116853385861348
4.07850e-06;0.0021088935945236826
4.07875e-06;0.0021009338031859905
4.07900e-06;0.0020929740118483253
4.07925e-06;0.00208501422051066
4.07950e-06;0.002077054429172968
4.07975e-06;0.0020690946378353033
4.08000e-06;0.002079594781462215
4.08025e-06;0.002096266528593466
4.08050e-06;0.002112938275724661
4.08075e-06;0.0021296100228558553
4.08100e-06;0.0021462817699871065
4.08125e-06;0.0021629535171183013
4.08150e-06;0.0021796252642495525
4.08175e-06;0.002196297011380747
4.08200e-06;0.0022129687585119417
4.08225e-06;0.002229640505643193
4.08250e-06;0.0022463122527743872
4.08275e-06;0.0022660522606714356
4.08300e-06;0.002295024454503112
4.08325e-06;0.00232399664833469
4.08350e-06;0.0023529688421662677
4.08375e-06;0.0023819410359979436
4.08400e-06;0.0024109132298295215
4.08425e-06;0.0024398854236610994
4.08450e-06;0.0024688576174927753
4.08475e-06;0.0024974452987810156
4.08500e-06;0.0025248760082324526
4.08525e-06;0.0025523067176839824
4.08550e-06;0.0025797374271354194
4.08575e-06;0.002607168136586949
4.08600e-06;0.002634598846038386
4.08625e-06;0.002662029555489823
4.08650e-06;0.0026894602649413534
4.08675e-06;0.002714119165715915
4.08700e-06;0.002730437884534021
4.08725e-06;0.002746756603352183
4.08750e-06;0.0027630753221702885
4.08775e-06;0.0027793940409883947
4.08800e-06;0.002795712759806556
4.08825e-06;0.0028001319235941924
4.08850e-06;0.00280057277783474
4.08875e-06;0.002801013632075289
4.08900e-06;0.0028014544863158362
4.08925e-06;0.0028018953405563834
4.08950e-06;0.0027998061753209914
4.08975e-06;0.002786785300162984
4.09000e-06;0.0027637776162413004
4.09025e-06;0.002740769932319695
4.09050e-06;0.0027177622483980897
4.09075e-06;0.0026947545644764063
4.09100e-06;0.002671746880554801
4.09125e-06;0.0026487391966331956
4.09150e-06;0.0026257315127115126
4.09175e-06;0.002598379690069969
4.09200e-06;0.0025579566523528502
4.09225e-06;0.0025175336146355943
4.09250e-06;0.0024771105769184755
4.09275e-06;0.0024366875392013566
4.09300e-06;0.0023962645014841007
4.09325e-06;0.002355841463766982
4.09350e-06;0.002315418426049863
4.09375e-06;0.0022736113101505468
4.09400e-06;0.002227639598053021
4.09425e-06;0.00218166788595534
4.09450e-06;0.0021356961738578143
4.09475e-06;0.0020897244617602887
4.09500e-06;0.0020437527496626074
4.09525e-06;0.0019990840848619013
4.09550e-06;0.0019583361998905015
4.09575e-06;0.0019175883149189633
4.09600e-06;0.001876840429947563
4.09625e-06;0.001836092544976163
4.09650e-06;0.0017953446600046249
4.09675e-06;0.0017578683852293331
4.09700e-06;0.0017302361608558137
4.09725e-06;0.0017026039364822008
4.09750e-06;0.0016749717121086814
4.09775e-06;0.001647339487735162
4.09800e-06;0.001619707263361549
4.09825e-06;0.0015920750389880295
4.09850e-06;0.0015644428146144164
4.09875e-06;0.0015389501722296534
4.09900e-06;0.0015198953851125968
4.09925e-06;0.0015008405979954759
4.09950e-06;0.0014817858108784193
4.09975e-06;0.0014627310237613628
4.10000e-06;0.0014436762366442416
4.10025e-06;0.001424621449527185
4.10050e-06;0.0014055666624101285
4.10075e-06;0.0013880237640943886
4.10100e-06;0.001375030035352387
4.10125e-06;0.0013620363066103854
4.10150e-06;0.0013490425778683395
4.10175e-06;0.0013360488491263379
4.10200e-06;0.0013230551203843362
4.10225e-06;0.0013100613916422906
4.10250e-06;0.0012970676629002888
4.10275e-06;0.001284073934158243
4.10300e-06;0.0012710802054162415
4.10325e-06;0.0012580864766742399
4.10350e-06;0.0012450927479321942
4.10375e-06;0.0012320990191901924
4.10400e-06;0.0012226454873852266
4.10425e-06;0.0012143755291871268
4.10450e-06;0.0012061055709890552
4.10475e-06;0.0011978356127909835
4.10500e-06;0.0011895656545928839
4.10525e-06;0.0011812956963948122
4.10550e-06;0.0011730257381967406
4.10575e-06;0.001164755779998641
4.10600e-06;0.0011564858218005693
4.10625e-06;0.0011482158636024976
4.10650e-06;0.001139945905404398
4.10675e-06;0.0011316759472063263
4.10700e-06;0.0011245062783243845
4.10725e-06;0.001120647304431358
4.10750e-06;0.0011167883305383316
4.10775e-06;0.0011147561705487888
4.10800e-06;0.001118220768136573
4.10825e-06;0.0011216853657243571
4.10850e-06;0.0011266879215294087
4.10875e-06;0.0011363180879892373
4.10900e-06;0.0011474946242941342
4.10925e-06;0.0011633240812642834
4.10950e-06;0.001179153538234379
4.10975e-06;0.0011972244375054336
4.11000e-06;0.001222039682726576
4.11025e-06;0.0012468549279476347
4.11050e-06;0.00127359158642625
4.11075e-06;0.0013061096454416341
4.11100e-06;0.0013386277044569084
4.11125e-06;0.001372853478792933
4.11150e-06;0.0014122176512490982
4.11175e-06;0.0014515818237052635
4.11200e-06;0.0014929454129896588
4.11225e-06;0.0015403251101970203
4.11250e-06;0.0015877048074043817
4.11275e-06;0.0016350845046119037
4.11300e-06;0.0016824642018192651
4.11325e-06;0.0017298438990266266
4.11350e-06;0.001778261067436494
4.11375e-06;0.0018297999154442126
4.11400e-06;0.0018813387634519314
4.11425e-06;0.0019328776114598248
4.11450e-06;0.0019844164594675436
4.11475e-06;0.002035955307475262
4.11500e-06;0.002084533635159866
4.11525e-06;0.0021242039605098824
4.11550e-06;0.002163874285860033
4.11575e-06;0.0022035446112100496
4.11600e-06;0.002243214936560066
4.11625e-06;0.0022828852619102163
4.11650e-06;0.0023225555872602326
4.11675e-06;0.002362225912610249
4.11700e-06;0.0024018962379604
4.11725e-06;0.002441566563310416
4.11750e-06;0.0024812368886604325
4.11775e-06;0.0025209072140105833
4.11800e-06;0.0025538587056658153
4.11825e-06;0.0025665936881613216
4.11850e-06;0.0025793286706568717
4.11875e-06;0.002592063653152378
4.11900e-06;0.0026047986356478848
4.11925e-06;0.0026175336181434345
4.11950e-06;0.002630268600638941
4.11975e-06;0.002643003583134491
4.12000e-06;0.0026557385656299976
4.12025e-06;0.002668473548125504
4.12050e-06;0.0026812085306210536
4.12075e-06;0.0026939435131165604
4.12100e-06;0.0027021288366128556
4.12125e-06;0.0026966245486374388
4.12150e-06;0.002691120260662041
4.12175e-06;0.0026856159726866427
4.12200e-06;0.002680111684711226
4.12225e-06;0.0026746073967358276
4.12250e-06;0.0026691031087604294
4.12275e-06;0.002663598820785013
4.12300e-06;0.0026580945328096147
4.12325e-06;0.0026525902448342165
4.12350e-06;0.0026419387349967778
4.12375e-06;0.0026295663841863857
4.12400e-06;0.002617194033375952
4.12425e-06;0.00260482168256556
4.12450e-06;0.0025924493317551678
4.12475e-06;0.002580076980944734
4.12500e-06;0.002567704630134342
4.12525e-06;0.00255533227932395
4.12550e-06;0.002542959928513516
4.12575e-06;0.002530998360936647
4.12600e-06;0.00252027281189793
4.12625e-06;0.002509547262859177
4.12650e-06;0.0024988217138204607
4.12675e-06;0.002488096164781744
4.12700e-06;0.0024773706157429913
4.12725e-06;0.0024666450667042744
4.12750e-06;0.002455919517665558
4.12775e-06;0.002445193968626805
4.12800e-06;0.0024328938946519166
4.12825e-06;0.0024200674188440217
4.12850e-06;0.0024072409430361697
4.12875e-06;0.002394414467228318
4.12900e-06;0.0023815879914204233
4.12925e-06;0.0023687615156125713
4.12950e-06;0.00235593503980472
4.12975e-06;0.0023431085639968245
4.13000e-06;0.002328448792440212
4.13025e-06;0.0023082727598821287
4.13050e-06;0.0022880967273239765
4.13075e-06;0.002267920694765893
4.13100e-06;0.0022477446622078097
4.13125e-06;0.0022275686296496576
4.13150e-06;0.002207392597091574
4.13175e-06;0.0021872165645334908
4.13200e-06;0.0021670405319753386
4.13225e-06;0.002146864499417255
4.13250e-06;0.002125637194391774
4.13275e-06;0.0021012466827113794
4.13300e-06;0.002076856171030985
4.13325e-06;0.002052465659350508
4.13350e-06;0.0020280751476701134
4.13375e-06;0.002003684635989719
4.13400e-06;0.001979294124309242
4.13425e-06;0.001954903612628848
4.13450e-06;0.0019305131009484532
4.13475e-06;0.001906122589267976
4.13500e-06;0.0018829034204762304
4.13525e-06;0.001863208741990837
4.13550e-06;0.0018435140635053768
4.13575e-06;0.0018238193850199833
4.13600e-06;0.0018041247065345898
4.13625e-06;0.0017844300280491295
4.13650e-06;0.001764735349563736
4.13675e-06;0.0017450406710782756
4.13700e-06;0.0017253459925928821
4.13725e-06;0.0017056513141074886
4.13750e-06;0.0016893273597699326
4.13775e-06;0.0016831456828978579
4.13800e-06;0.0016769640060257834
4.13825e-06;0.0016707823291536878
4.13850e-06;0.0016646006522816133
4.13875e-06;0.0016584189754095386
4.13900e-06;0.001652237298537443
4.13925e-06;0.0016460556216653685
4.13950e-06;0.0016398739447932938
4.13975e-06;0.0016336922679211982
4.14000e-06;0.0016309190549155888
4.14025e-06;0.0016384016755960865
4.14050e-06;0.0016458842962766096
4.14075e-06;0.0016533669169571073
4.14100e-06;0.0016608495376376304
4.14125e-06;0.0016683321583181282
4.14150e-06;0.0016758147789986259
4.14175e-06;0.001683297399679149
4.14200e-06;0.0016907800203596467
4.14225e-06;0.0017002468527308736
4.14250e-06;0.0017156840418066077
4.14275e-06;0.0017311212308822896
4.14300e-06;0.0017465584199579717
4.14325e-06;0.0017619956090337058
4.14350e-06;0.0017774327981093876
4.14375e-06;0.0017928699871850697
4.14400e-06;0.0018083071762608038
4.14425e-06;0.0018237443653364856
4.14450e-06;0.0018392369752321983
4.14475e-06;0.0018548963425692008
4.14500e-06;0.0018705557099061502
4.14525e-06;0.0018862150772431527
4.14550e-06;0.0019018744445801023
4.14575e-06;0.0019175338119170517
4.14600e-06;0.0019331931792540545
4.14625e-06;0.0019488525465910038
4.14650e-06;0.0019645119139279532
4.14675e-06;0.0019777701096951516
4.14700e-06;0.0019902255356325353
4.14725e-06;0.002002680961569919
4.14750e-06;0.0020151363875073446
4.14775e-06;0.0020275918134447283
4.14800e-06;0.002040047239382112
4.14825e-06;0.0020525026653195376
4.14850e-06;0.0020649580912569213
4.14875e-06;0.0020785959812197833
4.14900e-06;0.0020957918242247736
4.14925e-06;0.0021129876672297053
4.14950e-06;0.0021301835102346955
4.14975e-06;0.0021473793532396277
4.15000e-06;0.00216457519624456
4.15025e-06;0.00218177103924955
4.15050e-06;0.002198966882254482
4.15075e-06;0.002216162725259414
4.15100e-06;0.0022333585682644042
4.15125e-06;0.0022505544112693364
4.15150e-06;0.002267750254274268
4.15175e-06;0.002286397843572387
4.15200e-06;0.0023094136377614133
4.15225e-06;0.002332429431950439
4.15250e-06;0.002355445226139543
4.15275e-06;0.0023784610203285692
4.15300e-06;0.002401476814517595
4.15325e-06;0.002424492608706699
4.15350e-06;0.0024475084028957247
4.15375e-06;0.002470524197084829
4.15400e-06;0.002493539991273855
4.15425e-06;0.0025165557854628807
4.15450e-06;0.002539571579651985
4.15475e-06;0.0025608652019411078
4.15500e-06;0.002576976927261525
4.15525e-06;0.0025930886525819966
4.15550e-06;0.0026092003779024132
4.15575e-06;0.0026253121032228303
4.15600e-06;0.002641423828543302
4.15625e-06;0.002657535553863719
4.15650e-06;0.0026736472791841362
4.15675e-06;0.0026897590045046075
4.15700e-06;0.0027058707298250246
4.15725e-06;0.0027219824551454417
4.15750e-06;0.0027380941804659134
4.15775e-06;0.0027542059057863305
4.15800e-06;0.002770317631106802
4.15825e-06;0.002786429356427219
4.15850e-06;0.002802541081747636
4.15875e-06;0.0028186528070681077
4.15900e-06;0.00282364722554903
4.15925e-06;0.0028249248590119214
4.15950e-06;0.0028262024924748173
4.15975e-06;0.002827480125937709
4.16000e-06;0.0028287577594006004
4.16025e-06;0.0028300353928634964
4.16050e-06;0.002831313026326388
4.16075e-06;0.0028325906597892795
4.16100e-06;0.0028338682932521754
4.16125e-06;0.002835145926715067
4.16150e-06;0.0028364235601779585
4.16175e-06;0.0028377011936408544
4.16200e-06;0.002838978827103746
4.16225e-06;0.002840256460566642
4.16250e-06;0.0028415340940295335
4.16275e-06;0.002842811727492425
4.16300e-06;0.002842557110909611
4.16325e-06;0.002837692059174595
4.16350e-06;0.002832827007439579
4.16375e-06;0.0028279619557045467
4.16400e-06;0.0028230969039695305
4.16425e-06;0.0028182318522345148
4.16450e-06;0.0028133668004994825
4.16475e-06;0.0028085017487644664
4.16500e-06;0.0028036366970294506
4.16525e-06;0.002798771645294418
4.16550e-06;0.0027939065935594022
4.16575e-06;0.0027883894021810923
4.16600e-06;0.0027826541847205096
4.16625e-06;0.002776918967259946
4.16650e-06;0.0027711837497993636
4.16675e-06;0.0027654485323388
4.16700e-06;0.0027597133148782368
4.16725e-06;0.002753978097417654
4.16750e-06;0.002748242879957091
4.16775e-06;0.0027425076624965276
4.16800e-06;0.002736772445035945
4.16825e-06;0.0027278387126643917
4.16850e-06;0.0027092808686017484
4.16875e-06;0.002690723024539042
4.16900e-06;0.002672165180476399
4.16925e-06;0.002653607336413756
4.16950e-06;0.0026350494923510497
4.16975e-06;0.0026164916482884063
4.17000e-06;0.002597933804225763
4.17025e-06;0.002579375960163057
4.17050e-06;0.002560818116100414
4.17075e-06;0.0025422602720377076
4.17100e-06;0.002511784867646552
4.17125e-06;0.0024773251341092812
4.17150e-06;0.0024428654005718936
4.17175e-06;0.0024084056670346226
4.17200e-06;0.002373945933497352
4.17225e-06;0.0023394861999599644
4.17250e-06;0.0023050264664226934
4.17275e-06;0.002270566732885423
4.17300e-06;0.002236106999348035
4.17325e-06;0.0022016472658107646
4.17350e-06;0.0021659219881406304
4.17375e-06;0.002126388775093452
4.17400e-06;0.002086855562046407
4.17425e-06;0.0020473223489993627
4.17450e-06;0.0020077891359521842
4.17475e-06;0.0019682559229051394
4.17500e-06;0.001928722709858095
4.17525e-06;0.0018906902775157775
4.17550e-06;0.0018571735912391119
4.17575e-06;0.0018236569049623326
4.17600e-06;0.0017901402186856668
4.17625e-06;0.001756623532409001
4.17650e-06;0.0017231068461322217
4.17675e-06;0.001689590159855556
4.17700e-06;0.0016596401841962201
4.17725e-06;0.0016404221958180353
4.17750e-06;0.0016212042074399155
4.17775e-06;0.0016019862190617955
4.17800e-06;0.0015827682306836107
4.17825e-06;0.001563550242305491
4.17850e-06;0.0015443322539273711
4.17875e-06;0.001525114265549186
4.17900e-06;0.0015058962771710663
4.17925e-06;0.0014866782887929465
4.17950e-06;0.0014772579249691302
4.17975e-06;0.001471113144401527
4.18000e-06;0.001464968363833903
4.18025e-06;0.0014588235832662998
4.18050e-06;0.0014526788026986966
4.18075e-06;0.0014465340221310726
4.18100e-06;0.0014403892415634694
4.18125e-06;0.0014342444609958661
4.18150e-06;0.0014280996804282421
4.18175e-06;0.0014239897844089515
4.18200e-06;0.0014260027162362374
4.18225e-06;0.00142801564806353
4.18250e-06;0.001430028579890816
4.18275e-06;0.0014320415117181017
4.18300e-06;0.0014340544435453944
4.18325e-06;0.0014360673753726803
4.18350e-06;0.0014380803071999662
4.18375e-06;0.0014400932390272589
4.18400e-06;0.0014442780983159578
4.18425e-06;0.0014494235424536283
4.18450e-06;0.0014545689865912814
4.18475e-06;0.0014597144307289347
4.18500e-06;0.0014648598748666052
4.18525e-06;0.0014700053190042583
4.18550e-06;0.0014751507631419116
4.18575e-06;0.001480296207279582
4.18600e-06;0.0014852004613642282
4.18625e-06;0.001488588690500895
4.18650e-06;0.0014919769196375735
4.18675e-06;0.0014953651487742403
4.18700e-06;0.0014987533779109074
4.18725e-06;0.001502534614037953
4.18750e-06;0.001506539559809513
4.18775e-06;0.0015105445055810733
4.18800e-06;0.0015145494513526471
4.18825e-06;0.0015198385232448072
4.18850e-06;0.0015331991022773034
4.18875e-06;0.0015465596813097544
4.18900e-06;0.0015599202603422053
4.18925e-06;0.0015732808393747015
4.18950e-06;0.0015866414184071524
4.18975e-06;0.0016000019974396033
4.19000e-06;0.0016133625764720994
4.19025e-06;0.0016267231555045503
4.19050e-06;0.0016400837345370012
4.19075e-06;0.0016552732394227118
4.19100e-06;0.0016819586463422806
4.19125e-06;0.0017086440532618494
4.19150e-06;0.0017353294601815086
4.19175e-06;0.0017620148671010775
4.19200e-06;0.0017887002740206463
4.19225e-06;0.0018153856809403053
4.19250e-06;0.0018420710878598741
4.19275e-06;0.0018687564947795334
4.19300e-06;0.0018954419016991022
4.19325e-06;0.0019227902142836492
4.19350e-06;0.00195430528877845
4.19375e-06;0.001985820363273144
4.19400e-06;0.002017335437767838
4.19425e-06;0.0020488505122626386
4.19450e-06;0.0020803655867573326
4.19475e-06;0.0021118806612520267
4.19500e-06;0.002142730644864385
4.19525e-06;0.0021694001311571556
4.19550e-06;0.0021960696174499264
4.19575e-06;0.002222739103742788
4.19600e-06;0.0022494085900355587
4.19625e-06;0.0022760780763283295
4.19650e-06;0.002302747562621191
4.19675e-06;0.0023269303848555546
4.19700e-06;0.0023354830237504224
4.19725e-06;0.0023440356626452615
4.19750e-06;0.0023525883015401007
4.19775e-06;0.002361140940434969
4.19800e-06;0.0023696935793298076
4.19825e-06;0.0023782462182246468
