Time(s);Current(A)
7.50000e-06;-0.001139327596726426
7.50025e-06;-0.001157327330214256
7.50050e-06;-0.001175327063702025
7.50075e-06;-0.0011933267971897942
7.50100e-06;-0.0012113265306776242
7.50125e-06;-0.0012293262641653933
7.50150e-06;-0.0012473259976531624
7.50175e-06;-0.0012611809020374128
7.50200e-06;-0.001269088249791055
7.50225e-06;-0.0012769955975447242
7.50250e-06;-0.0012849029452983664
7.50275e-06;-0.0012928102930520086
7.50300e-06;-0.0013007176408056775
7.50325e-06;-0.0013086249885593197
7.50350e-06;-0.0013165323363129619
7.50375e-06;-0.0013162348073260976
7.50400e-06;-0.0013151326258641473
7.50425e-06;-0.0013140304444021972
7.50450e-06;-0.0013051825577533374
7.50475e-06;-0.0012955750495956448
7.50500e-06;-0.0012859675414379523
7.50525e-06;-0.0012763600332802271
7.50550e-06;-0.0012667525251225348
7.50575e-06;-0.0012571450169648422
7.50600e-06;-0.001247537508807117
7.50625e-06;-0.0012341905851303173
7.50650e-06;-0.0012154778466014105
7.50675e-06;-0.001196765108072567
7.50700e-06;-0.0011780523695437235
7.50725e-06;-0.0011593396310148167
7.50750e-06;-0.0011406268924859732
7.50775e-06;-0.0011219141539571297
7.50800e-06;-0.001103201415428223
7.50825e-06;-0.0010812333498272444
7.50850e-06;-0.0010589460342158275
7.50875e-06;-0.0010366587186043349
7.50900e-06;-0.0010143714029929177
7.50925e-06;-0.0009920840873815008
7.50950e-06;-0.0009697967717700081
7.50975e-06;-0.0009490833128473689
7.51000e-06;-0.0009285242020910262
7.51025e-06;-0.000907965091334614
7.51050e-06;-0.0008874059805782713
7.51075e-06;-0.0008668468698219288
7.51100e-06;-0.0008462877590655164
7.51125e-06;-0.0008298277922926761
7.51150e-06;-0.0008137698286765478
7.51175e-06;-0.000797711865060474
7.51200e-06;-0.0007812403409571514
7.51225e-06;-0.0007641753848072006
7.51250e-06;-0.0007471104286573077
7.51275e-06;-0.0007300454725074148
7.51300e-06;-0.0007095967561557608
7.51325e-06;-0.000688816194353473
7.51350e-06;-0.000668035632551185
7.51375e-06;-0.0006453539184481211
7.51400e-06;-0.0006224857582897254
7.51425e-06;-0.0005964181302405452
7.51450e-06;-0.0005700367302923059
7.51475e-06;-0.0005403847242935861
7.51500e-06;-0.0005104119698747362
7.51525e-06;-0.00047801007523847296
7.51550e-06;-0.0004453699547582634
7.51575e-06;-0.00041077737804107536
7.51600e-06;-0.0003759933238902705
7.51625e-06;-0.0003385932328255552
7.51650e-06;-0.0003009365869527974
7.51675e-06;-0.0002610093774686234
7.51700e-06;-0.00022085949375225618
7.51725e-06;-0.00017957965564060075
7.51750e-06;-0.000137599429470437
7.51775e-06;-9.556138382148592e-05
7.51800e-06;-5.3068059913352946e-05
7.51825e-06;-1.0136504516466425e-05
7.51850e-06;3.311541436677943e-05
7.51875e-06;7.633863336717719e-05
7.51900e-06;0.00011955633002411583
7.51925e-06;0.0001618943847096088
7.51950e-06;0.00020414616888957728
7.51975e-06;0.00024469744889912457
7.52000e-06;0.00028508196042081315
7.52025e-06;0.00032339264483430876
7.52050e-06;0.00036149994896964623
7.52075e-06;0.0003975990048315592
7.52100e-06;0.0004308723128877911
7.52125e-06;0.00046388781457323163
7.52150e-06;0.0004937775574671002
7.52175e-06;0.0005209585720053797
7.52200e-06;0.0005453311033971294
7.52225e-06;0.0005667969346245355
7.52250e-06;0.0005853026996831174
7.52275e-06;0.0006007966644890214
7.52300e-06;0.000613226748781571
7.52325e-06;0.0006225409627222773
7.52350e-06;0.0006286873268699966
7.52375e-06;0.0006316219191608042
7.52400e-06;0.0006299073633971796
7.52425e-06;0.0006277650304372522
7.52450e-06;0.00062004219509174
7.52475e-06;0.000611772079732985
7.52500e-06;0.000598236680369451
7.52525e-06;0.0005841849144674831
7.52550e-06;0.0005651848322406371
7.52575e-06;0.0005456994685038224
7.52600e-06;0.0005216664574292711
7.52625e-06;0.000497187458462756
7.52650e-06;0.0004687477417333026
7.52675e-06;0.0004399195973105703
7.52700e-06;0.00040776123814803723
7.52725e-06;0.0003752762847397976
7.52750e-06;0.0003400925870302741
7.52775e-06;0.00030464422339737907
7.52800e-06;0.0002671809323490574
7.52825e-06;0.00022952003731718053
7.52850e-06;0.00019051345868162592
7.52875e-06;0.0001513749088204382
7.52900e-06;0.00011223635895925045
7.52925e-06;7.295878510513167e-05
7.52950e-06;3.3667577164581144e-05
7.52975e-06;-5.084732217349728e-06
7.53000e-06;-4.313665167813566e-05
7.53025e-06;-8.024511476040325e-05
7.53050e-06;-0.00011614937416611927
7.53075e-06;-0.0001505884794202036
7.53100e-06;-0.00018330154086199118
7.53125e-06;-0.00021402771151218485
7.53150e-06;-0.00024250618804720763
7.53175e-06;-0.0002684293507890624
7.53200e-06;-0.00029138494704637123
7.53225e-06;-0.00031099917781990085
7.53250e-06;-0.0003271141125252058
7.53275e-06;-0.0003397044022249128
7.53300e-06;-0.00034875763096193574
7.53325e-06;-0.00035426162813659724
7.53350e-06;-0.00035620430786136335
7.53375e-06;-0.00035454419852228047
7.53400e-06;-0.0003491743421807808
7.53425e-06;-0.00034001188302094313
7.53450e-06;-0.00032710918863525923
7.53475e-06;-0.0003106015955880558
7.53500e-06;-0.00029063270993499066
7.53525e-06;-0.000267346169476694
7.53550e-06;-0.00024088561486867787
7.53575e-06;-0.00021137637343550606
7.53600e-06;-0.00017890270992385274
7.53625e-06;-0.00014356397570420006
7.53650e-06;-0.00010554421925681562
7.53675e-06;-6.507950467691459e-05
7.53700e-06;-2.241096250522429e-05
7.53725e-06;2.222020861323621e-05
7.53750e-06;6.857280886470518e-05
7.53775e-06;0.00011641716855602507
7.53800e-06;0.00016554933995569676
7.53825e-06;0.00021611279162973585
7.53850e-06;0.0002668054869975233
7.53875e-06;0.0003183248122875589
7.53900e-06;0.0003699252051953918
7.53925e-06;0.00042152559810339956
7.53950e-06;0.00047231678529923354
7.53975e-06;0.0005219468156236741
7.54000e-06;0.0005715768459482827
7.54025e-06;0.0006212068762727232
7.54050e-06;0.0006671942337337497
7.54075e-06;0.0007128243541733592
7.54100e-06;0.0007542971064858368
7.54125e-06;0.0007953621455991398
7.54150e-06;0.0008309773231569039
7.54175e-06;0.0008660580326515543
7.54200e-06;0.0008957957468577618
7.54225e-06;0.000920586821405809
7.54250e-06;0.0009402960668523385
7.54275e-06;0.0009549087948202504
7.54300e-06;0.0009644377131612005
7.54325e-06;0.0009688958707884986
7.54350e-06;0.0009682963592272465
7.54375e-06;0.0009625856428115357
7.54400e-06;0.0009515439879437593
7.54425e-06;0.0009349575245218678
7.54450e-06;0.0009128721171117341
7.54475e-06;0.0008855048824287904
7.54500e-06;0.0008530900636129474
7.54525e-06;0.00081586207331211
7.54550e-06;0.0007740553667856002
7.54575e-06;0.0007278626863608871
7.54600e-06;0.0006773725489507427
7.54625e-06;0.0006226773806593198
7.54650e-06;0.0005640320485649146
7.54675e-06;0.0005017987649388509
7.54700e-06;0.0004363504958380927
7.54725e-06;0.00036806024895070935
7.54750e-06;0.00029730107197668343
7.54775e-06;0.0002244197650771296
7.54800e-06;0.00014969797661082055
7.54825e-06;7.341958016789827e-05
7.54850e-06;-4.029622424755452e-06
7.54875e-06;-8.225495656110839e-05
7.54900e-06;-0.00016054646267955994
7.54925e-06;-0.00023883796879827675
7.54950e-06;-0.0003158880856008933
7.54975e-06;-0.0003928164653137803
7.55000e-06;-0.00046693350947924644
7.55025e-06;-0.000540774845895327
7.55050e-06;-0.0006101905353270258
7.55075e-06;-0.0006791722014449324
7.55100e-06;-0.000743679425737608
7.55125e-06;-0.0008041411048990364
7.55150e-06;-0.0008601746358669837
7.55175e-06;-0.0009100009671375044
7.55200e-06;-0.0009592577449941703
7.55225e-06;-0.001004166136572331
7.55250e-06;-0.0010486480817964374
7.55275e-06;-0.0010882999120661613
7.55300e-06;-0.0011274780528380472
7.55325e-06;-0.0011666561936099328
7.55350e-06;-0.0011982950323406287
7.55375e-06;-0.0012291944915263284
7.55400e-06;-0.0012600939507121326
7.55425e-06;-0.0012861948883435867
7.55450e-06;-0.0013118252348429701
7.55475e-06;-0.0013374555813424405
7.55500e-06;-0.0013588705059579588
7.55525e-06;-0.0013798720240410741
7.55550e-06;-0.0014008735421242608
7.55575e-06;-0.0014176690234702107
7.55600e-06;-0.0014340520186853529
7.55625e-06;-0.0014430223862699626
7.55650e-06;-0.0049593684733440484
7.55675e-06;-0.026331484490062708
7.55700e-06;-0.02058942828462182
7.55725e-06;-0.01633216815199765
7.55750e-06;-0.010764733624176485
7.55775e-06;0.005320694920137892
7.55800e-06;0.003716516788276224
7.55825e-06;0.0026756761789022633
7.55850e-06;0.000496361307516985
7.55875e-06;-0.00414506002246089
7.55900e-06;-0.007853045592941095
7.55925e-06;-0.007688642113684048
7.55950e-06;-0.005081685727738526
7.55975e-06;-0.0011579520052760399
7.56000e-06;0.0019146379802954744
7.56025e-06;0.0023563574278857666
7.56050e-06;0.0008113182373930901
7.56075e-06;-0.00225119212611912
7.56100e-06;-0.00466590249816575
7.56125e-06;-0.004636779319287697
7.56150e-06;-0.0030636555703160593
7.56175e-06;-0.0006546763793798059
7.56200e-06;0.001230566933038306
7.56225e-06;0.0014764334827094096
7.56250e-06;0.0004854864099404911
7.56275e-06;-0.0014493856971814123
7.56300e-06;-0.002972856910680577
7.56325e-06;-0.002960807921003015
7.56350e-06;-0.0019776786622303084
7.56375e-06;-0.0004676713221494602
7.56400e-06;0.0007170987452587202
7.56425e-06;0.0008774691591889136
7.56450e-06;0.0002653550721483054
7.56475e-06;-0.000936004664826718
7.56500e-06;-0.001877875076572365
7.56525e-06;-0.0018563933861903915
7.56550e-06;-0.0012254034812994893
7.56575e-06;-0.00026338761509263136
7.56600e-06;0.0004957052613695691
7.56625e-06;0.0006137898025078625
7.56650e-06;0.00024855474292158423
7.56675e-06;-0.0004853365334255238
7.56700e-06;-0.0010563795955488926
7.56725e-06;-0.0010238586552629263
7.56750e-06;-0.0006096112055449876
7.56775e-06;1.1752011136260065e-05
7.56800e-06;0.0005056211972326863
7.56825e-06;0.0005974646652472277
7.56850e-06;0.0003859518234884718
7.56875e-06;-5.720586760895994e-05
7.56900e-06;-0.00039920613750256254
7.56925e-06;-0.000364143825810026
7.56950e-06;-9.114212863687597e-05
7.56975e-06;0.0003102701707937337
7.57000e-06;0.0006303560755876575
7.57025e-06;0.000697028999003
7.57050e-06;0.0005719802867749355
7.57075e-06;0.00030001011480664495
7.57100e-06;8.945417516064344e-05
7.57125e-06;0.00011299060638494719
7.57150e-06;0.00028332412218151615
7.57175e-06;0.000531802145686
7.57200e-06;0.000727249824153702
7.57225e-06;0.0007622245626429746
7.57250e-06;0.000675622961369009
7.57275e-06;0.000495632129199353
7.57300e-06;0.0003528387129536614
7.57325e-06;0.00035548263815882186
7.57350e-06;0.00044895449026181964
7.57375e-06;0.0005903270531430626
7.57400e-06;0.0006975149760395325
7.57425e-06;0.000703305715157417
7.57450e-06;0.0006321554210962086
7.57475e-06;0.0005018098538958999
7.57500e-06;0.00039415319598979455
7.57525e-06;0.00037706492856067657
7.57550e-06;0.0004164144199990004
7.57575e-06;0.0004853915411624528
7.57600e-06;0.0005326611678973276
7.57625e-06;0.0005162088299500841
7.57650e-06;0.00045144238323437173
7.57675e-06;0.000349565150396331
7.57700e-06;0.00026195390948565496
7.57725e-06;0.00023120858163148435
7.57750e-06;0.00023602915507721543
7.57775e-06;0.00025970295715411004
7.57800e-06;0.000270157190255463
7.57825e-06;0.00024116012509716746
7.57850e-06;0.00018245011145818626
7.57875e-06;0.00010113106724859797
7.57900e-06;2.9469713716932135e-05
7.57925e-06;-5.767695958763336e-06
7.57950e-06;-1.7842334758626262e-05
7.57975e-06;-1.7140754668184767e-05
7.58000e-06;-2.366967099703809e-05
7.58025e-06;-5.3775268345528774e-05
7.58050e-06;-0.00010127162321846831
7.58075e-06;-0.00016162347583727654
7.58100e-06;-0.00021453474120158405
7.58125e-06;-0.00024315649473032457
7.58150e-06;-0.0002557227443599369
7.58175e-06;-0.0002589014401838008
7.58200e-06;-0.00026591087386785986
7.58225e-06;-0.0002878479768768038
7.58250e-06;-0.0003212711556188163
7.58275e-06;-0.00036338767794386447
7.58300e-06;-0.000401445038921774
7.58325e-06;-0.000424851069950111
7.58350e-06;-0.00043872576673159396
7.58375e-06;-0.00044720770126007814
7.58400e-06;-0.0004585379738859469
7.58425e-06;-0.00047962816633341233
7.58450e-06;-0.0005082827249096025
7.58475e-06;-0.0005427127015643735
7.58500e-06;-0.0005748907527962567
7.58525e-06;-0.0005981434615086348
7.58550e-06;-0.0006156396660855893
7.58575e-06;-0.0006299330720071596
7.58600e-06;-0.0006461468736216723
7.58625e-06;-0.0006685711047475546
7.58650e-06;-0.0006966299120780919
7.58675e-06;-0.0007274763052796966
7.58700e-06;-0.000756068901239755
7.58725e-06;-0.0007792699751251627
7.58750e-06;-0.0007993427414720876
7.58775e-06;-0.0008188451249180636
7.58800e-06;-0.0008377830456039854
7.58825e-06;-0.0008604319292547665
7.58850e-06;-0.0008867532588968537
7.58875e-06;-0.0009130745885390302
7.58900e-06;-0.0009373324289831393
7.58925e-06;-0.0009595481976780169
7.58950e-06;-0.0009796784184102113
7.58975e-06;-0.0009977447375815506
7.59000e-06;-0.0010158110567528899
7.59025e-06;-0.001034882366225708
7.59050e-06;-0.0010549482349647467
7.59075e-06;-0.0010750141037037854
7.59100e-06;-0.0010950799724428922
7.59125e-06;-0.001111508309913943
7.59150e-06;-0.0011243368709256448
7.59175e-06;-0.00113716543193739
7.59200e-06;-0.0011499939929490919
7.59225e-06;-0.0011594871068467325
7.59250e-06;-0.0011656793930351363
7.59275e-06;-0.0011718716792235402
7.59300e-06;-0.0011736057934839982
7.59325e-06;-0.001170928008251335
7.59350e-06;-0.0011646695940019003
7.59375e-06;-0.0011548677149423438
7.59400e-06;-0.0011423145169520532
7.59425e-06;-0.0011270385566295837
7.59450e-06;-0.0011088854780546573
7.59475e-06;-0.0010878851435273138
7.59500e-06;-0.0010632366871843187
7.59525e-06;-0.001034977973756292
7.59550e-06;-0.0010035737360582142
7.59575e-06;-0.0009690566222403585
7.59600e-06;-0.000932223747700934
7.59625e-06;-0.0008930991482758118
7.59650e-06;-0.0008518901857417336
7.59675e-06;-0.0008086184942033401
7.59700e-06;-0.0007630897580454549
7.59725e-06;-0.0007153274036750864
7.59750e-06;-0.000665713068749113
7.59775e-06;-0.0006142659754175475
7.59800e-06;-0.0005628188820858077
7.59825e-06;-0.0005104906961567212
7.59850e-06;-0.0004572905627014249
7.59875e-06;-0.0004040904292459483
7.59900e-06;-0.0003508258504560042
7.59925e-06;-0.0002974974952249923
7.59950e-06;-0.0002441691399937997
7.59975e-06;-0.00019149285433176473
7.60000e-06;-0.00014019975275581577
7.60025e-06;-9.047965733953629e-05
7.60050e-06;-4.2574899161827097e-05
7.60075e-06;3.204534878727154e-06
7.60100e-06;4.668380836621602e-05
7.60125e-06;8.765592869886984e-05
7.60150e-06;0.00012568446554048643
7.60175e-06;0.00016045045234252097
7.60200e-06;0.00019182810651920362
7.60225e-06;0.00021986301920924763
7.60250e-06;0.0002446363413430062
7.60275e-06;0.00026609415590534194
7.60300e-06;0.0002842423097062696
7.60325e-06;0.0002990665335534679
7.60350e-06;0.00031040887904963097
7.60375e-06;0.00031818496390109154
7.60400e-06;0.00032243141832075746
7.60425e-06;0.0003232922362134464
7.60450e-06;0.0003209337031378689
7.60475e-06;0.00031543746335606484
7.60500e-06;0.00030692259066468096
7.60525e-06;0.0002954956062512019
7.60550e-06;0.00028117296117840835
7.60575e-06;0.0002640172417503656
7.60600e-06;0.00024416684183139467
7.60625e-06;0.00022182736807985486
7.60650e-06;0.0001972183867766384
7.60675e-06;0.00017050643701210685
7.60700e-06;0.00014188152053304864
7.60725e-06;0.00011152572561523515
7.60750e-06;7.95647472792363e-05
7.60775e-06;4.6153151545823264e-05
7.60800e-06;1.1492989927875157e-05
7.60825e-06;-2.4171589280864735e-05
7.60850e-06;-6.0587715907955714e-05
7.60875e-06;-9.758726341473287e-05
7.60900e-06;-0.0001348508300428061
7.60925e-06;-0.0001721135346955615
7.60950e-06;-0.0002090466331496149
7.60975e-06;-0.0002459797316036683
7.61000e-06;-0.0002821549388795802
7.61025e-06;-0.0003175801213115165
7.61050e-06;-0.0003517515672250481
7.61075e-06;-0.0003846822894524798
7.61100e-06;-0.0004158388097237618
7.61125e-06;-0.0004452395429068999
7.61150e-06;-0.00047243848809096515
7.61175e-06;-0.0004974584981618404
7.61200e-06;-0.0005204691273704258
7.61225e-06;-0.0005414912315630221
7.61250e-06;-0.0005606909131641611
7.61275e-06;-0.0005780870875354036
7.61300e-06;-0.0005934693756733339
7.61325e-06;-0.0006068586801864456
7.61350e-06;-0.0006180806525494704
7.61375e-06;-0.0006271577880229602
7.61400e-06;-0.0006343025142655708
7.61425e-06;-0.0006395348882165914
7.61450e-06;-0.0006430662944328694
7.61475e-06;-0.000644914387666872
7.61500e-06;-0.0006450559107079828
7.61525e-06;-0.0006435085764579201
7.61550e-06;-0.0006399009028683484
7.61575e-06;-0.000634254274695882
7.61600e-06;-0.0006286076465234348
7.61625e-06;-0.0006210240891211869
7.61650e-06;-0.0006115237063426094
7.61675e-06;-0.0006020233235640642
7.61700e-06;-0.0005909396734315816
7.61725e-06;-0.0005782891890571248
7.61750e-06;-0.000565638704682711
7.61775e-06;-0.0005515819057908035
7.61800e-06;-0.000536133388857556
7.61825e-06;-0.0005206848719243086
7.61850e-06;-0.0005052363549910088
7.61875e-06;-0.0004897878380577613
7.61900e-06;-0.00047386751808258605
7.61925e-06;-0.00045748029202249767
7.61950e-06;-0.0004410930659624648
7.61975e-06;-0.000424705839902432
7.62000e-06;-0.0004083186138423436
7.62025e-06;-0.00039260429420494774
7.62050e-06;-0.0003775558967328194
7.62075e-06;-0.0003625074992606402
7.62100e-06;-0.00034841699048374243
7.62125e-06;-0.0003352744282452429
7.62150e-06;-0.00032288228821600724
7.62175e-06;-0.0003119154623211504
7.62200e-06;-0.0003025853236458898
7.62225e-06;-0.0002953496420534499
7.62250e-06;-0.00029041250039434595
7.62275e-06;-0.00028777748489818223
7.62300e-06;-0.00028740412205804114
7.62325e-06;-0.00028925212316228217
7.62350e-06;-0.0002932852842078835
7.62375e-06;-0.0002995327854111102
7.62400e-06;-0.00030815858388401904
7.62425e-06;-0.0003193387219058409
7.62450e-06;-0.0003330903500531931
7.62475e-06;-0.0003493050166917342
7.62500e-06;-0.0003678466583776307
7.62525e-06;-0.00038857934939033904
7.62550e-06;-0.00041185691088263955
7.62575e-06;-0.0004366075358988911
7.62600e-06;-0.00046332547945791933
7.62625e-06;-0.000491990322288056
7.62650e-06;-0.0005224325120574382
7.62675e-06;-0.000554633601255208
7.62700e-06;-0.0005884935592987469
7.62725e-06;-0.0006239951683894625
7.62750e-06;-0.0006594967774801782
7.62775e-06;-0.0006965605274405787
7.62800e-06;-0.0007351702044349358
7.62825e-06;-0.0007737798814292931
7.62850e-06;-0.000812389558423781
7.62875e-06;-0.0008509992354181382
7.62900e-06;-0.0008894908950953853
7.62925e-06;-0.0009278657623857477
7.62950e-06;-0.0009662406296759801
7.62975e-06;-0.0010046154969663426
7.63000e-06;-0.001042990364256445
7.63025e-06;-0.0010794224648381255
7.63050e-06;-0.0011139319631536784
7.63075e-06;-0.0011484414614689974
7.63100e-06;-0.0011801913712541016
7.63125e-06;-0.0012092103349412235
7.63150e-06;-0.0012382292986281487
7.63175e-06;-0.0012637530598135023
7.63200e-06;-0.0012858178960436313
7.63225e-06;-0.0013038187413040973
7.63250e-06;-0.0013177977767338013
7.63275e-06;-0.0013275569470576698
7.63300e-06;-0.0013331400512695258
7.63325e-06;-0.0013345642591630277
7.63350e-06;-0.00133187273692238
7.63375e-06;-0.0013248759815710491
7.63400e-06;-0.0013136186781580836
7.63425e-06;-0.0012977435156922444
7.63450e-06;-0.0012772984240423545
7.63475e-06;-0.001252523700064723
7.63500e-06;-0.0012234642820532662
7.63525e-06;-0.0011904994387288168
7.63550e-06;-0.0011536697054392881
7.63575e-06;-0.0011132287417153046
7.63600e-06;-0.0010692140293853507
7.63625e-06;-0.0010217781459920308
7.63650e-06;-0.0009709566006910257
7.63675e-06;-0.0009172803177138409
7.63700e-06;-0.0008607789270689433
7.63725e-06;-0.000801648198950699
7.63750e-06;-0.0007399154238846511
7.63775e-06;-0.0006781826488190215
7.63800e-06;-0.0006143719810196559
7.63825e-06;-0.0005485049874346753
7.63850e-06;-0.000482637993850141
7.63875e-06;-0.00041619331320194835
7.63900e-06;-0.00034917694144329364
7.63925e-06;-0.0002821605696850931
7.63950e-06;-0.0002156814341690079
7.63975e-06;-0.00015031295748332813
7.64000e-06;-8.625444915867853e-05
7.64025e-06;-2.3841707890704873e-05
7.64050e-06;3.6535705708601665e-05
7.64075e-06;9.444739095311164e-05
7.64100e-06;0.0001494544087048113
7.64125e-06;0.00020111787045254918
7.64150e-06;0.00024901555522415485
7.64175e-06;0.0002931418779945658
7.64200e-06;0.000334427750422166
7.64225e-06;0.00037413068665548494
7.64250e-06;0.00041278087305438927
7.64275e-06;0.00044982585842104046
7.64300e-06;0.00048579697050468414
7.64325e-06;0.0005198317677271745
7.64350e-06;0.0005519503475655994
