Time(s);Current(A)
5.50000e-06;0.0017381334326630297
5.50025e-06;0.0017533452751703935
5.50050e-06;0.001772765049145229
5.50075e-06;0.0017921848231201305
5.50100e-06;0.001811604597094966
5.50125e-06;0.0018310243710698013
5.50150e-06;0.0018504441450447027
5.50175e-06;0.0018698639190195382
5.50200e-06;0.0018892836929943738
5.50225e-06;0.001908703466969275
5.50250e-06;0.0019276918233099047
5.50275e-06;0.001946587427026284
5.50300e-06;0.0019654830307427274
5.50325e-06;0.0019843786344591065
5.50350e-06;0.00200327423817555
5.50375e-06;0.002020284445887968
5.50400e-06;0.0020333437896919763
5.50425e-06;0.0020464031334960294
5.50450e-06;0.002059462477300038
5.50475e-06;0.0020725218211040466
5.50500e-06;0.0020855811649080993
5.50525e-06;0.002087687882319236
5.50550e-06;0.00208743984007353
5.50575e-06;0.0020871917978278233
5.50600e-06;0.002077299353047164
5.50625e-06;0.0020653334101676463
5.50650e-06;0.0020533674672880875
5.50675e-06;0.002031235821808086
5.50700e-06;0.002006918601333803
5.50725e-06;0.001982601380859438
5.50750e-06;0.0019470936793321472
5.50775e-06;0.0019091800805909245
5.50800e-06;0.0018712664818498301
5.50825e-06;0.0018240029534693789
5.50850e-06;0.0017747292371833871
5.50875e-06;0.0017254555208975624
5.50900e-06;0.0016675105679261357
5.50925e-06;0.001607701342624985
5.50950e-06;0.0015478921173240374
5.50975e-06;0.0014811043954104496
5.51000e-06;0.0014128163317797566
5.51025e-06;0.0013445282681492949
5.51050e-06;0.0012713903125787225
5.51075e-06;0.0011972096546030955
5.51100e-06;0.00112302899662772
5.51125e-06;0.0010488483386523442
5.51150e-06;0.000972761922839368
5.51175e-06;0.0008962657786647699
5.51200e-06;0.0008197696344899126
5.51225e-06;0.0007432734903153144
5.51250e-06;0.000668818131937389
5.51275e-06;0.0005948015322540472
5.51300e-06;0.0005237551883678806
5.51325e-06;0.00045334743455759406
5.51350e-06;0.0003859820137357006
5.51375e-06;0.0003218380309451242
5.51400e-06;0.00026122168524932995
5.51425e-06;0.000204629152403701
5.51450e-06;0.00015255719850694336
5.51475e-06;0.00010548162187462389
5.51500e-06;6.377206498645366e-05
5.51525e-06;2.763301523938843e-05
5.51550e-06;-2.8319168222975552e-06
5.51575e-06;-2.7540694077398766e-05
5.51600e-06;-4.6412726814224185e-05
5.51625e-06;-5.936749251176506e-05
5.51650e-06;-6.632405120740555e-05
5.51675e-06;-6.721466495852892e-05
5.51700e-06;-6.203809648665743e-05
5.51725e-06;-5.0896552452767115e-05
5.51750e-06;-3.395543617013566e-05
5.51775e-06;-1.1393659560758254e-05
5.51800e-06;1.6608965285328355e-05
5.51825e-06;4.9872587548013036e-05
5.51850e-06;8.8217628167782e-05
5.51875e-06;0.00013145625071317105
5.51900e-06;0.00017935894609738496
5.51925e-06;0.00023163145198063127
5.51950e-06;0.0002879399117121677
5.51975e-06;0.0003479420614211204
5.52000e-06;0.0004112950417559991
5.52025e-06;0.0004776560283975075
5.52050e-06;0.0005476107551034672
5.52075e-06;0.0006182259901210798
5.52100e-06;0.0006923897912094077
5.52125e-06;0.0007673165161775188
5.52150e-06;0.0008422432411453759
5.52175e-06;0.0009183805786811849
5.52200e-06;0.0009947781918380307
5.52225e-06;0.0010711758049946176
5.52250e-06;0.0011475734181512045
5.52275e-06;0.0012198930048870585
5.52300e-06;0.0012913358364275388
5.52325e-06;0.001362778667968019
5.52350e-06;0.0014342214995087413
5.52375e-06;0.0014986192346956768
5.52400e-06;0.0015615023095566967
5.52425e-06;0.001617461806041588
5.52450e-06;0.0016719327679550545
5.52475e-06;0.0017182011107053639
5.52500e-06;0.0017627059315402092
5.52525e-06;0.0017986784321593517
5.52550e-06;0.001832816526793285
5.52575e-06;0.001858104050108365
5.52600e-06;0.0018814887450497068
5.52625e-06;0.0018956485655159867
5.52650e-06;0.0019078250843101358
5.52675e-06;0.0019106463237665262
5.52700e-06;0.001911456225160479
5.52725e-06;0.001903375169012552
5.52750e-06;0.001893382601655876
5.52775e-06;0.001874970536806125
5.52800e-06;0.0018547483222898728
5.52825e-06;0.001826542906049818
5.52850e-06;0.001796621141541827
5.52875e-06;0.0017576558972236945
5.52900e-06;0.0017167463501752455
5.52925e-06;0.001675836803126935
5.52950e-06;0.0016260046953988562
5.52975e-06;0.0015742542819460954
5.53000e-06;0.0015225038684935099
5.53025e-06;0.0014639809617005106
5.53050e-06;0.0014040020028601359
5.53075e-06;0.0013440230440199645
5.53100e-06;0.0012794293084475732
5.53125e-06;0.0012138434190594753
5.53150e-06;0.0011482575296715995
5.53175e-06;0.0010826716402837235
5.53200e-06;0.0010164802330191033
5.53225e-06;0.000950158642453027
5.53250e-06;0.0008838370518869506
5.53275e-06;0.0008175154613206495
5.53300e-06;0.0007540459022315841
5.53325e-06;0.0006911895155828801
5.53350e-06;0.000632182515676401
5.53375e-06;0.0005740031145823071
5.53400e-06;0.0005196233480442119
5.53425e-06;0.000469079677400235
5.53450e-06;0.00042255717619834975
5.53475e-06;0.00038034698194156207
5.53500e-06;0.00034250747403795535
5.53525e-06;0.0003090329891331382
5.53550e-06;0.00027999054600195495
5.53575e-06;0.00025548378023400477
5.53600e-06;0.00023562056607473393
5.53625e-06;0.0002205087383658978
5.53650e-06;0.0002102487849386152
5.53675e-06;0.00020485336925543375
5.53700e-06;0.0002041893933445485
5.53725e-06;0.0002080836643303783
5.53750e-06;0.00021640849264988496
5.53775e-06;0.00022905912456681313
5.53800e-06;0.00024593348354572065
5.53825e-06;0.000266929463947516
5.53850e-06;0.000291940367817002
5.53875e-06;0.0003208044470993021
5.53900e-06;0.0003532687076160695
5.53925e-06;0.0003890550600782578
5.53950e-06;0.0004279138821348479
5.53975e-06;0.0004696099691169734
5.54000e-06;0.0005148682392436317
5.54025e-06;0.0005607859928394905
5.54050e-06;0.0006101302755288917
5.54075e-06;0.0006602112447600949
5.54100e-06;0.0007133851854593909
5.54125e-06;0.0007672240994870109
5.54150e-06;0.0008210630135144485
5.54175e-06;0.000874901927541886
5.54200e-06;0.0009293169920027158
5.54225e-06;0.000983855925912214
5.54250e-06;0.0010383948598218968
5.54275e-06;0.001092933793731395
5.54300e-06;0.0011443996179224432
5.54325e-06;0.0011952047389619661
5.54350e-06;0.001246009860001317
5.54375e-06;0.0012911257455311814
5.54400e-06;0.001335018474006563
5.54425e-06;0.0013789112024817961
5.54450e-06;0.0014150237781950415
5.54475e-06;0.0014494636601482586
5.54500e-06;0.001483903542101359
5.54525e-06;0.0015115243005152134
5.54550e-06;0.001537678981624194
5.54575e-06;0.001563833662733086
5.54600e-06;0.0015827174822725621
5.54625e-06;0.0016000381030999977
5.54650e-06;0.0016173587239273746
5.54675e-06;0.00162732260058048
5.54700e-06;0.0016357048141928776
5.54725e-06;0.001644087027805275
5.54750e-06;0.0016463251379057156
5.54775e-06;0.0016472422966161756
5.54800e-06;0.0016481594553266353
5.54825e-06;0.0016430171794672487
5.54850e-06;0.0016365721556151588
5.54875e-06;0.0016301271317630686
5.54900e-06;0.0016160555017301192
5.54925e-06;0.0016003441896809175
5.54950e-06;0.001584632877631716
5.54975e-06;0.0015689215655824613
5.55000e-06;0.0015532102535332597
5.55025e-06;0.0015374989414840582
5.55050e-06;0.0015217876294348035
5.55075e-06;0.0015000267335591234
5.55100e-06;0.001476965207551095
5.55125e-06;0.0014539036815431447
5.55150e-06;0.0014308421555351944
5.55175e-06;0.0014077806295271658
5.55200e-06;0.0013847191035192155
5.55225e-06;0.0013616575775112652
5.55250e-06;0.0013404674139805962
5.55275e-06;0.0013196795839817157
5.55300e-06;0.001298891753982835
5.55325e-06;0.001278103923983884
5.55350e-06;0.0012573160939850034
5.55375e-06;0.0012365282639861227
5.55400e-06;0.0012157404339871716
5.55425e-06;0.001194952603988291
5.55450e-06;0.0011741647739894104
5.55475e-06;0.0011533769439904594
5.55500e-06;0.0011394463497336638
5.55525e-06;0.0011269900267134613
5.55550e-06;0.0011145337036933011
5.55575e-06;0.001102077380673141
5.55600e-06;0.0010896210576529387
5.55625e-06;0.0010771647346327785
5.55650e-06;0.0010647084116126183
5.55675e-06;0.0010522520885924158
5.55700e-06;0.0010397957655722556
5.55725e-06;0.0010273394425520954
5.55750e-06;0.0010187828697275304
5.55775e-06;0.0010110647236042615
5.55800e-06;0.0010033465774809925
5.55825e-06;0.0009956284313576973
5.55850e-06;0.0009879102852344284
5.55875e-06;0.0009801921391111594
5.55900e-06;0.0009724739929878643
5.55925e-06;0.0009647558468645954
5.55950e-06;0.0009570377007413003
5.55975e-06;0.0009493195546180313
5.56000e-06;0.0009416014084947623
5.56025e-06;0.0009338832623714673
5.56050e-06;0.0009261651162481983
5.56075e-06;0.0009194204191642636
5.56100e-06;0.0009147155931012202
5.56125e-06;0.0009100107670381927
5.56150e-06;0.0009053059409751652
5.56175e-06;0.0009006011149121218
5.56200e-06;0.0008958962888490942
5.56225e-06;0.0008911914627860668
5.56250e-06;0.0008864866367230234
5.56275e-06;0.0008817818106599958
5.56300e-06;0.0008770769845969684
5.56325e-06;0.0008723721585339249
5.56350e-06;0.0008676673324708974
5.56375e-06;0.000862962506407854
5.56400e-06;0.0008582576803448264
5.56425e-06;0.0008540606042648159
5.56450e-06;0.0008499726918803814
5.56475e-06;0.0008458847794959608
5.56500e-06;0.0008417968671115401
5.56525e-06;0.0008377089547271057
5.56550e-06;0.0008291075010474802
5.56575e-06;0.0008195356586638869
5.56600e-06;0.0008099638162802612
5.56625e-06;0.0008003919738966679
5.56650e-06;0.0007908201315130745
5.56675e-06;0.0007768782251216118
5.56700e-06;0.0007619967769222603
5.56725e-06;0.0007471153287229086
5.56750e-06;0.0007280866034662778
5.56775e-06;0.0007081662344769691
5.56800e-06;0.0006882458654875929
5.56825e-06;0.0006651086835271421
5.56850e-06;0.0006412799029381377
5.56875e-06;0.0006174511223490526
5.56900e-06;0.0005904798177211788
5.56925e-06;0.000562832886212002
5.56950e-06;0.0005351859547027315
5.56975e-06;0.000504976861476601
5.57000e-06;0.00047421691635283407
5.57025e-06;0.000443456971228963
5.57050e-06;0.00041121616940919446
5.57075e-06;0.00037865699083915937
5.57100e-06;0.00034609781226901395
5.57125e-06;0.0003132722212810117
5.57150e-06;0.00027988836072887657
5.57175e-06;0.00024650450017662834
5.57200e-06;0.0002131206396244932
5.57225e-06;0.00018039744987669568
5.57250e-06;0.00014781630103294905
5.57275e-06;0.00011607928054310739
5.57300e-06;8.518332516751564e-05
5.57325e-06;5.519410144281915e-05
5.57350e-06;2.6299009328572372e-05
5.57375e-06;-1.290753899222963e-06
5.57400e-06;-2.7361642563635968e-05
5.57425e-06;-5.170013880436368e-05
5.57450e-06;-7.407023434609499e-05
5.57475e-06;-9.402713628985214e-05
5.57500e-06;-0.00011092407141404664
5.57525e-06;-0.00012433513455410041
5.57550e-06;-0.00013416990692835382
5.57575e-06;-0.00014044753022783482
5.57600e-06;-0.00014319776865867525
5.57625e-06;-0.0001424504074163406
5.57650e-06;-0.00013822114939635358
5.57675e-06;-0.00013039491135676426
5.57700e-06;-0.00011873015337248536
5.57725e-06;-0.0001031236579314484
5.57750e-06;-8.368239700956679e-05
5.57775e-06;-6.0581962557088446e-05
5.57800e-06;-3.400458199536659e-05
5.57825e-06;-4.132494303701249e-06
5.57850e-06;2.8860898585274398e-05
5.57875e-06;6.488410997981123e-05
5.57900e-06;0.00010392488453409998
5.57925e-06;0.0001458843043077229
5.57950e-06;0.00019053179434740526
5.57975e-06;0.00023759380746103594
5.58000e-06;0.00028679266142739036
5.58025e-06;0.00033848411271122827
5.58050e-06;0.0003906320359814687
5.58075e-06;0.00044540170222575324
5.58100e-06;0.0005007350300382064
5.58125e-06;0.0005560683578506595
5.58150e-06;0.0006127749330250308
5.58175e-06;0.0006697767494830996
5.58200e-06;0.0007267785659411683
5.58225e-06;0.0007837803823994302
5.58250e-06;0.0008384532959240513
5.58275e-06;0.0008926255070178794
5.58300e-06;0.000946797718111891
5.58325e-06;0.001000969929205719
5.58350e-06;0.0010497238949083818
5.58375e-06;0.00109731296507221
5.58400e-06;0.0011449020352358773
5.58425e-06;0.0011863850246609444
5.58450e-06;0.0012265552374030216
5.58475e-06;0.0012606813620192265
5.58500e-06;0.001293508038052775
5.58525e-06;0.0013263347140862122
5.58550e-06;0.001353528685739546
5.58575e-06;0.0013795116542488313
5.58600e-06;0.0014054946227580285
5.58625e-06;0.0014248715294062004
5.58650e-06;0.001442828165941886
5.58675e-06;0.0014607848024775106
5.58700e-06;0.0014731080000476703
5.58725e-06;0.0014842200365416253
5.58750e-06;0.0014953320730355427
5.58775e-06;0.0015016386440294862
5.58800e-06;0.001506912064082728
5.58825e-06;0.0015121854841359517
5.58850e-06;0.0015099478332199474
5.58875e-06;0.001506095339779822
5.58900e-06;0.0015022428463397097
5.58925e-06;0.0014983903528995844
5.58950e-06;0.001494537859459472
5.58975e-06;0.0014906853660193596
5.59000e-06;0.0014868328725792341
5.59025e-06;0.001480458735030934
5.59050e-06;0.0014688004700859857
5.59075e-06;0.0014571422051409982
5.59100e-06;0.00144548394019605
5.59125e-06;0.001433825675251102
5.59150e-06;0.0014221674103061144
5.59175e-06;0.0014105091453611661
5.59200e-06;0.001398850880416218
5.59225e-06;0.0013868354333788572
5.59250e-06;0.0013747431939861053
5.59275e-06;0.0013626509545933533
5.59300e-06;0.0013505587152005602
5.59325e-06;0.0013384664758078083
5.59350e-06;0.0013263742364150153
5.59375e-06;0.0013142819970222634
5.59400e-06;0.0013021897576295112
5.59425e-06;0.0012900975182367183
5.59450e-06;0.0012780052788439664
5.59475e-06;0.0012659130394512145
5.59500e-06;0.0012597330330239762
5.59525e-06;0.0012548241269820777
5.59550e-06;0.0012499152209401792
5.59575e-06;0.001245006314898264
5.59600e-06;0.0012400974088563655
5.59625e-06;0.001235188502814467
5.59650e-06;0.001230279596772552
5.59675e-06;0.0012253706907306534
5.59700e-06;0.0012204617846887549
5.59725e-06;0.00121555287864684
5.59750e-06;0.0012106439726049412
5.59775e-06;0.001211266250091604
5.59800e-06;0.0012130777042488642
5.59825e-06;0.0012148891584061246
5.59850e-06;0.001216700612563391
5.59875e-06;0.0012185120667206515
5.59900e-06;0.0012203235208779117
5.59925e-06;0.0012221349750351782
5.59950e-06;0.0012239464291924386
5.59975e-06;0.001225757883349699
5.60000e-06;0.0012275693375069653
5.60025e-06;0.0012293807916642257
5.60050e-06;0.001233807215657725
5.60075e-06;0.0012387958450286697
5.60100e-06;0.0012437844743995975
5.60125e-06;0.0012487731037705253
5.60150e-06;0.00125376173314147
5.60175e-06;0.0012587503625123978
5.60200e-06;0.0012637389918833423
5.60225e-06;0.0012687276212542701
5.60250e-06;0.001273716250625198
5.60275e-06;0.0012787048799961427
5.60300e-06;0.0012836935093670705
5.60325e-06;0.0012881200085040922
5.60350e-06;0.0012924256524649393
5.60375e-06;0.001296731296425772
5.60400e-06;0.0013010369403866045
5.60425e-06;0.0013053425843474516
5.60450e-06;0.0013096482283082842
5.60475e-06;0.0013139538722691168
5.60500e-06;0.0013188138504082421
5.60525e-06;0.0013248354406907633
5.60550e-06;0.0013308570309732842
5.60575e-06;0.0013368786212558258
5.60600e-06;0.0013429002115383467
5.60625e-06;0.0013489218018208882
5.60650e-06;0.0013549433921034091
5.60675e-06;0.00136096498238593
5.60700e-06;0.001371766412548103
5.60725e-06;0.0013835954842706711
5.60750e-06;0.0013954245559932392
5.60775e-06;0.0014072536277158472
5.60800e-06;0.0014190826994384153
5.60825e-06;0.0014309117711609834
5.60850e-06;0.0014427408428835913
5.60875e-06;0.0014545699146061594
5.60900e-06;0.0014663989863287273
5.60925e-06;0.0014782280580513355
5.60950e-06;0.001491528225717924
5.60975e-06;0.001507911087866467
5.61000e-06;0.0015242939500150654
5.61025e-06;0.0015406768121636084
5.61050e-06;0.001557059674312207
5.61075e-06;0.00157344253646075
5.61100e-06;0.001589825398609293
5.61125e-06;0.0016062082607578914
5.61150e-06;0.0016225911229064344
5.61175e-06;0.0016389739850549774
5.61200e-06;0.001655356847203576
5.61225e-06;0.001671059550035068
5.61250e-06;0.0016866160220305082
5.61275e-06;0.0017021724940260012
5.61300e-06;0.0017177289660214414
5.61325e-06;0.0017332854380168819
5.61350e-06;0.0017488419100123748
5.61375e-06;0.0017625284288741837
5.61400e-06;0.00177229644450759
5.61425e-06;0.0017820644601410293
5.61450e-06;0.0017918324757744356
5.61475e-06;0.001801600491407875
5.61500e-06;0.0018113685070412814
5.61525e-06;0.0018211365226746875
5.61550e-06;0.0018224424397761255
5.61575e-06;0.0018219290482068687
5.61600e-06;0.001821415656637612
5.61625e-06;0.00181480916732558
5.61650e-06;0.0018068926926107047
5.61675e-06;0.0017989762178958295
5.61700e-06;0.0017842169532162732
5.61725e-06;0.0017679865230726985
5.61750e-06;0.0017517560929291235
5.61775e-06;0.0017288723638936307
5.61800e-06;0.0017045582090228226
5.61825e-06;0.0016802440541520145
5.61850e-06;0.0016502946398205735
5.61875e-06;0.0016191336730169434
5.61900e-06;0.0015879727062132077
5.61925e-06;0.001549696641862356
5.61950e-06;0.001509890867285394
5.61975e-06;0.001470085092708297
5.62000e-06;0.001430279318131335
5.62025e-06;0.001390473543554373
5.62050e-06;0.0013506677689772762
5.62075e-06;0.0013060957493675428
5.62100e-06;0.0012604990110216218
5.62125e-06;0.0012149022726755461
5.62150e-06;0.001169305534329625
5.62175e-06;0.001123708795983704
5.62200e-06;0.0010781120576376286
5.62225e-06;0.0010335530541264327
5.62250e-06;0.0009892171583910593
5.62275e-06;0.000944881262655536
5.62300e-06;0.0009005453669201626
5.62325e-06;0.0008583671527108065
5.62350e-06;0.0008207103791047124
5.62375e-06;0.0007830536054986183
5.62400e-06;0.0007453968318923966
5.62425e-06;0.0007077400582863024
5.62450e-06;0.0006765249325091383
5.62475e-06;0.0006466947286517644
5.62500e-06;0.0006168645247944916
5.62525e-06;0.0005867907579974952
5.62550e-06;0.0005555633096241642
5.62575e-06;0.000524099083678953
5.62600e-06;0.0004926348577337417
5.62625e-06;0.000460937877021511
5.62650e-06;0.00042875315664954374
5.62675e-06;0.0003965684362775764
5.62700e-06;0.00036438371590550005
5.62725e-06;0.0003294698970215122
5.62750e-06;0.0002939693356685727
5.62775e-06;0.0002563691338616422
5.62800e-06;0.0002183175199058837
5.62825e-06;0.0001792882407647535
5.62850e-06;0.0001396824060717945
5.62875e-06;9.951436830930415e-05
5.62900e-06;5.831689437694627e-05
5.62925e-06;1.580721655217494e-05
5.62950e-06;-2.7885559597749305e-05
5.62975e-06;-7.248783330151027e-05
5.63000e-06;-0.0001177115002544155
5.63025e-06;-0.00016327649228574224
5.63050e-06;-0.0002088931667556807
5.63075e-06;-0.00025476939508370887
5.63100e-06;-0.0003007014261872295
5.63125e-06;-0.00034663345729090577
5.63150e-06;-0.00039238866182092974
5.63175e-06;-0.00043777332471217834
5.63200e-06;-0.0004831579876032732
5.63225e-06;-0.000528542650494368
5.63250e-06;-0.0005713430308400384
5.63275e-06;-0.0006135878034220429
5.63300e-06;-0.0006558325760040474
5.63325e-06;-0.0006954388937956075
5.63350e-06;-0.0007344779570630173
5.63375e-06;-0.000770555292108779
5.63400e-06;-0.000805995870467147
5.63425e-06;-0.0008375356570783127
5.63450e-06;-0.0008682367930620033
5.63475e-06;-0.0008942538697370871
5.63500e-06;-0.0009192638971941157
5.63525e-06;-0.0009392838307124092
5.63550e-06;-0.0009582309191049248
5.63575e-06;-0.0009720085230338663
5.63600e-06;-0.000984674713775493
5.63625e-06;-0.0009919831186895316
5.63650e-06;-0.0009981396265690272
5.63675e-06;-0.0009988476353191673
5.63700e-06;-0.0009983842441306351
5.63725e-06;-0.0009926806087495977
5.63750e-06;-0.0009858503471950055
5.63775e-06;-0.0009740674555526967
5.63800e-06;-0.0009612197733243848
5.63825e-06;-0.0009437014699077174
5.63850e-06;-0.0009251790064016297
5.63875e-06;-0.0009023290129725656
5.63900e-06;-0.0008785486223522534
5.63925e-06;-0.0008501428035098245
5.63950e-06;-0.000820742540838612
5.63975e-06;-0.0007913422781673001
5.64000e-06;-0.0007575484926640477
5.64025e-06;-0.0007228101218256654
5.64050e-06;-0.0006880717509874008
5.64075e-06;-0.0006503155759200939
5.64100e-06;-0.0006119105881054381
5.64125e-06;-0.0005735056002909122
5.64150e-06;-0.0005337191768832868
5.64175e-06;-0.0004936357517636123
5.64200e-06;-0.0004535523266440737
5.64225e-06;-0.0004137630080691361
5.64250e-06;-0.0003745899923430904
5.64275e-06;-0.0003354169766171774
5.64300e-06;-0.0002962439608912644
5.64325e-06;-0.00025876794674687493
5.64350e-06;-0.00022281181102474132
5.64375e-06;-0.00018847781556569467
5.64400e-06;-0.00015603180415897172
5.64425e-06;-0.0001257395778363666
5.64450e-06;-9.782741542244064e-05
5.64475e-06;-7.211908967837198e-05
5.64500e-06;-4.7936757823542915e-05
5.64525e-06;-2.478308582727152e-05
5.64550e-06;-2.6312623760825802e-06
5.64575e-06;1.837693995782701e-05
5.64600e-06;3.808259709783902e-05
5.64625e-06;5.632681947180785e-05
