Time(s);Current(A)
9.75000e-06;0.007619513456573186
9.75025e-06;0.00762722677657302
9.75050e-06;0.0076349400965728545
9.75075e-06;0.007642653416572636
9.75100e-06;0.00765036673657247
9.75125e-06;0.007658080056572304
9.75150e-06;0.007665793376572138
9.75175e-06;0.00767350669657192
9.75200e-06;0.007681220016571754
9.75225e-06;0.007688933336571588
9.75250e-06;0.00769664665657137
9.75275e-06;0.007704359976571204
9.75300e-06;0.0077120732965710375
9.75325e-06;0.00771978661657082
9.75350e-06;0.007727499936570654
9.75375e-06;0.007735213256570487
9.75400e-06;0.00774292657657027
9.75425e-06;0.007750639896570104
9.75450e-06;0.007752296539278533
9.75475e-06;0.007751122700305495
9.75500e-06;0.0077499488613324485
9.75525e-06;0.007748775022359402
9.75550e-06;0.007747601183386364
9.75575e-06;0.0077464273444133175
9.75600e-06;0.007745253505440271
9.75625e-06;0.007744079666467233
9.75650e-06;0.0077429058274941865
9.75675e-06;0.007741731988521141
9.75700e-06;0.007740558149548102
9.75725e-06;0.007739384310575056
9.75750e-06;0.00773821047160201
9.75775e-06;0.007737036632628971
9.75800e-06;0.007735862793655925
9.75825e-06;0.007734688954682879
9.75850e-06;0.007733515115709841
9.75875e-06;0.007730645262064962
9.75900e-06;0.007720127444094009
9.75925e-06;0.0077096096261231265
9.75950e-06;0.007699091808152174
9.75975e-06;0.00768857399018122
9.76000e-06;0.007678056172210266
9.76025e-06;0.007667538354239384
9.76050e-06;0.00765702053626843
9.76075e-06;0.007646502718297477
9.76100e-06;0.007635984900326595
9.76125e-06;0.007610838344942434
9.76150e-06;0.0075788553062377875
9.76175e-06;0.007546872267533358
9.76200e-06;0.0075148892288287115
9.76225e-06;0.007482906190124066
9.76250e-06;0.007450923151419636
9.76275e-06;0.00741894011271499
9.76300e-06;0.007386957074010343
9.76325e-06;0.007354974035305914
9.76350e-06;0.00731995234687291
9.76375e-06;0.007271228250604494
9.76400e-06;0.0072225041543364085
9.76425e-06;0.007173780058067993
9.76450e-06;0.007125055961799578
9.76475e-06;0.007076331865531493
9.76500e-06;0.007027607769263077
9.76525e-06;0.006978883672994662
9.76550e-06;0.006930159576726576
9.76575e-06;0.006881435480458161
9.76600e-06;0.006833037747575998
9.76625e-06;0.006786111709236581
9.76650e-06;0.006739185670896848
9.76675e-06;0.006692259632557113
9.76700e-06;0.006645333594217697
9.76725e-06;0.006598407555877963
9.76750e-06;0.006551481517538229
9.76775e-06;0.006504555479198813
9.76800e-06;0.006457629440859079
9.76825e-06;0.0064107034025193445
9.76850e-06;0.006368688239402702
9.76875e-06;0.006348818048944947
9.76900e-06;0.006328947858487059
9.76925e-06;0.00630907766802917
9.76950e-06;0.006289207477571416
9.76975e-06;0.006269337287113527
9.77000e-06;0.006249467096655638
9.77025e-06;0.0062295969061978845
9.77050e-06;0.0062097267157399955
9.77075e-06;0.0061898565252821065
9.77100e-06;0.006169986334824353
9.77125e-06;0.006156519180655564
9.77150e-06;0.006171925711344693
9.77175e-06;0.006187332242033717
9.77200e-06;0.006202738772722846
9.77225e-06;0.006218145303411974
9.77250e-06;0.006233551834100998
9.77275e-06;0.006248958364790127
9.77300e-06;0.006264364895479255
9.77325e-06;0.006279771426168279
9.77350e-06;0.0062951779568574074
9.77375e-06;0.006310584487546535
9.77400e-06;0.006329522536744412
9.77425e-06;0.006364385523409539
9.77450e-06;0.006399248510074666
9.77475e-06;0.006434111496739557
9.77500e-06;0.006468974483404684
9.77525e-06;0.006503837470069811
9.77550e-06;0.006538700456734703
9.77575e-06;0.006575986316961622
9.77600e-06;0.006614514810568018
9.77625e-06;0.006653043304174153
9.77650e-06;0.006691571797780549
9.77675e-06;0.006730100291386945
9.77700e-06;0.006768628784993342
9.77725e-06;0.006801701878844274
9.77750e-06;0.00466171863229416
9.77775e-06;-0.0014595002184160854
9.77800e-06;-0.003525779753494258
9.77825e-06;-0.0024535303870911697
9.77850e-06;0.00027369443762780476
9.77875e-06;0.004642226835645769
9.77900e-06;0.006768108301472798
9.77925e-06;0.0067912867124053115
9.77950e-06;0.005068505129782358
9.77975e-06;0.0016573667286685968
9.78000e-06;0.0003055557670479077
9.78025e-06;0.0009870696271479114
9.78050e-06;0.0027221678296161563
9.78075e-06;0.005452997714348808
9.78100e-06;0.006837165111281922
9.78125e-06;0.006836269897283667
9.78150e-06;0.005733052571302914
9.78175e-06;0.0036437014842171885
9.78200e-06;0.0026888448326649107
9.78225e-06;0.003079673632174141
9.78250e-06;0.004241119931806208
9.78275e-06;0.006280317627525426
9.78300e-06;0.007372745676451764
9.78325e-06;0.0073605390226827725
9.78350e-06;0.006498952638149822
9.78375e-06;0.005042342710873721
9.78400e-06;0.004312731238938191
9.78425e-06;0.004510068680256954
9.78450e-06;0.005289674985252101
9.78475e-06;0.006446452859594512
9.78500e-06;0.007083654458678948
9.78525e-06;0.007048261739127259
9.78550e-06;0.006481368471758192
9.78575e-06;0.0055425174015209695
9.78600e-06;0.005059987661551472
9.78625e-06;0.005159148114507584
9.78650e-06;0.005624215010931199
9.78675e-06;0.0063268526168476485
9.78700e-06;0.006705506397093941
9.78725e-06;0.00666452263172841
9.78750e-06;0.00629247684166008
9.78775e-06;0.00568949140039173
9.78800e-06;0.0053745552835271345
9.78825e-06;0.0054263280661445215
9.78850e-06;0.0057097721437805275
9.78875e-06;0.0061446218550217
9.78900e-06;0.006378925169229857
9.78925e-06;0.006352037721660555
9.78950e-06;0.006118739509713541
9.78975e-06;0.005741475116677464
9.79000e-06;0.005545273031763226
9.79025e-06;0.005579352466407452
9.79050e-06;0.005759075175527546
9.79075e-06;0.006034117420244148
9.79100e-06;0.0061839841418654135
9.79125e-06;0.00617066578039835
9.79150e-06;0.006028454424666087
9.79175e-06;0.005796440321560485
9.79200e-06;0.005678184066596501
9.79225e-06;0.0057044690127890305
9.79250e-06;0.005822231429973733
9.79275e-06;0.005999905511274303
9.79300e-06;0.006099337910956967
9.79325e-06;0.006096691792887138
9.79350e-06;0.00601341934352166
9.79375e-06;0.005873976792177324
9.79400e-06;0.005805836632022546
9.79425e-06;0.005828237403271769
9.79450e-06;0.0059078970806564655
9.79475e-06;0.006025001201146365
9.79500e-06;0.006092974700054267
9.79525e-06;0.006096854667408588
9.79550e-06;0.0060500467575320465
9.79575e-06;0.005967836858516799
9.79600e-06;0.005930036761380142
9.79625e-06;0.005948655671907535
9.79650e-06;0.006011201136214178
9.79675e-06;0.0060821960889080005
9.79700e-06;0.00612606889941672
9.79725e-06;0.006131510942089107
9.79750e-06;0.006096484709247086
9.79775e-06;0.006053114413930958
9.79800e-06;0.006033019963683247
9.79825e-06;0.006045548898361049
9.79850e-06;0.006084696050480855
9.79875e-06;0.0061289364339120215
9.79900e-06;0.006155678655123759
9.79925e-06;0.006158633229086398
9.79950e-06;0.006143015219866357
9.79975e-06;0.006123890045135297
9.80000e-06;0.006104764870404238
9.80025e-06;0.006113781951598956
9.80050e-06;0.006140269539313676
9.80075e-06;0.006169390754458535
9.80100e-06;0.006198511969603197
9.80125e-06;0.006209570143722662
9.80150e-06;0.006208526570264756
9.80175e-06;0.00620556356749363
9.80200e-06;0.006202600564722485
9.80225e-06;0.006218164352742474
9.80250e-06;0.006245551851373459
9.80275e-06;0.006274756264668119
9.80300e-06;0.006303960677962977
9.80325e-06;0.006322322750080079
9.80350e-06;0.006333454101678743
9.80375e-06;0.006343441915409801
9.80400e-06;0.006353429729140858
9.80425e-06;0.006375073729101224
9.80450e-06;0.006403938872113339
9.80475e-06;0.006433890982215185
9.80500e-06;0.006463843092316829
9.80525e-06;0.006486629540461941
9.80550e-06;0.006504170184629133
9.80575e-06;0.006520834649897473
9.80600e-06;0.006537499115165926
9.80625e-06;0.0065606686642923585
9.80650e-06;0.006587111518107312
9.80675e-06;0.0066139658941054905
9.80700e-06;0.00664082027010367
9.80725e-06;0.006660534466935635
9.80750e-06;0.0066784077112957245
9.80775e-06;0.006695333197409275
9.80800e-06;0.006712014323003697
9.80825e-06;0.006728695448598232
9.80850e-06;0.006745376574192767
9.80875e-06;0.006759503694861655
9.80900e-06;0.0067675277632039815
9.80925e-06;0.006775551831546309
9.80950e-06;0.006783575899888581
9.80975e-06;0.006791599968230908
9.81000e-06;0.006785946470667502
9.81025e-06;0.006776766486137734
9.81050e-06;0.006767586501607904
9.81075e-06;0.006758406517078075
9.81100e-06;0.006749226532548245
9.81125e-06;0.006740046548018477
9.81150e-06;0.0067308665634886475
9.81175e-06;0.0067149410678682495
9.81200e-06;0.006682896493250098
9.81225e-06;0.00665085191863173
9.81250e-06;0.006618807344013361
9.81275e-06;0.00658676276939521
9.81300e-06;0.0065547181947768415
9.81325e-06;0.006522673620158473
9.81350e-06;0.006490629045540321
9.81375e-06;0.00644490610700821
9.81400e-06;0.006395656475758967
9.81425e-06;0.006346406844510059
9.81450e-06;0.006297157213260816
9.81475e-06;0.006247907582011574
9.81500e-06;0.006198657950762665
9.81525e-06;0.006149408319513423
9.81550e-06;0.0061001586882641805
9.81575e-06;0.006050909057015272
9.81600e-06;0.006000436416361493
9.81625e-06;0.005949648447179557
9.81650e-06;0.005898860477997967
9.81675e-06;0.005848072508816032
9.81700e-06;0.005797284539634097
9.81725e-06;0.005746496570452506
9.81750e-06;0.005695708601270571
9.81775e-06;0.005644920632088636
9.81800e-06;0.005594132662907045
9.81825e-06;0.005562951469443752
9.81850e-06;0.005536825491179196
9.81875e-06;0.005510699512914816
9.81900e-06;0.0054845735346502585
9.81925e-06;0.005458447556385702
9.81950e-06;0.005432321578121145
9.81975e-06;0.005406195599856765
9.82000e-06;0.005380069621592209
9.82025e-06;0.0053539436433276515
9.82050e-06;0.005327817665063272
9.82075e-06;0.005301691686798715
9.82100e-06;0.005275565708534158
9.82125e-06;0.0052494397302697785
9.82150e-06;0.0052323583224049
9.82175e-06;0.005236889827612125
9.82200e-06;0.005241421332819319
9.82225e-06;0.005245952838026545
9.82250e-06;0.00525048434323377
9.82275e-06;0.005255015848440965
9.82300e-06;0.00525954735364819
9.82325e-06;0.005264078858855415
9.82350e-06;0.00526861036406261
9.82375e-06;0.005273141869269835
9.82400e-06;0.0052776733744770606
9.82425e-06;0.005282204879684255
9.82450e-06;0.00528673638489148
9.82475e-06;0.005291267890098705
9.82500e-06;0.005305997111070357
9.82525e-06;0.005323355609210171
9.82550e-06;0.005340714107349986
9.82575e-06;0.005358072605489684
9.82600e-06;0.005375431103629498
9.82625e-06;0.0053927896017693135
9.82650e-06;0.005410148099909011
9.82675e-06;0.005427506598048825
9.82700e-06;0.0054448650961886405
9.82725e-06;0.005462223594328338
9.82750e-06;0.005479582092468152
9.82775e-06;0.005492776535490945
9.82800e-06;0.005504897360136812
9.82825e-06;0.005517018184782596
9.82850e-06;0.005529139009428462
9.82875e-06;0.005541259834074328
9.82900e-06;0.0055533806587201116
9.82925e-06;0.005565501483365978
9.82950e-06;0.005577622308011843
9.82975e-06;0.005589743132657627
9.83000e-06;0.005601863957303494
9.83025e-06;0.00561398478194936
9.83050e-06;0.005619138470169731
9.83075e-06;0.00562249582152818
9.83100e-06;0.005625853172886629
9.83125e-06;0.005629210524245054
9.83150e-06;0.0056325678756035035
9.83175e-06;0.005635925226961953
9.83200e-06;0.005639282578320378
9.83225e-06;0.0056426399296788275
9.83250e-06;0.005645997281037277
9.83275e-06;0.005649354632395702
9.83300e-06;0.005652711983754151
9.83325e-06;0.0056560693351126
9.83350e-06;0.005659426686471026
9.83375e-06;0.0056627840378294745
9.83400e-06;0.005666141389187924
9.83425e-06;0.00566949874054635
9.83450e-06;0.0056728560919047984
9.83475e-06;0.0056762134432632476
9.83500e-06;0.005679570794621673
9.83525e-06;0.005682928145980122
9.83550e-06;0.0056862854973385715
9.83575e-06;0.005687067262253916
9.83600e-06;0.00568718496368787
9.83625e-06;0.005687302665121823
9.83650e-06;0.005687420366555777
9.83675e-06;0.00568753806798973
9.83700e-06;0.005687655769423684
9.83725e-06;0.005687773470857638
9.83750e-06;0.005687891172291591
9.83775e-06;0.005688008873725545
9.83800e-06;0.005688126575159499
9.83825e-06;0.0056882442765934516
9.83850e-06;0.005688361978027406
9.83875e-06;0.005688479679461359
9.83900e-06;0.005688597380895313
9.83925e-06;0.005688715082329266
9.83950e-06;0.0056888327837632206
9.83975e-06;0.005688950485197173
9.84000e-06;0.0056890681866311275
9.84025e-06;0.005689185888065081
9.84050e-06;0.005689303589499034
9.84075e-06;0.005689421290932988
9.84100e-06;0.00569475593442716
9.84125e-06;0.005701435662151219
9.84150e-06;0.005708115389875324
9.84175e-06;0.0057147951175994275
9.84200e-06;0.005721474845323486
9.84225e-06;0.00572815457304759
9.84250e-06;0.005734834300771695
9.84275e-06;0.005741514028495754
9.84300e-06;0.005748193756219858
9.84325e-06;0.005754873483943963
9.84350e-06;0.005761553211668022
9.84375e-06;0.005768232939392126
9.84400e-06;0.0057749126671162295
9.84425e-06;0.005781592394840288
9.84450e-06;0.005788272122564393
9.84475e-06;0.005794951850288497
9.84500e-06;0.005802226680539965
9.84525e-06;0.005810923568294939
9.84550e-06;0.005819620456049971
9.84575e-06;0.005828317343805005
9.84600e-06;0.005837014231559978
9.84625e-06;0.005845711119315011
9.84650e-06;0.0058544080070700435
9.84675e-06;0.005863104894825018
9.84700e-06;0.0058718017825800505
9.84725e-06;0.005880498670335083
9.84750e-06;0.005889195558090057
9.84775e-06;0.00589789244584509
9.84800e-06;0.005906589333600123
9.84825e-06;0.005915286221355096
9.84850e-06;0.005923983109110129
9.84875e-06;0.005932679996865161
9.84900e-06;0.005941376884620136
9.84925e-06;0.005953738632920153
9.84950e-06;0.005967045292256045
9.84975e-06;0.005980351951591845
9.85000e-06;0.005993658610927737
9.85025e-06;0.006006965270263629
9.85050e-06;0.00602027192959943
9.85075e-06;0.006033578588935321
9.85100e-06;0.006046885248271213
9.85125e-06;0.006060191907607014
9.85150e-06;0.006073498566942905
9.85175e-06;0.006086805226278797
9.85200e-06;0.006100111885614598
9.85225e-06;0.006125030707032049
9.85250e-06;0.006152943492331172
9.85275e-06;0.006180856277630105
9.85300e-06;0.006208769062929227
9.85325e-06;0.0062366818482283495
9.85350e-06;0.006264594633527472
9.85375e-06;0.006292507418826405
9.85400e-06;0.0063204202041255274
9.85425e-06;0.00634833298942465
9.85450e-06;0.006376245774723583
9.85475e-06;0.006404158560022705
9.85500e-06;0.006432071345321828
9.85525e-06;0.006463216644746537
9.85550e-06;0.0064951953833254205
9.85575e-06;0.006527174121904304
9.85600e-06;0.00655915286048297
9.85625e-06;0.006591131599061853
9.85650e-06;0.006623110337640736
9.85675e-06;0.006655089076219403
9.85700e-06;0.006687067814798286
9.85725e-06;0.006719046553377169
9.85750e-06;0.006751025291955835
9.85775e-06;0.0067830040305347184
9.85800e-06;0.006802393474116473
9.85825e-06;0.006818537019624758
9.85850e-06;0.006834680565133153
9.85875e-06;0.006850824110641547
9.85900e-06;0.006866967656149832
9.85925e-06;0.006883111201658227
9.85950e-06;0.006899254747166622
9.85975e-06;0.006915398292674907
9.86000e-06;0.006931541838183302
9.86025e-06;0.006947685383691697
9.86050e-06;0.006963828929199982
9.86075e-06;0.006956320592836488
9.86100e-06;0.006942714091498197
9.86125e-06;0.0069291075901599984
9.86150e-06;0.006915501088821708
9.86175e-06;0.006901894587483417
9.86200e-06;0.006888288086145219
9.86225e-06;0.006874681584806928
9.86250e-06;0.006861075083468638
9.86275e-06;0.006847468582130347
9.86300e-06;0.006833862080792149
9.86325e-06;0.006820255579453858
9.86350e-06;0.006800373312951638
9.86375e-06;0.006765494472686788
9.86400e-06;0.0067306156324217
9.86425e-06;0.006695736792156613
9.86450e-06;0.006660857951891762
9.86475e-06;0.006625979111626675
9.86500e-06;0.006591100271361588
9.86525e-06;0.0065562214310967365
9.86550e-06;0.006521342590831649
9.86575e-06;0.006486463750566562
9.86600e-06;0.0064515849103017105
9.86625e-06;0.0064167060700366235
9.86650e-06;0.006381912199233211
9.86675e-06;0.006347140236107316
9.86700e-06;0.006312368272981187
9.86725e-06;0.006277596309855057
9.86750e-06;0.006242824346729164
9.86775e-06;0.006208052383603034
9.86800e-06;0.006173280420476905
9.86825e-06;0.00613850845735101
9.86850e-06;0.006103736494224881
9.86875e-06;0.006079048476455147
9.86900e-06;0.006056960402433428
9.86925e-06;0.0060348723284115585
9.86950e-06;0.006012784254389689
9.86975e-06;0.00599069618036797
9.87000e-06;0.005968608106346101
9.87025e-06;0.005946520032324231
9.87050e-06;0.005924431958302512
9.87075e-06;0.005902343884280643
9.87100e-06;0.005890489794069367
9.87125e-06;0.005881274332022667
9.87150e-06;0.005872058869976029
9.87175e-06;0.005862843407929328
9.87200e-06;0.005853627945882628
9.87225e-06;0.00584441248383599
9.87250e-06;0.005835197021789289
9.87275e-06;0.005825981559742588
9.87300e-06;0.00581676609769595
9.87325e-06;0.00580755063564925
9.87350e-06;0.005798335173602549
9.87375e-06;0.005789119711555911
9.87400e-06;0.005779904249509211
9.87425e-06;0.00577068878746251
9.87450e-06;0.005761473325415872
9.87475e-06;0.0057522578633691715
9.87500e-06;0.005743042401322471
9.87525e-06;0.0057338269392758325
9.87550e-06;0.005726517055568807
9.87575e-06;0.005723760743482032
9.87600e-06;0.0057210044313952746
9.87625e-06;0.005718248119308499
9.87650e-06;0.005715491807221724
9.87675e-06;0.005712735495134967
9.87700e-06;0.005709979183048192
9.87725e-06;0.005707222870961416
9.87750e-06;0.005704466558874659
9.87775e-06;0.005701710246787884
9.87800e-06;0.005698953934701108
9.87825e-06;0.005696197622614352
9.87850e-06;0.0056934413105275755
9.87875e-06;0.0056906849984408
9.87900e-06;0.005687928686354043
9.87925e-06;0.005685172374267268
9.87950e-06;0.0056824160621804926
9.87975e-06;0.005679659750093717
9.88000e-06;0.00567690343800696
9.88025e-06;0.005672044097383363
9.88050e-06;0.005666642532887457
9.88075e-06;0.005661240968391587
9.88100e-06;0.005655839403895681
9.88125e-06;0.005650437839399775
9.88150e-06;0.005645036274903905
9.88175e-06;0.005639634710407999
9.88200e-06;0.005634233145912093
9.88225e-06;0.005628831581416223
9.88250e-06;0.005623430016920317
9.88275e-06;0.005618028452424411
9.88300e-06;0.005612626887928541
9.88325e-06;0.005607225323432635
9.88350e-06;0.005601823758936729
9.88375e-06;0.0055964221944408594
9.88400e-06;0.005591020629944953
9.88425e-06;0.005585619065449047
9.88450e-06;0.005579737536626005
9.88475e-06;0.00557270908463833
9.88500e-06;0.005565680632650655
9.88525e-06;0.005558652180663027
9.88550e-06;0.005551623728675352
9.88575e-06;0.0055445952766876765
9.88600e-06;0.005537566824700049
9.88625e-06;0.005530538372712374
9.88650e-06;0.005523509920724698
9.88675e-06;0.005516481468737071
9.88700e-06;0.005509453016749395
9.88725e-06;0.005502424564761721
9.88750e-06;0.005495396112774093
9.88775e-06;0.005488367660786418
9.88800e-06;0.005481339208798742
9.88825e-06;0.0054743107568110665
9.88850e-06;0.0054672823048234395
9.88875e-06;0.005460253852835764
9.88900e-06;0.005463588200150172
9.88925e-06;0.005469594388131222
9.88950e-06;0.005475600576112313
9.88975e-06;0.005481606764093404
9.89000e-06;0.005487612952074454
9.89025e-06;0.005493619140055545
9.89050e-06;0.005499625328036636
9.89075e-06;0.005505631516017687
9.89100e-06;0.005511637703998778
9.89125e-06;0.005517643891979869
9.89150e-06;0.005530904483538427
9.89175e-06;0.005561500204062326
9.89200e-06;0.005592095924586225
9.89225e-06;0.005622691645109918
9.89250e-06;0.0056532873656338165
9.89275e-06;0.005683883086157716
9.89300e-06;0.005714478806681408
9.89325e-06;0.005745074527205307
9.89350e-06;0.005775670247729207
9.89375e-06;0.0058062659682528986
9.89400e-06;0.005836861688776798
9.89425e-06;0.005879191306224544
9.89450e-06;0.005924546274455211
9.89475e-06;0.005969901242686187
9.89500e-06;0.006015256210917162
9.89525e-06;0.00606061117914783
9.89550e-06;0.006105966147378805
9.89575e-06;0.006151321115609781
9.89600e-06;0.006196676083840448
9.89625e-06;0.006242031052071424
9.89650e-06;0.006285821833062627
9.89675e-06;0.006325874830893294
9.89700e-06;0.00636592782872369
9.89725e-06;0.0064059808265543566
9.89750e-06;0.006446033824385024
9.89775e-06;0.006486086822215419
9.89800e-06;0.006526139820046086
9.89825e-06;0.0065661928178767535
9.89850e-06;0.006606245815707149
9.89875e-06;0.006646298813537816
9.89900e-06;0.0066674680333932215
9.89925e-06;0.006683768448547672
9.89950e-06;0.006700068863702232
9.89975e-06;0.0067163692788567925
9.90000e-06;0.006732669694011242
9.90025e-06;0.006748970109165802
9.90050e-06;0.006765270524320363
9.90075e-06;0.006781570939474813
