Time(s);Current(A)
6.25000e-06;-0.004764863858041311
6.25025e-06;-0.0047134766903214
6.25050e-06;-0.00466710567366985
6.25075e-06;-0.004623514458970208
6.25100e-06;-0.004587016703373049
6.25125e-06;-0.004550518947776014
6.25150e-06;-0.0045173369127468905
6.25175e-06;-0.004492615886326213
6.25200e-06;-0.00446789485990562
6.25225e-06;-0.0044481921275249265
6.25250e-06;-0.004441295006534365
6.25275e-06;-0.004434397885543825
6.25300e-06;-0.004427500764553287
6.25325e-06;-0.004420603643562725
6.25350e-06;-0.004413706522572187
6.25375e-06;-0.00442320389807621
6.25400e-06;-0.004437283717424979
6.25425e-06;-0.0044513635367737
6.25450e-06;-0.004465443356122421
6.25475e-06;-0.00447952317547119
6.25500e-06;-0.004497070731089432
6.25525e-06;-0.004523467206821848
6.25550e-06;-0.0045513284670455215
6.25575e-06;-0.004582927543510294
6.25600e-06;-0.0046157837977319595
6.25625e-06;-0.004651848100280726
6.25650e-06;-0.004688952665308501
6.25675e-06;-0.004728711757341545
6.25700e-06;-0.004769062138526939
6.25725e-06;-0.004811197472711756
6.25750e-06;-0.004854239152328441
6.25775e-06;-0.004897925114020435
6.25800e-06;-0.004941998837182254
6.25825e-06;-0.0049862050083223615
6.25850e-06;-0.005030286799437547
6.25875e-06;-0.005073974014136504
6.25900e-06;-0.00511695704666138
6.25925e-06;-0.005158894874685574
6.25950e-06;-0.005199458953685662
6.25975e-06;-0.00523769600181782
6.26000e-06;-0.0052729189320306355
6.26025e-06;-0.0053081418622435705
6.26050e-06;-0.00534122776070781
6.26075e-06;-0.00536886041193751
6.26100e-06;-0.005396493063167303
6.26125e-06;-0.005422205838287639
6.26150e-06;-0.005443019500846433
6.26175e-06;-0.005463833163405298
6.26200e-06;-0.005484646825964092
6.26225e-06;-0.005503087006666366
6.26250e-06;-0.005515470570110426
6.26275e-06;-0.005527854133554444
6.26300e-06;-0.005540237696998462
6.26325e-06;-0.0055497447075461516
6.26350e-06;-0.0055519113713083336
6.26375e-06;-0.0055540780350705225
6.26400e-06;-0.0055562446988327045
6.26425e-06;-0.0055584113625948865
6.26450e-06;-0.005560578026357075
6.26475e-06;-0.005562744690119257
6.26500e-06;-0.005564911353881439
6.26525e-06;-0.00556425010516303
6.26550e-06;-0.005556372629580967
6.26575e-06;-0.0055484951539989035
6.26600e-06;-0.0055406176784168135
6.26625e-06;-0.00553274020283475
6.26650e-06;-0.005524862727252687
6.26675e-06;-0.005516985251670598
6.26700e-06;-0.005509107776088535
6.26725e-06;-0.005500066866692359
6.26750e-06;-0.005488057123429893
6.26775e-06;-0.005476047380167468
6.26800e-06;-0.005464037636905003
6.26825e-06;-0.005452027893642578
6.26850e-06;-0.005440018150380154
6.26875e-06;-0.005427995768582201
6.26900e-06;-0.005415969854173261
6.26925e-06;-0.005403943939764321
6.26950e-06;-0.00539191802535534
6.26975e-06;-0.0053798921109464
6.27000e-06;-0.005368359740027089
6.27025e-06;-0.005358086786367758
6.27050e-06;-0.005348086140373649
6.27075e-06;-0.005338704061375091
6.27100e-06;-0.0053281334204707785
6.27125e-06;-0.005315026685047571
6.27150e-06;-0.005299919639835047
6.27175e-06;-0.005279708232541102
6.27200e-06;-0.005259496825247226
6.27225e-06;-0.00523730322267639
6.27250e-06;-0.0052100514823797085
6.27275e-06;-0.005182799742083027
6.27300e-06;-0.005151953523124785
6.27325e-06;-0.005111934964622588
6.27350e-06;-0.00507191640612039
6.27375e-06;-0.005031897847618058
6.27400e-06;-0.00499187928911586
6.27425e-06;-0.004947840855898054
6.27450e-06;-0.004893544563533273
6.27475e-06;-0.004839248271168675
6.27500e-06;-0.004784951978804078
6.27525e-06;-0.004730655686439297
6.27550e-06;-0.004673583839964029
6.27575e-06;-0.004609429373970784
6.27600e-06;-0.004545274907977321
6.27625e-06;-0.004479929822495863
6.27650e-06;-0.004411546531131914
6.27675e-06;-0.004343163239768198
6.27700e-06;-0.004274151162866506
6.27725e-06;-0.004203534559968623
6.27750e-06;-0.004132692061015527
6.27775e-06;-0.004061273123719852
6.27800e-06;-0.003989980703947738
6.27825e-06;-0.003919255577383053
6.27850e-06;-0.003849514967525457
6.27875e-06;-0.0037811329118294873
6.27900e-06;-0.003714347273429754
6.27925e-06;-0.003649336232735599
6.27950e-06;-0.0035864086648210195
6.27975e-06;-0.003525994754677285
6.28000e-06;-0.0034685451968771716
6.28025e-06;-0.0034145104531628557
6.28050e-06;-0.003364333541603079
6.28075e-06;-0.0033183622808622723
6.28100e-06;-0.003276651923562397
6.28125e-06;-0.0032396050461660246
6.28150e-06;-0.003206900024143786
6.28175e-06;-0.0031765731054740187
6.28200e-06;-0.003152314597127044
6.28225e-06;-0.003130583391036105
6.28250e-06;-0.0031153013189092397
6.28275e-06;-0.0031031384172438043
6.28300e-06;-0.0030989349704134772
6.28325e-06;-0.003094731523583165
6.28350e-06;-0.003093907427552153
6.28375e-06;-0.0031017067108430824
6.28400e-06;-0.003109505994133985
6.28425e-06;-0.0031204871385212504
6.28450e-06;-0.0031395877108143185
6.28475e-06;-0.0031586882831073216
6.28500e-06;-0.0031801162315626443
6.28525e-06;-0.00320748314541772
6.28550e-06;-0.0032363844284029834
6.28575e-06;-0.003269201092718855
6.28600e-06;-0.003303338816308598
6.28625e-06;-0.0033408476001705926
6.28650e-06;-0.003379213556644887
6.28675e-06;-0.0034202468795094896
6.28700e-06;-0.003462887809239539
6.28725e-06;-0.0035067955381952874
6.28750e-06;-0.003551657092006831
6.28775e-06;-0.003597199749082683
6.28800e-06;-0.003643158511979241
6.28825e-06;-0.00368926875397876
6.28850e-06;-0.003735264661618342
6.28875e-06;-0.0037808660539467597
6.28900e-06;-0.0038257470836002435
6.28925e-06;-0.0038695475208367245
6.28950e-06;-0.003911923601218931
6.28975e-06;-0.003952236273467012
6.29000e-06;-0.003990315958067375
6.29025e-06;-0.004026938069018725
6.29050e-06;-0.004059840764257315
6.29075e-06;-0.00409071734362733
6.29100e-06;-0.004116423709331867
6.29125e-06;-0.004142130075036403
6.29150e-06;-0.004164388870993154
6.29175e-06;-0.004177850207486642
6.29200e-06;-0.00419131154398013
6.29225e-06;-0.0042047728804736634
6.29250e-06;-0.004218234216967151
6.29275e-06;-0.004231695553460639
6.29300e-06;-0.004232662539636782
6.29325e-06;-0.004230137216142867
6.29350e-06;-0.0042276118926489435
6.29375e-06;-0.004225086569155028
6.29400e-06;-0.0042225612456611135
6.29425e-06;-0.0042158645066038645
6.29450e-06;-0.0041985232086243305
6.29475e-06;-0.004181181910644797
6.29500e-06;-0.004163840612665204
6.29525e-06;-0.004146499314685671
6.29550e-06;-0.004129158016706137
6.29575e-06;-0.004111816718726544
6.29600e-06;-0.0040860802926321795
6.29625e-06;-0.004057997334997614
6.29650e-06;-0.004029914377362952
6.29675e-06;-0.004001831419728386
6.29700e-06;-0.003973748462093819
6.29725e-06;-0.003945665504459158
6.29750e-06;-0.003916570803314263
6.29775e-06;-0.0038848943494655826
6.29800e-06;-0.0038532178956167955
6.29825e-06;-0.003821555382731883
6.29850e-06;-0.00378992844419998
6.29875e-06;-0.0037583015056681835
6.29900e-06;-0.003727075009302541
6.29925e-06;-0.0036968703555625097
6.29950e-06;-0.003667285047711351
6.29975e-06;-0.0036392801778926637
6.30000e-06;-0.003612130087997327
6.30025e-06;-0.0035871612133565644
6.30050e-06;-0.003563311199387865
6.30075e-06;-0.0035423162781729155
6.30100e-06;-0.0035228548738980557
6.30125e-06;-0.003507306676345494
6.30150e-06;-0.0034939016943873777
6.30175e-06;-0.00348596573950865
6.30200e-06;-0.0034780297846299223
6.30225e-06;-0.0034726747872378147
6.30250e-06;-0.003473905840461027
6.30275e-06;-0.003475136893684244
6.30300e-06;-0.0034799653885718177
6.30325e-06;-0.003493973783945639
6.30350e-06;-0.003507982179319508
6.30375e-06;-0.003521990574693329
6.30400e-06;-0.00353599897006715
6.30425e-06;-0.0035539793732696293
6.30450e-06;-0.0035820954895698543
6.30475e-06;-0.0036102116058700797
6.30500e-06;-0.0036383277221704
6.30525e-06;-0.0036664438384706255
6.30550e-06;-0.0036968768446196056
6.30575e-06;-0.0037332220573400633
6.30600e-06;-0.0037705661357442634
6.30625e-06;-0.003810459105397274
6.30650e-06;-0.003850947231837551
6.30675e-06;-0.003893279476597799
6.30700e-06;-0.003936722785444654
6.30725e-06;-0.003981103552873463
6.30750e-06;-0.00402619568476079
6.30775e-06;-0.004071732994693329
6.30800e-06;-0.004117442867368892
6.30825e-06;-0.0041630529632771165
6.30850e-06;-0.004208291119198688
6.30875e-06;-0.004252894213796382
6.30900e-06;-0.004296618448452777
6.30925e-06;-0.004339220490446094
6.30950e-06;-0.004380423800417604
6.30975e-06;-0.004419927850546094
6.31000e-06;-0.0044574278361373025
6.31025e-06;-0.004492618414492745
6.31050e-06;-0.00452518933321967
6.31075e-06;-0.004554226258548557
6.31100e-06;-0.004579474180715739
6.31125e-06;-0.004602399686905885
6.31150e-06;-0.004619398885029697
6.31175e-06;-0.004633410324847465
6.31200e-06;-0.004639797645505058
6.31225e-06;-0.0046461849661626285
6.31250e-06;-0.004647643705995771
6.31275e-06;-0.0046365257633644895
6.31300e-06;-0.004625407820733244
6.31325e-06;-0.004614289878102
6.31350e-06;-0.004603171935470718
6.31375e-06;-0.004586164280892585
6.31400e-06;-0.0045541273431193565
6.31425e-06;-0.00452209040534602
6.31450e-06;-0.004490053467572793
6.31475e-06;-0.004458016529799565
6.31500e-06;-0.004421977897373422
6.31525e-06;-0.0043757277974363
6.31550e-06;-0.004329477697499023
6.31575e-06;-0.00428090391422427
6.31600e-06;-0.004226400588851336
6.31625e-06;-0.004171897263478217
6.31650e-06;-0.004116003163086236
6.31675e-06;-0.0040565601027775415
6.31700e-06;-0.003996346399975994
6.31725e-06;-0.003934166182620504
6.31750e-06;-0.0038715769465653797
6.31775e-06;-0.003807943982408596
6.31800e-06;-0.0037442626072720325
6.31825e-06;-0.0036805638281883256
6.31850e-06;-0.003617344789210502
6.31875e-06;-0.003554964079029241
6.31900e-06;-0.0034937601859913116
6.31925e-06;-0.003434073709487888
6.31950e-06;-0.0033762846334608027
6.31975e-06;-0.0033208026471316238
6.32000e-06;-0.003268041890662664
6.32025e-06;-0.003218416336938149
6.32050e-06;-0.003172352741700981
6.32075e-06;-0.0031304217234580543
6.32100e-06;-0.0030935578765855123
6.32125e-06;-0.003062752320750619
6.32150e-06;-0.0030384625188893295
6.32175e-06;-0.0030207204642034107
6.32200e-06;-0.003009490133496195
6.32225e-06;-0.0030056426638334194
6.32250e-06;-0.0030087437351762453
6.32275e-06;-0.003015632957509929
6.32300e-06;-0.0030321887296729027
6.32325e-06;-0.00305274425830193
6.32350e-06;-0.003083506308602871
6.32375e-06;-0.003117992530048317
6.32400e-06;-0.0031619820384612444
6.32425e-06;-0.0032085409997888626
6.32450e-06;-0.003263255429598395
6.32475e-06;-0.0033236074608285955
6.32500e-06;-0.003389483469314943
6.32525e-06;-0.003460792349212139
6.32550e-06;-0.0035372331238954185
6.32575e-06;-0.00361833825831137
6.32600e-06;-0.0037036135841100144
6.32625e-06;-0.0037925650052839854
6.32650e-06;-0.0038847010999240907
6.32675e-06;-0.00397956637848035
6.32700e-06;-0.004076794808237323
6.32725e-06;-0.004176034150963607
6.32750e-06;-0.00427680135834369
6.32775e-06;-0.004378507929562905
6.32800e-06;-0.004480549232820833
6.32825e-06;-0.004582321174322281
6.32850e-06;-0.0046832212923092675
6.32875e-06;-0.004782669187162035
6.32900e-06;-0.004880140537615911
6.32925e-06;-0.004975120196097133
6.32950e-06;-0.005067010606563955
6.32975e-06;-0.005155148997450413
6.33000e-06;-0.005238861819085663
6.33025e-06;-0.005317475928697365
6.33050e-06;-0.005390318038827985
6.33075e-06;-0.005456732588519751
6.33100e-06;-0.005516158409799447
6.33125e-06;-0.005568229717881971
6.33150e-06;-0.0056116723169462686
6.33175e-06;-0.0056468555883394484
6.33200e-06;-0.005676483036051544
6.33225e-06;-0.005691933211903128
6.33250e-06;-0.005707383387754763
6.33275e-06;-0.005716000393656367
6.33300e-06;-0.005707180613654329
6.33325e-06;-0.005698360833652261
6.33350e-06;-0.005683031978331391
6.33375e-06;-0.005651093357177956
6.33400e-06;-0.005619154736024414
6.33425e-06;-0.0055812989405344595
6.33450e-06;-0.005528343783721394
6.33475e-06;-0.005475388626908149
6.33500e-06;-0.005418023034249385
6.33525e-06;-0.005349402954121073
6.33550e-06;-0.005277791619518796
6.33575e-06;-0.005198547244289914
6.33600e-06;-0.0051168229944858245
6.33625e-06;-0.005028770636007218
6.33650e-06;-0.004938752208317689
6.33675e-06;-0.0048437167931745925
6.33700e-06;-0.004747274608050712
6.33725e-06;-0.004647242647295126
6.33750e-06;-0.00454655620417706
6.33775e-06;-0.004443984910250155
6.33800e-06;-0.004340817761381237
6.33825e-06;-0.004237646757751243
6.33850e-06;-0.004135062678849348
6.33875e-06;-0.004033660015875097
6.33900e-06;-0.003934046196702513
6.33925e-06;-0.0038368600022115206
6.33950e-06;-0.0037427679722190506
6.33975e-06;-0.0036524462762958193
6.34000e-06;-0.003566571687570415
6.34025e-06;-0.003485820811892986
6.34050e-06;-0.0034108692718169344
6.34075e-06;-0.0033423672371411394
6.34100e-06;-0.0032808465460841306
6.34125e-06;-0.003226631677355495
6.34150e-06;-0.0031798895007595853
6.34175e-06;-0.0031407415538922756
6.34200e-06;-0.003109309243243565
6.34225e-06;-0.00308684593981072
6.34250e-06;-0.0030729648096666728
6.34275e-06;-0.0030636319845083883
6.34300e-06;-0.0030659054593283465
6.34325e-06;-0.0030725982633680936
6.34350e-06;-0.003090568248860621
6.34375e-06;-0.003111697403147267
6.34400e-06;-0.0031429090821612424
6.34425e-06;-0.0031812350156257834
6.34450e-06;-0.003226447800344699
6.34475e-06;-0.00327831011423227
6.34500e-06;-0.0033365383518886575
6.34525e-06;-0.0034007673538604703
6.34550e-06;-0.0034705701450352634
6.34575e-06;-0.0035455021499901118
6.34600e-06;-0.0036251189311978407
6.34625e-06;-0.0037089755492978804
6.34650e-06;-0.0037966269338242315
6.34675e-06;-0.0038876219766343536
6.34700e-06;-0.003981480332541164
6.34725e-06;-0.004077670813356752
6.34750e-06;-0.004175623779772663
6.34775e-06;-0.004274758158844227
6.34800e-06;-0.004374492660600096
6.34825e-06;-0.0044742470846554985
6.34850e-06;-0.004573439544270547
6.34875e-06;-0.00467148576118808
6.34900e-06;-0.00476778217072004
6.34925e-06;-0.00486169406763483
6.34950e-06;-0.004952562450841927
6.34975e-06;-0.0050397212212510666
6.35000e-06;-0.00512250455556427
6.35025e-06;-0.005200246020137089
6.35050e-06;-0.005272311650487628
6.35075e-06;-0.005338452859571714
6.35100e-06;-0.005399521697972185
6.35125e-06;-0.0054569888722344785
6.35150e-06;-0.0055114938989605546
6.35175e-06;-0.0055622835067635455
6.35200e-06;-0.00560923008076605
6.35225e-06;-0.005653833655109776
6.35250e-06;-0.005692458396246935
6.35275e-06;-0.00572930035469914
6.35300e-06;-0.005760418452825256
6.35325e-06;-0.005788539272304579
6.35350e-06;-0.005815290031550196
6.35375e-06;-0.0058385446905771365
6.35400e-06;-0.005859816935813959
6.35425e-06;-0.005876030485735869
6.35450e-06;-0.005892244035657834
6.35475e-06;-0.005906528247966834
6.35500e-06;-0.005915889203994938
6.35525e-06;-0.005924058906853084
6.35550e-06;-0.005929188786814495
6.35575e-06;-0.005934318666775906
6.35600e-06;-0.005938006552878632
6.35625e-06;-0.005938014779561374
6.35650e-06;-0.005938023006244117
6.35675e-06;-0.005936809978278358
6.35700e-06;-0.0059324805700698285
6.35725e-06;-0.0059281511618613
6.35750e-06;-0.005923206253546486
6.35775e-06;-0.005916690720814476
6.35800e-06;-0.005910175188082445
6.35825e-06;-0.005903134400041052
6.35850e-06;-0.005894753272971659
6.35875e-06;-0.005886372145902236
6.35900e-06;-0.0058778998562922504
6.35925e-06;-0.005869194939407748
6.35950e-06;-0.005860490022523217
6.35975e-06;-0.005852009188058128
6.36000e-06;-0.00584410016392385
6.36025e-06;-0.005836373836338422
6.36050e-06;-0.0058292305268700445
6.36075e-06;-0.005822254855235367
6.36100e-06;-0.005814343474828179
6.36125e-06;-0.0058036035282395945
6.36150e-06;-0.005789571058177219
6.36175e-06;-0.005773610648968241
6.36200e-06;-0.005752730552065792
6.36225e-06;-0.005731850455163271
6.36250e-06;-0.005709292547973837
6.36275e-06;-0.005682453228357281
6.36300e-06;-0.005652491846653907
6.36325e-06;-0.0056145636313223906
6.36350e-06;-0.005576635415990875
6.36375e-06;-0.005538707200659231
6.36400e-06;-0.005500778985327715
6.36425e-06;-0.005452450666913614
6.36450e-06;-0.005401215404194994
6.36475e-06;-0.005349980141476548
6.36500e-06;-0.005298744878758102
6.36525e-06;-0.005244736005210425
6.36550e-06;-0.005183649470998392
6.36575e-06;-0.005122562936786359
6.36600e-06;-0.0050599519428886535
6.36625e-06;-0.004993450854448235
6.36650e-06;-0.004926949766007592
6.36675e-06;-0.004859606407363397
6.36700e-06;-0.0047901137555928855
6.36725e-06;-0.004720621103822138
6.36750e-06;-0.004650764348165212
6.36775e-06;-0.0045799784773896315
6.36800e-06;-0.004509424861322372
6.36825e-06;-0.004439463909517257
6.36850e-06;-0.004370184382407451
6.36875e-06;-0.0043026437051428895
6.36900e-06;-0.004236062856679792
6.36925e-06;-0.004171931285699839
6.36950e-06;-0.004108739812031421
6.36975e-06;-0.004048739278122972
6.37000e-06;-0.003991677403831452
6.37025e-06;-0.003938000620435533
6.37050e-06;-0.0038888046798539453
6.37075e-06;-0.0038442477631624315
6.37100e-06;-0.003802457647059458
6.37125e-06;-0.003767727813344794
6.37150e-06;-0.003735933120633794
6.37175e-06;-0.003711628278988732
6.37200e-06;-0.0036903360293602037
6.37225e-06;-0.0036767312691901744
6.37250e-06;-0.0036669983385735016
6.37275e-06;-0.003667145487540291
6.37300e-06;-0.0036672926365070805
6.37325e-06;-0.0036720196105877382
6.37350e-06;-0.003688433317252976
6.37375e-06;-0.0037048470239182695
6.37400e-06;-0.003724791235960091
6.37425e-06;-0.0037537445414057027
6.37450e-06;-0.003784672601852477
6.37475e-06;-0.003821892403063665
6.37500e-06;-0.003863503183254758
6.37525e-06;-0.003909279323093861
6.37550e-06;-0.00395893393472585
6.37575e-06;-0.004012151385719558
6.37600e-06;-0.004068612435880327
6.37625e-06;-0.00412799756922268
6.37650e-06;-0.004189988142320073
6.37675e-06;-0.004254265177190276
6.37700e-06;-0.004320503533858292
6.37725e-06;-0.004388349630956523
6.37750e-06;-0.004457411011071445
6.37775e-06;-0.004527277905849332
6.37800e-06;-0.0045975380739449135
6.37825e-06;-0.004667779070563399
6.37850e-06;-0.00473758878546576
6.37875e-06;-0.004806555370625445
6.37900e-06;-0.004874263320619291
6.37925e-06;-0.004940278485546511
6.37950e-06;-0.005004143247019306
6.37975e-06;-0.005065388697700459
6.38000e-06;-0.005123544243898614
6.38025e-06;-0.00517814030916585
6.38050e-06;-0.005228710495210587
6.38075e-06;-0.005274851127074966
6.38100e-06;-0.005316361073964902
6.38125e-06;-0.0053525702064559175
6.38150e-06;-0.0053837583368347465
6.38175e-06;-0.005410790858197633
6.38200e-06;-0.0054272191555832065
6.38225e-06;-0.005443647452968835
6.38250e-06;-0.005460075750354409
6.38275e-06;-0.0054708598256700165
6.38300e-06;-0.005467241055391013
6.38325e-06;-0.005463622285112023
6.38350e-06;-0.0054600035148330206
6.38375e-06;-0.0054518288354030746
6.38400e-06;-0.005432028451805462
6.38425e-06;-0.005412228068207783
6.38450e-06;-0.005388884582108147
6.38475e-06;-0.005356499857441472
6.38500e-06;-0.005324115132774688
6.38525e-06;-0.005288785543390573
6.38550e-06;-0.00524594129010882
6.38575e-06;-0.005203097036826923
6.38600e-06;-0.005158282759293977
6.38625e-06;-0.005108441401898924
6.38650e-06;-0.00505735781285578
6.38675e-06;-0.0050031043147634865
6.38700e-06;-0.004947972208186912
6.38725e-06;-0.0048905980809775314
6.38750e-06;-0.004832741679455212
6.38775e-06;-0.004773654617200464
6.38800e-06;-0.004714463194376863
6.38825e-06;-0.004655005465737618
6.38850e-06;-0.004595825682332334
6.38875e-06;-0.004537355155622182
6.38900e-06;-0.004479358119106924
6.38925e-06;-0.004423327908854976
6.38950e-06;-0.004369233434092298
6.38975e-06;-0.004316517213704228
6.39000e-06;-0.004267318003224206
6.39025e-06;-0.004220440793554806
6.39050e-06;-0.004179488832524243
6.39075e-06;-0.004138536871493541
6.39100e-06;-0.004100435859408967
6.39125e-06;-0.00406960985829134
6.39150e-06;-0.004038783857173609
6.39175e-06;-0.004011833846048646
6.39200e-06;-0.003994774531052584
6.39225e-06;-0.00397771521605658
6.39250e-06;-0.003960655901060576
6.39275e-06;-0.003943596586064514
6.39300e-06;-0.003931282582853463
6.39325e-06;-0.0039310775987547895
6.39350e-06;-0.003930872614656116
6.39375e-06;-0.003930667630557444
6.39400e-06;-0.00393046264645877
6.39425e-06;-0.003933639923724366
6.39450e-06;-0.003945448007427487
6.39475e-06;-0.0039572560911306075
6.39500e-06;-0.003970887316391541
6.39525e-06;-0.003989170808345748
6.39550e-06;-0.004008639697391915
6.39575e-06;-0.0040311334658753905
6.39600e-06;-0.004054666775755933
