Time(s);Current(A)
4.00000e-06;-0.010505853043956712
4.00025e-06;-0.010509193359369104
4.00050e-06;-0.010512330661730697
4.00075e-06;-0.010514335154472068
4.00100e-06;-0.010516339647213433
4.00125e-06;-0.010518344139954798
4.00150e-06;-0.010520348632696169
4.00175e-06;-0.010522353125437534
4.00200e-06;-0.010524357618178899
4.00225e-06;-0.01052636211092027
4.00250e-06;-0.010528366603661635
4.00275e-06;-0.010530371096403
4.00300e-06;-0.01053237558914437
4.00325e-06;-0.010534380081885735
4.00350e-06;-0.0105363845746271
4.00375e-06;-0.010537866310420491
4.00400e-06;-0.01053643107069281
4.00425e-06;-0.010534995830965125
4.00450e-06;-0.010533560591237444
4.00475e-06;-0.010532125351509764
4.00500e-06;-0.010530690111782079
4.00525e-06;-0.010529254872054397
4.00550e-06;-0.010527819632326718
4.00575e-06;-0.010526384392599031
4.00600e-06;-0.010524949152871351
4.00625e-06;-0.010523513913143672
4.00650e-06;-0.010522078673415985
4.00675e-06;-0.010520643433688305
4.00700e-06;-0.010519283412460542
4.00725e-06;-0.010518343109275382
4.00750e-06;-0.010517402806090226
4.00775e-06;-0.010516462502905069
4.00800e-06;-0.01051552219971991
4.00825e-06;-0.010514581896534753
4.00850e-06;-0.010513641593349594
4.00875e-06;-0.010512701290164437
4.00900e-06;-0.010511760986979281
4.00925e-06;-0.01051082068379412
4.00950e-06;-0.010509880380608965
4.00975e-06;-0.010508940077423808
4.01000e-06;-0.01050799977423865
4.01025e-06;-0.010507059471053492
4.01050e-06;-0.010507083814936247
4.01075e-06;-0.01051249087423536
4.01100e-06;-0.010517897933534455
4.01125e-06;-0.010523304992833549
4.01150e-06;-0.010528712052132662
4.01175e-06;-0.010534119111431756
4.01200e-06;-0.01053952617073085
4.01225e-06;-0.010544933230029963
4.01250e-06;-0.010550340289329057
4.01275e-06;-0.01055574734862817
4.01300e-06;-0.010561154407927265
4.01325e-06;-0.010566561467226359
4.01350e-06;-0.01057196852652547
4.01375e-06;-0.010577375585824566
4.01400e-06;-0.0105836933639156
4.01425e-06;-0.010595092938493448
4.01450e-06;-0.010606492513071256
4.01475e-06;-0.010617892087649065
4.01500e-06;-0.010629291662226911
4.01525e-06;-0.01064069123680472
4.01550e-06;-0.010652090811382528
4.01575e-06;-0.010663490385960376
4.01600e-06;-0.010674889960538184
4.01625e-06;-0.010686289535115993
4.01650e-06;-0.010697689109693839
4.01675e-06;-0.010709088684271648
4.01700e-06;-0.010720488258849494
4.01725e-06;-0.010731887833427304
4.01750e-06;-0.010743287408005111
4.01775e-06;-0.010754669356293779
4.01800e-06;-0.010765952950166961
4.01825e-06;-0.010777236544040144
4.01850e-06;-0.010788520137913366
4.01875e-06;-0.010799803731786548
4.01900e-06;-0.01081108732565973
4.01925e-06;-0.010822370919532953
4.01950e-06;-0.010833654513406135
4.01975e-06;-0.010844938107279318
4.02000e-06;-0.01085622170115254
4.02025e-06;-0.010867505295025722
4.02050e-06;-0.010878788888898904
4.02075e-06;-0.010890072482772127
4.02100e-06;-0.010901356076645309
4.02125e-06;-0.010912639670518491
4.02150e-06;-0.010923618490235315
4.02175e-06;-0.0109328966749696
4.02200e-06;-0.010942174859703916
4.02225e-06;-0.010951453044438201
4.02250e-06;-0.010960731229172486
4.02275e-06;-0.010970009413906802
4.02300e-06;-0.010979287598641087
4.02325e-06;-0.010988565783375372
4.02350e-06;-0.010997843968109688
4.02375e-06;-0.011007122152843973
4.02400e-06;-0.011016400337578258
4.02425e-06;-0.011025678522312574
4.02450e-06;-0.011034956707046859
4.02475e-06;-0.011044234891781144
4.02500e-06;-0.011053513076515462
4.02525e-06;-0.011062791261249746
4.02550e-06;-0.01107195950577961
4.02575e-06;-0.011080514285704092
4.02600e-06;-0.011089069065628544
4.02625e-06;-0.011097623845553026
4.02650e-06;-0.011106178625477478
4.02675e-06;-0.01111473340540193
4.02700e-06;-0.01112328818532641
4.02725e-06;-0.011131842965250863
4.02750e-06;-0.011140397745175315
4.02775e-06;-0.011148952525099797
4.02800e-06;-0.01115750730502425
4.02825e-06;-0.011166062084948702
4.02850e-06;-0.011174616864873184
4.02875e-06;-0.011183171644797636
4.02900e-06;-0.011191726424722088
4.02925e-06;-0.01120028120464657
4.02950e-06;-0.01120874141901056
4.02975e-06;-0.011216673959039847
4.03000e-06;-0.011224434954134785
4.03025e-06;-0.011231238731203639
4.03050e-06;-0.011237227740603567
4.03075e-06;-0.011238670359271646
4.03100e-06;-0.011238874749996153
4.03125e-06;-0.011232169848340615
4.03150e-06;-0.011225464946685101
4.03175e-06;-0.011217435903080067
4.03200e-06;-0.011202018168298114
4.03225e-06;-0.011186600433516214
4.03250e-06;-0.01116870676182238
4.03275e-06;-0.011136997401242623
4.03300e-06;-0.011105288040662973
4.03325e-06;-0.011073578680083324
4.03350e-06;-0.011041869319503567
4.03375e-06;-0.011010159958923916
4.03400e-06;-0.0109756493110836
4.03425e-06;-0.01092550752454785
4.03450e-06;-0.010875365738012269
4.03475e-06;-0.010825223951476518
4.03500e-06;-0.010775082164940938
4.03525e-06;-0.010724940378405356
4.03550e-06;-0.01067300128233384
4.03575e-06;-0.010611033227424852
4.03600e-06;-0.010549065172515864
4.03625e-06;-0.010487097117606665
4.03650e-06;-0.010425129062697677
4.03675e-06;-0.010363161007788687
4.03700e-06;-0.01030119295287949
4.03725e-06;-0.01023903050055127
4.03750e-06;-0.010176764279138042
4.03775e-06;-0.0101144980577246
4.03800e-06;-0.010052231836311373
4.03825e-06;-0.009989965614898143
4.03850e-06;-0.009927699393484703
4.03875e-06;-0.009866722332181076
4.03900e-06;-0.009812938763937708
4.03925e-06;-0.009759155195694523
4.03950e-06;-0.009708737492465811
4.03975e-06;-0.009677101262882504
4.04000e-06;-0.009645465033299303
4.04025e-06;-0.009613828803716104
4.04050e-06;-0.009582192574132795
4.04075e-06;-0.009550556344549595
4.04100e-06;-0.009518920114966394
4.04125e-06;-0.009487283885383087
4.04150e-06;-0.009455647655799886
4.04175e-06;-0.009424011426216686
4.04200e-06;-0.00939237519663338
4.04225e-06;-0.009378849141125259
4.04250e-06;-0.009374990272560382
4.04275e-06;-0.009371131403995491
4.04300e-06;-0.009367272535430614
4.04325e-06;-0.009363413666865723
4.04350e-06;-0.009359554798300845
4.04375e-06;-0.009355695929735968
4.04400e-06;-0.009351837061171077
4.04425e-06;-0.0093479781926062
4.04450e-06;-0.009344119324041321
4.04475e-06;-0.009342848863104047
4.04500e-06;-0.009356021675863923
4.04525e-06;-0.009369194488623799
4.04550e-06;-0.009382367301383721
4.04575e-06;-0.009395540114143596
4.04600e-06;-0.009408712926903472
4.04625e-06;-0.009421885739663393
4.04650e-06;-0.00943505855242327
4.04675e-06;-0.009448231365183146
4.04700e-06;-0.009461404177943066
4.04725e-06;-0.009475322588397493
4.04750e-06;-0.009493401422215992
4.04775e-06;-0.009511480256034427
4.04800e-06;-0.009529559089852863
4.04825e-06;-0.00954763792367136
4.04850e-06;-0.009565716757489795
4.04875e-06;-0.00958379559130823
4.04900e-06;-0.009601874425126727
4.04925e-06;-0.009619953258945163
4.04950e-06;-0.009638032092763598
4.04975e-06;-0.009655752550530847
4.05000e-06;-0.009671473275590356
4.05025e-06;-0.009687194000649865
4.05050e-06;-0.009703653746571315
4.05075e-06;-0.00972423721723375
4.05100e-06;-0.009744820687896184
4.05125e-06;-0.009766441401513807
4.05150e-06;-0.009793849914443882
4.05175e-06;-0.00982125842737405
4.05200e-06;-0.009850313625418603
4.05225e-06;-0.009888557300402183
4.05250e-06;-0.009926800975385895
4.05275e-06;-0.009965044650369475
4.05300e-06;-0.010003288325353056
4.05325e-06;-0.010041532000336766
4.05350e-06;-0.010082115192492979
4.05375e-06;-0.010135752853532808
4.05400e-06;-0.01018939051457282
4.05425e-06;-0.010243028175612649
4.05450e-06;-0.010296665836652478
4.05475e-06;-0.01035030349769249
4.05500e-06;-0.010405570495917234
4.05525e-06;-0.010469929169907006
4.05550e-06;-0.010534287843896997
4.05575e-06;-0.010598646517886771
4.05600e-06;-0.01066300519187676
4.05625e-06;-0.010727977747623955
4.05650e-06;-0.010796375753884351
4.05675e-06;-0.010864773760144978
4.05700e-06;-0.010933171766405372
4.05725e-06;-0.011001569772665767
4.05750e-06;-0.011069886351697984
4.05775e-06;-0.011137748568081203
4.05800e-06;-0.011205355660912868
4.05825e-06;-0.011271321906412906
4.05850e-06;-0.011335839322494105
4.05875e-06;-0.011398758461551837
4.05900e-06;-0.011459586166532604
4.05925e-06;-0.011517416641803353
4.05950e-06;-0.011574319944964238
4.05975e-06;-0.011626049642392881
4.06000e-06;-0.01167777933982135
4.06025e-06;-0.01284769042711088
4.06050e-06;-0.02109986502341209
4.06075e-06;-0.026094717092592108
4.06100e-06;-0.023763620396744702
4.06125e-06;-0.021369162027961117
4.06150e-06;-0.015582721402506102
4.06175e-06;-0.010592902465406073
4.06200e-06;-0.011240922663853896
4.06225e-06;-0.012491971196250501
4.06250e-06;-0.016435213762541215
4.06275e-06;-0.020521829237112692
4.06300e-06;-0.019571357534351096
4.06325e-06;-0.017491034870302243
4.06350e-06;-0.014635336606242591
4.06375e-06;-0.010626142108595749
4.06400e-06;-0.010195869824772278
4.06425e-06;-0.010728160565875153
4.06450e-06;-0.012439621563024899
4.06475e-06;-0.015149294678668304
4.06500e-06;-0.016629262729092147
4.06525e-06;-0.016134046917377166
4.06550e-06;-0.014440144363327086
4.06575e-06;-0.012294618846513346
4.06600e-06;-0.01100824513848648
4.06625e-06;-0.01103517672788393
4.06650e-06;-0.012140108066153505
4.06675e-06;-0.013850431089970857
4.06700e-06;-0.014789411235490768
4.06725e-06;-0.014490281087399763
4.06750e-06;-0.013439621739185184
4.06775e-06;-0.012105523217010174
4.06800e-06;-0.011309111938658432
4.06825e-06;-0.011334869940059576
4.06850e-06;-0.012035388611447892
4.06875e-06;-0.013114626605273343
4.06900e-06;-0.013710244043037863
4.06925e-06;-0.013529950989023582
4.06950e-06;-0.012878629545590697
4.06975e-06;-0.012049547813875433
4.07000e-06;-0.011557076109693424
4.07025e-06;-0.011579449284360614
4.07050e-06;-0.012024460520316398
4.07075e-06;-0.012706813359750135
4.07100e-06;-0.013086416907863462
4.07125e-06;-0.012980223194431888
4.07150e-06;-0.012579236559155093
4.07175e-06;-0.012067167207788804
4.07200e-06;-0.01176620006408062
4.07225e-06;-0.011787943129846379
4.07250e-06;-0.01207459716856372
4.07275e-06;-0.012510059852796762
4.07300e-06;-0.01275600457790099
4.07325e-06;-0.012697776470270606
4.07350e-06;-0.012455026101161774
4.07375e-06;-0.012142823332537741
4.07400e-06;-0.011962963503521579
4.07425e-06;-0.01198532452605179
4.07450e-06;-0.01217366580755472
4.07475e-06;-0.01245522997408592
4.07500e-06;-0.012618071713197223
4.07525e-06;-0.012590366521198172
4.07550e-06;-0.012440058645537778
4.07575e-06;-0.012256305441937133
4.07600e-06;-0.012156214554506928
4.07625e-06;-0.012178803688756373
4.07650e-06;-0.012317225063845553
4.07675e-06;-0.012496634578958799
4.07700e-06;-0.012600120259005126
4.07725e-06;-0.012590760795121215
4.07750e-06;-0.012504352819594285
4.07775e-06;-0.012396890301677128
4.07800e-06;-0.012341620097473027
4.07825e-06;-0.012362912312262568
4.07850e-06;-0.012448984108337996
4.07875e-06;-0.012571245301154187
4.07900e-06;-0.012646501170443065
4.07925e-06;-0.012646547283205785
4.07950e-06;-0.012600766776367192
4.07975e-06;-0.012537408933103091
4.08000e-06;-0.012506024742010126
4.08025e-06;-0.012523636524561142
4.08050e-06;-0.01258101177953771
4.08075e-06;-0.01265995762463002
4.08100e-06;-0.012708273344828012
4.08125e-06;-0.012708335804218488
4.08150e-06;-0.012678620617514449
4.08175e-06;-0.012636891094905834
4.08200e-06;-0.012614250671556672
4.08225e-06;-0.012621424895036993
4.08250e-06;-0.012655127639548859
4.08275e-06;-0.012698084893302998
4.08300e-06;-0.01272088910543854
4.08325e-06;-0.012714211787466073
4.08350e-06;-0.012690754777483364
4.08375e-06;-0.01266361200192782
4.08400e-06;-0.01263646922637237
4.08425e-06;-0.012628093721800132
4.08450e-06;-0.012636088230344575
4.08475e-06;-0.012647372445099475
4.08500e-06;-0.012658656659854375
4.08525e-06;-0.012649965138318849
4.08550e-06;-0.012626045019419527
4.08575e-06;-0.012599849088481514
4.08600e-06;-0.012573653157543586
4.08625e-06;-0.01255941139092316
4.08650e-06;-0.012558475380239586
4.08675e-06;-0.012561241873947481
4.08700e-06;-0.012556365810724581
4.08725e-06;-0.012540338589773083
4.08750e-06;-0.012516888813926732
4.08775e-06;-0.012491440890236651
4.08800e-06;-0.012473690806880381
4.08825e-06;-0.012460238317951348
4.08850e-06;-0.012454140314599082
4.08875e-06;-0.012452148215611972
4.08900e-06;-0.0124443925977382
4.08925e-06;-0.012433419289502793
4.08950e-06;-0.012419275702226076
4.08975e-06;-0.012403604245050085
4.09000e-06;-0.012392356718617822
4.09025e-06;-0.012386951457596738
4.09050e-06;-0.012385582034643145
4.09075e-06;-0.012383443942412213
4.09100e-06;-0.01238021877233632
4.09125e-06;-0.012370651251202583
4.09150e-06;-0.012357542885964825
4.09175e-06;-0.012343657265963565
4.09200e-06;-0.012329337715717564
4.09225e-06;-0.012317472648955904
4.09250e-06;-0.012306977885303421
4.09275e-06;-0.012296483121650936
4.09300e-06;-0.012279657296043798
4.09325e-06;-0.012259296928878134
4.09350e-06;-0.01223893656171247
4.09375e-06;-0.012218576194546736
4.09400e-06;-0.012197785135432678
4.09425e-06;-0.012174385966186235
4.09450e-06;-0.01215098679693987
4.09475e-06;-0.012127587627693505
4.09500e-06;-0.012104188458447062
4.09525e-06;-0.01207682253071684
4.09550e-06;-0.012047242018322331
4.09575e-06;-0.012017661505927724
4.09600e-06;-0.011988080993533216
4.09625e-06;-0.011958500481138709
4.09650e-06;-0.0119289199687441
4.09675e-06;-0.011898966716720565
4.09700e-06;-0.011868805369480356
4.09725e-06;-0.011838644022240044
4.09750e-06;-0.011808482674999834
4.09775e-06;-0.011778321327759625
4.09800e-06;-0.011748159980519313
4.09825e-06;-0.01172050073021701
4.09850e-06;-0.01169423836493534
4.09875e-06;-0.011667975999653758
4.09900e-06;-0.011644183905999706
4.09925e-06;-0.011621770929749578
4.09950e-06;-0.011599357953499525
4.09975e-06;-0.011576944977249473
4.10000e-06;-0.011558940478854004
4.10025e-06;-0.011543397170744958
4.10050e-06;-0.011527853862635913
4.10075e-06;-0.011512310554526815
4.10100e-06;-0.01149719495069868
4.10125e-06;-0.011482318128068112
4.10150e-06;-0.011467441305437493
4.10175e-06;-0.011452564482806927
4.10200e-06;-0.011437687660176358
4.10225e-06;-0.01142281083754574
4.10250e-06;-0.011407934014915173
4.10275e-06;-0.011392877201006573
4.10300e-06;-0.011376730426913267
4.10325e-06;-0.01136058365281996
4.10350e-06;-0.0113444368787266
4.10375e-06;-0.011328290104633293
4.10400e-06;-0.011312143330539986
4.10425e-06;-0.011295996556446626
4.10450e-06;-0.011279849782353319
4.10475e-06;-0.011262143473421627
4.10500e-06;-0.01124356649844103
4.10525e-06;-0.011224989523460497
4.10550e-06;-0.011206412548479964
4.10575e-06;-0.011187835573499368
4.10600e-06;-0.011169258598518835
4.10625e-06;-0.011150681623538302
4.10650e-06;-0.011132104648557706
4.10675e-06;-0.011114200562240769
4.10700e-06;-0.011096672140063872
4.10725e-06;-0.011079143717887034
4.10750e-06;-0.011061615295710196
4.10775e-06;-0.011044086873533298
4.10800e-06;-0.01102655845135646
4.10825e-06;-0.011009030029179622
4.10850e-06;-0.010991501607002725
4.10875e-06;-0.010976276560342299
4.10900e-06;-0.010962337455368029
4.10925e-06;-0.010948398350393712
4.10950e-06;-0.01093616048008667
4.10975e-06;-0.010924872384821043
4.11000e-06;-0.010915670117410169
4.11025e-06;-0.01090763233792995
4.11050e-06;-0.010903442582129693
4.11075e-06;-0.010901401123046129
4.11100e-06;-0.010904171113001276
4.11125e-06;-0.010909627266304678
4.11150e-06;-0.010919752625944945
4.11175e-06;-0.010932484736862513
4.11200e-06;-0.010949809852669613
4.11225e-06;-0.010969699177573101
4.11250e-06;-0.010996166729388362
4.11275e-06;-0.011026306811429886
4.11300e-06;-0.01105644689347131
4.11325e-06;-0.011094177635772988
4.11350e-06;-0.011136146135393887
4.11375e-06;-0.011178114635014643
4.11400e-06;-0.011226562150250991
4.11425e-06;-0.011278626807462472
4.11450e-06;-0.011330691464673776
4.11475e-06;-0.011388696049613865
4.11500e-06;-0.011450016811453622
4.11525e-06;-0.01151133757329317
4.11550e-06;-0.011575886487430964
4.11575e-06;-0.011643490324966619
4.11600e-06;-0.011712841815442058
4.11625e-06;-0.011783669661551482
4.11650e-06;-0.011855801839783452
4.11675e-06;-0.011929055037373413
4.11700e-06;-0.012003115310844708
4.11725e-06;-0.01207759765001027
4.11750e-06;-0.012152110232060687
4.11775e-06;-0.012226260108539635
4.11800e-06;-0.012299658111264836
4.11825e-06;-0.012371949417263868
4.11850e-06;-0.012442839919170562
4.11875e-06;-0.012512027857542006
4.11900e-06;-0.012579131034602179
4.11925e-06;-0.01264372205764488
4.11950e-06;-0.01270301567738563
4.11975e-06;-0.012759885338200426
4.12000e-06;-0.012816754999015028
4.12025e-06;-0.012863980843707167
4.12050e-06;-0.012905822683457907
4.12075e-06;-0.012947664523208507
4.12100e-06;-0.012989506362959105
4.12125e-06;-0.013031348202709845
4.12150e-06;-0.013073190042460443
4.12175e-06;-0.013115031882211041
4.12200e-06;-0.013154605043394978
4.12225e-06;-0.013180439931614819
4.12250e-06;-0.013206274819834657
4.12275e-06;-0.013232109708054584
4.12300e-06;-0.013257944596274423
4.12325e-06;-0.013283779484494261
4.12350e-06;-0.013309614372714188
4.12375e-06;-0.013335449260934029
4.12400e-06;-0.013353654441876858
4.12425e-06;-0.013367600066109153
4.12450e-06;-0.013381545690341449
4.12475e-06;-0.013395491314573791
4.12500e-06;-0.013409436938806087
4.12525e-06;-0.013423382563038383
4.12550e-06;-0.013437328187270725
4.12575e-06;-0.01345027628283845
4.12600e-06;-0.013457183716109856
4.12625e-06;-0.013464091149381286
4.12650e-06;-0.013470998582652693
4.12675e-06;-0.013477906015924098
4.12700e-06;-0.013484813449195528
4.12725e-06;-0.013491720882466935
4.12750e-06;-0.013498628315738342
4.12775e-06;-0.013503822581096033
4.12800e-06;-0.013508060409251392
4.12825e-06;-0.013512298237406765
4.12850e-06;-0.013516302540498923
4.12875e-06;-0.013520176469880293
4.12900e-06;-0.013524050399261677
4.12925e-06;-0.013527924328643047
4.12950e-06;-0.013531798258024417
4.12975e-06;-0.013535940177437384
4.13000e-06;-0.013540348255251397
4.13025e-06;-0.013544697682286156
4.13050e-06;-0.013547736405489823
4.13075e-06;-0.013550081941393993
4.13100e-06;-0.0135502161411767
4.13125e-06;-0.013549115783554786
4.13150e-06;-0.013546049727418411
4.13175e-06;-0.013541886249848593
4.13200e-06;-0.01353597013898788
4.13225e-06;-0.013529075557968001
4.13250e-06;-0.013519807077738751
4.13275e-06;-0.0135092132834525
4.13300e-06;-0.013495357270338364
4.13325e-06;-0.01347968000699895
4.13350e-06;-0.01346400274365959
4.13375e-06;-0.01344523160194482
4.13400e-06;-0.013424733192077465
4.13425e-06;-0.013404234782210178
4.13450e-06;-0.01338081063520049
4.13475e-06;-0.013355753090889516
4.13500e-06;-0.013330695546578628
4.13525e-06;-0.013303802792506338
4.13550e-06;-0.013275190987935724
4.13575e-06;-0.013245635643284905
4.13600e-06;-0.013215347446465396
4.13625e-06;-0.013184475511886935
4.13650e-06;-0.013153055570986037
4.13675e-06;-0.013121117755991887
4.13700e-06;-0.013088805662705798
4.13725e-06;-0.013056340234515854
4.13750e-06;-0.013023958291350142
4.13775e-06;-0.012991896125148589
4.13800e-06;-0.012960389360522462
4.13825e-06;-0.012929634774286306
4.13850e-06;-0.012899756654119401
4.13875e-06;-0.012870876625558513
4.13900e-06;-0.012843188036906919
4.13925e-06;-0.012816931209688149
4.13950e-06;-0.012792357197663175
4.13975e-06;-0.012769718389249639
4.14000e-06;-0.012749266575207011
4.14025e-06;-0.012731290267451852
4.14050e-06;-0.012716117790148045
4.14075e-06;-0.012704002679560051
4.14100e-06;-0.012695056925606206
4.14125e-06;-0.01268931503127808
4.14150e-06;-0.01268679987630592
4.14175e-06;-0.012687533284443029
4.14200e-06;-0.012691539330736513
4.14225e-06;-0.01269886441260444
4.14250e-06;-0.0127095782252147
4.14275e-06;-0.012723705738394977
4.14300e-06;-0.012742205456897129
4.14325e-06;-0.012762463585540234
4.14350e-06;-0.012791823752957598
4.14375e-06;-0.01282626545875074
4.14400e-06;-0.012860707164543999
4.14425e-06;-0.012895148870337141
4.14450e-06;-0.012929590576130284
4.14475e-06;-0.012964032281923544
4.14500e-06;-0.012998473987716686
4.14525e-06;-0.013032915693509945
4.14550e-06;-0.013075098968314033
4.14575e-06;-0.013121604250636599
4.14600e-06;-0.013168109532959323
4.14625e-06;-0.013217069199157527
4.14650e-06;-0.013267399112853179
4.14675e-06;-0.013317729026549003
4.14700e-06;-0.013369209631905838
4.14725e-06;-0.013421332651998486
