Time(s);Current(A)
1.45500e-05;0.005079401268814692
1.45503e-05;0.005102177560653281
1.45505e-05;0.005124953852492025
1.45508e-05;0.0051477301443307675
1.45510e-05;0.005170506436169357
1.45513e-05;0.0051932827280081004
1.45515e-05;0.005206250234920645
1.45518e-05;0.005187236841072905
1.45520e-05;0.0051682234472252946
1.45523e-05;0.0051492100533775545
1.45525e-05;0.0051301966595298145
1.45528e-05;0.005111183265682204
1.45530e-05;0.005092169871834464
1.45533e-05;0.005073156477986724
1.45535e-05;0.005054143084139113
1.45538e-05;0.005035129690291373
1.45540e-05;0.005016116296443634
1.45543e-05;0.004977270998603969
1.45545e-05;0.0049312650604018265
1.45548e-05;0.004885259122199684
1.45550e-05;0.004839253183997853
1.45553e-05;0.004793247245795711
1.45555e-05;0.004747241307593568
1.45558e-05;0.004701235369391737
1.45560e-05;0.004655229431189594
1.45563e-05;0.004604901753925965
1.45565e-05;0.004553013640550563
1.45568e-05;0.00450112552717481
1.45570e-05;0.004449237413799057
1.45573e-05;0.004397349300423656
1.45575e-05;0.0043454611870479025
1.45578e-05;0.004293573073672149
1.45580e-05;0.004241684960296747
1.45583e-05;0.0042025005202377
1.45585e-05;0.0041679029537311845
1.45588e-05;0.004133305387224904
1.45590e-05;0.004098707820718389
1.45593e-05;0.004064110254211874
1.45595e-05;0.004029512687705594
1.45598e-05;0.0039949151211990785
1.45600e-05;0.003960317554692564
1.45603e-05;0.003925719988186049
1.45605e-05;0.0038911224216797683
1.45608e-05;0.0038565248551732535
1.45610e-05;0.0038219272886667387
1.45613e-05;0.0038025446271591854
1.45615e-05;0.0037886555613707473
1.45618e-05;0.0037747664955823093
1.45620e-05;0.0037608774297939658
1.45623e-05;0.0037469883640055277
1.45625e-05;0.0037330992982170896
1.45628e-05;0.003719210232428746
1.45630e-05;0.003705321166640308
1.45633e-05;0.00369143210085187
1.45635e-05;0.0036775430350635264
1.45638e-05;0.0036636539692750884
1.45640e-05;0.0036497649034866507
1.45643e-05;0.0036438565393977743
1.45645e-05;0.0036408297410302705
1.45648e-05;0.0036378029426627667
1.45650e-05;0.0036347761442952833
1.45653e-05;0.0036317493459277796
1.45655e-05;0.0036287225475602754
1.45658e-05;0.003625695749192792
1.45660e-05;0.003622668950825288
1.45663e-05;0.0036196421524577844
1.45665e-05;0.003616615354090301
1.45668e-05;0.0036135885557227972
1.45670e-05;0.003611392596181305
1.45673e-05;0.003611905532212343
1.45675e-05;0.0036124184682433847
1.45678e-05;0.0036129314042744262
1.45680e-05;0.0036134443403054643
1.45683e-05;0.003613957276336506
1.45685e-05;0.0036144702123675474
1.45688e-05;0.0036149831483985855
1.45690e-05;0.003615496084429627
1.45693e-05;0.0036160090204606686
1.45695e-05;0.00361652195649171
1.45698e-05;0.0036170348925227483
1.45700e-05;0.0036267565434873125
1.45703e-05;0.0036398031548743087
1.45705e-05;0.0036528497662612165
1.45708e-05;0.0036658963776482123
1.45710e-05;0.0036789429890352085
1.45713e-05;0.0036919896004221162
1.45715e-05;0.003705036211809112
1.45718e-05;0.0037180828231961082
1.45720e-05;0.003731129434583016
1.45723e-05;0.0037441760459700118
1.45725e-05;0.003757222657357008
1.45728e-05;0.0037702692687439157
1.45730e-05;0.0037833158801309115
1.45733e-05;0.0038098297280467932
1.45735e-05;0.0038412061467758218
1.45738e-05;0.0038725825655050628
1.45740e-05;0.0039039589842343038
1.45743e-05;0.003935335402963332
1.45745e-05;0.003966711821692573
1.45748e-05;0.003998088240421815
1.45750e-05;0.004029464659150843
1.45753e-05;0.004060841077880084
1.45755e-05;0.004092217496609325
1.45758e-05;0.004123593915338354
1.45760e-05;0.004154970334067595
1.45763e-05;0.004186346752796836
1.45765e-05;0.004219932070248169
1.45768e-05;0.0042543149474986814
1.45770e-05;0.004288697824749194
1.45773e-05;0.004323080701999473
1.45775e-05;0.0043574635792499854
1.45778e-05;0.0043918464565004985
1.45780e-05;0.004426229333751011
1.45783e-05;0.004457916635015576
1.45785e-05;0.004480815187334011
1.45788e-05;0.0045037137396524455
1.45790e-05;0.004526612291970725
1.45793e-05;0.00454951084428916
1.45795e-05;0.004572409396607594
1.45798e-05;0.004595307948925874
1.45800e-05;0.004618206501244309
1.45803e-05;0.0046296894641941885
1.45805e-05;0.004618376624929081
1.45808e-05;0.004600321221225931
1.45810e-05;0.004582265817522781
1.45813e-05;0.004564210413819753
1.45815e-05;0.0045461550101166025
1.45818e-05;0.004528099606413452
1.45820e-05;0.004510044202710424
1.45823e-05;0.004491988799007274
1.45825e-05;0.004473933395304123
1.45828e-05;0.004445907137340318
1.45830e-05;0.004385371562126046
1.45833e-05;0.0043248359869117745
1.45835e-05;0.004264300411697913
1.45838e-05;0.0042037648364836415
1.45840e-05;0.00414322926126937
1.45843e-05;0.0040826936860555085
1.45845e-05;0.004022158110841237
1.45848e-05;0.003961622535626965
1.45850e-05;0.003901086960413104
1.45853e-05;0.003825798010109474
1.45855e-05;0.003745182107169042
1.45858e-05;0.003664566204229156
1.45860e-05;0.003583950301288724
1.45863e-05;0.0035033343983482913
1.45865e-05;0.003422718495407859
1.45868e-05;0.003342540347364023
1.45870e-05;0.0032625202580407013
1.45873e-05;0.003182500168717379
1.45875e-05;0.0031024800793945993
1.45878e-05;0.0030224599900712775
1.45880e-05;0.0029424399007479556
1.45883e-05;0.0028701002230719854
1.45885e-05;0.0028005336863772203
1.45888e-05;0.002730967149682455
1.45890e-05;0.002670953956420136
1.45893e-05;0.0026143901574610796
1.45895e-05;0.002557826358502023
1.45898e-05;0.00251330324260268
1.45900e-05;0.0024731276165482737
1.45903e-05;0.0024329519904938675
1.45905e-05;0.002403441657767328
1.45908e-05;0.002377782207437488
1.45910e-05;0.0023610259971696542
1.45913e-05;0.0023474844505194693
1.45915e-05;0.002343028156908745
1.45918e-05;0.0023418522457429674
1.45920e-05;0.00235153048347546
1.45923e-05;0.0023651277930649074
1.45925e-05;0.002378725102654355
1.45928e-05;0.0024044010146733043
1.45930e-05;0.0024344381079600174
1.45933e-05;0.0024644752012467305
1.45935e-05;0.0025053585459385405
1.45938e-05;0.002550158110965698
1.45940e-05;0.002594957675992855
1.45943e-05;0.0026525011145670015
1.45945e-05;0.002714645941664656
1.45948e-05;0.0027767907687623102
1.45950e-05;0.0028389355958599646
1.45953e-05;0.002901080422957198
1.45955e-05;0.002963225250054852
1.45958e-05;0.00302795589002345
1.45960e-05;0.003101117403495933
1.45963e-05;0.003174278916968912
1.45965e-05;0.0032474404304418908
1.45968e-05;0.003320601943914374
1.45970e-05;0.003393763457387353
1.45973e-05;0.003466924970860332
1.45975e-05;0.003535038964358364
1.45978e-05;0.0036013304664143865
1.45980e-05;0.003667621968470409
1.45983e-05;0.003733913470525982
1.45985e-05;0.0038002049725820047
1.45988e-05;0.0038664964746380273
1.45990e-05;0.003920049805307962
1.45993e-05;0.003969003806314942
1.45995e-05;0.004017957807321924
1.45998e-05;0.004066911808328572
1.46000e-05;0.004115865809335553
1.46003e-05;0.004164819810342534
1.46005e-05;0.004209102127821059
1.46008e-05;0.0042516976558872165
1.46010e-05;0.004294293183953375
1.46013e-05;0.0043368887120192445
1.46015e-05;0.004379484240085403
1.46018e-05;0.004422079768151561
1.46020e-05;0.004464675296217431
1.46023e-05;0.004507270824283589
1.46025e-05;0.004549866352349747
1.46028e-05;0.004592461880415617
1.46030e-05;0.004635057408481775
1.46033e-05;0.004677652936547934
1.46035e-05;0.004720365353350799
1.46038e-05;0.004763458878223764
1.46040e-05;0.0048065524030970206
1.46043e-05;0.0048496459279702775
1.46045e-05;0.004892739452843242
1.46048e-05;0.004935832977716498
1.46050e-05;0.004978926502589755
1.46053e-05;0.00502202002746272
1.46055e-05;0.005065113552335977
1.46058e-05;0.005108207077209234
1.46060e-05;0.005151300602082198
1.46063e-05;0.005194394126955455
1.46065e-05;0.0052374876518287115
1.46068e-05;0.005275755056867192
1.46070e-05;0.005312279910683376
1.46073e-05;0.00534880476449956
1.46075e-05;0.005385329618315497
1.46078e-05;0.005421854472131681
1.46080e-05;0.005458379325947865
1.46083e-05;0.005494904179763801
1.46085e-05;0.005531429033579985
1.46088e-05;0.005567953887396169
1.46090e-05;0.005598983497467375
1.46093e-05;0.005612096225216104
1.46095e-05;0.005625208952964834
1.46098e-05;0.005638321680713474
1.46100e-05;0.0056514344084622045
1.46103e-05;0.005664547136210934
1.46105e-05;0.005677659863959575
1.46108e-05;0.005690772591708304
1.46110e-05;0.005703885319457034
1.46113e-05;0.005716998047205674
1.46115e-05;0.005703088762424026
1.46118e-05;0.005679422728412545
1.46120e-05;0.005655756694401064
1.46123e-05;0.005632090660389743
1.46125e-05;0.005608424626378262
1.46128e-05;0.00558475859236678
1.46130e-05;0.005561092558355459
1.46133e-05;0.005537426524343979
1.46135e-05;0.005513760490332497
1.46138e-05;0.005483499871597215
1.46140e-05;0.005431738041273557
1.46143e-05;0.005379976210949899
1.46145e-05;0.005328214380626592
1.46148e-05;0.005276452550302934
1.46150e-05;0.0052246907199792764
1.46153e-05;0.00517292888965597
1.46155e-05;0.005121167059332312
1.46158e-05;0.005069405229008654
1.46160e-05;0.005017643398685347
1.46163e-05;0.004960879995166027
1.46165e-05;0.0049023106900553046
1.46168e-05;0.004843741384944978
1.46170e-05;0.004785172079834255
1.46173e-05;0.004726602774723533
1.46175e-05;0.004668033469613207
1.46178e-05;0.004609464164502484
1.46180e-05;0.0045508948593917615
1.46183e-05;0.004504012232930541
1.46185e-05;0.004461349277109981
1.46188e-05;0.00441868632128942
1.46190e-05;0.004376023365469149
1.46193e-05;0.004333360409648588
1.46195e-05;0.004290697453828028
1.46198e-05;0.004248034498007756
1.46200e-05;0.004205371542187196
1.46203e-05;0.004187397542165148
1.46205e-05;0.004178337902251441
1.46208e-05;0.004169278262337796
1.46210e-05;0.004160218622424089
1.46213e-05;0.0041511589825103815
1.46215e-05;0.004142099342596736
1.46218e-05;0.00413303970268303
1.46220e-05;0.004123980062769323
1.46223e-05;0.004114920422855677
1.46225e-05;0.00410586078294197
1.46228e-05;0.004104705106370285
1.46230e-05;0.004129319784622461
1.46233e-05;0.004153934462874804
1.46235e-05;0.004178549141127147
1.46238e-05;0.004203163819379322
1.46240e-05;0.004227778497631666
1.46243e-05;0.004252393175884008
1.46245e-05;0.004277007854136184
1.46248e-05;0.004301622532388527
1.46250e-05;0.0043262372106408695
1.46253e-05;0.004350851888893045
1.46255e-05;0.004386361313269939
1.46258e-05;0.00442580446781533
1.46260e-05;0.004465247622360454
1.46263e-05;0.004504690776905846
1.46265e-05;0.004544133931451237
1.46268e-05;0.004583577085996361
1.46270e-05;0.004623020240541752
1.46273e-05;0.004662463395087143
1.46275e-05;0.004700495293633144
1.46278e-05;0.004733925884420499
1.46280e-05;0.0047673564752078535
1.46283e-05;0.004800787065994981
1.46285e-05;0.004834217656782336
1.46288e-05;0.004867648247569691
1.46290e-05;0.004901078838357045
1.46293e-05;0.0049345094291441734
1.46295e-05;0.004967940019931528
1.46298e-05;0.004987697067242441
1.46300e-05;0.005002517053158891
1.46303e-05;0.005017337039075442
1.46305e-05;0.005032157024991993
1.46308e-05;0.005046977010908443
1.46310e-05;0.005061796996824993
1.46313e-05;0.0050766169827415435
1.46315e-05;0.005091436968657994
1.46318e-05;0.005106256954574544
1.46320e-05;0.005121076940491095
1.46323e-05;0.005135896926407545
1.46325e-05;0.005150716912324095
1.46328e-05;0.005165536898240646
1.46330e-05;0.005180356884157096
1.46333e-05;0.005195176870073647
1.46335e-05;0.005206897961008885
1.46338e-05;0.005208515307809017
1.46340e-05;0.00521013265460916
1.46343e-05;0.005211750001409304
1.46345e-05;0.005213367348209437
1.46348e-05;0.00521498469500958
1.46350e-05;0.005216602041809723
1.46353e-05;0.005218219388609856
1.46355e-05;0.00521983673541
1.46358e-05;0.005221454082210143
1.46360e-05;0.005223071429010275
1.46363e-05;0.005224688775810418
1.46365e-05;0.005226306122610562
1.46368e-05;0.005227923469410694
1.46370e-05;0.005229540816210838
1.46373e-05;0.005231158163010981
1.46375e-05;0.005230295486731679
1.46378e-05;0.005228537356671389
1.46380e-05;0.005226779226611087
1.46383e-05;0.005225021096550785
1.46385e-05;0.0052232629664904955
1.46388e-05;0.005221504836430193
1.46390e-05;0.005219746706369891
1.46393e-05;0.005217988576309601
1.46395e-05;0.005216230446249299
1.46398e-05;0.005205484151947208
1.46400e-05;0.005191492530727853
1.46403e-05;0.005177500909508403
1.46405e-05;0.005163509288288954
1.46408e-05;0.005149517667069599
1.46410e-05;0.00513552604585015
1.46413e-05;0.0051215344246307
1.46415e-05;0.005107542803411345
1.46418e-05;0.005093551182191895
1.46420e-05;0.005060965548405837
1.46423e-05;0.005021666235623188
1.46425e-05;0.004982366922840273
1.46428e-05;0.004943067610057358
1.46430e-05;0.004903768297274709
1.46433e-05;0.004864468984491794
1.46435e-05;0.004825169671708879
1.46438e-05;0.004785870358926231
1.46440e-05;0.0047465710461433155
1.46443e-05;0.0047031461558223915
1.46445e-05;0.004646270090123099
1.46448e-05;0.004589394024423422
1.46450e-05;0.004532517958723743
1.46453e-05;0.004475641893024451
1.46455e-05;0.004418765827324774
1.46458e-05;0.004361889761625096
1.46460e-05;0.004305013695925418
1.46463e-05;0.004248137630226126
1.46465e-05;0.004191261564526448
1.46468e-05;0.004135286491650664
1.46470e-05;0.004079636737292586
1.46473e-05;0.00402398698293413
1.46475e-05;0.003968337228575675
1.46478e-05;0.003912687474217596
1.46480e-05;0.003857037719859141
1.46483e-05;0.0038013879655006853
1.46485e-05;0.003745738211142607
1.46488e-05;0.003705413342199486
1.46490e-05;0.0036706217792604233
1.46493e-05;0.003635830216321596
1.46495e-05;0.0036010386533825334
1.46498e-05;0.0035662470904434707
1.46500e-05;0.003531455527504644
1.46503e-05;0.003496663964565581
1.46505e-05;0.0034618724016265185
1.46508e-05;0.0034523153306667297
1.46510e-05;0.0034518695947808203
1.46513e-05;0.003451423858894911
1.46515e-05;0.0034509781230090044
1.46518e-05;0.0034505323871230954
1.46520e-05;0.003450086651237186
1.46523e-05;0.0034496409153512795
1.46525e-05;0.00344919517946537
1.46528e-05;0.0034487494435794606
1.46530e-05;0.003455758717250879
1.46533e-05;0.0034870745613648133
1.46535e-05;0.0035183904054787475
1.46538e-05;0.0035497062495924692
1.46540e-05;0.0035810220937064034
1.46543e-05;0.0036123379378203376
1.46545e-05;0.003643653781934272
1.46548e-05;0.003674969626047994
1.46550e-05;0.003706285470161928
1.46553e-05;0.0037376013142758624
1.46555e-05;0.00377941826774003
1.46558e-05;0.0038250268222411164
1.46560e-05;0.003870635376742203
1.46563e-05;0.00391624393124298
1.46565e-05;0.003961852485744067
1.46568e-05;0.004007461040245153
1.46570e-05;0.004053069594745931
1.46573e-05;0.004098678149247017
1.46575e-05;0.004140171867600657
1.46578e-05;0.004180179855591362
1.46580e-05;0.004220187843582337
1.46583e-05;0.004260195831573312
1.46585e-05;0.004300203819564016
1.46588e-05;0.004340211807554992
1.46590e-05;0.004380219795545967
1.46593e-05;0.004420227783536672
1.46595e-05;0.004437704700796545
1.46598e-05;0.004447046398404278
1.46600e-05;0.004456388096011949
1.46603e-05;0.004465729793619682
1.46605e-05;0.004475071491227416
1.46608e-05;0.004484413188835086
1.46610e-05;0.00449375488644282
1.46613e-05;0.004503096584050553
1.46615e-05;0.004512438281658224
1.46618e-05;0.0045217799792659575
1.46620e-05;0.0045212454492834465
1.46623e-05;0.004488510126016303
1.46625e-05;0.004455774802748937
1.46628e-05;0.004423039479481571
1.46630e-05;0.004390304156214205
1.46633e-05;0.00435756883294706
1.46635e-05;0.004324833509679694
1.46638e-05;0.0042920981864123285
1.46640e-05;0.004259362863145185
1.46643e-05;0.004226627539877819
1.46645e-05;0.004193892216610453
1.46648e-05;0.004143901241978519
1.46650e-05;0.0040876798260245425
1.46653e-05;0.004031458410070566
1.46655e-05;0.00397523699411697
1.46658e-05;0.003919015578162994
1.46660e-05;0.0038627941622090167
1.46663e-05;0.0038065727462554206
1.46665e-05;0.0037483444466110023
1.46668e-05;0.003689391528068719
1.46670e-05;0.003630438609526836
1.46673e-05;0.003571485690984553
1.46675e-05;0.00351253277244227
1.46678e-05;0.0034535798539003866
1.46680e-05;0.003394626935358104
1.46683e-05;0.0033503002955169755
1.46685e-05;0.003311254718053321
1.46688e-05;0.003272209140589401
1.46690e-05;0.003233163563125482
1.46693e-05;0.003194117985661827
1.46695e-05;0.003155072408197908
1.46698e-05;0.003116026830733988
1.46700e-05;0.0030769812532703334
1.46703e-05;0.003037935675806414
1.46705e-05;0.002998890098342495
1.46708e-05;0.0029598445208788397
1.46710e-05;0.0029271528704597856
1.46713e-05;0.002915177783072379
1.46715e-05;0.002903202695684973
1.46718e-05;0.0028912276082976476
1.46720e-05;0.0028792525209102413
1.46723e-05;0.002867277433522835
1.46725e-05;0.00285530234613551
1.46728e-05;0.0028433272587481038
1.46730e-05;0.0028313521713606974
1.46733e-05;0.002819377083973372
1.46735e-05;0.002807401996585966
1.46738e-05;0.0027954269091985595
1.46740e-05;0.002795128212392402
1.46743e-05;0.002799045471556559
1.46745e-05;0.0028029627307207166
1.46748e-05;0.002806879989884847
1.46750e-05;0.0028107972490490044
1.46753e-05;0.0028147145082131615
1.46755e-05;0.002818631767377292
1.46758e-05;0.0028225490265414493
1.46760e-05;0.0028264662857056064
1.46763e-05;0.002830383544869737
1.46765e-05;0.0028377632074786377
1.46768e-05;0.0028463930287195515
1.46770e-05;0.0028550228499604063
1.46773e-05;0.00286365267120132
1.46775e-05;0.002872282492442234
1.46778e-05;0.002880912313683089
1.46780e-05;0.0028895421349240027
1.46783e-05;0.002898171956164916
1.46785e-05;0.0029068017774057714
1.46788e-05;0.002915431598646685
1.46790e-05;0.002925232858146759
1.46793e-05;0.002935457085008882
1.46795e-05;0.0029456813118710744
1.46798e-05;0.0029559055387332668
1.46800e-05;0.0029661297655954586
1.46803e-05;0.0029763539924575816
1.46805e-05;0.002986578219319774
1.46808e-05;0.0029968024461819657
1.46810e-05;0.0030070266730440887
1.46813e-05;0.003017250899906281
1.46815e-05;0.0030274751267684733
1.46818e-05;0.0030376993536305958
1.46820e-05;0.003050950533590003
1.46823e-05;0.0030740708959016046
1.46825e-05;0.0030971912582130495
1.46828e-05;0.0031203116205246514
1.46830e-05;0.003143431982836253
1.46833e-05;0.0031665523451476977
1.46835e-05;0.003189672707459299
1.46838e-05;0.003212793069770901
1.46840e-05;0.003235913432082346
1.46843e-05;0.0032590337943939475
1.46845e-05;0.0032821541567055494
1.46848e-05;0.0033052745190169943
1.46850e-05;0.0033283948813285958
1.46853e-05;0.0033562397918987254
1.46855e-05;0.0033857905795808595
1.46858e-05;0.0034153413672631944
1.46860e-05;0.003444892154945529
1.46863e-05;0.0034744429426276633
1.46865e-05;0.0035039937303099978
1.46868e-05;0.003533544517992332
1.46870e-05;0.0035630953056744667
1.46873e-05;0.003592646093356801
1.46875e-05;0.0036179761415087424
1.46878e-05;0.0036417822211098293
1.46880e-05;0.0036655883007110776
1.46883e-05;0.0036893943803123254
1.46885e-05;0.0037132004599135736
1.46888e-05;0.0037370065395146606
1.46890e-05;0.0037608126191159084
1.46893e-05;0.0037846186987171566
1.46895e-05;0.0038084247783182435
1.46898e-05;0.003812791873571744
1.46900e-05;0.003810140198632687
1.46903e-05;0.0038074885236936483
1.46905e-05;0.0038048368487545916
1.46908e-05;0.0038021851738155345
1.46910e-05;0.0037995334988764956
1.46913e-05;0.003796881823937439
1.46915e-05;0.003794230148998382
1.46918e-05;0.0037915784740593433
1.46920e-05;0.0037889267991202866
1.46923e-05;0.0037778295530179777
1.46925e-05;0.003739196075188438
1.46928e-05;0.0037005625973586366
1.46930e-05;0.0036619291195288356
1.46933e-05;0.0036232956416992956
1.46935e-05;0.0035846621638694945
1.46938e-05;0.003546028686039693
1.46940e-05;0.0035073952082101535
1.46943e-05;0.003468761730380352
1.46945e-05;0.0034301282525505505
1.46948e-05;0.003391494774721011
1.46950e-05;0.0033392379020006258
1.46953e-05;0.003282062074859634
1.46955e-05;0.00322488624771903
1.46958e-05;0.0031677104205780383
1.46960e-05;0.003110534593437047
1.46963e-05;0.003053358766296443
1.46965e-05;0.002996027742964704
1.46968e-05;0.0029381907126158346
1.46970e-05;0.0028803536822669656
1.46973e-05;0.0028225166519184877
1.46975e-05;0.002764679621569618
1.46978e-05;0.0027068425912207487
1.46980e-05;0.0026490055608722712
1.46983e-05;0.0026064332069766247
1.46985e-05;0.0025693724196421907
1.46988e-05;0.002532311632308008
1.46990e-05;0.002495250844973574
1.46993e-05;0.00245819005763914
1.46995e-05;0.002421129270304957
1.46998e-05;0.002384068482970523
