Time(s);Current(A)
1.50000e-06;0.014422248417004263
1.50025e-06;0.014448147027295013
1.50050e-06;0.014474045637585743
1.50075e-06;0.014499944247876472
1.50100e-06;0.014525842858167224
1.50125e-06;0.014550078252199035
1.50150e-06;0.014572954965820043
1.50175e-06;0.014595831679441031
1.50200e-06;0.014618708393062039
1.50225e-06;0.014641585106683027
1.50250e-06;0.014664461820304014
1.50275e-06;0.014687338533925022
1.50300e-06;0.01471021524754601
1.50325e-06;0.014733091961167018
1.50350e-06;0.014755899078590698
1.50375e-06;0.014777394591816553
1.50400e-06;0.014798890105042426
1.50425e-06;0.014820385618268282
1.50450e-06;0.014841881131494155
1.50475e-06;0.014863376644720011
1.50500e-06;0.014884872157945867
1.50525e-06;0.014906367671171742
1.50550e-06;0.014927863184397597
1.50575e-06;0.01494935869762347
1.50600e-06;0.01496887313548313
1.50625e-06;0.014986769234009047
1.50650e-06;0.015004665332534948
1.50675e-06;0.01502256143106085
1.50700e-06;0.015040457529586767
1.50725e-06;0.015058353628112668
1.50750e-06;0.015076249726638584
1.50775e-06;0.015094145825164485
1.50800e-06;0.015112041923690388
1.50825e-06;0.015129777461268172
1.50850e-06;0.015144487080452507
1.50875e-06;0.015159196699636855
1.50900e-06;0.015173906318821189
1.50925e-06;0.015188615938005525
1.50950e-06;0.015203325557189873
1.50975e-06;0.015218035176374206
1.51000e-06;0.015232744795558554
1.51025e-06;0.01524745441474289
1.51050e-06;0.015262251590522071
1.51075e-06;0.015278698850670068
1.51100e-06;0.015295146110818062
1.51125e-06;0.015311593370966072
1.51150e-06;0.015328040631114067
1.51175e-06;0.015344487891262077
1.51200e-06;0.015360935151410071
1.51225e-06;0.015377382411558067
1.51250e-06;0.015393829671706077
1.51275e-06;0.015410386293696643
1.51300e-06;0.015429003939957353
1.51325e-06;0.01544762158621805
1.51350e-06;0.015466239232478744
1.51375e-06;0.015484856878739454
1.51400e-06;0.015503474525000149
1.51425e-06;0.015522092171260861
1.51450e-06;0.015540709817521555
1.51475e-06;0.015559327463782266
1.51500e-06;0.015577945110042962
1.51525e-06;0.015596562756303656
1.51550e-06;0.01561509184152788
1.51575e-06;0.015631951912758898
1.51600e-06;0.01564881198398993
1.51625e-06;0.015665672055220948
1.51650e-06;0.015682532126451966
1.51675e-06;0.015699392197683
1.51700e-06;0.01571625226891402
1.51725e-06;0.01573311234014505
1.51750e-06;0.01574997241137607
1.51775e-06;0.015766832482607088
1.51800e-06;0.01578369255383812
1.51825e-06;0.0158001459328581
1.51850e-06;0.015808934823994758
1.51875e-06;0.015817723715131404
1.51900e-06;0.015826512606268058
1.51925e-06;0.015835301497404704
1.51950e-06;0.01584409038854135
1.51975e-06;0.015852879279678003
1.52000e-06;0.01586166817081465
1.52025e-06;0.015869898505416487
1.52050e-06;0.015867602329608772
1.52075e-06;0.015865306153801058
1.52100e-06;0.01586300997799334
1.52125e-06;0.015860713802185625
1.52150e-06;0.01585841762637791
1.52175e-06;0.015856121450570197
1.52200e-06;0.015853825274762482
1.52225e-06;0.01585099669392788
1.52250e-06;0.01583813445184693
1.52275e-06;0.015825272209765973
1.52300e-06;0.015812409967685022
1.52325e-06;0.015799547725604064
1.52350e-06;0.015786685483523116
1.52375e-06;0.015773823241442168
1.52400e-06;0.015760960999361206
1.52425e-06;0.015748098757280258
1.52450e-06;0.0157352365151993
1.52475e-06;0.01572237427311835
1.52500e-06;0.01570938851742263
1.52525e-06;0.01569407503432528
1.52550e-06;0.015678761551227945
1.52575e-06;0.015663448068130595
1.52600e-06;0.01564813458503326
1.52625e-06;0.015632821101935923
1.52650e-06;0.015617507618838573
1.52675e-06;0.015602194135741237
1.52700e-06;0.015586880652643888
1.52725e-06;0.01557156716954655
1.52750e-06;0.015556253686449202
1.52775e-06;0.015541200498312223
1.52800e-06;0.015531052807539213
1.52825e-06;0.015520905116766194
1.52850e-06;0.015510716379928695
1.52875e-06;0.015499754092343747
1.52900e-06;0.015488791804758805
1.52925e-06;0.015477666709460759
1.52950e-06;0.015463309221307502
1.52975e-06;0.015445858512825499
1.53000e-06;0.015428407804343482
1.53025e-06;0.01541095709586148
1.53050e-06;0.015393506387379479
1.53075e-06;0.01537183285719809
1.53100e-06;0.015346709706385839
1.53125e-06;0.015321586555573564
1.53150e-06;0.015296463404761313
1.53175e-06;0.015270859905347626
1.53200e-06;0.015236203795793199
1.53225e-06;0.015201547686238772
1.53250e-06;0.015166891576684315
1.53275e-06;0.01513223546712989
1.53300e-06;0.015097579357575433
1.53325e-06;0.015062923248021005
1.53350e-06;0.015027890590881032
1.53375e-06;0.014985761548987855
1.53400e-06;0.014943632507094714
1.53425e-06;0.014901503465201537
1.53450e-06;0.014859374423308395
1.53475e-06;0.014817245381415253
1.53500e-06;0.014775116339522077
1.53525e-06;0.014732933145337945
1.53550e-06;0.014689729401542354
1.53575e-06;0.0146465256577468
1.53600e-06;0.01460344545885113
1.53625e-06;0.01456269357695368
1.53650e-06;0.014521941695056231
1.53675e-06;0.014481392837880967
1.53700e-06;0.014444670167882163
1.53725e-06;0.014407947497883327
1.53750e-06;0.014371638802890203
1.53775e-06;0.01434313184672351
1.53800e-06;0.014314624890556791
1.53825e-06;0.014286117934390098
1.53850e-06;0.01425761097822338
1.53875e-06;0.014232771197331621
1.53900e-06;0.014210927129824304
1.53925e-06;0.014189083062316967
1.53950e-06;0.014167238994809648
1.53975e-06;0.01414562576780558
1.54000e-06;0.014128362941893883
1.54025e-06;0.014111100115982187
1.54050e-06;0.014093837290070476
1.54075e-06;0.014076574464158779
1.54100e-06;0.014059311638247068
1.54125e-06;0.014043513325571706
1.54150e-06;0.014028911372921364
1.54175e-06;0.014014309420271036
1.54200e-06;0.013999707467620706
1.54225e-06;0.013985105514970364
1.54250e-06;0.013970627805139316
1.54275e-06;0.013958491565236748
1.54300e-06;0.013946355325334189
1.54325e-06;0.013934219085431632
1.54350e-06;0.013922082845529064
1.54375e-06;0.013909873234721825
1.54400e-06;0.013897572644856152
1.54425e-06;-0.02543805865481548
1.54450e-06;-0.011703188370738006
1.54475e-06;-0.0032603825583047766
1.54500e-06;0.003663684305378218
1.54525e-06;0.020910679177315795
1.54550e-06;0.02684500445108136
1.54575e-06;0.02416512757844267
1.54600e-06;0.01611049029114473
1.54625e-06;0.0045592731876541205
1.54650e-06;0.0012754010769105446
1.54675e-06;0.005037550257645319
1.54700e-06;0.011667714259011606
1.54725e-06;0.02017220104341981
1.54750e-06;0.023174853754047032
1.54775e-06;0.021277577684835333
1.54800e-06;0.016092721319188513
1.54825e-06;0.008759566250998689
1.54850e-06;0.0066338677435736956
1.54875e-06;0.00894210295737336
1.54900e-06;0.013061656240998362
1.54925e-06;0.018366065687260562
1.54950e-06;0.02023218744031118
1.54975e-06;0.01903539390085043
1.55000e-06;0.015784523618013663
1.55025e-06;0.011192416058489335
1.55050e-06;0.009865915506198707
1.55075e-06;0.011319693202013249
1.55100e-06;0.01368225555033606
1.55125e-06;0.016972412635179818
1.55150e-06;0.01907682648500458
1.55175e-06;0.017835962244345083
1.55200e-06;0.01608122022863412
1.55225e-06;0.013701651875753298
1.55250e-06;0.012479268158177669
1.55275e-06;0.012952244264381081
1.55300e-06;0.01433524885289664
1.55325e-06;0.016107981371176056
1.55350e-06;0.01712879411262716
1.55375e-06;0.016969977410481115
1.55400e-06;0.015979452629479907
1.55425e-06;0.014537625998126254
1.55450e-06;0.013791064268501985
1.55475e-06;0.014106122132642297
1.55500e-06;0.014990637851439993
1.55525e-06;0.016118503395728914
1.55550e-06;0.016774447515443124
1.55575e-06;0.016690452835610107
1.55600e-06;0.01608435873198845
1.55625e-06;0.015194334865188933
1.55650e-06;0.014738426615694633
1.55675e-06;0.014945912853031991
1.55700e-06;0.015508303807026745
1.55725e-06;0.016221147868409617
1.55750e-06;0.016636252817491575
1.55775e-06;0.016585613424233307
1.55800e-06;0.016205566476041804
1.55825e-06;0.015645194260521127
1.55850e-06;0.01535440676564388
1.55875e-06;0.015477344116385147
1.55900e-06;0.015821323787952136
1.55925e-06;0.016258535206742954
1.55950e-06;0.016508319032954945
1.55975e-06;0.01646551760293412
1.56000e-06;0.016215611895619535
1.56025e-06;0.01585205842232448
1.56050e-06;0.015656735142821336
1.56075e-06;0.015719968430449826
1.56100e-06;0.01592110227169032
1.56125e-06;0.01618012565884224
1.56150e-06;0.016321293261803035
1.56175e-06;0.016278806355790543
1.56200e-06;0.016106282406609145
1.56225e-06;0.01586232874963879
1.56250e-06;0.01572357012980314
1.56275e-06;0.01574663311017159
1.56300e-06;0.015855985097756257
1.56325e-06;0.01600156048911093
1.56350e-06;0.016073334509301443
1.56375e-06;0.01603015552059276
1.56400e-06;0.01590567560143202
1.56425e-06;0.015736673847179947
1.56450e-06;0.015633844036136046
1.56475e-06;0.015632707432837758
1.56500e-06;0.015686002519771567
1.56525e-06;0.015762422103106098
1.56550e-06;0.015793107864636925
1.56575e-06;0.015752346513330455
1.56600e-06;0.015655629143941835
1.56625e-06;0.015539564930725532
1.56650e-06;0.015466945101516999
1.56675e-06;0.015455372679697876
1.56700e-06;0.015478748757244828
1.56725e-06;0.01551752116304812
1.56750e-06;0.01552861525343474
1.56775e-06;0.015495986972560993
1.56800e-06;0.01542975391616047
1.56825e-06;0.015352040169582902
1.56850e-06;0.015302309850072878
1.56875e-06;0.015291138313379669
1.56900e-06;0.015303178285047073
1.56925e-06;0.015321385175719519
1.56950e-06;0.015321021165127067
1.56975e-06;0.015293673960551977
1.57000e-06;0.015244369879140717
1.57025e-06;0.015187492146863754
1.57050e-06;0.01514757858838709
1.57075e-06;0.015131135598796537
1.57100e-06;0.015128580347392747
1.57125e-06;0.015129615978095722
1.57150e-06;0.015118634547994766
1.57175e-06;0.015090302436073818
1.57200e-06;0.015047827817313664
1.57225e-06;0.015000451437942975
1.57250e-06;0.014963505342279526
1.57275e-06;0.0149410507867346
1.57300e-06;0.014927164595695165
1.57325e-06;0.01491548161965789
1.57350e-06;0.014896258271917944
1.57375e-06;0.014866191187016521
1.57400e-06;0.014827397863759929
1.57425e-06;0.01478560290057891
1.57450e-06;0.014750515308951953
1.57475e-06;0.014724768257423238
1.57500e-06;0.014703325917408439
1.57525e-06;0.014682556492671939
1.57550e-06;0.01466178706793544
1.57575e-06;0.014634479705205058
1.57600e-06;0.014602167422950488
1.57625e-06;0.014569236477593775
1.57650e-06;0.014536305532237087
1.57675e-06;0.01451023018870508
1.57700e-06;0.014489943544368217
1.57725e-06;0.014470635675192146
1.57750e-06;0.014451327806016061
1.57775e-06;0.014428941026421439
1.57800e-06;0.014405218831690448
1.57825e-06;0.01438182897566984
1.57850e-06;0.01435843911964923
1.57875e-06;0.0143407340583487
1.57900e-06;0.014329003639872181
1.57925e-06;0.014318801932389835
1.57950e-06;0.014308600224907497
1.57975e-06;0.01429783932884917
1.58000e-06;0.01428825248937768
1.58025e-06;0.014279590878992898
1.58050e-06;0.01427092926860811
1.58075e-06;0.014266863374882664
1.58100e-06;0.014268011410875211
1.58125e-06;0.014270629669073314
1.58150e-06;0.014273247927271417
1.58175e-06;0.014276216425263583
1.58200e-06;0.014280853878444565
1.58225e-06;0.014286379725720623
1.58250e-06;0.014291905572996673
1.58275e-06;0.01430067706565106
1.58300e-06;0.014313110187668883
1.58325e-06;0.014326569040635508
1.58350e-06;0.014340027893602147
1.58375e-06;0.014353817903402125
1.58400e-06;0.014367810093763148
1.58425e-06;0.01438378367371755
1.58450e-06;0.014400966947748235
1.58475e-06;0.014418150221778935
1.58500e-06;0.01443533349580962
1.58525e-06;0.01445251676984032
1.58550e-06;0.014470151211323945
1.58575e-06;0.014488061103227345
1.58600e-06;0.01450597099513076
1.58625e-06;0.01452388088703416
1.58650e-06;0.014541790778937577
1.58675e-06;0.014557600427171089
1.58700e-06;0.014572127817571659
1.58725e-06;0.01458665520797224
1.58750e-06;0.01460118259837281
1.58775e-06;0.014615709988773392
1.58800e-06;0.01463023737917396
1.58825e-06;0.01464476476957453
1.58850e-06;0.014658327330372924
1.58875e-06;0.01466487527313053
1.58900e-06;0.014671423215888142
1.58925e-06;0.014677971158645747
1.58950e-06;0.01468451910140336
1.58975e-06;0.014691067044160965
1.59000e-06;0.014697614986918572
1.59025e-06;0.014704162929676183
1.59050e-06;0.01470532342493772
1.59075e-06;0.014703194731973006
1.59100e-06;0.014701066039008294
1.59125e-06;0.01469893734604358
1.59150e-06;0.014696808653078866
1.59175e-06;0.014694679960114154
1.59200e-06;0.014692551267149438
1.59225e-06;0.014690422574184726
1.59250e-06;0.014688293881220012
1.59275e-06;0.014686165188255298
1.59300e-06;0.014684036495290586
1.59325e-06;0.01468190780232587
1.59350e-06;0.014675917122903193
1.59375e-06;0.014667568592123904
1.59400e-06;0.014659220061344621
1.59425e-06;0.01465087153056534
1.59450e-06;0.01464252299978605
1.59475e-06;0.014634174469006767
1.59500e-06;0.014625825938227479
1.59525e-06;0.014617477407448197
1.59550e-06;0.014609128876668914
1.59575e-06;0.014600780345889625
1.59600e-06;0.014592431815110342
1.59625e-06;0.014584083284331053
1.59650e-06;0.014575853443784682
1.59675e-06;0.01456769606696384
1.59700e-06;0.014559538690142992
1.59725e-06;0.014551381313322148
1.59750e-06;0.0145432239365013
1.59775e-06;0.014535066559680457
1.59800e-06;0.014526909182859607
1.59825e-06;0.014518751806038765
1.59850e-06;0.014510594429217923
1.59875e-06;0.014502437052397073
1.59900e-06;0.014494279675576231
1.59925e-06;0.014486122298755382
1.59950e-06;0.014478306005762618
1.59975e-06;0.014470697954040369
1.60000e-06;0.014463089902318114
1.60025e-06;0.014455481850595866
1.60050e-06;0.014447873798873611
1.60075e-06;0.014440265747151362
1.60100e-06;0.014432657695429113
1.60125e-06;0.01442504964370686
1.60150e-06;0.01441744159198461
1.60175e-06;0.014409833540262356
1.60200e-06;0.014402225488540107
1.60225e-06;0.014394617436817853
1.60250e-06;0.014386392032040852
1.60275e-06;0.014377789715859986
1.60300e-06;0.014369187399679115
1.60325e-06;0.014360585083498249
1.60350e-06;0.014351982767317377
1.60375e-06;0.014343380451136513
1.60400e-06;0.014334778134955647
1.60425e-06;0.014326175818774775
1.60450e-06;0.01431757350259391
1.60475e-06;0.014308971186413038
1.60500e-06;0.014300368870232172
1.60525e-06;0.014291766554051307
1.60550e-06;0.014283638275962672
1.60575e-06;0.014275799411462349
1.60600e-06;0.014267960546962017
1.60625e-06;0.014260121682461694
1.60650e-06;0.014252282817961363
1.60675e-06;0.01424444395346104
1.60700e-06;0.014236605088960715
1.60725e-06;0.014228766224460385
1.60750e-06;0.014220927359960061
1.60775e-06;0.014213088495459731
1.60800e-06;0.014205249630959406
1.60825e-06;0.014197410766459083
1.60850e-06;0.014193198855458089
1.60875e-06;0.014191201301581621
1.60900e-06;0.014189203747705152
1.60925e-06;0.014187206193828683
1.60950e-06;0.014185208639952216
1.60975e-06;0.014183211086075745
1.61000e-06;0.014181213532199278
1.61025e-06;0.014179215978322807
1.61050e-06;0.01417721842444634
1.61075e-06;0.014175220870569868
1.61100e-06;0.014174313223036123
1.61125e-06;0.014181329541221113
1.61150e-06;0.014188345859406107
1.61175e-06;0.014195362177591094
1.61200e-06;0.014202378495776088
1.61225e-06;0.014209394813961078
1.61250e-06;0.014216411132146067
1.61275e-06;0.014223427450331061
1.61300e-06;0.01423044376851605
1.61325e-06;0.014237460086701044
1.61350e-06;0.014244476404886032
1.61375e-06;0.014254765844318739
1.61400e-06;0.01426705361633427
1.61425e-06;0.014279341388349793
1.61450e-06;0.014291629160365325
1.61475e-06;0.014303916932380848
1.61500e-06;0.014316204704396368
1.61525e-06;0.014328492476411901
1.61550e-06;0.014340780248427424
1.61575e-06;0.014353068020442956
1.61600e-06;0.01436515418455085
1.61625e-06;0.014375774595055953
1.61650e-06;0.014386395005561046
1.61675e-06;0.01439701541606614
1.61700e-06;0.014407635826571242
1.61725e-06;0.014418256237076337
1.61750e-06;0.014428876647581438
1.61775e-06;0.014439497058086533
1.61800e-06;0.014450117468591626
1.61825e-06;0.014460737879096729
1.61850e-06;0.014468828595111297
1.61875e-06;0.014475374861488274
1.61900e-06;0.014481921127865246
1.61925e-06;0.014488467394242218
1.61950e-06;0.014495013660619196
1.61975e-06;0.014501559926996168
1.62000e-06;0.014508106193373145
1.62025e-06;0.014514652459750118
1.62050e-06;0.014521198726127095
1.62075e-06;0.014527744992504067
1.62100e-06;0.01453429125888104
1.62125e-06;0.014540837525258019
1.62150e-06;0.014547583006179402
1.62175e-06;0.014554450113183334
1.62200e-06;0.014561317220187261
1.62225e-06;0.014568184327191189
1.62250e-06;0.014575051434195123
1.62275e-06;0.01458191854119905
1.62300e-06;0.014588785648202983
1.62325e-06;0.01459565275520691
1.62350e-06;0.014602519862210837
1.62375e-06;0.01460938696921477
1.62400e-06;0.014616254076218697
1.62425e-06;0.01462312118322263
1.62450e-06;0.014629727537952775
1.62475e-06;0.01463617469608577
1.62500e-06;0.01464262185421876
1.62525e-06;0.01464906901235175
1.62550e-06;0.014655516170484746
1.62575e-06;0.014661963328617737
1.62600e-06;0.014668410486750732
1.62625e-06;0.014674857644883722
1.62650e-06;0.014681304803016713
1.62675e-06;0.014687751961149709
1.62700e-06;0.014694199119282698
1.62725e-06;0.014700646277415694
1.62750e-06;0.014704006092003211
1.62775e-06;0.014705480996520543
1.62800e-06;0.014706955901037877
1.62825e-06;0.01470843080555521
1.62850e-06;0.014709905710072545
1.62875e-06;0.014711380614589877
1.62900e-06;0.01471285551910721
1.62925e-06;0.014714330423624543
1.62950e-06;0.014715805328141877
1.62975e-06;0.01471728023265921
1.63000e-06;0.014718755137176543
1.63025e-06;0.014720230041693877
1.63050e-06;0.01471651645303688
1.63075e-06;0.01470963514336369
1.63100e-06;0.014702753833690492
1.63125e-06;0.014695872524017302
1.63150e-06;0.014688991214344107
1.63175e-06;0.014682109904670917
1.63200e-06;0.014675228594997727
1.63225e-06;0.014668347285324531
1.63250e-06;0.014661465975651341
1.63275e-06;0.014654584665978144
1.63300e-06;0.014647703356304954
1.63325e-06;0.014640822046631759
1.63350e-06;0.01463076911033657
1.63375e-06;0.01461877980678247
1.63400e-06;0.014606790503228363
1.63425e-06;0.014594801199674266
1.63450e-06;0.014582811896120157
1.63475e-06;0.01457082259256606
1.63500e-06;0.014558833289011962
1.63525e-06;0.014546843985457854
1.63550e-06;0.014534854681903756
1.63575e-06;0.014522865378349648
1.63600e-06;0.01451087607479555
1.63625e-06;0.014498886771241452
1.63650e-06;0.014487579753626372
1.63675e-06;0.014476689290767262
1.63700e-06;0.014465798827908142
1.63725e-06;0.014454908365049032
1.63750e-06;0.014444017902189911
1.63775e-06;0.014433127439330801
1.63800e-06;0.014422236976471691
1.63825e-06;0.014411346513612571
1.63850e-06;0.014400456050753461
1.63875e-06;0.01438956558789434
1.63900e-06;0.014378675125035231
1.63925e-06;0.014365810916280823
1.63950e-06;0.014351741680143162
1.63975e-06;0.014337672444005512
1.64000e-06;0.01432360320786785
1.64025e-06;0.014309533971730199
1.64050e-06;0.01429546473559255
1.64075e-06;0.014281395499454888
1.64100e-06;0.014267326263317236
1.64125e-06;0.014253257027179575
1.64150e-06;0.014239187791041925
1.64175e-06;0.014225118554904262
1.64200e-06;0.014206325512294643
1.64225e-06;0.014184648452970752
1.64250e-06;0.014162971393646844
1.64275e-06;0.014141294334322953
1.64300e-06;0.014119617274999045
1.64325e-06;0.014097940215675155
1.64350e-06;0.014076263156351264
1.64375e-06;0.014054586097027354
1.64400e-06;0.014032909037703465
1.64425e-06;0.014011231978379555
1.64450e-06;0.013989554919055664
1.64475e-06;0.013967749542800546
1.64500e-06;0.013945011261649003
1.64525e-06;0.01392227298049748
1.64550e-06;0.013899534699345937
1.64575e-06;0.013876796418194413
1.64600e-06;0.01385405813704287
1.64625e-06;0.013831319855891347
1.64650e-06;0.013808581574739824
1.64675e-06;0.01378584329358828
1.64700e-06;0.013763105012436756
1.64725e-06;0.013740366731285213
1.64750e-06;0.01371762845013369
1.64775e-06;0.013697944624381718
1.64800e-06;0.013680125629561585
1.64825e-06;0.013662306634741467
1.64850e-06;0.013651151863523418
1.64875e-06;0.013644065788254158
1.64900e-06;0.013636979712984899
1.64925e-06;0.013629893637715633
1.64950e-06;0.013622807562446373
1.64975e-06;0.013615721487177108
1.65000e-06;0.013610974049595152
1.65025e-06;0.013623229251714318
1.65050e-06;0.013635484453833495
1.65075e-06;0.013647739655952661
1.65100e-06;0.013659994858071837
1.65125e-06;0.013672250060191004
1.65150e-06;0.01368450526231018
1.65175e-06;0.013710489801302964
1.65200e-06;0.013744856486611874
