Time(s);Current(A)
1.42500e-05;-0.0004552156219899072
1.42503e-05;-0.0005238741579795295
1.42505e-05;-0.0005920903507204429
1.42508e-05;-0.000660205246559687
1.42510e-05;-0.0007283201423989312
1.42513e-05;-0.0007932802857857152
1.42515e-05;-0.0008575179887340669
1.42518e-05;-0.0009217556916824186
1.42520e-05;-0.000981803282068943
1.42523e-05;-0.0010408913338537265
1.42525e-05;-0.0010950476033723146
1.42528e-05;-0.0011480744914261788
1.42530e-05;-0.0011948048674910742
1.42533e-05;-0.0012400933380647976
1.42535e-05;-0.0012789707285014254
1.42538e-05;-0.0013163799772630046
1.42540e-05;-0.0013478564051533596
1.42543e-05;-0.0013779742130632059
1.42545e-05;-0.0014017406166800471
1.42548e-05;-0.0014240525444307538
1.42550e-05;-0.0014395654516954715
1.42553e-05;-0.0014535213786836508
1.42555e-05;-0.0014610137960433273
1.42558e-05;-0.0014670260653390998
1.42560e-05;-0.0014672816995891283
1.42563e-05;-0.0014662190605314884
1.42565e-05;-0.0014581620336407844
1.42568e-05;-0.0014485032872194692
1.42570e-05;-0.0014388445407980885
1.42573e-05;-0.0014213932342340078
1.42575e-05;-0.0014021574261422792
1.42578e-05;-0.0013829216180504202
1.42580e-05;-0.0013575918327333057
1.42583e-05;-0.0013308665225221065
1.42585e-05;-0.001304141212310726
1.42588e-05;-0.001272499465050391
1.42590e-05;-0.0012397318503904495
1.42593e-05;-0.0012069642357302858
1.42595e-05;-0.001171219617382751
1.42598e-05;-0.0011347932631833502
1.42600e-05;-0.0010970662123893512
1.42603e-05;-0.0010590413011980367
1.42605e-05;-0.001020434218993703
1.42608e-05;-0.0009816938192344401
1.42610e-05;-0.0009430824566477834
1.42613e-05;-0.0009045006436609408
1.42615e-05;-0.000866951412225363
1.42618e-05;-0.0008296386426614944
1.42620e-05;-0.0007943530046904556
1.42623e-05;-0.0007595315812215802
1.42625e-05;-0.0007275935429857684
1.42628e-05;-0.000696315801913069
1.42630e-05;-0.0006686642682486057
1.42633e-05;-0.000641843138526085
1.42635e-05;-0.0006178534618438654
1.42638e-05;-0.0005945121898177231
1.42640e-05;-0.0005729318998553213
1.42643e-05;-0.0005517548759732749
1.42645e-05;-0.0005327141762704552
1.42648e-05;-0.0005141626962454021
1.42650e-05;-0.0004981717361918337
1.42653e-05;-0.0004827671369388498
1.42655e-05;-0.00046938392666254897
1.42658e-05;-0.0004564636158253323
1.42660e-05;-0.00044485307136354755
1.42663e-05;-0.00043354246428506236
1.42665e-05;-0.0004237357476821924
1.42668e-05;-0.0004142734230126719
1.42670e-05;-0.00040691170384554005
1.42673e-05;-0.00040003102475534314
1.42675e-05;-0.00039315034566519285
1.42678e-05;-0.0003879001037828599
1.42680e-05;-0.00038302323312088595
1.42683e-05;-0.00037814636245894507
1.42685e-05;-0.0003746847644333036
1.42688e-05;-0.00037154726479602274
1.42690e-05;-0.0003684097651587631
1.42693e-05;-0.00036700816557537117
1.42695e-05;-0.00036600408827524997
1.42698e-05;-0.0003650000109751356
1.42700e-05;-0.00036399593367501446
1.42703e-05;-0.00036299185637489326
1.42705e-05;-0.0003619877790747721
1.42708e-05;-0.0003621395107868805
1.42710e-05;-0.00036255592354241797
1.42713e-05;-0.00036297233629795545
1.42715e-05;-0.0003633887490534901
1.42718e-05;-0.0003638051618090276
1.42720e-05;-0.00036422157456456506
1.42723e-05;-0.00036452594809339945
1.42725e-05;-0.00036480466456374766
1.42728e-05;-0.00036508338103409586
1.42730e-05;-0.00036536209750444217
1.42733e-05;-0.0003656408139747903
1.42735e-05;-0.00036591953044513853
1.42738e-05;-0.00036619824691548484
1.42740e-05;-0.00036647696338583304
1.42743e-05;-0.0003652666343388756
1.42745e-05;-0.0003637153128640482
1.42748e-05;-0.0003621639913892103
1.42750e-05;-0.0003606126699143724
1.42753e-05;-0.000359061348439545
1.42755e-05;-0.00035751002696470706
1.42758e-05;-0.0003559587054898692
1.42760e-05;-0.00035440738401504177
1.42763e-05;-0.0003509625266915854
1.42765e-05;-0.00034708404838151445
1.42768e-05;-0.0003432055700714698
1.42770e-05;-0.0003393270917613989
1.42773e-05;-0.00033544861345132795
1.42775e-05;-0.00033157013514128325
1.42778e-05;-0.0003276916568312123
1.42780e-05;-0.0003238131785211414
1.42783e-05;-0.0003186779967913326
1.42785e-05;-0.0003132550291306261
1.42788e-05;-0.0003078320614699196
1.42790e-05;-0.0003024090938092131
1.42793e-05;-0.0002969861261485434
1.42795e-05;-0.0002915631584878369
1.42798e-05;-0.0002861401908271304
1.42800e-05;-0.00028071722316646067
1.42803e-05;-0.0002750619968834079
1.42805e-05;-0.0002693535832191563
1.42808e-05;-0.00026364516955494345
1.42810e-05;-0.0002579367558906919
1.42813e-05;-0.0002522283422264403
1.42815e-05;-0.000247041154435503
1.42818e-05;-0.00024197332772113632
1.42820e-05;-0.00023690550100676964
1.42823e-05;-0.0002318376742924373
1.42825e-05;-0.00022676984757807062
1.42828e-05;-0.00022242313831811753
1.42830e-05;-0.0002182415654417409
1.42833e-05;-0.00021388399618680037
1.42835e-05;-0.00020948612364244095
1.42838e-05;-0.00020327980660960097
1.42840e-05;-0.0001950221525200413
1.42843e-05;-0.0001848668494329218
1.42845e-05;-0.00017295488127588504
1.42848e-05;-0.00015942731160352986
1.42850e-05;-0.00014442520668215116
1.42853e-05;-0.0001279315154719155
1.42855e-05;-0.00010956304987557324
1.42858e-05;-8.886032209355913e-05
1.42860e-05;-6.572002946490225e-05
1.42863e-05;-4.030585501510218e-05
1.42865e-05;-1.282411742637141e-05
1.42868e-05;1.6518846272126e-05
1.42870e-05;4.751671631520363e-05
1.42873e-05;8.006219137215496e-05
1.42875e-05;0.00011427734343308887
1.42878e-05;0.00015033201671536478
1.42880e-05;0.00018817291008607103
1.42883e-05;0.00022757952711629093
1.42885e-05;0.00026872174027689814
1.42888e-05;0.0003101965613228929
1.42890e-05;0.0003529685505102333
1.42893e-05;0.00039603759207686477
1.42895e-05;0.0004400755846421815
1.42898e-05;0.00048433546763990295
1.42900e-05;0.0005292107696207798
1.42903e-05;0.0005742270029644108
1.42905e-05;0.0006191773560705486
1.42908e-05;0.0006637728491400232
1.42910e-05;0.0007077288231442335
1.42913e-05;0.0007508115430914502
1.42915e-05;0.0007928771049170393
1.42918e-05;0.0008338006029377794
1.42920e-05;0.000873369431186246
1.42923e-05;0.0009113053607622273
1.42925e-05;0.0009453995669724412
1.42928e-05;0.0009786859865143266
1.42930e-05;0.0010119724060559864
1.42933e-05;0.0010397922814631155
1.42935e-05;0.0010663603145747076
1.42938e-05;0.0010929283476861197
1.42940e-05;0.0011163473591223544
1.42943e-05;0.0011390452424700247
1.42945e-05;0.001161743125817541
1.42948e-05;0.0011805950746684678
1.42950e-05;0.0011985663019244283
1.42953e-05;0.0012165375291802666
1.42955e-05;0.001229090745125946
1.42958e-05;0.0012404032328254756
1.42960e-05;0.0012517157205250054
1.42963e-05;0.0012630282082244585
1.42965e-05;0.0012743406959239882
1.42968e-05;0.0012856531836235177
1.42970e-05;0.001296965671322971
1.42973e-05;0.0013082781590225006
1.42975e-05;0.0013174169281521169
1.42978e-05;0.001321799444573903
1.42980e-05;0.001326181960995719
1.42983e-05;0.001330564477417535
1.42985e-05;0.0013349469938393212
1.42988e-05;0.0013393295102611372
1.42990e-05;0.001343712026682953
1.42993e-05;0.0013480945431047393
1.42995e-05;0.0013524770595265553
1.42998e-05;0.0013541620312534008
1.43000e-05;0.001355229263424639
1.43003e-05;0.0013562964955958845
1.43005e-05;0.00135736372776713
1.43008e-05;0.0013584309599383683
1.43010e-05;0.001359110127668118
1.43013e-05;0.0013589401824646724
1.43015e-05;0.0013587702372612278
1.43018e-05;0.0013586002920577824
1.43020e-05;0.0013584303468543368
1.43023e-05;0.0013582604016508923
1.43025e-05;0.0013579937264680095
1.43028e-05;0.0013577059420137407
1.43030e-05;0.0013574199117458248
1.43033e-05;0.0013567004893549062
1.43035e-05;0.0013541103150604419
1.43038e-05;0.0013480208116282714
1.43040e-05;0.001337804092519864
1.43043e-05;0.0013235750640168457
1.43045e-05;0.001305567008688922
1.43048e-05;0.0012840135287036304
1.43050e-05;0.0012577769566021531
1.43053e-05;0.001230617378435251
1.43055e-05;0.001196681844972762
1.43058e-05;0.0011611946131742919
1.43060e-05;0.0011177834238684159
1.43063e-05;0.0010725576429458027
1.43065e-05;0.0010204815960926522
1.43068e-05;0.0009668368337181916
1.43070e-05;0.0009074917968203418
1.43073e-05;0.0008468413932089798
1.43075e-05;0.0007804227982797954
1.43078e-05;0.0007126832836462412
1.43080e-05;0.0006392159772937152
1.43083e-05;0.00056443700277181
1.43085e-05;0.0004862444989217463
1.43088e-05;0.00040550568931151777
1.43090e-05;0.0003229814302034742
1.43093e-05;0.0002390356293223856
1.43095e-05;0.0001537858830537235
1.43098e-05;6.730289474735642e-05
1.43100e-05;-2.00967376796742e-05
1.43103e-05;-0.0001078287372971758
1.43105e-05;-0.0001956006949209481
1.43108e-05;-0.00028217272634207125
1.43110e-05;-0.00036846997832468565
1.43113e-05;-0.00045205215700473375
1.43115e-05;-0.0005350125820653453
1.43118e-05;-0.0006153231036347392
1.43120e-05;-0.0006928052438126274
1.43123e-05;-0.0007655289692578845
1.43125e-05;-0.0008372795155977838
1.43128e-05;-0.0009038629389838575
1.43130e-05;-0.0009652068827088978
1.43133e-05;-0.0010212644794405157
1.43135e-05;-0.0010700379773652573
1.43138e-05;-0.0011173719233511408
1.43140e-05;-0.0011565881547836367
1.43143e-05;-0.0011939454241042737
1.43145e-05;-0.0012226951159701623
1.43148e-05;-0.0012494736667885435
1.43150e-05;-0.0012671284441005163
1.43153e-05;-0.0012826938711207614
1.43155e-05;-0.0012894491069867478
1.43158e-05;-0.0012941868031314937
1.43160e-05;-0.0012909155747342798
1.43163e-05;-0.0012858102972108988
1.43165e-05;-0.0012729728300323582
1.43168e-05;-0.0012583646862034995
1.43170e-05;-0.001238753007012881
1.43173e-05;-0.0012179955148468684
1.43175e-05;-0.001206128896922786
1.43178e-05;-0.0011648866182631047
1.43180e-05;-0.010500647813872496
1.43183e-05;-0.017290058540115998
1.43185e-05;-0.01476762960008761
1.43188e-05;-0.01216046821682036
1.43190e-05;-0.00521489298720513
1.43193e-05;0.0015840718114093926
1.43195e-05;0.0010659753178627511
1.43198e-05;0.0002161509985010529
1.43200e-05;-0.0044189293196209845
1.43203e-05;-0.01028667561194398
1.43205e-05;-0.008466909774187398
1.43208e-05;-0.006326809894470856
1.43210e-05;-0.002726450268775862
1.43213e-05;0.00103341510156367
1.43215e-05;0.0023256441649867066
1.43218e-05;0.001476732936458753
1.43220e-05;-0.0009522737755034015
1.43223e-05;-0.003731094490929461
1.43225e-05;-0.004349848641654075
1.43228e-05;-0.0031292434357871185
1.43230e-05;-0.0009206354586358573
1.43233e-05;0.0013849900430128353
1.43235e-05;0.0021668223254003556
1.43238e-05;0.0016096454585863664
1.43240e-05;6.48798580769347e-05
1.43243e-05;-0.0016971525159835013
1.43245e-05;-0.0021046814467539526
1.43248e-05;-0.0013590087188822975
1.43250e-05;6.254766153955191e-06
1.43253e-05;0.0014327722009418208
1.43255e-05;0.0019051570190123975
1.43258e-05;0.0015391192298525585
1.43260e-05;0.00055476240976741
1.43263e-05;-0.0005654188704002893
1.43265e-05;-0.0008369511072323924
1.43268e-05;-0.0003860329873171758
1.43270e-05;0.0004530138943092249
1.43273e-05;0.0013304229401824544
1.43275e-05;0.0016101870442623138
1.43278e-05;0.0013648508299680304
1.43280e-05;0.0007323483210931902
1.43283e-05;1.4960771952702342e-05
1.43285e-05;-0.00017062853546926656
1.43288e-05;9.65197065135762e-05
1.43290e-05;0.0006069937554966738
1.43293e-05;0.001141729435047173
1.43295e-05;0.0013023929744523748
1.43298e-05;0.0011345045263503974
1.43300e-05;0.0007245398190014235
1.43303e-05;0.00026191047508880946
1.43305e-05;0.00013294400737413832
1.43308e-05;0.00028814054610353
1.43310e-05;0.0005963576640558841
1.43313e-05;0.000920419652243358
1.43315e-05;0.0010108748781596138
1.43318e-05;0.000896311892584606
1.43320e-05;0.0006309703428396461
1.43323e-05;0.0003335613410254506
1.43325e-05;0.00024612770230293777
1.43328e-05;0.0003377011256215825
1.43330e-05;0.0005261779334809597
1.43333e-05;0.000725853328097456
1.43335e-05;0.0007810691001073006
1.43338e-05;0.0007103611798369629
1.43340e-05;0.0005479137945141241
1.43343e-05;0.0003679936997972699
1.43345e-05;0.00032206111291865897
1.43348e-05;0.0003905564973981028
1.43350e-05;0.0005218925590991191
1.43353e-05;0.0006622310394532085
1.43355e-05;0.000713921951289214
1.43358e-05;0.0006884342350496902
1.43360e-05;0.0006070374392074675
1.43363e-05;0.0005161056988138607
1.43365e-05;0.0005103605672718665
1.43368e-05;0.0005773933844844764
1.43370e-05;0.0006847353051205102
1.43373e-05;0.000798510599369936
1.43375e-05;0.0008574041909192785
1.43378e-05;0.0008684555143517426
1.43380e-05;0.000844842170592051
1.43383e-05;0.0008154652903629346
1.43385e-05;0.0008395067856791202
1.43388e-05;0.0009090399673052482
1.43390e-05;0.0010035738001300002
1.43393e-05;0.0011017376656519634
1.43395e-05;0.0011649762301290095
1.43398e-05;0.0011975523371312933
1.43400e-05;0.0012075735606707008
1.43403e-05;0.00121299529673492
1.43405e-05;0.0012507383983559335
1.43408e-05;0.0013156854728701777
1.43410e-05;0.0013948495035890998
1.43413e-05;0.0014746940752730163
1.43415e-05;0.0015309196660598923
1.43418e-05;0.0015660491768271145
1.43420e-05;0.001585013474346668
1.43423e-05;0.0015989113546661044
1.43425e-05;0.0016307198455876555
1.43428e-05;0.0016770824510255712
1.43430e-05;0.00172971386653867
1.43433e-05;0.001780066075794324
1.43435e-05;0.0018130701660410999
1.43438e-05;0.0018306007068426438
1.43440e-05;0.0018359687351910368
1.43443e-05;0.0018362565354024933
1.43445e-05;0.001845968176324154
1.43448e-05;0.001863111756650563
1.43450e-05;0.001882608406342945
1.43453e-05;0.0018992150621090233
1.43455e-05;0.0019036049043408732
1.43458e-05;0.001897064640078222
1.43460e-05;0.001881780603659722
1.43463e-05;0.0018623012519047336
1.43465e-05;0.0018478232915880336
1.43468e-05;0.001837210291779847
1.43470e-05;0.0018273919969904403
1.43473e-05;0.001815195923907874
1.43475e-05;0.0017948915607328923
1.43478e-05;0.0017673972516696911
1.43480e-05;0.0017341946746056512
1.43483e-05;0.0016982447879759365
1.43485e-05;0.0016654200981732691
1.43488e-05;0.0016351198943940902
1.43490e-05;0.0016055325102738744
1.43493e-05;0.0015747821680751155
1.43495e-05;0.0015393913125022263
1.43498e-05;0.001500047059898668
1.43500e-05;0.0014576073403651541
1.43503e-05;0.0014145358831805948
1.43505e-05;0.001374223771604575
1.43508e-05;0.001336440995816331
1.43510e-05;0.0013003140936278875
1.43513e-05;0.0012645039257266695
1.43515e-05;0.0012268682987326268
1.43518e-05;0.001188740359981754
1.43520e-05;0.0011507576089286294
1.43523e-05;0.001112814013839611
1.43525e-05;0.0010799961817209425
1.43528e-05;0.001048560726990998
1.43530e-05;0.0010213623966652682
1.43533e-05;0.0009953067849954277
1.43535e-05;0.0009686723938219995
1.43538e-05;0.0009398848575436361
1.43540e-05;0.0009078565308689633
1.43543e-05;0.0008750994420941481
1.43545e-05;0.0008419777336931675
1.43548e-05;0.0008087168891977574
1.43550e-05;0.0007749751178608135
1.43553e-05;0.0007411066120085165
1.43555e-05;0.0007035572289683135
1.43558e-05;0.0006650151427100441
1.43560e-05;0.000622799949808259
1.43563e-05;0.0005778229236079043
1.43565e-05;0.0005316275117223429
1.43568e-05;0.0004844254629590435
1.43570e-05;0.0004362420464675942
1.43573e-05;0.00038689911943443197
1.43575e-05;0.00033552803627938594
1.43578e-05;0.00028179381486078314
1.43580e-05;0.0002258119731187589
1.43583e-05;0.00016814832871347272
1.43585e-05;0.00010970335179942771
1.43588e-05;5.075306893765865e-05
1.43590e-05;-8.543254884444411e-06
1.43593e-05;-6.815379286068123e-05
1.43595e-05;-0.00012847924662727026
1.43598e-05;-0.00018984029251709598
1.43600e-05;-0.0002514335098654654
1.43603e-05;-0.0003130267272134175
1.43605e-05;-0.00037370458281033475
1.43608e-05;-0.00043413557264388336
1.43610e-05;-0.000492638046249863
1.43613e-05;-0.0005506204144117648
1.43615e-05;-0.0006065465910263597
1.43618e-05;-0.0006619182291805955
1.43620e-05;-0.000714537283705087
1.43623e-05;-0.0007664139883793011
1.43625e-05;-0.0008140048594832994
1.43628e-05;-0.0008604398754578658
1.43630e-05;-0.0009016771076629312
1.43633e-05;-0.0009415125390428587
1.43635e-05;-0.00097712941280738
1.43638e-05;-0.0010116085752303202
1.43640e-05;-0.0010418907496024415
1.43643e-05;-0.0010710410297723866
1.43645e-05;-0.0011001913099425293
1.43648e-05;-0.0011231006737635358
1.43650e-05;-0.0011443269122227407
1.43653e-05;-0.0011655531506820894
1.43655e-05;-0.0011813897027185296
1.43658e-05;-0.001195772699314828
1.43660e-05;-0.001210155695911224
1.43663e-05;-0.0012201037821472983
1.43665e-05;-0.0012288558084319933
1.43668e-05;-0.0012376078347167473
1.43670e-05;-0.0012416698139391703
1.43673e-05;-0.0012444669248766935
1.43675e-05;-0.0012472640358142356
1.43678e-05;-0.0012445822052708762
1.43680e-05;-0.0012404227479101996
1.43683e-05;-0.0012362632905494949
1.43685e-05;-0.0012321038331887901
1.43688e-05;-0.0012279443758281135
1.43690e-05;-0.0012237849184674088
1.43693e-05;-0.001219625461106704
1.43695e-05;-0.0012138090829707055
1.43698e-05;-0.0012038882778989055
1.43700e-05;-0.0011939674728271056
1.43703e-05;-0.0011840466677553727
1.43705e-05;-0.0011741258626835728
1.43708e-05;-0.0011642050576117727
1.43710e-05;-0.00115428425254004
1.43713e-05;-0.00114436344746824
1.43715e-05;-0.0011341619920242753
1.43718e-05;-0.001123884847413463
1.43720e-05;-0.0011136077028025813
1.43723e-05;-0.0011033305581916995
1.43725e-05;-0.0010947394842313008
1.43728e-05;-0.00108660313007738
1.43730e-05;-0.0010784667759234042
1.43733e-05;-0.0010703304217694284
1.43735e-05;-0.0010624271151881816
1.43738e-05;-0.0010545866596784594
1.43740e-05;-0.0010467462041687371
1.43743e-05;-0.001038905748659068
1.43745e-05;-0.0010310652931493458
1.43748e-05;-0.0010232248376396236
1.43750e-05;-0.0010153843821299545
1.43753e-05;-0.0010075439266202322
1.43755e-05;-0.00099775407870805
1.43758e-05;-0.0009874384952131623
1.43760e-05;-0.0009771229117182048
1.43763e-05;-0.0009668073282232473
1.43765e-05;-0.0009564917447283597
1.43768e-05;-0.0009461761612334021
1.43770e-05;-0.0009358605777384446
1.43773e-05;-0.0009255449942435569
1.43775e-05;-0.0009131128943319976
1.43778e-05;-0.0009001099868239447
1.43780e-05;-0.0008871070793159799
1.43783e-05;-0.000874104171807927
1.43785e-05;-0.0008611012642998742
1.43788e-05;-0.0008480983567919094
1.43790e-05;-0.0008350954492838565
1.43793e-05;-0.0008220925417758037
1.43795e-05;-0.0008086175278383756
1.43798e-05;-0.0007950151905622782
1.43800e-05;-0.0007814128532861809
1.43803e-05;-0.0007678105160101756
1.43805e-05;-0.0007542081787340782
1.43808e-05;-0.0007406058414579809
1.43810e-05;-0.0007270035041818835
1.43813e-05;-0.0007134011669058782
1.43815e-05;-0.0007013142268003178
1.43818e-05;-0.0006896359772251201
1.43820e-05;-0.0006779577276500015
1.43823e-05;-0.0006662794780748038
1.43825e-05;-0.0006546012284996062
1.43828e-05;-0.0006460109612648211
1.43830e-05;-0.0006382534982380294
1.43833e-05;-0.0006304960352112375
1.43835e-05;-0.0006227385721844983
1.43838e-05;-0.0006149811091577064
1.43840e-05;-0.0006113020909698499
1.43843e-05;-0.0006087229968262743
1.43845e-05;-0.0006087612009012046
1.43848e-05;-0.000609505269430664
1.43850e-05;-0.0006128194398619226
1.43853e-05;-0.0006168267462775239
1.43855e-05;-0.0006236386462511152
1.43858e-05;-0.0006312069227383804
1.43860e-05;-0.0006416867695734237
1.43863e-05;-0.0006529518437091593
1.43865e-05;-0.0006674554470374553
1.43868e-05;-0.0006828324558592705
1.43870e-05;-0.0006982094646810858
1.43873e-05;-0.0007170375121914221
1.43875e-05;-0.0007367962773114814
1.43878e-05;-0.0007565550424315406
1.43880e-05;-0.0007793777554520455
1.43883e-05;-0.000803026790784149
1.43885e-05;-0.0008266758261162526
1.43888e-05;-0.0008531600558233786
1.43890e-05;-0.0008804089148408452
1.43893e-05;-0.0009076577738583117
1.43895e-05;-0.0009349066328757781
1.43898e-05;-0.00096215549189306
1.43900e-05;-0.0009894043509105265
1.43903e-05;-0.0010173608337713058
1.43905e-05;-0.0010455081571386115
1.43908e-05;-0.0010736554805061077
1.43910e-05;-0.001101802803873604
1.43913e-05;-0.0011299501272409097
1.43915e-05;-0.001158097450608406
1.43918e-05;-0.0011841138874004711
1.43920e-05;-0.0012095556410783226
1.43923e-05;-0.0012349973947563464
1.43925e-05;-0.0012574380219870615
1.43928e-05;-0.0012790692693508995
1.43930e-05;-0.001300700516714884
1.43933e-05;-0.001317652933497027
1.43935e-05;-0.0013333435069880768
1.43938e-05;-0.001349034080479233
1.43940e-05;-0.0013583232838992752
1.43943e-05;-0.001365886088866406
