Time(s);Current(A)
1.35000e-05;-0.013367490385567395
1.35003e-05;-0.013365456196808463
1.35005e-05;-0.01336342200804952
1.35008e-05;-0.013361387819290575
1.35010e-05;-0.013359353630531631
1.35013e-05;-0.013357319441772701
1.35015e-05;-0.013355285253013757
1.35018e-05;-0.013353251064254813
1.35020e-05;-0.013351216875495883
1.35023e-05;-0.01335238207902395
1.35025e-05;-0.013355581502537057
1.35028e-05;-0.013358780926050143
1.35030e-05;-0.01336198034956325
1.35033e-05;-0.013365179773076358
1.35035e-05;-0.013368379196589444
1.35038e-05;-0.013371578620102551
1.35040e-05;-0.01337477804361566
1.35043e-05;-0.013377977467128745
1.35045e-05;-0.013381176890641854
1.35048e-05;-0.01338437631415496
1.35050e-05;-0.013387575737668047
1.35053e-05;-0.013390775161181154
1.35055e-05;-0.013393974584694261
1.35058e-05;-0.013397174008207348
1.35060e-05;-0.013400812944367483
1.35063e-05;-0.013407960691711724
1.35065e-05;-0.013415108439055917
1.35068e-05;-0.01342225618640016
1.35070e-05;-0.0134294039337444
1.35073e-05;-0.013436551681088593
1.35075e-05;-0.01344371443819536
1.35078e-05;-0.013451576165094396
1.35080e-05;-0.01345943789199338
1.35083e-05;-0.013467299618892419
1.35085e-05;-0.013475161345791456
1.35088e-05;-0.013483023072690439
1.35090e-05;-0.013490884799589476
1.35093e-05;-0.013497909174184412
1.35095e-05;-0.013504871227582064
1.35098e-05;-0.013511833280979763
1.35100e-05;-0.01351879533437746
1.35103e-05;-0.013525757387775159
1.35105e-05;-0.01353271944117281
1.35108e-05;-0.013539681494570507
1.35110e-05;-0.013544751707855577
1.35113e-05;-0.013548899224047301
1.35115e-05;-0.013553046740239051
1.35118e-05;-0.013557194256430802
1.35120e-05;-0.013561341772622526
1.35123e-05;-0.013565489288814276
1.35125e-05;-0.013569636805006027
1.35128e-05;-0.013573528362685128
1.35130e-05;-0.013577057032161641
1.35133e-05;-0.013580585701638155
1.35135e-05;-0.013584114371114644
1.35138e-05;-0.013587643040591157
1.35140e-05;-0.01359117171006767
1.35143e-05;-0.01359470037954416
1.35145e-05;-0.013598229049020671
1.35148e-05;-0.013601757718497184
1.35150e-05;-0.013605286387973673
1.35153e-05;-0.013608815057450187
1.35155e-05;-0.0136123437269267
1.35158e-05;-0.01361587239640319
1.35160e-05;-0.013619949837569674
1.35163e-05;-0.013624079172853912
1.35165e-05;-0.013628208508138121
1.35168e-05;-0.01363233784342236
1.35170e-05;-0.013636467178706597
1.35173e-05;-0.013640596513990806
1.35175e-05;-0.013644725849275044
1.35178e-05;-0.01364885518455928
1.35180e-05;-0.013652984519843491
1.35183e-05;-0.01365711385512773
1.35185e-05;-0.013661243190411966
1.35188e-05;-0.013665372525696204
1.35190e-05;-0.01366910555150278
1.35193e-05;-0.013672276704869346
1.35195e-05;-0.013675447858235911
1.35198e-05;-0.013678619011602455
1.35200e-05;-0.01368179016496902
1.35203e-05;-0.013684961318335586
1.35205e-05;-0.013688132471702131
1.35208e-05;-0.013691303625068697
1.35210e-05;-0.013694474778435262
1.35213e-05;-0.013697645931801805
1.35215e-05;-0.013701020807977528
1.35218e-05;-0.013704684514570744
1.35220e-05;-0.013708348221163935
1.35223e-05;-0.01371201192775715
1.35225e-05;-0.013715675634350366
1.35228e-05;-0.013719339340943555
1.35230e-05;-0.01372300304753677
1.35233e-05;-0.013726666754129986
1.35235e-05;-0.013733220425980791
1.35238e-05;-0.01374387138019006
1.35240e-05;-0.013754522334399328
1.35243e-05;-0.013765173288608525
1.35245e-05;-0.013775824242817793
1.35248e-05;-0.01378647519702706
1.35250e-05;-0.013797126151236256
1.35253e-05;-0.013807777105445524
1.35255e-05;-0.013821412673724482
1.35258e-05;-0.013839279713832593
1.35260e-05;-0.013857146753940825
1.35263e-05;-0.013875013794049058
1.35265e-05;-0.013892880834157168
1.35268e-05;-0.0139107478742654
1.35270e-05;-0.013928614914373633
1.35273e-05;-0.013946481954481865
1.35275e-05;-0.013964348994589976
1.35278e-05;-0.013985077832574066
1.35280e-05;-0.014006077293986495
1.35283e-05;-0.014027076755398783
1.35285e-05;-0.014048076216811213
1.35288e-05;-0.014069075678223643
1.35290e-05;-0.01409007513963593
1.35293e-05;-0.01411107460104836
1.35295e-05;-0.01413207406246079
1.35298e-05;-0.014151148806369763
1.35300e-05;-0.01416749475931771
1.35303e-05;-0.014183840712265656
1.35305e-05;-0.014200186665213492
1.35308e-05;-0.01421653261816144
1.35310e-05;-0.014232878571109386
1.35313e-05;-0.014249224524057223
1.35315e-05;-0.014265570477005168
1.35318e-05;-0.014281916429953115
1.35320e-05;-0.01429257203285663
1.35323e-05;-0.014295160074811205
1.35325e-05;-0.01429774811676578
1.35328e-05;-0.014300336158720336
1.35330e-05;-0.01430292420067491
1.35333e-05;-0.014305512242629485
1.35335e-05;-0.014308100284584041
1.35338e-05;-0.014310688326538616
1.35340e-05;-0.01431327636849319
1.35343e-05;-0.014309574158014987
1.35345e-05;-0.014296953867894532
1.35348e-05;-0.014284333577774078
1.35350e-05;-0.01427171328765371
1.35353e-05;-0.014259092997533255
1.35355e-05;-0.014246472707412802
1.35358e-05;-0.014233852417292346
1.35360e-05;-0.014221232127171978
1.35363e-05;-0.01419915218481094
1.35365e-05;-0.01417617769865861
1.35368e-05;-0.014153203212506434
1.35370e-05;-0.014130228726354103
1.35373e-05;-0.014107254240201771
1.35375e-05;-0.014084279754049597
1.35378e-05;-0.014061305267897265
1.35380e-05;-0.014036540935707133
1.35383e-05;-0.01400923902816795
1.35385e-05;-0.013981937120628583
1.35388e-05;-0.013954635213089216
1.35390e-05;-0.013927333305550033
1.35393e-05;-0.013900031398010665
1.35395e-05;-0.013872729490471298
1.35398e-05;-0.013845427582932114
1.35400e-05;-0.013821419757669083
1.35403e-05;-0.013797723434433253
1.35405e-05;-0.013774027111197584
1.35408e-05;-0.013750330787961755
1.35410e-05;-0.013726634464725926
1.35413e-05;-0.013702938141490257
1.35415e-05;-0.013679241818254426
1.35418e-05;-0.01366022705255433
1.35420e-05;-0.013647849620317344
1.35423e-05;-0.013635472188080276
1.35425e-05;-0.013623094755843206
1.35428e-05;-0.013610717323606221
1.35430e-05;-0.013598339891369153
1.35433e-05;-0.013585962459132085
1.35435e-05;-0.0135735850268951
1.35438e-05;-0.01356120759465803
1.35440e-05;-0.013548830162420962
1.35443e-05;-0.013536452730183893
1.35445e-05;-0.013524075297946908
1.35448e-05;-0.013511697865709838
1.35450e-05;-0.01349932043347277
1.35453e-05;-0.013486943001235785
1.35455e-05;-0.013474565568998717
1.35458e-05;-0.013462188136761647
1.35460e-05;-0.013449810704524662
1.35463e-05;-0.013440645864195926
1.35465e-05;-0.013436035713971292
1.35468e-05;-0.013431425563746692
1.35470e-05;-0.013426815413522059
1.35473e-05;-0.013422205263297425
1.35475e-05;-0.013417595113072825
1.35478e-05;-0.013412984962848191
1.35480e-05;-0.01340837481262356
1.35483e-05;-0.013403764662398957
1.35485e-05;-0.013399154512174325
1.35488e-05;-0.013394544361949692
1.35490e-05;-0.013389934211725091
1.35493e-05;-0.013385324061500458
1.35495e-05;-0.013380713911275826
1.35498e-05;-0.013376103761051224
1.35500e-05;-0.01337149361082659
1.35503e-05;-0.013366883460601959
1.35505e-05;-0.013362273310377357
1.35508e-05;-0.013358253040913235
1.35510e-05;-0.013355069081861268
1.35513e-05;-0.013351885122809323
1.35515e-05;-0.013348701163757356
1.35518e-05;-0.013344972178379905
1.35520e-05;-0.013340470475495103
1.35523e-05;-0.01333596877261027
1.35525e-05;-0.013331467069725437
1.35528e-05;-0.013326965366840604
1.35530e-05;-0.013322463663955801
1.35533e-05;-0.013317961961070969
1.35535e-05;-0.013313460258186135
1.35538e-05;-0.013308958555301334
1.35540e-05;-0.0133044568524165
1.35543e-05;-0.013299955149531667
1.35545e-05;-0.013295453446646864
1.35548e-05;-0.013289721028801334
1.35550e-05;-0.013282243750290605
1.35553e-05;-0.013274766471779926
1.35555e-05;-0.013267289193269196
1.35558e-05;-0.013259811914758467
1.35560e-05;-0.013252334636247788
1.35563e-05;-0.013244857357737057
1.35565e-05;-0.013237380079226329
1.35568e-05;-0.01322990280071565
1.35570e-05;-0.013222425522204921
1.35573e-05;-0.01321494824369419
1.35575e-05;-0.013207470965183512
1.35578e-05;-0.013199484928789964
1.35580e-05;-0.013190777594901639
1.35583e-05;-0.013182070261013371
1.35585e-05;-0.013173362927125044
1.35588e-05;-0.01316465559323672
1.35590e-05;-0.013155948259348451
1.35593e-05;-0.013147240925460124
1.35595e-05;-0.013138801030637678
1.35598e-05;-0.013130740300708354
1.35600e-05;-0.013122679570778974
1.35603e-05;-0.013114618840849596
1.35605e-05;-0.013106558110920272
1.35608e-05;-0.013098497380990892
1.35610e-05;-0.013090436651061512
1.35613e-05;-0.013083000129047881
1.35615e-05;-0.013076448585176363
1.35618e-05;-0.013069897041304802
1.35620e-05;-0.013064991843518132
1.35623e-05;-0.013062420772330482
1.35625e-05;-0.013059849701142816
1.35628e-05;-0.013059527814510578
1.35630e-05;-0.01306239473583609
1.35633e-05;-0.01306526165716162
1.35635e-05;-0.013071777482165783
1.35638e-05;-0.013083466583439913
1.35640e-05;-0.013095155684714123
1.35643e-05;-0.013106844785988331
1.35645e-05;-0.013118533887262461
1.35648e-05;-0.01313022298853667
1.35650e-05;-0.01314191208981088
1.35653e-05;-0.013164473369553816
1.35655e-05;-0.013188062767406052
1.35658e-05;-0.01321165216525829
1.35660e-05;-0.013235241563110367
1.35663e-05;-0.013258830960962606
1.35665e-05;-0.013282420358814842
1.35668e-05;-0.013309518935356267
1.35670e-05;-0.013341592691415279
1.35673e-05;-0.01337366644747429
1.35675e-05;-0.013405740203533084
1.35678e-05;-0.013437813959592095
1.35680e-05;-0.013469887715651104
1.35683e-05;-0.013501961471709898
1.35685e-05;-0.01353403522776891
1.35688e-05;-0.01356690334820639
1.35690e-05;-0.013599846587020839
1.35693e-05;-0.01363278982583551
1.35695e-05;-0.013665733064650182
1.35698e-05;-0.013698676303464854
1.35700e-05;-0.013731619542279304
1.35703e-05;-0.013764562781093975
1.35705e-05;-0.013792900197485077
1.35708e-05;-0.01381470765475632
1.35710e-05;-0.01383651511202771
1.35713e-05;-0.013858322569299102
1.35715e-05;-0.013880130026570344
1.35718e-05;-0.013901937483841735
1.35720e-05;-0.013923744941113125
1.35723e-05;-0.013945552398384369
1.35725e-05;-0.013967359855655758
1.35728e-05;-0.01398916731292715
1.35730e-05;-0.013996418230153006
1.35733e-05;-0.014002292620817865
1.35735e-05;-0.014008167011482723
1.35738e-05;-0.01401404140214754
1.35740e-05;-0.014019915792812398
1.35743e-05;-0.014025790183477256
1.35745e-05;-0.014031664574142073
1.35748e-05;-0.014037538964806931
1.35750e-05;-0.014043413355471789
1.35753e-05;-0.014044252800752081
1.35755e-05;-0.014037953892767364
1.35758e-05;-0.014031654984782647
1.35760e-05;-0.014025356076797973
1.35763e-05;-0.014019057168813256
1.35765e-05;-0.01401275826082854
1.35768e-05;-0.014006459352843866
1.35770e-05;-0.014000160444859149
1.35773e-05;-0.013993861536874432
1.35775e-05;-0.013987259651930912
1.35778e-05;-0.013975392230663016
1.35780e-05;-0.013963524809395118
1.35783e-05;-0.013951657388127222
1.35785e-05;-0.013939789966859406
1.35788e-05;-0.013927922545591508
1.35790e-05;-0.013916055124323612
1.35793e-05;-0.013904187703055796
1.35795e-05;-0.013892320281787898
1.35798e-05;-0.013880452860520002
1.35800e-05;-0.013868043650155116
1.35803e-05;-0.013855396914201974
1.35805e-05;-0.013842750178248832
1.35808e-05;-0.013830103442295774
1.35810e-05;-0.013817456706342632
1.35813e-05;-0.013804809970389489
1.35815e-05;-0.013793286784776846
1.35818e-05;-0.013783199317666106
1.35820e-05;-0.013773111850555369
1.35823e-05;-0.013763024383444698
1.35825e-05;-0.01375293691633396
1.35828e-05;-0.01374284944922322
1.35830e-05;-0.013732504780615686
1.35833e-05;-0.013721010397399782
1.35835e-05;-0.013709516014183878
1.35838e-05;-0.013698021630968052
1.35840e-05;-0.013686527247752147
1.35843e-05;-0.013675032864536243
1.35845e-05;-0.013663538481320417
1.35848e-05;-0.013652044098104513
1.35850e-05;-0.013640549714888608
1.35853e-05;-0.013629055331672782
1.35855e-05;-0.013617560948456878
1.35858e-05;-0.01360437702073457
1.35860e-05;-0.013590408246484088
1.35863e-05;-0.013576439472233514
1.35865e-05;-0.013562470697982937
1.35868e-05;-0.013548501923732362
1.35870e-05;-0.013534533149481881
1.35873e-05;-0.013520564375231305
1.35875e-05;-0.01350659560098073
1.35878e-05;-0.013492626826730249
1.35880e-05;-0.013478658052479674
1.35883e-05;-0.013464620214622565
1.35885e-05;-0.013450273656021998
1.35888e-05;-0.013435927097421333
1.35890e-05;-0.01342158053882067
1.35893e-05;-0.013407233980220102
1.35895e-05;-0.013392887421619438
1.35898e-05;-0.013378853483566516
1.35900e-05;-0.013366216988433361
1.35903e-05;-0.01335358049330012
1.35905e-05;-0.01334094399816688
1.35908e-05;-0.013328307503033723
1.35910e-05;-0.013315671007900483
1.35913e-05;-0.013303422926133601
1.35915e-05;-0.013292911088233987
1.35918e-05;-0.013282399250334302
1.35920e-05;-0.01327138430248537
1.35923e-05;-0.013258120406377787
1.35925e-05;-0.013244856510270114
1.35928e-05;-0.013230783608823888
1.35930e-05;-0.01321309437828262
1.35933e-05;-0.013195405147741231
1.35935e-05;-0.013176459021988883
1.35938e-05;-0.013151894457760991
1.35940e-05;-0.013127329893532933
1.35943e-05;-0.013102765329304876
1.35945e-05;-0.013078200765076984
1.35948e-05;-0.013053636200848926
1.35950e-05;-0.013027227382535894
1.35953e-05;-0.012992574576959173
1.35955e-05;-0.012957921771382686
1.35958e-05;-0.012923268965805965
1.35960e-05;-0.012888616160229242
1.35963e-05;-0.012853963354652755
1.35965e-05;-0.01281801025531161
1.35968e-05;-0.012776244721923949
1.35970e-05;-0.012734479188536572
1.35973e-05;-0.01269271365514891
1.35975e-05;-0.012650948121761249
1.35978e-05;-0.012608692928741517
1.35980e-05;-0.012564248911629262
1.35983e-05;-0.012519804894517006
1.35985e-05;-0.012475360877405053
1.35988e-05;-0.012430916860292797
1.35990e-05;-0.012386530032565278
1.35993e-05;-0.012342398846706137
1.35995e-05;-0.012298472565355559
1.35998e-05;-0.01225563980444711
1.36000e-05;-0.012213791182272312
1.36003e-05;-0.012173014084512612
1.36005e-05;-0.012133491482561147
1.36008e-05;-0.012095484747731049
1.36010e-05;-0.012059262100923299
1.36013e-05;-0.012025092103553991
1.36015e-05;-0.011993250627913883
1.36018e-05;-0.011964067514950424
1.36020e-05;-0.011938005842975651
1.36023e-05;-0.011915514244692792
1.36025e-05;-0.011896786231521794
1.36028e-05;-0.011882190437928859
1.36030e-05;-0.011872240187541702
1.36033e-05;-0.011863679831593922
1.36035e-05;-0.011861332433044597
1.36038e-05;-0.011860801196145934
1.36040e-05;-0.011868388370720432
1.36043e-05;-0.011875975545294985
1.36045e-05;-0.011886341441803568
1.36048e-05;-0.011909128483765592
1.36050e-05;-0.01193191552572777
1.36053e-05;-0.011954702567689946
1.36055e-05;-0.01197748960965197
1.36058e-05;-0.01200318014935561
1.36060e-05;-0.01204184959397622
1.36063e-05;-0.012080519038596567
1.36065e-05;-0.012119188483217176
1.36068e-05;-0.012157857927837785
1.36070e-05;-0.012198623919297847
1.36073e-05;-0.012248761670102271
1.36075e-05;-0.012298899420906695
1.36078e-05;-0.012349037171710781
1.36080e-05;-0.012399174922515206
1.36083e-05;-0.01244931267331963
1.36085e-05;-0.012500049814504473
1.36088e-05;-0.012553466286432832
1.36090e-05;-0.01260688275836119
1.36093e-05;-0.012660299230289185
1.36095e-05;-0.012713715702217543
1.36098e-05;-0.012767132174145901
1.36100e-05;-0.012819887196953296
1.36103e-05;-0.012869685480679273
1.36105e-05;-0.01291850345197413
1.36108e-05;-0.012962939335535597
1.36110e-05;-0.013007375219097369
1.36113e-05;-0.013050127599723677
1.36115e-05;-0.013085354565667411
1.36118e-05;-0.013120581531611383
1.36120e-05;-0.01315292860556654
1.36123e-05;-0.013172402294509625
1.36125e-05;-0.013191875983452575
1.36128e-05;-0.013211349672395659
1.36130e-05;-0.013230823361338743
1.36133e-05;-0.013250297050281693
1.36135e-05;-0.013269770739224777
1.36138e-05;-0.013285295167084814
1.36140e-05;-0.013283166030633174
1.36143e-05;-0.013281036894181518
1.36145e-05;-0.013278907757729863
1.36148e-05;-0.013276778621278223
1.36150e-05;-0.013274649484826567
1.36153e-05;-0.013272520348374912
1.36155e-05;-0.013267255230070009
1.36158e-05;-0.013247971981242
1.36160e-05;-0.013228688732413993
1.36163e-05;-0.013209405483586116
1.36165e-05;-0.013190122234758109
1.36168e-05;-0.0131708389859301
1.36170e-05;-0.013151555737102224
1.36173e-05;-0.013125347042731248
1.36175e-05;-0.01309592126122449
1.36178e-05;-0.01306649547971793
1.36180e-05;-0.013037069698211171
1.36183e-05;-0.013007643916704413
1.36185e-05;-0.012978218135197854
1.36188e-05;-0.012948262574484035
1.36190e-05;-0.012915938851445999
1.36193e-05;-0.01288361512840818
1.36195e-05;-0.012851380847138801
1.36198e-05;-0.012819546378893295
1.36200e-05;-0.012787711910648003
1.36203e-05;-0.012756239409154076
1.36205e-05;-0.012726384932702202
1.36208e-05;-0.012697003430679246
1.36210e-05;-0.01266973616833984
1.36213e-05;-0.012643090004170382
1.36215e-05;-0.012619220206582987
1.36218e-05;-0.01259636979544783
1.36220e-05;-0.012578076136555517
1.36223e-05;-0.012559782477663204
1.36225e-05;-0.0125428837357961
1.36228e-05;-0.012532220402757588
1.36230e-05;-0.012521557069719073
1.36233e-05;-0.012513192649449605
1.36235e-05;-0.012515104583055095
1.36238e-05;-0.012517016516660585
1.36240e-05;-0.012518928450266061
1.36243e-05;-0.012520840383871551
1.36245e-05;-0.01252275231747704
1.36248e-05;-0.012524664251082517
1.36250e-05;-0.01253743913950809
1.36253e-05;-0.012555260211893989
1.36255e-05;-0.012573081284279766
1.36258e-05;-0.012590902356665665
1.36260e-05;-0.012608723429051564
1.36263e-05;-0.012626544501437341
1.36265e-05;-0.012646496716545077
1.36268e-05;-0.012675975337815053
1.36270e-05;-0.012705453959084827
1.36273e-05;-0.012734932580354803
1.36275e-05;-0.01276441120162478
1.36278e-05;-0.012793889822894554
1.36280e-05;-0.01282336844416453
1.36283e-05;-0.012853578028126532
1.36285e-05;-0.012887055083301268
1.36288e-05;-0.012920532138476232
1.36290e-05;-0.012954009193651196
1.36293e-05;-0.01298748624882616
1.36295e-05;-0.013020963304000897
1.36298e-05;-0.013054440359175861
1.36300e-05;-0.013087398235368074
1.36303e-05;-0.013118035333223275
1.36305e-05;-0.013148672431078685
1.36308e-05;-0.013178639084559943
1.36310e-05;-0.013205608789336763
1.36313e-05;-0.013231830128706441
1.36315e-05;-0.013254706205106721
1.36318e-05;-0.013276436876370326
1.36320e-05;-0.01329304748014988
1.36323e-05;-0.013307658101285388
1.36325e-05;-0.01331332861400135
1.36328e-05;-0.013318999126717352
1.36330e-05;-0.013322281669066386
1.36333e-05;-0.013314889761791696
1.36335e-05;-0.013307497854516955
1.36338e-05;-0.013297592156823832
1.36340e-05;-0.013276449582175864
1.36343e-05;-0.013255307007527754
1.36345e-05;-0.013231007240601583
1.36348e-05;-0.01319259453057097
1.36350e-05;-0.013154181820540095
1.36353e-05;-0.013115769110509223
1.36355e-05;-0.013077356400478609
1.36358e-05;-0.01302702883953072
1.36360e-05;-0.012971166455820707
1.36363e-05;-0.012915304072111073
1.36365e-05;-0.01285944168840106
1.36368e-05;-0.01280147999590372
1.36370e-05;-0.012734134197888582
1.36373e-05;-0.012666788399872987
1.36375e-05;-0.012598535045992726
1.36378e-05;-0.012526224832993144
1.36380e-05;-0.01245350898227761
1.36383e-05;-0.012378777968235949
1.36385e-05;-0.01230302055366354
1.36388e-05;-0.012226665918194391
1.36390e-05;-0.012150150681857782
1.36393e-05;-0.012073911214390672
1.36395e-05;-0.011998383274354256
1.36398e-05;-0.011923978955994445
1.36400e-05;-0.011851055425894302
1.36403e-05;-0.011779952948558006
1.36405e-05;-0.011711089168298707
1.36408e-05;-0.011644942534626364
1.36410e-05;-0.011581994881826804
1.36413e-05;-0.011522729566315414
1.36415e-05;-0.011467613089048652
1.36418e-05;-0.011416939218404809
1.36420e-05;-0.011370478540650243
1.36423e-05;-0.011327671246431036
1.36425e-05;-0.011288313883858288
1.36428e-05;-0.011252559150532056
1.36430e-05;-0.011220597717286528
1.36433e-05;-0.011193014039431027
1.36435e-05;-0.011170564508769921
1.36438e-05;-0.011149579019545445
1.36440e-05;-0.011135137931703556
1.36443e-05;-0.01112222507225262
1.36445e-05;-0.011116143535840353
1.36448e-05;-0.011110061999428128
1.36450e-05;-0.011106335698602502
1.36453e-05;-0.01111313751989396
1.36455e-05;-0.011119939341185369
1.36458e-05;-0.011126741162476824
1.36460e-05;-0.01113354298376828
1.36463e-05;-0.011142631631313982
1.36465e-05;-0.01116194260489853
1.36468e-05;-0.011181253578483208
1.36470e-05;-0.011200564552067886
1.36473e-05;-0.011219875525652434
1.36475e-05;-0.011240487434301286
