Time(s);Current(A)
1.18000e-05;-0.0019631318337200343
1.18003e-05;-0.001964305509035742
1.18005e-05;-0.0019650316334621507
1.18008e-05;-0.001965122786659141
1.18010e-05;-0.0019648223621500523
1.18013e-05;-0.001963514785255288
1.18015e-05;-0.0019616649066431188
1.18018e-05;-0.0019584202078969833
1.18020e-05;-0.0019551755091508478
1.18023e-05;-0.0019519308104047346
1.18025e-05;-0.0019478708788134677
1.18028e-05;-0.0019417141381033285
1.18030e-05;-0.0019355573973932308
1.18033e-05;-0.0019294006566830915
1.18035e-05;-0.0019223712012153065
1.18038e-05;-0.0019130970910173485
1.18040e-05;-0.0019038229808193276
1.18043e-05;-0.0018945488706213066
1.18045e-05;-0.0018852747604233484
1.18048e-05;-0.0018752192221222928
1.18050e-05;-0.0018631538217528274
1.18053e-05;-0.0018510884213834438
1.18055e-05;-0.0018390230210139785
1.18058e-05;-0.0018269576206445131
1.18060e-05;-0.0018145042818680727
1.18063e-05;-0.001801053151117794
1.18065e-05;-0.0017876020203675153
1.18068e-05;-0.001774005513202791
1.18070e-05;-0.0017600350925069497
1.18073e-05;-0.0017460646718111083
1.18075e-05;-0.0017321048431049126
1.18078e-05;-0.001718172257388665
1.18080e-05;-0.001704352158601448
1.18082e-05;-0.0016908213803685777
1.18085e-05;-0.001677468498673961
1.18088e-05;-0.0016645731734751914
1.18090e-05;-0.0016520180847080252
1.18093e-05;-0.0016403380966640217
1.18095e-05;-0.001628658108620018
1.18098e-05;-0.0016174597247613962
1.18100e-05;-0.0016075000447332039
1.18103e-05;-0.0015978192436421146
1.18105e-05;-0.0015888749580576034
1.18108e-05;-0.0015798592662297068
1.18110e-05;-0.0015705327109292028
1.18113e-05;-0.0015610840001143466
1.18115e-05;-0.0015513211007851478
1.18118e-05;-0.0015415582014558827
1.18120e-05;-0.0015317880724147765
1.18123e-05;-0.001521999348286686
1.18125e-05;-0.0015119995176591263
1.18128e-05;-0.0015014567132838354
1.18130e-05;-0.0014909139089086159
1.18133e-05;-0.001479505759481144
1.18135e-05;-0.0014678534705227138
1.18138e-05;-0.001455997511805588
1.18140e-05;-0.0014436177069133886
1.18143e-05;-0.0014312379020211892
1.18145e-05;-0.0014188580971290737
1.18148e-05;-0.0014056401970810638
1.18150e-05;-0.0013921858455068813
1.18153e-05;-0.00137873149393279
1.18155e-05;-0.0013650842269223007
1.18158e-05;-0.0013509407742531173
1.18160e-05;-0.0013367973215840296
1.18163e-05;-0.001322618366738597
1.18165e-05;-0.0013083480989788368
1.18167e-05;-0.0012940778312191732
1.18170e-05;-0.0012798036417073855
1.18173e-05;-0.0012655193653038988
1.18175e-05;-0.001251235088900509
1.18178e-05;-0.0012371459875577518
1.18180e-05;-0.0012235588837115794
1.18183e-05;-0.0012099717798654069
1.18185e-05;-0.0011966966562817053
1.18188e-05;-0.0011842239575062747
1.18190e-05;-0.0011717512587308442
1.18193e-05;-0.0011596366072247149
1.18195e-05;-0.0011484428665774287
1.18198e-05;-0.0011375365599357121
1.18200e-05;-0.0011275888146983345
1.18203e-05;-0.0011183514388580578
1.18205e-05;-0.001109450483855193
1.18208e-05;-0.00110019827639337
1.18210e-05;-0.00109030803810458
1.18213e-05;-0.0010800966995788447
1.18215e-05;-0.0010690594793318297
1.18218e-05;-0.0010580222590847398
1.18220e-05;-0.0010467994508854307
1.18223e-05;-0.0010350993035882767
1.18225e-05;-0.0010229203168867207
1.18228e-05;-0.0010095097374735451
1.18230e-05;-0.0009960991580604604
1.18233e-05;-0.0009820720814014054
1.18235e-05;-0.0009664593509554442
1.18238e-05;-0.0009508466205095888
1.18240e-05;-0.0009348258920581243
1.18243e-05;-0.0009177557776007654
1.18245e-05;-0.0009006856631435222
1.18248e-05;-0.0008831159435505772
1.18250e-05;-0.0008642612210147186
1.18252e-05;-0.0008454064984789878
1.18255e-05;-0.0008262537771070178
1.18258e-05;-0.0008063345916734811
1.18260e-05;-0.0007863269386843279
1.18263e-05;-0.0007660917438596919
1.18265e-05;-0.0007457963213529677
1.18268e-05;-0.0007252975774736919
1.18270e-05;-0.0007046532748531133
1.18273e-05;-0.0006839691382057602
1.18275e-05;-0.0006633713198283403
1.18278e-05;-0.0006429860302252192
1.18280e-05;-0.0006229387233395838
1.18283e-05;-0.0006033385735559833
1.18285e-05;-0.000584240664601903
1.18288e-05;-0.0005656647132605926
1.18290e-05;-0.0005476738251129048
1.18293e-05;-0.0005303839210218684
1.18295e-05;-0.0005139238401577759
1.18298e-05;-0.000498586138911138
1.18300e-05;-0.0004844267179404066
1.18303e-05;-0.0004708511192855302
1.18305e-05;-0.0004587771332860801
1.18308e-05;-0.00044705852075741247
1.18310e-05;-0.0004362539419790785
1.18313e-05;-0.0004258181681289544
1.18315e-05;-0.0004163309742363088
1.18318e-05;-0.000407407571577759
1.18320e-05;-0.0003999342608892485
1.18323e-05;-0.00039246095020078857
1.18325e-05;-0.0003855212856725965
1.18328e-05;-0.00037995417886623384
1.18330e-05;-0.0003743870720599089
1.18333e-05;-0.00036924085289543576
1.18335e-05;-0.0003651771723602534
1.18337e-05;-0.0003611134918250986
1.18340e-05;-0.00035751513096997763
1.18343e-05;-0.00035511358959473295
1.18345e-05;-0.0003527120482195046
1.18348e-05;-0.00035061634918433454
1.18350e-05;-0.0003493072879942182
1.18352e-05;-0.0003479982268041107
1.18355e-05;-0.0003469665100704131
1.18358e-05;-0.00034664813356776933
1.18360e-05;-0.0003463297570651256
1.18363e-05;-0.0003462528643445668
1.18365e-05;-0.0003467970768702797
1.18368e-05;-0.0003473412893959926
1.18370e-05;-0.00034800672859995873
1.18373e-05;-0.0003489839673177581
1.18375e-05;-0.00034996120603555746
1.18378e-05;-0.0003510406112822189
1.18380e-05;-0.0003523827926313921
1.18383e-05;-0.0003537249739805653
1.18385e-05;-0.00035508947726871473
1.18388e-05;-0.00035651139341206253
1.18390e-05;-0.0003579333095554104
1.18393e-05;-0.00035920000891867754
1.18395e-05;-0.00036006748496522953
1.18398e-05;-0.00036093496101178153
1.18400e-05;-0.00036180243705832767
1.18403e-05;-0.00036266991310487966
1.18405e-05;-0.00036353738915143166
1.18408e-05;-0.00036440486519797774
1.18410e-05;-0.00036527234124452974
1.18413e-05;-0.00036613981729108173
1.18415e-05;-0.0003670072933376279
1.18418e-05;-0.00036787476938417987
1.18420e-05;-0.00036874224543073186
1.18422e-05;-0.00036938778466873796
1.18425e-05;-0.0003694624942015205
1.18428e-05;-0.000369537203734303
1.18430e-05;-0.00036961191326708505
1.18433e-05;-0.00036968662279986754
1.18435e-05;-0.0003697613323326501
1.18437e-05;-0.0003698360418654321
1.18440e-05;-0.00036991075139821463
1.18443e-05;-0.0003699854609309971
1.18445e-05;-0.00037006017046377967
1.18448e-05;-0.00037013487999656167
1.18450e-05;-0.00037020958952934416
1.18453e-05;-0.00037016820881984026
1.18455e-05;-0.00036982823970031987
1.18458e-05;-0.00036948827058079714
1.18460e-05;-0.0003691483014612744
1.18463e-05;-0.000368808332341754
1.18465e-05;-0.00036846836322223126
1.18468e-05;-0.00036812839410270854
1.18470e-05;-0.00036778842498318815
1.18473e-05;-0.0003674195865814061
1.18475e-05;-0.00036697649531461753
1.18478e-05;-0.000366533404047832
1.18480e-05;-0.0003660903127810435
1.18483e-05;-0.00036564722151425494
1.18485e-05;-0.0003652041302474694
1.18488e-05;-0.00036476103898068084
1.18490e-05;-0.0003643179477138923
1.18493e-05;-0.00036388409184721644
1.18495e-05;-0.0003634792450285988
1.18498e-05;-0.00036309389532452436
1.18500e-05;-0.00036273611636741327
1.18503e-05;-0.00036252859510911345
1.18505e-05;-0.0003629713837912693
1.18507e-05;-0.0003647918004990442
1.18510e-05;-0.00036837694977809483
1.18513e-05;-0.0003737213756076053
1.18515e-05;-0.0003807262658223751
1.18518e-05;-0.0003892928466826491
1.18520e-05;-0.00039932569545988913
1.18522e-05;-0.0004108011760931308
1.18525e-05;-0.0004239321110528557
1.18528e-05;-0.0004393666848892471
1.18530e-05;-0.0004571214184517166
1.18533e-05;-0.0004757100186120372
1.18535e-05;-0.0004969386523249753
1.18538e-05;-0.0005200942877970857
1.18540e-05;-0.0005449296631673751
1.18543e-05;-0.0005705936172886992
1.18545e-05;-0.0005983887066974545
1.18548e-05;-0.0006268638507204875
1.18550e-05;-0.0006575030982968877
1.18553e-05;-0.0006895680520558699
1.18555e-05;-0.0007228564822878217
1.18558e-05;-0.0007571661336668926
1.18560e-05;-0.0007922961778851703
1.18563e-05;-0.0008280739877767761
1.18565e-05;-0.0008644195903398926
1.18568e-05;-0.0009013089700636041
1.18570e-05;-0.0009386343274948856
1.18573e-05;-0.0009761915205729615
1.18575e-05;-0.001013753481212356
1.18578e-05;-0.0010510931087368573
1.18580e-05;-0.0010879841148916953
1.18583e-05;-0.0011242180297882513
1.18585e-05;-0.001159644469671551
1.18588e-05;-0.0011941478966958912
1.18590e-05;-0.0012275606159211083
1.18592e-05;-0.001259654249352608
1.18595e-05;-0.0012901863551093048
1.18598e-05;-0.0013186051353380281
1.18600e-05;-0.001344803821438393
1.18603e-05;-0.001370076865425654
1.18605e-05;-0.001392445651137404
1.18607e-05;-0.001412780218862974
1.18610e-05;-0.0014313456687266462
1.18613e-05;-0.0014491871479578298
1.18615e-05;-0.001464645584930939
1.18618e-05;-0.0014779261780669068
1.18620e-05;-0.0014890516411279415
1.18623e-05;-0.0014993276592189244
1.18625e-05;-0.001506929621187466
1.18628e-05;-0.0015128399472310193
1.18630e-05;-0.0015172117408018438
1.18633e-05;-0.001519847945213787
1.18635e-05;-0.0015208261831631022
1.18638e-05;-0.0015209314619255925
1.18640e-05;-0.0015187914572721162
1.18643e-05;-0.0015158363256946676
1.18645e-05;-0.0015107846574269534
1.18648e-05;-0.0015051008429284
1.18650e-05;-0.0014977911248708867
1.18653e-05;-0.0014899251644090474
1.18655e-05;-0.001480628527846316
1.18658e-05;-0.001470820575210209
1.18660e-05;-0.0014596974986632717
1.18663e-05;-0.0014481543926975371
1.18665e-05;-0.0014355309554828944
1.18668e-05;-0.001422657172521738
1.18670e-05;-0.001409139491012573
1.18673e-05;-0.0013954740431016157
1.18675e-05;-0.001381428534523196
1.18678e-05;-0.0013673184473994451
1.18680e-05;-0.0013530422618608254
1.18683e-05;-0.001338813675093639
1.18685e-05;-0.0013247075141326432
1.18688e-05;-0.0013108102272051767
1.18690e-05;-0.001297450172041674
1.18692e-05;-0.0012844182404186714
1.18695e-05;-0.0012722302547153222
1.18698e-05;-0.0012603552052689274
1.18700e-05;-0.00124952353849934
1.18703e-05;-0.0012394589979571977
1.18705e-05;-0.0012297284057990717
1.18708e-05;-0.001219635628026602
1.18710e-05;-0.0012087216884180457
1.18713e-05;-0.0011970475017375798
1.18715e-05;-0.0011850462833064104
1.18718e-05;-0.001172203927079159
1.18720e-05;-0.0011593615708518207
1.18723e-05;-0.0011461996624479347
1.18725e-05;-0.001132215853990178
1.18728e-05;-0.0011175306385536317
1.18730e-05;-0.0011010413783445283
1.18733e-05;-0.0010845521181355366
1.18735e-05;-0.0010673768213601122
1.18738e-05;-0.001048437013082965
1.18740e-05;-0.0010294972048059462
1.18743e-05;-0.0010105573965287992
1.18745e-05;-0.00098980399402244
1.18748e-05;-0.000968538922738026
1.18750e-05;-0.0009472738514534678
1.18753e-05;-0.0009254993485387186
1.18755e-05;-0.0009024145685703898
1.18758e-05;-0.00087914828263974
1.18760e-05;-0.0008554151566401701
1.18763e-05;-0.0008315880796936107
1.18765e-05;-0.0008075193574250442
1.18768e-05;-0.0007833616868874602
1.18770e-05;-0.0007589480411319186
1.18773e-05;-0.0007344790118196398
1.18775e-05;-0.000710103801481079
1.18777e-05;-0.0006859716219682431
1.18780e-05;-0.0006622307213581658
1.18783e-05;-0.0006390108053914404
1.18785e-05;-0.0006163796335343809
1.18788e-05;-0.0005943644427505301
1.18790e-05;-0.0005730424988913664
1.18793e-05;-0.0005525518951738597
1.18795e-05;-0.0005330453591788184
1.18798e-05;-0.0005146756953374336
1.18800e-05;-0.0004975924210429246
1.18803e-05;-0.00048187585581026146
1.18805e-05;-0.00046746706774994346
1.18808e-05;-0.0004539931438497788
1.18810e-05;-0.0004409262293689465
1.18813e-05;-0.0004289061582154175
1.18815e-05;-0.000417376500250999
1.18818e-05;-0.00040710820320464565
1.18820e-05;-0.0003974007520038562
1.18823e-05;-0.00038913581712692253
1.18825e-05;-0.00038137195125218843
1.18828e-05;-0.00037489685344195973
1.18830e-05;-0.0003684217556317311
1.18833e-05;-0.00036245651002730326
1.18835e-05;-0.00035780262321301196
1.18838e-05;-0.0003531487363987207
1.18840e-05;-0.00034897678375011085
1.18843e-05;-0.00034604438365669696
1.18845e-05;-0.0003434546303507238
1.18848e-05;-0.00034174617729526417
1.18850e-05;-0.000340037724239793
1.18853e-05;-0.0003386560992427757
1.18855e-05;-0.0003381150881384167
1.18858e-05;-0.00033757407703405404
1.18860e-05;-0.0003373610862659507
1.18862e-05;-0.0003379917759732221
1.18865e-05;-0.00033862246568049776
1.18868e-05;-0.000339410504824026
1.18870e-05;-0.0003406032525557231
1.18873e-05;-0.0003419028639561332
1.18875e-05;-0.00034347733267745835
1.18878e-05;-0.00034505180139878357
1.18880e-05;-0.00034672758385789374
1.18883e-05;-0.0003486639490096716
1.18885e-05;-0.00035060031416144947
1.18888e-05;-0.00035251429490867605
1.18890e-05;-0.0003543707021369124
1.18893e-05;-0.00035622710936514886
1.18895e-05;-0.00035803161041289186
1.18898e-05;-0.0003596698938862896
1.18900e-05;-0.00036119319944778175
1.18903e-05;-0.00036271735920892994
1.18905e-05;-0.00036476882768513616
1.18908e-05;-0.00036812490321919616
1.18910e-05;-0.00037319945256409915
1.18913e-05;-0.0003799834252924266
1.18915e-05;-0.00038836687528036605
1.18918e-05;-0.0003982398529171559
1.18920e-05;-0.0004094960855108803
1.18923e-05;-0.0004221072701637212
1.18925e-05;-0.00043630225971558786
1.18928e-05;-0.0004524669926519581
1.18930e-05;-0.00047075979227164815
1.18933e-05;-0.0004910740251653806
1.18935e-05;-0.0005132398367181144
1.18938e-05;-0.0005372831018201419
1.18940e-05;-0.0005629525638674853
1.18943e-05;-0.0005894254609113854
1.18945e-05;-0.0006179648225764108
1.18947e-05;-0.0006471763926350503
1.18950e-05;-0.0006785277138642119
1.18953e-05;-0.0007112883572362883
1.18955e-05;-0.000745250910212334
1.18958e-05;-0.0007802981947517891
1.18960e-05;-0.000816185778842022
1.18963e-05;-0.0008523900471237374
1.18965e-05;-0.0008894088388959117
1.18968e-05;-0.0009266381505340188
1.18970e-05;-0.0009644882203409175
1.18973e-05;-0.0010025568848987141
1.18975e-05;-0.0010406133647800305
1.18978e-05;-0.0010784270691967359
1.18980e-05;-0.001115768105644397
1.18983e-05;-0.0011524260342879802
1.18985e-05;-0.00118825337678238
1.18988e-05;-0.0012231413661518001
1.18990e-05;-0.0012569253298373502
1.18993e-05;-0.0012893755907715909
1.18995e-05;-0.0013202467268127996
1.18998e-05;-0.0013489804680832495
1.19000e-05;-0.0013754682134278883
1.19003e-05;-0.0014007166145210508
1.19005e-05;-0.0014227773762149158
1.19008e-05;-0.0014437549684691918
1.19010e-05;-0.0014619466087343544
1.19013e-05;-0.0014793088799244648
1.19015e-05;-0.0014939514149953732
1.19018e-05;-0.0015061557058924176
1.19020e-05;-0.0015159691100688018
1.19023e-05;-0.0015248393546117979
1.19025e-05;-0.001530715570673306
1.19028e-05;-0.0015346100452160413
1.19030e-05;-0.0015366581520290532
1.19032e-05;-0.001536641426603585
1.19035e-05;-0.001534674647948973
1.19038e-05;-0.0015317038627549679
1.19040e-05;-0.0015261507354884824
1.19043e-05;-0.0015196618303905593
1.19045e-05;-0.001510766069988476
1.19048e-05;-0.0015011112550262944
1.19050e-05;-0.0014895041235712795
1.19053e-05;-0.0014772378118696403
1.19055e-05;-0.001463276064115275
1.19058e-05;-0.0014487312191899975
1.19060e-05;-0.0014326866267051657
1.19063e-05;-0.0014161725972446089
1.19065e-05;-0.0013984511584643018
1.19068e-05;-0.0013804418619993435
1.19070e-05;-0.00136169218488888
1.19073e-05;-0.0013427880928666529
1.19075e-05;-0.0013234868399613735
1.19078e-05;-0.001304149720950029
1.19080e-05;-0.0012847203529832106
1.19083e-05;-0.0012653971004559198
1.19085e-05;-0.0012463467807768383
1.19088e-05;-0.001227587186767252
1.19090e-05;-0.0012095753499665278
1.19093e-05;-0.0011920086211563163
1.19095e-05;-0.0011755867266135546
1.19098e-05;-0.0011599128112118626
1.19100e-05;-0.0011461627259151325
1.19103e-05;-0.0011324126406184955
1.19105e-05;-0.0011193482492191016
1.19108e-05;-0.0011080474879664598
1.19110e-05;-0.0010967467267138948
1.19113e-05;-0.001086796936664022
1.19115e-05;-0.001077228295701779
1.19117e-05;-0.0010683111435720728
1.19120e-05;-0.0010610696448931502
1.19123e-05;-0.0010538281462142275
1.19125e-05;-0.0010471733133918994
1.19128e-05;-0.0010420274069212183
1.19130e-05;-0.0010368815004505024
1.19133e-05;-0.0010322108755609096
1.19135e-05;-0.0010287626925335263
1.19138e-05;-0.0010253145095061198
1.19140e-05;-0.0010223032107398607
1.19143e-05;-0.0010204155945041106
1.19145e-05;-0.0010187969496207232
1.19148e-05;-0.0010178701090359948
1.19150e-05;-0.0010171457221094537
1.19153e-05;-0.0010169420535039169
1.19155e-05;-0.0010169962916955551
1.19158e-05;-0.001017713875739293
1.19160e-05;-0.0010184314597830358
1.19163e-05;-0.0010193816276213125
1.19165e-05;-0.0010209300096092665
1.19168e-05;-0.0010225780540709464
1.19170e-05;-0.0010244824341130523
1.19173e-05;-0.0010264606484697955
1.19175e-05;-0.0010286287674235004
1.19178e-05;-0.0010308598679764378
1.19180e-05;-0.001033252959539557
1.19183e-05;-0.001035677012302832
1.19185e-05;-0.001038180698421703
1.19188e-05;-0.0010406502783342987
1.19190e-05;-0.0010430321358188778
1.19193e-05;-0.0010453680729550405
1.19195e-05;-0.001047548193768456
1.19198e-05;-0.001049588342355141
1.19200e-05;-0.0010514686817108345
1.19202e-05;-0.0010530902392710813
1.19205e-05;-0.0010543719719644002
1.19208e-05;-0.0010553750212657393
1.19210e-05;-0.0010556612865421126
1.19213e-05;-0.001055488953073562
1.19215e-05;-0.0010541370866163626
1.19218e-05;-0.0010527852201591631
1.19220e-05;-0.001051433353701973
1.19223e-05;-0.0010500814872447734
1.19225e-05;-0.0010468440810793452
1.19228e-05;-0.0010430747081790438
1.19230e-05;-0.0010393053352787166
1.19233e-05;-0.0010355359623783896
1.19235e-05;-0.0010310461544478498
1.19238e-05;-0.001024703360887009
1.19240e-05;-0.001018360567326168
1.19243e-05;-0.0010120177737653702
1.19245e-05;-0.0010056749802045293
1.19248e-05;-0.0009993321866436885
1.19250e-05;-0.0009912872698071011
1.19253e-05;-0.0009827621334568704
1.19255e-05;-0.0009742369971066397
1.19258e-05;-0.0009657118607564667
1.19260e-05;-0.000957186724406236
1.19263e-05;-0.0009483866644499902
1.19265e-05;-0.0009388794907777362
1.19268e-05;-0.0009293723171054177
1.19270e-05;-0.0009197918468656254
1.19273e-05;-0.0009100228551345844
1.19275e-05;-0.0009002538634034771
1.19278e-05;-0.0008905266937356018
1.19280e-05;-0.0008809070919662942
1.19283e-05;-0.0008713879429959812
1.19285e-05;-0.0008621271623523094
1.19287e-05;-0.0008530152317521735
1.19290e-05;-0.0008442861489871158
1.19293e-05;-0.0008358397012408353
1.19295e-05;-0.0008281202012504912
1.19298e-05;-0.0008204007012601994
1.19300e-05;-0.0008131435551918042
1.19303e-05;-0.0008070756005671116
1.19305e-05;-0.0008010076459424602
1.19308e-05;-0.0007956044749979415
1.19310e-05;-0.0007919111523468483
1.19313e-05;-0.0007882178296957801
1.19315e-05;-0.0007845245070446868
1.19318e-05;-0.0007808311843935936
1.19320e-05;-0.0007780098399466647
1.19323e-05;-0.0007774312557971833
1.19325e-05;-0.0007768526716477018
1.19328e-05;-0.0007762740874982244
1.19330e-05;-0.0007756955033487429
1.19333e-05;-0.0007757647089828198
1.19335e-05;-0.0007775000539776252
1.19338e-05;-0.0007792353989724423
1.19340e-05;-0.0007813436064413472
1.19343e-05;-0.0007844108300293311
1.19345e-05;-0.0007877404579361134
1.19348e-05;-0.0007917449994878077
1.19350e-05;-0.0007959720868869229
1.19353e-05;-0.0008007715704637124
1.19355e-05;-0.0008057178834582681
1.19358e-05;-0.0008111291903387788
1.19360e-05;-0.0008168444566651571
1.19363e-05;-0.0008228330795024236
1.19365e-05;-0.0008290564071712595
1.19368e-05;-0.0008354676337385627
1.19370e-05;-0.000842021382568046
1.19372e-05;-0.0008486769547659733
1.19375e-05;-0.0008553951346643484
1.19378e-05;-0.0008621366996212258
1.19380e-05;-0.0008688622849624595
1.19383e-05;-0.0008755312456535615
1.19385e-05;-0.0008820978121771043
1.19388e-05;-0.0008885111459758835
1.19390e-05;-0.0008947212418348204
1.19393e-05;-0.0009006811191284142
1.19395e-05;-0.000906344677389179
1.19398e-05;-0.0009116658324450055
1.19400e-05;-0.0009165965540012273
1.19403e-05;-0.000921048826374833
1.19405e-05;-0.0009248058163973034
1.19408e-05;-0.0009275822591341905
1.19410e-05;-0.0009292269409793141
1.19413e-05;-0.0009295808588905387
1.19415e-05;-0.0009287368187034602
1.19418e-05;-0.0009272967509709302
1.19420e-05;-0.000924323678274463
1.19423e-05;-0.0009205452178541083
1.19425e-05;-0.0009146952703220903
