Time(s);Current(A)
8.25000e-06;-0.00791362134567712
8.25025e-06;-0.00794005325823341
8.25050e-06;-0.007966485170789522
8.25075e-06;-0.007992917083345812
8.25100e-06;-0.008019348995902103
8.25125e-06;-0.008045780908458214
8.25150e-06;-0.008072048861572883
8.25175e-06;-0.008097118761429928
8.25200e-06;-0.008122188661286802
8.25225e-06;-0.008147258561143846
8.25250e-06;-0.00817232846100089
8.25275e-06;-0.008197398360857765
8.25300e-06;-0.00822246826071481
8.25325e-06;-0.008247538160571853
8.25350e-06;-0.008272608060428727
8.25375e-06;-0.008297677960285771
8.25400e-06;-0.00832066094783558
8.25425e-06;-0.008328394846563055
8.25450e-06;-0.008336128745290584
8.25475e-06;-0.008343862644018112
8.25500e-06;-0.008351596542745589
8.25525e-06;-0.008359330441473117
8.25550e-06;-0.008367064340200646
8.25575e-06;-0.008374798238928121
8.25600e-06;-0.00838253213765565
8.25625e-06;-0.008390266036383178
8.25650e-06;-0.008382079094997387
8.25675e-06;-0.008364149959028672
8.25700e-06;-0.008346220823059837
8.25725e-06;-0.008328291687091
8.25750e-06;-0.008310362551122285
8.25775e-06;-0.008292433415153448
8.25800e-06;-0.008274504279184613
8.25825e-06;-0.008256575143215898
8.25850e-06;-0.008238646007247061
8.25875e-06;-0.008218538446616292
8.25900e-06;-0.008182513115482648
8.25925e-06;-0.00814648778434876
8.25950e-06;-0.008110462453214872
8.25975e-06;-0.008074437122081229
8.26000e-06;-0.008038411790947341
8.26025e-06;-0.008002386459813453
8.26050e-06;-0.00796636112867981
8.26075e-06;-0.007930335797545922
8.26100e-06;-0.007894310466412034
8.26125e-06;-0.00785828513527839
8.26150e-06;-0.00782446194900984
8.26175e-06;-0.007791986287346058
8.26200e-06;-0.007759510625682496
8.26225e-06;-0.0077270349640187145
8.26250e-06;-0.007694559302354932
8.26275e-06;-0.007662083640691371
8.26300e-06;-0.007629607979027588
8.26325e-06;-0.007597132317363807
8.26350e-06;-0.007564656655700244
8.26375e-06;-0.007532180994036462
8.26400e-06;-0.007502749310439835
8.26425e-06;-0.007495560004630239
8.26450e-06;-0.007488370698820594
8.26475e-06;-0.007481181393010948
8.26500e-06;-0.007473992087201304
8.26525e-06;-0.007466802781391707
8.26550e-06;-0.007459613475582063
8.26575e-06;-0.0074524241697724175
8.26600e-06;-0.007445234863962821
8.26625e-06;-0.007438045558153176
8.26650e-06;-0.007430856252343531
8.26675e-06;-0.007423666946533934
8.26700e-06;-0.007419367868025661
8.26725e-06;-0.007436187708943665
8.26750e-06;-0.007453007549861555
8.26775e-06;-0.007469827390779559
8.26800e-06;-0.007486647231697562
8.26825e-06;-0.007503467072615452
8.26850e-06;-0.007520286913533456
8.26875e-06;-0.00753710675445146
8.26900e-06;-0.007553926595369349
8.26925e-06;-0.007570746436287352
8.26950e-06;-0.007587566277205356
8.26975e-06;-0.007604386118123246
8.27000e-06;-0.007622391031934901
8.27025e-06;-0.007649055285081777
8.27050e-06;-0.0076757195382284715
8.27075e-06;-0.007702383791375347
8.27100e-06;-0.007729048044522222
8.27125e-06;-0.007755712297668917
8.27150e-06;-0.007782376550815793
8.27175e-06;-0.007809040803962668
8.27200e-06;-0.007835705057109362
8.27225e-06;-0.007862369310256238
8.27250e-06;-0.007889033563403114
8.27275e-06;-0.007912792520556341
8.27300e-06;-0.007934773684659804
8.27325e-06;-0.007956754848763266
8.27350e-06;-0.007978736012866729
8.27375e-06;-0.008000717176970042
8.27400e-06;-0.008022698341073504
8.27425e-06;-0.008044679505176967
8.27450e-06;-0.00806666066928028
8.27475e-06;-0.008088641833383743
8.27500e-06;-0.008110622997487205
8.27525e-06;-0.008131840643700844
8.27550e-06;-0.008147479257153357
8.27575e-06;-0.008163117870605871
8.27600e-06;-0.00817875648405828
8.27625e-06;-0.008194395097510793
8.27650e-06;-0.008210033710963308
8.27675e-06;-0.008225672324415715
8.27700e-06;-0.00824131093786823
8.27725e-06;-0.008256949551320744
8.27750e-06;-0.00827258816477315
8.27775e-06;-0.008288226778225665
8.27800e-06;-0.00830386539167818
8.27825e-06;-0.008319504005130587
8.27850e-06;-0.008335142618583102
8.27875e-06;-0.008350781232035616
8.27900e-06;-0.008366419845488023
8.27925e-06;-0.008382058458940538
8.27950e-06;-0.008397697072393052
8.27975e-06;-0.00841292899024399
8.28000e-06;-0.008425189179316943
8.28025e-06;-0.008437449368389896
8.28050e-06;-0.008449709557462767
8.28075e-06;-0.00846196974653572
8.28100e-06;-0.008474229935608674
8.28125e-06;-0.008486490124681544
8.28150e-06;-0.008498750313754497
8.28175e-06;-0.008511010502827451
8.28200e-06;-0.008523270691900403
8.28225e-06;-0.008535530880973273
8.28250e-06;-0.008547791070046227
8.28275e-06;-0.00856005125911918
8.28300e-06;-0.00857231144819205
8.28325e-06;-0.008584571637265004
8.28350e-06;-0.008596831826337957
8.28375e-06;-0.008609092015410828
8.28400e-06;-0.008621352204483781
8.28425e-06;-0.008634218970938476
8.28450e-06;-0.00865151800431584
8.28475e-06;-0.008668817037693321
8.28500e-06;-0.008686116071070804
8.28525e-06;-0.008703415104448168
8.28550e-06;-0.00872071413782565
8.28575e-06;-0.008738013171203131
8.28600e-06;-0.008755312204580496
8.28625e-06;-0.008772611237957978
8.28650e-06;-0.008789910271335459
8.28675e-06;-0.008807209304712823
8.28700e-06;-0.008824508338090304
8.28725e-06;-0.008848772011673809
8.28750e-06;-0.008877297450319227
8.28775e-06;-0.008905822888964838
8.28800e-06;-0.008934348327610449
8.28825e-06;-0.008962873766255867
8.28850e-06;-0.00899139920490148
8.28875e-06;-0.009019924643547091
8.28900e-06;-0.00904845008219251
8.28925e-06;-0.009076975520838122
8.28950e-06;-0.009105500959483733
8.28975e-06;-0.009134026398129151
8.29000e-06;-0.00916304750502741
8.29025e-06;-0.009195690464747969
8.29050e-06;-0.009228333424468526
8.29075e-06;-0.009260976384188864
8.29100e-06;-0.009293619343909423
8.29125e-06;-0.00932626230362998
8.29150e-06;-0.00935890526335032
8.29175e-06;-0.009391548223070877
8.29200e-06;-0.009424191182791437
8.29225e-06;-0.009456131767947554
8.29250e-06;-0.009482940095218433
8.29275e-06;-0.009509748422489311
8.29300e-06;-0.00953655674976001
8.29325e-06;-0.009563365077030888
8.29350e-06;-0.009590173404301766
8.29375e-06;-0.009616981731572462
8.29400e-06;-0.009643790058843341
8.29425e-06;-0.00967059838611422
8.29450e-06;-0.009696611866101636
8.29475e-06;-0.009716817389130154
8.29500e-06;-0.009737022912158673
8.29525e-06;-0.009757228435187055
8.29550e-06;-0.009777433958215573
8.29575e-06;-0.00979763948124409
8.29600e-06;-0.009817845004272472
8.29625e-06;-0.00983805052730099
8.29650e-06;-0.009858256050329509
8.29675e-06;-0.00987846157335789
8.29700e-06;-0.009898667096386407
8.29725e-06;-0.009918872619414926
8.29750e-06;-0.009939078142443308
8.29775e-06;-0.009959283665471826
8.29800e-06;-0.009979489188500343
8.29825e-06;-0.009999694711528725
8.29850e-06;-0.010019900234557243
8.29875e-06;-0.010038445549857496
8.29900e-06;-0.010055974959800701
8.29925e-06;-0.010073504369743788
8.29950e-06;-0.010091033779686993
8.29975e-06;-0.010108563189630198
8.30000e-06;-0.010126092599573283
8.30025e-06;-0.010143622009516488
8.30050e-06;-0.010161151419459695
8.30075e-06;-0.01017868082940278
8.30100e-06;-0.010196210239345985
8.30125e-06;-0.01021373964928919
8.30150e-06;-0.010231269059232277
8.30175e-06;-0.010248798469175481
8.30200e-06;-0.010266327879118686
8.30225e-06;-0.010283857289061771
8.30250e-06;-0.010301386699004976
8.30275e-06;-0.010318254095544285
8.30300e-06;-0.010330284153591574
8.30325e-06;-0.010342314211638943
8.30350e-06;-0.010354344269686313
8.30375e-06;-0.010366374327733602
8.30400e-06;-0.010378404385780972
8.30425e-06;-0.010390434443828341
8.30450e-06;-0.01040246450187563
8.30475e-06;-0.010414494559923
8.30500e-06;-0.0104149921781672
8.30525e-06;-0.010408432928057897
8.30550e-06;-0.01040187367794855
8.30575e-06;-0.010395314427839204
8.30600e-06;-0.010388755177729901
8.30625e-06;-0.010382195927620555
8.30650e-06;-0.01037563667751121
8.30675e-06;-0.010369077427401906
8.30700e-06;-0.01035978461534459
8.30725e-06;-0.010330517639086257
8.30750e-06;-0.010301250662827922
8.30775e-06;-0.010271983686569787
8.30800e-06;-0.010242716710311453
8.30825e-06;-0.010213449734053118
8.30850e-06;-0.010184182757794983
8.30875e-06;-0.010154915781536648
8.30900e-06;-0.010125648805278315
8.30925e-06;-0.010087948637676527
8.30950e-06;-0.010045088077119105
8.30975e-06;-0.010002227516561683
8.31000e-06;-0.009959366956004552
8.31025e-06;-0.009916506395447132
8.31050e-06;-0.00987364583488971
8.31075e-06;-0.009830785274332579
8.31100e-06;-0.009787924713775157
8.31125e-06;-0.009745121462669943
8.31150e-06;-0.00970273697229948
8.31175e-06;-0.00966035248192873
8.31200e-06;-0.00961796799155798
8.31225e-06;-0.009575583501187515
8.31250e-06;-0.009533199010816765
8.31275e-06;-0.009492186557533778
8.31300e-06;-0.009461199592831383
8.31325e-06;-0.009430212628128777
8.31350e-06;-0.00939922566342617
8.31375e-06;-0.009368238698723774
8.31400e-06;-0.009337251734021168
8.31425e-06;-0.009307760563531373
8.31450e-06;-0.009289199176161125
8.31475e-06;-0.009270637788790753
8.31500e-06;-0.00925207640142038
8.31525e-06;-0.009233515014050134
8.31550e-06;-0.00921495362667976
8.31575e-06;-0.009196392239309388
8.31600e-06;-0.009177830851939016
8.31625e-06;-0.009159269464568768
8.31650e-06;-0.009140708077198396
8.31675e-06;-0.009122146689828022
8.31700e-06;-0.009103585302457777
8.31725e-06;-0.009085023915087403
8.31750e-06;-0.00906646252771703
8.31775e-06;-0.009047901140346783
8.31800e-06;-0.009033007662447506
8.31825e-06;-0.009020358631926507
8.31850e-06;-0.009007709601405595
8.31875e-06;-0.008995060570884596
8.31900e-06;-0.008982411540363599
8.31925e-06;-0.008969762509842686
8.31950e-06;-0.008957113479321687
8.31975e-06;-0.008944464448800689
8.32000e-06;-0.008931815418279776
8.32025e-06;-0.00891916638775878
8.32050e-06;-0.00890651735723778
8.32075e-06;-0.008893868326716868
8.32100e-06;-0.00888121929619587
8.32125e-06;-0.008868570265674872
8.32150e-06;-0.008856786567945018
8.32175e-06;-0.00885132586548905
8.32200e-06;-0.008845865163033085
8.32225e-06;-0.008840404460577154
8.32250e-06;-0.008834943758121189
8.32275e-06;-0.008829483055665222
8.32300e-06;-0.008824022353209292
8.32325e-06;-0.008818561650753325
8.32350e-06;-0.00881310094829736
8.32375e-06;-0.008807640245841429
8.32400e-06;-0.008802179543385464
8.32425e-06;-0.008796718840929496
8.32450e-06;-0.008791258138473531
8.32475e-06;-0.008787860562598176
8.32500e-06;-0.008799538273080897
8.32525e-06;-0.008811215983563617
8.32550e-06;-0.008822893694046256
8.32575e-06;-0.008834571404528976
8.32600e-06;-0.008846249115011695
8.32625e-06;-0.008857926825494336
8.32650e-06;-0.008869604535977056
8.32675e-06;-0.008881282246459775
8.32700e-06;-0.008892959956942417
8.32725e-06;-0.008904637667425136
8.32750e-06;-0.008916315377907855
8.32775e-06;-0.008927993088390495
8.32800e-06;-0.008941526273634941
8.32825e-06;-0.008968617431342241
8.32850e-06;-0.00899570858904936
8.32875e-06;-0.00902279974675666
8.32900e-06;-0.009049890904463962
8.32925e-06;-0.009076982062171078
8.32950e-06;-0.00910407321987838
8.32975e-06;-0.00913116437758568
8.33000e-06;-0.009158255535292798
8.33025e-06;-0.009185346693000099
8.33050e-06;-0.0092124378507074
8.33075e-06;-0.00923977369981066
8.33100e-06;-0.009268897511369905
8.33125e-06;-0.009298021322929147
8.33150e-06;-0.009327145134488193
8.33175e-06;-0.009356268946047437
8.33200e-06;-0.009385392757606682
8.33225e-06;-0.009414516569165728
8.33250e-06;-0.00944364038072497
8.33275e-06;-0.009472764192284214
8.33300e-06;-0.009501888003843459
8.33325e-06;-0.009531011815402505
8.33350e-06;-0.009558554106768641
8.33375e-06;-0.009574540214413233
8.33400e-06;-0.009590526322057716
8.33425e-06;-0.009606512429702306
8.33450e-06;-0.009622498537346898
8.33475e-06;-0.00963848464499138
8.33500e-06;-0.009654470752635971
8.33525e-06;-0.009670456860280561
8.33550e-06;-0.009686442967925044
8.33575e-06;-0.009702429075569636
8.33600e-06;-0.009718415183214226
8.33625e-06;-0.00972238155279002
8.33650e-06;-0.009718992869079237
8.33675e-06;-0.009715604185368452
8.33700e-06;-0.00971221550165769
8.33725e-06;-0.009708826817946908
8.33750e-06;-0.009705438134236124
8.33775e-06;-0.009702049450525363
8.33800e-06;-0.009698660766814578
8.33825e-06;-0.009695272083103796
8.33850e-06;-0.009691883399393034
8.33875e-06;-0.009686914222947977
8.33900e-06;-0.009670396370430285
8.33925e-06;-0.009653878517912705
8.33950e-06;-0.009637360665395014
8.33975e-06;-0.009620842812877322
8.34000e-06;-0.009604324960359742
8.34025e-06;-0.009587807107842052
8.34050e-06;-0.009571289255324359
8.34075e-06;-0.009554771402806781
8.34100e-06;-0.009538253550289089
8.34125e-06;-0.009521735697771398
8.34150e-06;-0.009505478181488634
8.34175e-06;-0.009491122944654986
8.34200e-06;-0.00947676770782124
8.34225e-06;-0.009462412470987494
8.34250e-06;-0.009448057234153845
8.34275e-06;-0.009433701997320099
8.34300e-06;-0.009419346760486353
8.34325e-06;-0.009404991523652706
8.34350e-06;-0.00939063628681896
8.34375e-06;-0.009376281049985214
8.34400e-06;-0.009361925813151565
8.34425e-06;-0.009349707330799732
8.34450e-06;-0.009353102134630292
8.34475e-06;-0.009356496938460829
8.34500e-06;-0.009359891742291388
8.34525e-06;-0.009363286546121948
8.34550e-06;-0.009366681349952485
8.34575e-06;-0.009370076153783045
8.34600e-06;-0.009373470957613605
8.34625e-06;-0.009376865761444142
8.34650e-06;-0.009380260565274702
8.34675e-06;-0.009383655369105261
8.34700e-06;-0.009398832143188254
8.34725e-06;-0.009421218476960399
8.34750e-06;-0.009443604810732541
8.34775e-06;-0.009465991144504533
8.34800e-06;-0.009488377478276676
8.34825e-06;-0.009510763812048819
8.34850e-06;-0.009533150145820811
8.34875e-06;-0.009555536479592954
8.34900e-06;-0.009577922813365097
8.34925e-06;-0.009600309147137089
8.34950e-06;-0.00962385099337499
8.34975e-06;-0.009655836180657153
8.35000e-06;-0.009687821367939102
8.35025e-06;-0.009719806555221268
8.35050e-06;-0.009751791742503431
8.35075e-06;-0.009783776929785597
8.35100e-06;-0.009815762117067545
8.35125e-06;-0.009847747304349709
8.35150e-06;-0.009879732491631875
8.35175e-06;-0.009911717678913823
8.35200e-06;-0.009943702866195987
8.35225e-06;-0.009975688053478152
8.35250e-06;-0.010006731670314068
8.35275e-06;-0.010030895222563539
8.35300e-06;-0.01005505877481301
8.35325e-06;-0.010079222327062317
8.35350e-06;-0.010103385879311788
8.35375e-06;-0.01012754943156126
8.35400e-06;-0.010151712983810568
8.35425e-06;-0.010175876536060039
8.35450e-06;-0.01020004008830951
8.35475e-06;-0.010224203640558817
8.35500e-06;-0.01024836719280829
8.35525e-06;-0.01027253074505776
8.35550e-06;-0.010294839998883977
8.35575e-06;-0.01030359987574042
8.35600e-06;-0.010312359752596862
8.35625e-06;-0.010321119629453243
8.35650e-06;-0.010329879506309685
8.35675e-06;-0.010338639383166127
8.35700e-06;-0.010347399260022509
8.35725e-06;-0.010356159136878951
8.35750e-06;-0.010364919013735393
8.35775e-06;-0.010373678890591775
8.35800e-06;-0.010382438767448217
8.35825e-06;-0.010391198644304659
8.35850e-06;-0.01039995852116104
8.35875e-06;-0.010407585376910047
8.35900e-06;-0.010406933236187221
8.35925e-06;-0.010406281095464395
8.35950e-06;-0.010405628954741574
8.35975e-06;-0.010404976814018748
8.36000e-06;-0.010404324673295924
8.36025e-06;-0.010403672532573101
8.36050e-06;-0.010403020391850277
8.36075e-06;-0.01040236825112745
8.36100e-06;-0.01040171611040463
8.36125e-06;-0.010401063969681804
8.36150e-06;-0.010400411828958978
8.36175e-06;-0.010399759688236157
8.36200e-06;-0.010399281198822467
8.36225e-06;-0.010400071581247458
8.36250e-06;-0.010400861963672445
8.36275e-06;-0.010401652346097436
8.36300e-06;-0.010402442728522428
8.36325e-06;-0.010403233110947414
8.36350e-06;-0.010404023493372404
8.36375e-06;-0.010404813875797395
8.36400e-06;-0.010405604258222382
8.36425e-06;-0.010406394640647373
8.36450e-06;-0.010407185023072365
8.36475e-06;-0.010407975405497349
8.36500e-06;-0.010410132892040598
8.36525e-06;-0.010422279821940463
8.36550e-06;-0.010434426751840246
8.36575e-06;-0.010446573681740111
8.36600e-06;-0.010458720611639976
8.36625e-06;-0.01047086754153976
8.36650e-06;-0.010483014471439626
8.36675e-06;-0.01049516140133949
8.36700e-06;-0.010507308331239274
8.36725e-06;-0.010519455261139139
8.36750e-06;-0.010531602191039003
8.36775e-06;-0.010543749120938868
8.36800e-06;-0.010557138293271793
8.36825e-06;-0.010579604543390547
8.36850e-06;-0.010602070793509303
8.36875e-06;-0.010624537043627907
8.36900e-06;-0.010647003293746661
8.36925e-06;-0.010669469543865415
8.36950e-06;-0.010691935793984019
8.36975e-06;-0.010714402044102775
8.37000e-06;-0.01073686829422153
8.37025e-06;-0.010759334544340133
8.37050e-06;-0.010781800794458887
8.37075e-06;-0.010805314741683674
8.37100e-06;-0.010829469790070902
8.37125e-06;-0.010853624838458293
8.37150e-06;-0.010877779886845684
8.37175e-06;-0.010901934935232912
8.37200e-06;-0.010926089983620303
8.37225e-06;-0.010950245032007694
8.37250e-06;-0.010974400080394922
8.37275e-06;-0.010998555128782313
8.37300e-06;-0.011022710177169704
8.37325e-06;-0.011045810871074523
8.37350e-06;-0.01106120738631073
8.37375e-06;-0.011076603901546935
8.37400e-06;-0.011092000416783036
8.37425e-06;-0.011107396932019243
8.37450e-06;-0.011122793447255449
8.37475e-06;-0.01113818996249155
8.37500e-06;-0.011153586477727757
8.37525e-06;-0.011168982992963962
8.37550e-06;-0.011173627131467228
8.37575e-06;-0.011171691733589811
8.37600e-06;-0.011169756335712397
8.37625e-06;-0.01116782093783498
8.37650e-06;-0.011165885539957577
8.37675e-06;-0.011163950142080162
8.37700e-06;-0.011162014744202746
8.37725e-06;-0.011160079346325343
8.37750e-06;-0.011156131149777494
8.37775e-06;-0.011137475413364227
8.37800e-06;-0.011118819676951086
8.37825e-06;-0.01110016394053782
8.37850e-06;-0.011081508204124553
8.37875e-06;-0.011062852467711411
8.37900e-06;-0.011044196731298144
8.37925e-06;-0.011025540994884878
8.37950e-06;-0.011006885258471738
8.37975e-06;-0.010987273461027588
8.38000e-06;-0.010960675716138858
8.38025e-06;-0.01093407797125031
8.38050e-06;-0.01090748022636158
8.38075e-06;-0.010880882481472851
8.38100e-06;-0.010854284736584301
8.38125e-06;-0.01082768699169557
8.38150e-06;-0.010801089246806842
8.38175e-06;-0.010774491501918292
8.38200e-06;-0.010748437061590975
8.38225e-06;-0.010726352553088668
8.38250e-06;-0.010704268044586511
8.38275e-06;-0.010682183536084206
8.38300e-06;-0.0106600990275819
8.38325e-06;-0.010638014519079742
8.38350e-06;-0.010615930010577436
8.38375e-06;-0.010601270111866866
8.38400e-06;-0.010589431189063235
8.38425e-06;-0.010577592266259525
8.38450e-06;-0.010565753343455813
8.38475e-06;-0.010553914420652103
8.38500e-06;-0.010542075497848472
8.38525e-06;-0.01053400815925327
8.38550e-06;-0.010533634821213535
8.38575e-06;-0.010533261483173803
8.38600e-06;-0.010532888145134069
8.38625e-06;-0.010532514807094336
8.38650e-06;-0.010532141469054603
8.38675e-06;-0.01053176813101487
8.38700e-06;-0.010531394792975135
8.38725e-06;-0.010531021454935403
8.38750e-06;-0.010530648116895669
8.38775e-06;-0.010530274778855934
8.38800e-06;-0.010529901440816202
8.38825e-06;-0.01052952810277647
8.38850e-06;-0.010529154764736735
8.38875e-06;-0.010528781426697003
8.38900e-06;-0.010528408088657269
8.38925e-06;-0.010528034750617534
8.38950e-06;-0.010531261382205203
8.38975e-06;-0.010539985271399151
8.39000e-06;-0.010548709160593101
8.39025e-06;-0.010557433049786992
8.39050e-06;-0.01056615693898094
8.39075e-06;-0.01057488082817489
8.39100e-06;-0.010583604717368779
8.39125e-06;-0.010592328606562729
8.39150e-06;-0.010601052495756678
8.39175e-06;-0.010609776384950568
8.39200e-06;-0.010618500274144517
8.39225e-06;-0.010627224163338465
8.39250e-06;-0.010635948052532356
8.39275e-06;-0.010644671941726304
8.39300e-06;-0.010653395830920254
8.39325e-06;-0.010662119720114204
8.39350e-06;-0.010670843609308093
8.39375e-06;-0.010678847725108244
8.39400e-06;-0.010686015330693417
8.39425e-06;-0.010693182936278543
8.39450e-06;-0.010700350541863716
8.39475e-06;-0.010707518147448889
8.39500e-06;-0.010714685753034015
8.39525e-06;-0.010721853358619188
8.39550e-06;-0.010729020964204363
8.39575e-06;-0.010736188569789487
8.39600e-06;-0.01074335617537466
8.39625e-06;-0.010750523780959835
8.39650e-06;-0.010757691386544959
8.39675e-06;-0.010764858992130132
8.39700e-06;-0.010772026597715307
8.39725e-06;-0.010779194203300431
