Time(s);Current(A)
1.35000e-05;0.0026884762605242584
1.35003e-05;0.0026762920437670363
1.35005e-05;0.0026641078270097313
1.35008e-05;0.0026519236102524263
1.35010e-05;0.0026397393934951214
1.35013e-05;0.002630314554986522
1.35015e-05;0.0026241817085211876
1.35018e-05;0.0026180488620558533
1.35020e-05;0.0026119160155905607
1.35023e-05;0.0026057831691252264
1.35025e-05;0.002599650322659892
1.35028e-05;0.0025935174761945994
1.35030e-05;0.002587384629729265
1.35033e-05;0.002581251783263931
1.35035e-05;0.002575118936798638
1.35038e-05;0.002568986090333304
1.35040e-05;0.0025628532438679696
1.35043e-05;0.002556720397402677
1.35045e-05;0.0025505875509373426
1.35048e-05;0.0025444547044720083
1.35050e-05;0.0025383218580067157
1.35053e-05;0.002533307101719896
1.35055e-05;0.002529626248812851
1.35058e-05;0.0025259453959058315
1.35060e-05;0.0025222645429987867
1.35063e-05;0.0025185836900917425
1.35065e-05;0.002514902837184723
1.35068e-05;0.002511221984277678
1.35070e-05;0.002505964218672429
1.35073e-05;0.002498825165476762
1.35075e-05;0.002491686112281047
1.35078e-05;0.0024845470590853323
1.35080e-05;0.002477408005889666
1.35083e-05;0.002470268952693951
1.35085e-05;0.002463129899498236
1.35088e-05;0.0024498572184427697
1.35090e-05;0.002429266999776417
1.35093e-05;0.0024086767811100644
1.35095e-05;0.0023880865624438512
1.35098e-05;0.0023674963437774984
1.35100e-05;0.0023469061251111456
1.35103e-05;0.002326315906444793
1.35105e-05;0.0023057256877785795
1.35108e-05;0.002285135469112227
1.35110e-05;0.0022645452504458743
1.35113e-05;0.0022299649757801508
1.35115e-05;0.0021947406894309547
1.35118e-05;0.0021595164030817583
1.35120e-05;0.002124292116732801
1.35123e-05;0.0020890678303836048
1.35125e-05;0.0020538435440344087
1.35128e-05;0.0020186192576854512
1.35130e-05;0.001983394971336255
1.35133e-05;0.0019481706849870588
1.35135e-05;0.0019107797188508443
1.35138e-05;0.0018708038614886932
1.35140e-05;0.001830828004126542
1.35143e-05;0.001790852146764662
1.35145e-05;0.0017508762894025108
1.35148e-05;0.0017109004320403597
1.35150e-05;0.0016709245746784793
1.35153e-05;0.0016355608010321181
1.35155e-05;0.0016004093378868714
1.35158e-05;0.0015652578747418627
1.35160e-05;0.0015301064115966158
1.35163e-05;0.0014949549484513688
1.35165e-05;0.0014598034853063602
1.35168e-05;0.0014286906248382524
1.35170e-05;0.0014023958960972026
1.35173e-05;0.001376101167356331
1.35175e-05;0.0013532960183556693
1.35178e-05;0.001334654006015342
1.35180e-05;0.0013160119936751415
1.35183e-05;0.0013010452329269078
1.35185e-05;0.0012904631189779227
1.35188e-05;0.0012798810050289378
1.35190e-05;0.0012731549307508105
1.35193e-05;0.0012710291869742459
1.35195e-05;0.0012689034431976813
1.35198e-05;0.001270432796601817
1.35200e-05;0.001276322752199463
1.35203e-05;0.0012822127077971087
1.35205e-05;0.0012914755457308755
1.35208e-05;0.0013047622980467345
1.35210e-05;0.0013180490503625934
1.35213e-05;0.0013343451447310032
1.35215e-05;0.001354231442836124
1.35218e-05;0.0013741177409412446
1.35220e-05;0.0013974782637574496
1.35223e-05;0.0014249836043852024
1.35225e-05;0.001452488945012955
1.35228e-05;0.0014799942856405215
1.35230e-05;0.0015074996262682745
1.35233e-05;0.0015350049668960272
1.35235e-05;0.0015625103075235936
1.35238e-05;0.0015944906199367817
1.35240e-05;0.001626676931104948
1.35243e-05;0.0016588632422728962
1.35245e-05;0.0016910495534410625
1.35248e-05;0.0017232358646092289
1.35250e-05;0.001755422175777177
1.35253e-05;0.0017838885940740193
1.35255e-05;0.0018079171076545932
1.35258e-05;0.001831945621235004
1.35260e-05;0.0018559741348155776
1.35263e-05;0.0018800026483961514
1.35265e-05;0.0019040311619765622
1.35268e-05;0.001928059675557136
1.35270e-05;0.0019520881891377097
1.35273e-05;0.0019761167027182833
1.35275e-05;0.0020001452162986943
1.35278e-05;0.002024173729879268
1.35280e-05;0.0020482022434598415
1.35283e-05;0.0020722307570402525
1.35285e-05;0.002080519123757543
1.35288e-05;0.0020880829159266373
1.35290e-05;0.0020956467080956802
1.35293e-05;0.0021032105002647744
1.35295e-05;0.0021107742924338685
1.35298e-05;0.002118338084602911
1.35300e-05;0.002125901876772005
1.35303e-05;0.0021334656689410993
1.35305e-05;0.0021410294611101423
1.35308e-05;0.0021485932532792364
1.35310e-05;0.0021561570454483306
1.35313e-05;0.002163720837617373
1.35315e-05;0.002166812264965459
1.35318e-05;0.0021645680738905443
1.35320e-05;0.002162323882815645
1.35323e-05;0.0021600796917407303
1.35325e-05;0.002157835500665816
1.35328e-05;0.0021555913095909164
1.35330e-05;0.0021533471185160016
1.35333e-05;0.0021511029274410873
1.35335e-05;0.0021488587363661877
1.35338e-05;0.0021466145452912733
1.35340e-05;0.0021443703542163585
1.35343e-05;0.002140915846417685
1.35345e-05;0.002136017407171537
1.35348e-05;0.0021311189679253887
1.35350e-05;0.002126220528679274
1.35353e-05;0.0021213220894331255
1.35355e-05;0.0021164236501869773
1.35358e-05;0.002111525210940829
1.35360e-05;0.002106626771694714
1.35363e-05;0.002101728332448566
1.35365e-05;0.002096829893202418
1.35368e-05;0.0020919314539563027
1.35370e-05;0.0020843897039876675
1.35373e-05;0.0020736944327936864
1.35375e-05;0.0020629991615997777
1.35378e-05;0.0020523038904057965
1.35380e-05;0.0020416086192118154
1.35383e-05;0.0020309133480179067
1.35385e-05;0.0020202180768239255
1.35388e-05;0.0020095228056299444
1.35390e-05;0.0019988275344360357
1.35393e-05;0.0019881322632420546
1.35395e-05;0.0019774369920480734
1.35398e-05;0.0019667417208541647
1.35400e-05;0.0019560464496601836
1.35403e-05;0.0019293651382741395
1.35405e-05;0.00190194793300022
1.35408e-05;0.001874530727726115
1.35410e-05;0.0018471135224520099
1.35413e-05;0.0018196963171780906
1.35415e-05;0.0017922791119039856
1.35418e-05;0.0017648619066298805
1.35420e-05;0.0017374447013559613
1.35423e-05;0.0017100274960818562
1.35425e-05;0.0016826102908077511
1.35428e-05;0.0016551930855338319
1.35430e-05;0.0016277758802597268
1.35433e-05;0.0015972429502547063
1.35435e-05;0.0015629928999016222
1.35438e-05;0.001528742849548306
1.35440e-05;0.00149449279919499
1.35443e-05;0.0014602427488416738
1.35445e-05;0.0014259926984885897
1.35448e-05;0.0013917426481352736
1.35450e-05;0.0013604261903963548
1.35453e-05;0.0013292447762864098
1.35455e-05;0.0012980633621762535
1.35458e-05;0.0012668819480660975
1.35460e-05;0.0012357005339561525
1.35463e-05;0.0012045191198459962
1.35465e-05;0.0011763725623709716
1.35468e-05;0.0011518466480299266
1.35470e-05;0.0011273207336887153
1.35473e-05;0.001105432339935021
1.35475e-05;0.0010866905596640152
1.35478e-05;0.0010679487793928825
1.35480e-05;0.0010516847353939038
1.35483e-05;0.0010383766790742406
1.35485e-05;0.0010250686227544872
1.35488e-05;0.0010144912149127085
1.35490e-05;0.001007171523942675
1.35493e-05;0.000999851832972592
1.35495e-05;0.0009950608924696094
1.35498e-05;0.0009932868005751855
1.35500e-05;0.0009915127086807494
1.35503e-05;0.0009916480305069985
1.35505e-05;0.0009940613201284629
1.35508e-05;0.0009983289748543489
1.35510e-05;0.0010048089233030016
1.35513e-05;0.0010112888717516103
1.35515e-05;0.0010205968332166464
1.35518e-05;0.0010332786693459455
1.35520e-05;0.001045960505475159
1.35523e-05;0.001058642341604458
1.35525e-05;0.0010713241777337574
1.35528e-05;0.0010840060138630565
1.35530e-05;0.00109668784999227
1.35533e-05;0.0011115357456571797
1.35535e-05;0.001128967792578305
1.35538e-05;0.0011463998394993125
1.35540e-05;0.001163831886420438
1.35543e-05;0.0011812639333415634
1.35545e-05;0.0011986959802625708
1.35548e-05;0.0012161280271836962
1.35550e-05;0.0012324787152345716
1.35553e-05;0.001247539321070526
1.35555e-05;0.0012625999269065826
1.35558e-05;0.0012776605327426392
1.35560e-05;0.0012927211385785936
1.35563e-05;0.0013077817444146502
1.35565e-05;0.0013228423502507065
1.35568e-05;0.0013379029560866612
1.35570e-05;0.0013529635619227176
1.35573e-05;0.0013680241677587741
1.35575e-05;0.0013830847735947286
1.35578e-05;0.0013923057530743081
1.35580e-05;0.0014012579139280233
1.35583e-05;0.0014102100747816779
1.35585e-05;0.001419162235635393
1.35588e-05;0.0014281143964891081
1.35590e-05;0.0014370665573427627
1.35593e-05;0.0014460187181964779
1.35595e-05;0.001454970879050193
1.35598e-05;0.0014639230399038476
1.35600e-05;0.0014728752007575627
1.35603e-05;0.0014805456154021494
1.35605e-05;0.001486686881829469
1.35608e-05;0.0014928281482568299
1.35610e-05;0.0014989694146841908
1.35613e-05;0.001505110681111552
1.35615e-05;0.0015112519475388713
1.35618e-05;0.0015173932139662324
1.35620e-05;0.0015235344803935934
1.35623e-05;0.001529675746820913
1.35625e-05;0.0015358170132482739
1.35628e-05;0.001541958279675635
1.35630e-05;0.0015480995461029544
1.35633e-05;0.0015542408125303155
1.35635e-05;0.0015594777397506968
1.35638e-05;0.0015636357726654354
1.35640e-05;0.0015677938055802024
1.35643e-05;0.0015719518384949692
1.35645e-05;0.001576109871409708
1.35648e-05;0.001580267904324475
1.35650e-05;0.0015844259372392417
1.35653e-05;0.0015885839701539806
1.35655e-05;0.0015927420030687474
1.35658e-05;0.0015969000359835144
1.35660e-05;0.001601058068898253
1.35663e-05;0.0016052161018130198
1.35665e-05;0.0016093741347277869
1.35668e-05;0.0016139985616207672
1.35670e-05;0.0016191794056230671
1.35673e-05;0.0016243602496253669
1.35675e-05;0.0016295410936276317
1.35678e-05;0.0016347219376299314
1.35680e-05;0.0016537055557144934
1.35683e-05;0.0016733245642405665
1.35685e-05;0.0016929435727667725
1.35688e-05;0.0017125625812929785
1.35690e-05;0.001738333144398189
1.35693e-05;0.0017714426320534513
1.35695e-05;0.0018045521197087135
1.35698e-05;0.0018440716303255167
1.35700e-05;0.0018912384233114908
1.35703e-05;0.0019384052162977844
1.35705e-05;0.001990992413485856
1.35708e-05;0.002050046258568176
1.35710e-05;0.002109100103650896
1.35713e-05;0.0021729216437396236
1.35715e-05;0.0022424311369262226
1.35718e-05;0.0023119406301132924
1.35720e-05;0.0023872107459991555
1.35723e-05;0.002469353397079684
1.35725e-05;0.002551496048160769
1.35728e-05;0.0026336386992418543
1.35730e-05;0.002715781350322383
1.35733e-05;0.0027979240014034683
1.35735e-05;0.002882859993744221
1.35738e-05;0.002971128496669456
1.35740e-05;0.003059396999595289
1.35743e-05;0.003147665502521122
1.35745e-05;0.003235934005446357
1.35748e-05;0.00332420250837219
1.35750e-05;0.003407177093280812
1.35753e-05;0.003483835930777527
1.35755e-05;0.003560494768274761
1.35758e-05;0.0036371536057719952
1.35760e-05;0.0037138124432687103
1.35763e-05;0.0037904712807659445
1.35765e-05;0.003867130118263179
1.35768e-05;0.003943788955759894
1.35770e-05;0.003993277135250625
1.35773e-05;0.004041514553385632
1.35775e-05;0.004089751971520313
1.35778e-05;0.00413798938965532
1.35780e-05;0.004186226807790327
1.35783e-05;0.004234464225925334
1.35785e-05;0.004282701644060014
1.35788e-05;0.0043180833271668625
1.35790e-05;0.004338127867731514
1.35793e-05;0.004365817549347906
1.35795e-05;0.004395214802704967
1.35798e-05;0.0044053851331416725
1.35800e-05;0.004415555463578308
1.35803e-05;0.004425725794015013
1.35805e-05;0.004435896124451718
1.35808e-05;0.004446066454888354
1.35810e-05;0.004456236785325059
1.35813e-05;0.004466407115761764
1.35815e-05;0.0044765774461984
1.35818e-05;0.0044867477766351044
1.35820e-05;0.004481714484261105
1.35823e-05;0.004473341527509844
1.35825e-05;0.004464968570758526
1.35828e-05;0.0044565956140072095
1.35830e-05;0.004448222657255948
1.35833e-05;0.004439849700504631
1.35835e-05;0.0044314767437533134
1.35838e-05;0.004423103787002053
1.35840e-05;0.004414730830250736
1.35843e-05;0.004404219151738146
1.35845e-05;0.004390106096403092
1.35848e-05;0.004375993041067941
1.35850e-05;0.00436187998573279
1.35853e-05;0.004347766930397735
1.35855e-05;0.004333653875062584
1.35858e-05;0.004319540819727433
1.35860e-05;0.004305427764392378
1.35863e-05;0.004291314709057227
1.35865e-05;0.004277456952620604
1.35868e-05;0.004264029091999654
1.35870e-05;0.004250601231378797
1.35873e-05;0.0042371733707578475
1.35875e-05;0.004223745510136899
1.35878e-05;0.004210317649516041
1.35880e-05;0.004196889788895091
1.35883e-05;0.004183461928274143
1.35885e-05;0.004170034067653284
1.35888e-05;0.004152829754051499
1.35890e-05;0.004129266300852723
1.35893e-05;0.0041057028476541085
1.35895e-05;0.004082139394455333
1.35898e-05;0.004058575941256558
1.35900e-05;0.004035012488057943
1.35903e-05;0.004011449034859168
1.35905e-05;0.003987885581660393
1.35908e-05;0.003964322128461778
1.35910e-05;0.003940758675263003
1.35913e-05;0.003917195222064227
1.35915e-05;0.003893631768865612
1.35918e-05;0.0038604446571230467
1.35920e-05;0.0038258524010111035
1.35923e-05;0.003791260144899395
1.35925e-05;0.0037566678887874516
1.35928e-05;0.0037220756326755084
1.35930e-05;0.0036874833765637993
1.35933e-05;0.003652891120451856
1.35935e-05;0.003618298864339913
1.35938e-05;0.0035837066082282042
1.35940e-05;0.003549114352116261
1.35943e-05;0.0035145220960043177
1.35945e-05;0.0034806559995473776
1.35948e-05;0.003448012677645818
1.35950e-05;0.003415369355744258
1.35953e-05;0.003382726033842698
1.35955e-05;0.0033500827119413595
1.35958e-05;0.0033174393900397997
1.35960e-05;0.00328479606813824
1.35963e-05;0.003252152746236901
1.35965e-05;0.0032223716690035317
1.35968e-05;0.0031974103031510268
1.35970e-05;0.003172448937298691
1.35973e-05;0.003147487571446186
1.35975e-05;0.003122526205593681
1.35978e-05;0.003097564839741345
1.35980e-05;0.00307260347388884
1.35983e-05;0.0030476421080363352
1.35985e-05;0.0030208359067302147
1.35988e-05;0.002990923201451005
1.35990e-05;0.002961010496171796
1.35993e-05;0.0029310977908927893
1.35995e-05;0.0029011850856135797
1.35998e-05;0.0028712723803343706
1.36000e-05;0.0028413596750553635
1.36003e-05;0.0028114469697761543
1.36005e-05;0.0027815342644969447
1.36008e-05;0.002751621559217938
1.36010e-05;0.002721708853938729
1.36013e-05;0.002688352578841499
1.36015e-05;0.002649197703495559
1.36018e-05;0.0026100428281493533
1.36020e-05;0.002570887952803148
1.36023e-05;0.0025317330774572077
1.36025e-05;0.0024925782021110025
1.36028e-05;0.002453423326764797
1.36030e-05;0.002414268451418857
1.36033e-05;0.0023751135760726513
1.36035e-05;0.002335958700726446
1.36038e-05;0.0022968038253802403
1.36040e-05;0.0022575092795225717
1.36043e-05;0.0022179795435837107
1.36045e-05;0.00217844980764485
1.36048e-05;0.002138920071706257
1.36050e-05;0.002099390335767396
1.36053e-05;0.0020598605998285355
1.36055e-05;0.0020203308638899425
1.36058e-05;0.001987867866193903
1.36060e-05;0.001956436678533255
1.36063e-05;0.0019250054908728196
1.36065e-05;0.0018935743032121714
1.36068e-05;0.0018621431155515231
1.36070e-05;0.0018307119278910878
1.36073e-05;0.0018038758823922028
1.36075e-05;0.0017847775607954216
1.36078e-05;0.0017656792391987695
1.36080e-05;0.001750895918162899
1.36083e-05;0.001743378592781427
1.36085e-05;0.001735861267400006
1.36088e-05;0.0017326855028798826
1.36090e-05;0.0017368204586958628
1.36093e-05;0.001740955414511815
1.36095e-05;0.0017497166194381866
1.36098e-05;0.0017662679290138612
1.36100e-05;0.0017828192385894238
1.36103e-05;0.0018037112559737658
1.36105e-05;0.0018319125572454826
1.36108e-05;0.0018601138585170082
1.36110e-05;0.0018921170564094726
1.36113e-05;0.0019305222382495347
1.36115e-05;0.0019689274200893367
1.36118e-05;0.0020121026921769963
1.36120e-05;0.0020633102818789608
1.36123e-05;0.002114517871580925
1.36125e-05;0.0021657254612825424
1.36128e-05;0.0022169330509845065
1.36130e-05;0.002268140640686471
1.36133e-05;0.002319348230388088
1.36135e-05;0.002377664551272636
1.36138e-05;0.002437018813555851
1.36140e-05;0.002496373075838664
1.36143e-05;0.0025557273381218793
1.36145e-05;0.0026150816004050946
1.36148e-05;0.0026744358626879074
1.36150e-05;0.0027318474071102708
1.36153e-05;0.0027859876241394022
1.36155e-05;0.0028401278411681664
1.36158e-05;0.002894268058197298
1.36160e-05;0.0029484082752264293
1.36163e-05;0.003002548492255194
1.36165e-05;0.003056688709284325
1.36168e-05;0.0030925058452962186
1.36170e-05;0.0031256476396955674
1.36173e-05;0.0031587894340951404
1.36175e-05;0.003191931228494714
1.36178e-05;0.0032250730228940627
1.36180e-05;0.0032582148172936357
1.36183e-05;0.003282601464301143
1.36185e-05;0.0032922453871714794
1.36188e-05;0.0033018893100418807
1.36190e-05;0.003305620508112872
1.36193e-05;0.0032993953151935263
1.36195e-05;0.003293170122274139
1.36198e-05;0.003280987469896009
1.36200e-05;0.0032587730981850933
1.36203e-05;0.0032365587264740277
1.36205e-05;0.0032089538427709794
1.36208e-05;0.003172271918134814
1.36210e-05;0.003135589993498897
1.36213e-05;0.0030941127852016927
1.36215e-05;0.0030445608362967016
1.36218e-05;0.0029950088873920465
1.36220e-05;0.0029400648505166246
1.36223e-05;0.0028760411189297907
1.36225e-05;0.002812017387343391
1.36228e-05;0.002747993655756557
1.36230e-05;0.002683969924169723
1.36233e-05;0.002619946192583323
1.36235e-05;0.0025525788705277252
1.36238e-05;0.002479581302662969
1.36240e-05;0.0024065837347987083
1.36243e-05;0.0023335861669339522
1.36245e-05;0.0022605885990691966
1.36248e-05;0.0021875910312049354
1.36250e-05;0.0021159396912713946
1.36253e-05;0.002046555254010038
1.36255e-05;0.001977170816749152
1.36258e-05;0.001907786379487796
1.36260e-05;0.0018384019422264396
1.36263e-05;0.0017804879434910907
1.36265e-05;0.0017242487363193593
1.36268e-05;0.0016680095291476277
1.36270e-05;0.0016117703219762772
1.36273e-05;0.0015616931382156926
1.36275e-05;0.001521992137428375
1.36278e-05;0.0014876538521285767
1.36280e-05;0.0014623458014475853
1.36283e-05;0.0014411221885450081
1.36285e-05;0.0014294873008425608
1.36288e-05;0.0014251193486380688
1.36290e-05;0.001428019231993073
1.36293e-05;0.0014383282998808717
1.36295e-05;0.001456379128842949
1.36298e-05;0.0014823987612785322
1.36300e-05;0.0015176109843695745
1.36303e-05;0.0015598996649301747
1.36305e-05;0.00160736747392709
1.36308e-05;0.0016635563767447565
1.36310e-05;0.0017244777481843297
1.36313e-05;0.001793368086482263
1.36315e-05;0.0018667457998091837
1.36318e-05;0.0019476797688108521
1.36320e-05;0.0020333021368678364
1.36323e-05;0.002126819263383344
1.36325e-05;0.0022203363898982177
1.36328e-05;0.0023189810042754636
1.36330e-05;0.0024262597553155103
1.36333e-05;0.00253353850635483
1.36335e-05;0.0026408172573948773
1.36338e-05;0.002748096008434924
1.36340e-05;0.002855374759474244
1.36343e-05;0.0029659680047365404
1.36345e-05;0.0030770451972300006
1.36348e-05;0.0031881223897227084
1.36350e-05;0.0032991995822161686
1.36353e-05;0.003410276774709629
1.36355e-05;0.0035129639058725346
1.36358e-05;0.003601523078454416
1.36360e-05;0.003690082251036297
1.36363e-05;0.0037786414236175786
1.36365e-05;0.00386720059619946
1.36368e-05;0.003955759768781341
1.36370e-05;0.004044318941362622
1.36373e-05;0.0041328781139445036
1.36375e-05;0.004205619174606276
1.36378e-05;0.004251724240454955
1.36380e-05;0.004297829306303321
1.36383e-05;0.004343934372151999
1.36385e-05;0.0043900394380006775
1.36388e-05;0.004436144503849044
1.36390e-05;0.004482249569697722
1.36393e-05;0.0045283546355464
1.36395e-05;0.004559989405433763
1.36398e-05;0.004567257757246932
1.36400e-05;0.0045745261090601
1.36403e-05;0.00458179446087322
1.36405e-05;0.0045890628126863875
1.36408e-05;0.004596331164499556
1.36410e-05;0.004603599516312676
1.36413e-05;0.004610867868125844
1.36415e-05;0.0046181362199390116
1.36418e-05;0.004615102491050259
1.36420e-05;0.004594721169126628
1.36423e-05;0.004574339847202997
1.36425e-05;0.004553958525279504
1.36428e-05;0.004533577203355873
1.36430e-05;0.004513195881432242
1.36433e-05;0.004492814559508749
1.36435e-05;0.004472433237585118
1.36438e-05;0.004452051915661487
1.36440e-05;0.0044283435920117655
1.36443e-05;0.004399032956203324
1.36445e-05;0.004369722320394883
1.36448e-05;0.00434041168458664
1.36450e-05;0.004311101048778199
1.36453e-05;0.004281790412969757
1.36455e-05;0.004252479777161515
1.36458e-05;0.004223169141353073
1.36460e-05;0.004193858505544632
1.36463e-05;0.004167378038176381
1.36465e-05;0.00414566326928665
1.36468e-05;0.004123948500396773
1.36470e-05;0.004102233731506895
1.36473e-05;0.004080518962617165
1.36475e-05;0.004058804193727288
1.36478e-05;0.00403708942483741
1.36480e-05;0.004015374655947679
1.36483e-05;0.003993659887057802
1.36485e-05;0.003974618877209716
