Time(s);Current(A)
1.32500e-05;-0.015690701146549545
1.32503e-05;-0.01571117720467504
1.32505e-05;-0.015731653262800536
1.32508e-05;-0.015752129320925894
1.32510e-05;-0.015766854397093327
1.32513e-05;-0.01577705074947086
1.32515e-05;-0.015787247101848326
1.32518e-05;-0.01579744345422586
1.32520e-05;-0.015807639806603394
1.32523e-05;-0.01581783615898086
1.32525e-05;-0.015828032511358395
1.32528e-05;-0.01583822886373593
1.32530e-05;-0.01584348517488478
1.32533e-05;-0.015844851353461545
1.32535e-05;-0.01584621753203831
1.32538e-05;-0.015847583710615072
1.32540e-05;-0.01584894988919183
1.32543e-05;-0.015850316067768593
1.32545e-05;-0.015851682246345356
1.32548e-05;-0.01585304842492211
1.32550e-05;-0.015854414603498873
1.32553e-05;-0.015855780782075637
1.32555e-05;-0.01585714696065239
1.32558e-05;-0.015858513139229154
1.32560e-05;-0.015859879317805917
1.32563e-05;-0.01585821775988392
1.32565e-05;-0.015854171951339393
1.32568e-05;-0.015850126142794865
1.32570e-05;-0.015846080334250365
1.32573e-05;-0.015842034525705834
1.32575e-05;-0.015837988717161307
1.32578e-05;-0.015833942908616807
1.32580e-05;-0.01582989710007228
1.32583e-05;-0.015825851291527752
1.32585e-05;-0.015821805482983252
1.32588e-05;-0.015817759674438724
1.32590e-05;-0.015813713865894197
1.32593e-05;-0.015809668057349697
1.32595e-05;-0.01580615586211321
1.32598e-05;-0.015803063871165483
1.32600e-05;-0.015799971880217773
1.32603e-05;-0.015796879889270046
1.32605e-05;-0.015793787898322316
1.32608e-05;-0.01579069590737461
1.32610e-05;-0.01578760391642688
1.32613e-05;-0.015784511925479153
1.32615e-05;-0.015785446182007206
1.32618e-05;-0.01578955098625483
1.32620e-05;-0.015793655790502455
1.32623e-05;-0.01579776059475008
1.32625e-05;-0.015801865398997677
1.32628e-05;-0.0158059702032453
1.32630e-05;-0.015810075007492926
1.32633e-05;-0.015814179811740523
1.32635e-05;-0.01582310334776162
1.32638e-05;-0.01583582148884057
1.32640e-05;-0.01584853962991943
1.32643e-05;-0.01586125777099838
1.32645e-05;-0.01587397591207733
1.32648e-05;-0.01588669405315619
1.32650e-05;-0.01589941219423514
1.32653e-05;-0.01591213033531409
1.32655e-05;-0.015925156474240646
1.32658e-05;-0.015943055398451138
1.32660e-05;-0.01596095432266163
1.32663e-05;-0.015978853246872003
1.32665e-05;-0.015996752171082495
1.32668e-05;-0.016014651095292987
1.32670e-05;-0.016032550019503357
1.32673e-05;-0.01605044894371385
1.32675e-05;-0.01606834786792434
1.32678e-05;-0.016086179324056413
1.32680e-05;-0.016103957651124108
1.32683e-05;-0.0161217359781918
1.32685e-05;-0.01613951430525937
1.32688e-05;-0.016157117229103166
1.32690e-05;-0.016171945126254476
1.32693e-05;-0.016186773023405685
1.32695e-05;-0.016201600920557
1.32698e-05;-0.01621642881770831
1.32700e-05;-0.016229846078591556
1.32703e-05;-0.01624215250621624
1.32705e-05;-0.016254458933840924
1.32708e-05;-0.01626676536146561
1.32710e-05;-0.016279071789090212
1.32713e-05;-0.016291378216714895
1.32715e-05;-0.01630368464433958
1.32718e-05;-0.016315991071964183
1.32720e-05;-0.016331755152428174
1.32723e-05;-0.016348908753787708
1.32725e-05;-0.016366062355147124
1.32728e-05;-0.016383215956506658
1.32730e-05;-0.016400369557866192
1.32733e-05;-0.016417523159225608
1.32735e-05;-0.016434676760585142
1.32738e-05;-0.016451830361944676
1.32740e-05;-0.016477885993523955
1.32743e-05;-0.016505304643564294
1.32745e-05;-0.01653272329360463
1.32748e-05;-0.01656014194364478
1.32750e-05;-0.01658756059368512
1.32753e-05;-0.01661497924372546
1.32755e-05;-0.01664239789376561
1.32758e-05;-0.016670262287360786
1.32760e-05;-0.01670063175422471
1.32763e-05;-0.016731001221088428
1.32765e-05;-0.01676137068795235
1.32768e-05;-0.01679174015481627
1.32770e-05;-0.016822109621679987
1.32773e-05;-0.016852479088543912
1.32775e-05;-0.016882848555407833
1.32778e-05;-0.016912580923285767
1.32780e-05;-0.016941485450711533
1.32783e-05;-0.0169703899781373
1.32785e-05;-0.016999294505562867
1.32788e-05;-0.017028199032988633
1.32790e-05;-0.017052351132960726
1.32793e-05;-0.01707617229481367
1.32795e-05;-0.017099993456666452
1.32798e-05;-0.017123814618519393
1.32800e-05;-0.017145240521961612
1.32803e-05;-0.017163554049068726
1.32805e-05;-0.017178159930012163
1.32808e-05;-0.017187948130271406
1.32810e-05;-0.017191717582224427
1.32813e-05;-0.017187666329024832
1.32815e-05;-0.017183615075825238
1.32818e-05;-0.017172822500498553
1.32820e-05;-0.01715327031436703
1.32823e-05;-0.01713371812823551
1.32825e-05;-0.017106498450991377
1.32828e-05;-0.01706931570764071
1.32830e-05;-0.017032132964290046
1.32833e-05;-0.016985665039333405
1.32835e-05;-0.016927132036400536
1.32838e-05;-0.01686859903346767
1.32840e-05;-0.0168100660305352
1.32843e-05;-0.016751533027602336
1.32845e-05;-0.016672914527189615
1.32848e-05;-0.016592897361184918
1.32850e-05;-0.01651288019517968
1.32853e-05;-0.016432863029174436
1.32855e-05;-0.016347426469506758
1.32858e-05;-0.01625494800049259
1.32860e-05;-0.01616036823496357
1.32863e-05;-0.016063058064432957
1.32865e-05;-0.015964467188508493
1.32868e-05;-0.01586350418326153
1.32870e-05;-0.01576114247323028
1.32873e-05;-0.015657942399464407
1.32875e-05;-0.015554506648932619
1.32878e-05;-0.015451439691229293
1.32880e-05;-0.015349352920237692
1.32883e-05;-0.01524880280577363
1.32885e-05;-0.015150211869709959
1.32888e-05;-0.015053977840370797
1.32890e-05;-0.014960627458578823
1.32893e-05;-0.014870790708361569
1.32895e-05;-0.014785121094399051
1.32898e-05;-0.01470427459279402
1.32900e-05;-0.014628910417424206
1.32903e-05;-0.014559343710273032
1.32905e-05;-0.014494872021075371
1.32908e-05;-0.014434718885762794
1.32910e-05;-0.014377036956443087
1.32913e-05;-0.01432212968629289
1.32915e-05;-0.014270827782270196
1.32918e-05;-0.014222938054903052
1.32920e-05;-0.014179482077910206
1.32923e-05;-0.01414004163751369
1.32925e-05;-0.014105818947746243
1.32928e-05;-0.014071596257978566
1.32930e-05;-0.014041474138640878
1.32933e-05;-0.014016680262099061
1.32935e-05;-0.013991886385557076
1.32938e-05;-0.013967092509015091
1.32940e-05;-0.013942298632473272
1.32943e-05;-0.01392788107624136
1.32945e-05;-0.013914186081261926
1.32948e-05;-0.013900491086282584
1.32950e-05;-0.013886796091303149
1.32953e-05;-0.013875124987072631
1.32955e-05;-0.013868454416599863
1.32958e-05;-0.013864864323295142
1.32960e-05;-0.013861274229990419
1.32963e-05;-0.013857684136685698
1.32965e-05;-0.013854094043381001
1.32968e-05;-0.013850503950076278
1.32970e-05;-0.013849327701566091
1.32973e-05;-0.01385128798036522
1.32975e-05;-0.01385324825916436
1.32978e-05;-0.013855208537963501
1.32980e-05;-0.01385716881676263
1.32983e-05;-0.01385912909556177
1.32985e-05;-0.013861747480879783
1.32988e-05;-0.013865221003642217
1.32990e-05;-0.013868694526404674
1.32993e-05;-0.013871834709338416
1.32995e-05;-0.013874541753621947
1.32998e-05;-0.013877248797905495
1.33000e-05;-0.013879594285258593
1.33003e-05;-0.013881469968923857
1.33005e-05;-0.0138836820301441
1.33008e-05;-0.013886331177207594
1.33010e-05;-0.013890008493353883
1.33013e-05;-0.013895021802773038
1.33015e-05;-0.013900035112192193
1.33018e-05;-0.013906030484759926
1.33020e-05;-0.013913301940981665
1.33023e-05;-0.013920573397203404
1.33025e-05;-0.01392997114757053
1.33028e-05;-0.013942131784628274
1.33030e-05;-0.01395429242168602
1.33033e-05;-0.01396645305874368
1.33035e-05;-0.013978613695801426
1.33038e-05;-0.01399077433285917
1.33040e-05;-0.014002934969916832
1.33043e-05;-0.014020732061601909
1.33045e-05;-0.014038921651166525
1.33048e-05;-0.014057111240731142
1.33050e-05;-0.014075300830295635
1.33053e-05;-0.014093490419860253
1.33055e-05;-0.014111680009424869
1.33058e-05;-0.014131393642946658
1.33060e-05;-0.014153087604907588
1.33063e-05;-0.014174781566868515
1.33065e-05;-0.014196475528829298
1.33068e-05;-0.014218169490790225
1.33070e-05;-0.014239863452751154
1.33073e-05;-0.014261557414711936
1.33075e-05;-0.01428282823586971
1.33078e-05;-0.01430354923183233
1.33080e-05;-0.014324270227794809
1.33083e-05;-0.014344991223757429
1.33085e-05;-0.014365712219720049
1.33088e-05;-0.014386433215682528
1.33090e-05;-0.014407154211645148
1.33093e-05;-0.014426140598406283
1.33095e-05;-0.01444287305022257
1.33098e-05;-0.01445960550203897
1.33100e-05;-0.014474503437212358
1.33103e-05;-0.014487017618647381
1.33105e-05;-0.01449953180008249
1.33108e-05;-0.014508442196663057
1.33110e-05;-0.014512669868967463
1.33113e-05;-0.014516897541271898
1.33115e-05;-0.014521125213576331
1.33118e-05;-0.014525352885880737
1.33120e-05;-0.01452958055818517
1.33123e-05;-0.014533808230489605
1.33125e-05;-0.014532903360499436
1.33128e-05;-0.014525329313138319
1.33130e-05;-0.014517755265777203
1.33133e-05;-0.014510181218416088
1.33135e-05;-0.014502607171055022
1.33138e-05;-0.014495033123693907
1.33140e-05;-0.01448745907633279
1.33143e-05;-0.014475899358529852
1.33145e-05;-0.014459160697896288
1.33148e-05;-0.014442422037262724
1.33150e-05;-0.014425683376629273
1.33153e-05;-0.014408944715995709
1.33155e-05;-0.014392206055362145
1.33158e-05;-0.014373188289970912
1.33160e-05;-0.014351209077209987
1.33163e-05;-0.014329229864449062
1.33165e-05;-0.014307250651688285
1.33168e-05;-0.01428527143892736
1.33170e-05;-0.014263292226166435
1.33173e-05;-0.014240651869160736
1.33175e-05;-0.014217152427517182
1.33178e-05;-0.014193652985873625
1.33180e-05;-0.014170263644931009
1.33183e-05;-0.014147017367807319
1.33185e-05;-0.014124120226688805
1.33188e-05;-0.014101676749624585
1.33190e-05;-0.014079826034211682
1.33193e-05;-0.014058745547735261
1.33195e-05;-0.014038259645546197
1.33198e-05;-0.014019021846027017
1.33200e-05;-0.014000938983796033
1.33203e-05;-0.013984269673603361
1.33205e-05;-0.013969610132521305
1.33208e-05;-0.013957723093993549
1.33210e-05;-0.013949741453445184
1.33213e-05;-0.013944522321737022
1.33215e-05;-0.013942031068213062
1.33218e-05;-0.013943084394044953
1.33220e-05;-0.013946776086393784
1.33223e-05;-0.013953896047476742
1.33225e-05;-0.01396479277987001
1.33228e-05;-0.013980597013520306
1.33230e-05;-0.013996401247170708
1.33233e-05;-0.014018252053468771
1.33235e-05;-0.014047959719616409
1.33238e-05;-0.014077667385764249
1.33240e-05;-0.014107375051912088
1.33243e-05;-0.014137082718059725
1.33245e-05;-0.014166790384207564
1.33248e-05;-0.014210021630045309
1.33250e-05;-0.014254194598421777
1.33253e-05;-0.014298367566798543
1.33255e-05;-0.01434254053517531
1.33258e-05;-0.014386713503551777
1.33260e-05;-0.014434038944465443
1.33263e-05;-0.014485460678659405
1.33265e-05;-0.014536882412853017
1.33268e-05;-0.014589428915824546
1.33270e-05;-0.014643436932808214
1.33273e-05;-0.014697444949791515
1.33275e-05;-0.014751402473014194
1.33278e-05;-0.014805294385116893
1.33280e-05;-0.014859186297219228
1.33283e-05;-0.014911792373547443
1.33285e-05;-0.014962727646916597
1.33288e-05;-0.015013662920285404
1.33290e-05;-0.015061130325353122
1.33293e-05;-0.015104091614838418
1.33295e-05;-0.015147052904323421
1.33298e-05;-0.015190014193808717
1.33300e-05;-0.015232975483294013
1.33303e-05;-0.015267016248585646
1.33305e-05;-0.015300435827852923
1.33308e-05;-0.015333855407120425
1.33310e-05;-0.015367274986387926
1.33313e-05;-0.015400101398973676
1.33315e-05;-0.015432157056330654
1.33318e-05;-0.015464212713687631
1.33320e-05;-0.015496268371044392
1.33323e-05;-0.01552832402840137
1.33325e-05;-0.015560379685758347
1.33328e-05;-0.015592435343115107
1.33330e-05;-0.015624491000472085
1.33333e-05;-0.015657630721074574
1.33335e-05;-0.015692179063302274
1.33338e-05;-0.01572672740553021
1.33340e-05;-0.015761275747758145
1.33343e-05;-0.01579582408998585
1.33345e-05;-0.015830372432213784
1.33348e-05;-0.01586492077444172
1.33350e-05;-0.01589946911666942
1.33353e-05;-0.015935180610239505
1.33355e-05;-0.015972403491767012
1.33358e-05;-0.01600962637329427
1.33360e-05;-0.016046849254821777
1.33363e-05;-0.016084072136349284
1.33365e-05;-0.01612129501787654
1.33368e-05;-0.01615851789940405
1.33370e-05;-0.016195740780931556
1.33373e-05;-0.016232963662458813
1.33375e-05;-0.016266169685781668
1.33378e-05;-0.01629909599278671
1.33380e-05;-0.016332022299791527
1.33383e-05;-0.01636494860679657
1.33385e-05;-0.016397874913801607
1.33388e-05;-0.01643080122080665
1.33390e-05;-0.016463727527811466
1.33393e-05;-0.016496653834816508
1.33395e-05;-0.01652606865733093
1.33398e-05;-0.016550920689793518
1.33400e-05;-0.01657577272225627
1.33403e-05;-0.016596788578985357
1.33405e-05;-0.016612819744902998
1.33408e-05;-0.01662885091082075
1.33410e-05;-0.016639042891812676
1.33413e-05;-0.016641647490613004
1.33415e-05;-0.01664425208941335
1.33418e-05;-0.01664102074352921
1.33420e-05;-0.0166302062257928
1.33423e-05;-0.016619391708056316
1.33425e-05;-0.016599662402674367
1.33428e-05;-0.01656834930573948
1.33430e-05;-0.01653703620880438
1.33433e-05;-0.01650572311186928
1.33435e-05;-0.016474410014934396
1.33438e-05;-0.016443096917999295
1.33440e-05;-0.016389774324142868
1.33443e-05;-0.016334919085835634
1.33445e-05;-0.016280063847528028
1.33448e-05;-0.016225208609220422
1.33450e-05;-0.016170353370913187
1.33453e-05;-0.016109256224956393
1.33455e-05;-0.01604004840267328
1.33458e-05;-0.015970840580390642
1.33460e-05;-0.01589888017308418
1.33463e-05;-0.015823343082583985
1.33465e-05;-0.0157478059920843
1.33468e-05;-0.015670790068934858
1.33470e-05;-0.015591852564494312
1.33473e-05;-0.015512513067611795
1.33475e-05;-0.015432651225516484
1.33478e-05;-0.015352980962690204
1.33480e-05;-0.015273949680224148
1.33483e-05;-0.015195993474671989
1.33485e-05;-0.015119490940642548
1.33488e-05;-0.015044795539377332
1.33490e-05;-0.014972321639276238
1.33493e-05;-0.014902550535296457
1.33495e-05;-0.014835981821368648
1.33498e-05;-0.01477311602274596
1.33500e-05;-0.014714454596002855
1.33503e-05;-0.01466049790388681
1.33505e-05;-0.014611713826712943
1.33508e-05;-0.01456845098192178
1.33510e-05;-0.0145321655500688
1.33513e-05;-0.014500790689514077
1.33515e-05;-0.014474568217728724
1.33518e-05;-0.014455040711645408
1.33520e-05;-0.014440801886983446
1.33523e-05;-0.014433435125418214
1.33525e-05;-0.014432732325210414
1.33528e-05;-0.014440688613965318
1.33530e-05;-0.014448644902720277
1.33533e-05;-0.01446696352011943
1.33535e-05;-0.014498746850288844
1.33538e-05;-0.014530530180458474
1.33540e-05;-0.014562313510628104
1.33543e-05;-0.01459409684079752
1.33545e-05;-0.01462588017096715
1.33548e-05;-0.014681018453816535
1.33550e-05;-0.014737783072733096
1.33553e-05;-0.014794547691650041
1.33555e-05;-0.014851312310566986
1.33557e-05;-0.014908076929483547
1.33560e-05;-0.014970497843793723
1.33563e-05;-0.015040268495352758
1.33565e-05;-0.015110039146911794
1.33568e-05;-0.015181900834218592
1.33570e-05;-0.015256479593789509
1.33573e-05;-0.015331058353360426
1.33575e-05;-0.015405981928614004
1.33578e-05;-0.015481353554136778
1.33580e-05;-0.01555672517965955
1.33583e-05;-0.015630648822330628
1.33585e-05;-0.01570269096964915
1.33588e-05;-0.01577473311696767
1.33590e-05;-0.015844154449077618
1.33593e-05;-0.01591017031845666
1.33595e-05;-0.015973038293368786
1.33598e-05;-0.016031815923697523
1.33600e-05;-0.016086496673875808
1.33603e-05;-0.016135853976362705
1.33605e-05;-0.01617975309230335
1.33608e-05;-0.01621655989177473
1.33610e-05;-0.016245549744010993
1.33613e-05;-0.016264382328233067
1.33615e-05;-0.01628321491245527
1.33618e-05;-0.01629255898993838
1.33620e-05;-0.016289573790645884
1.33623e-05;-0.01628658859135337
1.33625e-05;-0.01627368069298137
1.33628e-05;-0.016247879332374336
1.33630e-05;-0.01622207797176713
1.33633e-05;-0.01618460058148591
1.33635e-05;-0.016131951467619247
1.33638e-05;-0.01607930235375223
1.33640e-05;-0.01602665323988521
1.33642e-05;-0.01597400412601855
1.33645e-05;-0.015895821308016117
1.33648e-05;-0.015815860435286495
1.33650e-05;-0.015735899562556877
1.33653e-05;-0.0156559386898278
1.33655e-05;-0.015569236832504935
1.33658e-05;-0.015473775802945561
1.33660e-05;-0.015375390455572967
1.33663e-05;-0.01527320527702487
1.33665e-05;-0.01516930378313934
1.33668e-05;-0.015062286324204352
1.33670e-05;-0.014953487231803874
1.33673e-05;-0.014843511870548371
1.33675e-05;-0.014732988599408525
1.33678e-05;-0.01462254622362639
1.33680e-05;-0.014512814559787634
1.33683e-05;-0.014404408358342894
1.33685e-05;-0.01429790892214671
1.33688e-05;-0.014193894607454897
1.33690e-05;-0.01409300281256836
1.33693e-05;-0.013995925107596622
1.33695e-05;-0.01390336707126522
1.33698e-05;-0.013816036224963501
1.33700e-05;-0.013734637296111338
1.33703e-05;-0.013659687524406015
1.33705e-05;-0.013591113445325168
1.33708e-05;-0.013528357553028033
1.33710e-05;-0.013471078038750662
1.33713e-05;-0.013419381711663639
1.33715e-05;-0.013373527479442008
1.33718e-05;-0.013333775464852388
1.33720e-05;-0.013300384939357434
1.33723e-05;-0.013274797539966677
1.33725e-05;-0.013254572007613753
1.33727e-05;-0.013239146082752565
1.33730e-05;-0.013229956722908803
1.33733e-05;-0.013228133016684913
1.33735e-05;-0.013235880171781721
1.33738e-05;-0.013243627326878475
1.33740e-05;-0.013251374481975282
1.33743e-05;-0.01325912163707209
1.33745e-05;-0.013285975051978705
1.33748e-05;-0.013314158942692377
1.33750e-05;-0.013342342833406047
1.33753e-05;-0.013370526724119527
1.33755e-05;-0.013404198143563648
1.33758e-05;-0.01344500000643927
1.33760e-05;-0.013485801869314614
1.33763e-05;-0.01352979077957271
1.33765e-05;-0.013577920909347122
1.33768e-05;-0.013626051039121208
1.33770e-05;-0.013675751740877309
1.33773e-05;-0.013727493229155221
1.33775e-05;-0.013779234717432783
1.33778e-05;-0.013831350858616146
1.33780e-05;-0.013883953820275578
1.33783e-05;-0.013936153169372191
1.33785e-05;-0.013987828068086018
1.33788e-05;-0.014038275320360488
1.33790e-05;-0.014087127380350324
1.33793e-05;-0.01413404623134842
1.33795e-05;-0.014178453088689948
1.33798e-05;-0.014219507713845414
1.33800e-05;-0.014256206479898137
1.33803e-05;-0.01429290524595086
1.33805e-05;-0.0143247837479736
1.33808e-05;-0.014350398844065824
1.33810e-05;-0.014376013940158049
1.33812e-05;-0.014396526871223506
1.33815e-05;-0.01441041009684333
1.33818e-05;-0.014424293322463155
1.33820e-05;-0.014432790591918548
1.33823e-05;-0.014434289400381956
1.33825e-05;-0.014435788208845375
1.33828e-05;-0.014430461556925171
1.33830e-05;-0.01441626596571393
1.33833e-05;-0.014402070374502592
1.33835e-05;-0.014387874783291253
1.33838e-05;-0.01437367919208001
1.33840e-05;-0.014352051135273344
1.33843e-05;-0.014320765402288759
1.33845e-05;-0.014289479669304385
1.33848e-05;-0.0142581939363198
1.33850e-05;-0.014226908203335215
1.33853e-05;-0.014191017466354571
1.33855e-05;-0.014149143030313852
1.33858e-05;-0.014107268594273133
1.33860e-05;-0.014063289959004847
1.33863e-05;-0.014016577146968572
1.33865e-05;-0.013968678204085273
1.33868e-05;-0.01391923801388957
1.33870e-05;-0.013869112310134183
1.33873e-05;-0.01381809585648061
1.33875e-05;-0.013766870609775777
1.33878e-05;-0.013715397146054565
1.33880e-05;-0.01366409746671017
1.33883e-05;-0.013613255586352856
1.33885e-05;-0.013563175686145236
1.33888e-05;-0.013514183285183268
1.33890e-05;-0.013466609771798142
1.33893e-05;-0.013421271154150139
1.33895e-05;-0.01337765824930347
1.33897e-05;-0.013338580163475349
1.33900e-05;-0.013305394579004719
1.33903e-05;-0.01327220899453409
1.33905e-05;-0.01323902341006346
1.33908e-05;-0.013205837825593054
1.33910e-05;-0.013172652241122424
1.33913e-05;-0.013139466656651794
1.33915e-05;-0.01310628107218139
1.33918e-05;-0.01307692423788856
1.33920e-05;-0.01305254244571577
1.33923e-05;-0.013028160653543145
1.33925e-05;-0.013003778861370356
1.33928e-05;-0.012979397069197566
1.33930e-05;-0.012955015277024941
1.33933e-05;-0.012930633484852152
1.33935e-05;-0.012906251692679362
1.33938e-05;-0.012883856877253153
1.33940e-05;-0.012864043920800783
1.33943e-05;-0.012844230964348414
1.33945e-05;-0.012824418007896179
1.33948e-05;-0.01280460505144381
1.33950e-05;-0.01278479209499144
1.33953e-05;-0.012764979138539204
1.33955e-05;-0.012745166182086834
1.33958e-05;-0.012728018238040675
1.33960e-05;-0.012711055873724803
1.33963e-05;-0.012694093509408817
1.33965e-05;-0.01267713114509283
1.33968e-05;-0.012660168780776958
1.33970e-05;-0.012643206416460972
1.33973e-05;-0.012626244052144985
1.33975e-05;-0.01261009223420115
1.33978e-05;-0.012594993632621483
