Time(s);Current(A)
2.50000e-07;4.94991777593785e-05
2.50250e-07;2.9907003356425225e-05
2.50500e-07;1.1893240384193338e-05
2.50750e-07;-4.88908473418865e-06
2.51000e-07;-2.0652099901672978e-05
2.51250e-07;-3.5375022618607446e-05
2.51500e-07;-4.896428205822204e-05
2.51750e-07;-6.132372646655394e-05
2.52000e-07;-7.235723277756861e-05
2.52250e-07;-8.200993149800707e-05
2.52500e-07;-9.0386420891198e-05
2.52750e-07;-9.772698304061609e-05
2.53000e-07;-0.00010418742325445111
2.53250e-07;-0.00010977763635697685
2.53500e-07;-0.00011446192995988015
2.53750e-07;-0.00011820299796768698
2.54000e-07;-0.00012096356162157261
2.54250e-07;-0.00012273217157328403
2.54500e-07;-0.0001235972940593429
2.54750e-07;-0.00012373235128651798
2.55000e-07;-0.00012325783712212606
2.55250e-07;-0.00012220285203260134
2.55500e-07;-0.00012036786790749593
2.55750e-07;-0.00011826245315651035
2.56000e-07;-0.00011536420988810215
2.56250e-07;-0.00011210856810172055
2.56500e-07;-0.00010824020517068884
2.56750e-07;-0.0001040956341767308
2.57000e-07;-9.961187705439775e-05
2.57250e-07;-9.497521849507825e-05
2.57500e-07;-9.003173922138019e-05
2.57750e-07;-8.494994848916037e-05
2.58000e-07;-7.986815775694163e-05
2.58250e-07;-7.462858970631232e-05
2.58500e-07;-6.931789734755142e-05
2.58750e-07;-6.40072049887894e-05
2.59000e-07;-5.8925868994113825e-05
2.59250e-07;-5.39479243669435e-05
2.59500e-07;-4.920992313243963e-05
2.59750e-07;-4.477403753909911e-05
2.60000e-07;-4.0645029682612625e-05
2.60250e-07;-3.684422074925131e-05
2.60500e-07;-3.314676644563186e-05
2.60750e-07;-2.9320566401860147e-05
2.61000e-07;-2.5210895925729588e-05
2.61250e-07;-2.0803010337563536e-05
2.61500e-07;-1.6142503199442064e-05
2.61750e-07;-1.1276659767804917e-05
2.62000e-07;-6.252761506866556e-06
2.62250e-07;-1.0920774800659976e-06
2.62500e-07;4.280834584549374e-06
2.62750e-07;1.0013921703149388e-05
2.63000e-07;1.618567217139899e-05
2.63250e-07;2.2773880821371116e-05
2.63500e-07;2.9725850157574077e-05
2.63750e-07;3.69878263763521e-05
2.64000e-07;4.450606028321875e-05
2.64250e-07;5.224310368902941e-05
2.64500e-07;6.022208699520466e-05
2.64750e-07;6.862728649423005e-05
2.65000e-07;7.718868026415185e-05
2.65250e-07;8.619890352950251e-05
2.65500e-07;9.541145427546903e-05
2.65750e-07;0.00010462400502143362
2.66000e-07;0.00011414261099932162
2.66250e-07;0.00012379918336452158
2.66500e-07;0.0001334557557297236
2.66750e-07;0.0001431123280949256
2.67000e-07;0.00015276890046012558
2.67250e-07;0.00016237730711121445
2.67500e-07;0.00017196400117948986
2.67750e-07;0.00018155069524776322
2.68000e-07;0.0001911373893160386
2.68250e-07;0.000200724083384314
2.68500e-07;0.00020974148586056966
2.68750e-07;0.0002185022578463563
2.69000e-07;0.00022726302983214298
2.69250e-07;0.0002352951307271459
2.69500e-07;0.0002429987545779758
2.69750e-07;0.0002507023784288057
2.70000e-07;0.00025733439036820186
2.70250e-07;0.00026348333125177873
2.70500e-07;0.0002696322721353543
2.70750e-07;0.0002747524674562876
2.71000e-07;0.0002794089154076591
2.71250e-07;0.00028406536335902956
2.71500e-07;0.00028768865908309027
2.71750e-07;0.0002908462209608327
2.72000e-07;0.0002940037828385744
2.72250e-07;0.00029605700379090185
2.72500e-07;0.0002976123998020012
2.72750e-07;0.0002991677958131002
2.73000e-07;0.00029978835703331876
2.73250e-07;0.00029998750484385735
2.73500e-07;0.00030018665265439594
2.73750e-07;0.00029948734907687046
2.74000e-07;0.00029838303333402027
2.74250e-07;0.0002972787175911698
2.74500e-07;0.00029498006007494076
2.74750e-07;0.00029214300620894874
2.75000e-07;0.00028930595234295613
2.75250e-07;0.0002864688984769635
2.75500e-07;0.00028363184461097156
2.75750e-07;0.00028079479074497894
2.76000e-07;0.00027795773687898633
2.76250e-07;0.0002741510266872211
2.76500e-07;0.0002699072059145818
2.76750e-07;0.0002656633851419424
2.77000e-07;0.000261419564369304
2.77250e-07;0.0002571757435966646
2.77500e-07;0.0002529319228240253
2.77750e-07;0.0002486881020513868
2.78000e-07;0.00024430978009111953
2.78250e-07;0.00023987082645064885
2.78500e-07;0.00023543187281017724
2.78750e-07;0.0002310693290087718
2.79000e-07;0.00022703406212749622
2.79250e-07;0.00022299879524621976
2.79500e-07;0.00021896352836494332
2.79750e-07;0.00021524548545638405
2.80000e-07;0.0002118489838141023
2.80250e-07;0.00020855050920390457
2.80500e-07;0.00020453271275635098
2.80750e-07;0.00019850500009711903
2.81000e-07;0.00018970282048001654
2.81250e-07;0.0001780868169636499
2.81500e-07;0.00016383501967250313
2.81750e-07;0.00014713290082210616
2.82000e-07;0.00012816593008081127
2.82250e-07;0.0001070057567959804
2.82500e-07;8.330709115277342e-05
2.82750e-07;5.642824999531027e-05
2.83000e-07;2.605709987254083e-05
2.83250e-07;-7.664196596371967e-06
2.83500e-07;-4.445733954927587e-05
2.83750e-07;-8.403936611095664e-05
2.84000e-07;-0.00012612733297328514
2.84250e-07;-0.0001705096268824076
2.84500e-07;-0.00021723578412303124
2.84750e-07;-0.00026654101010235685
2.85000e-07;-0.0003184540259203761
2.85250e-07;-0.00037337517573583486
2.85500e-07;-0.0004292906189625181
2.85750e-07;-0.0004873566382545571
2.86000e-07;-0.0005463921139696081
2.86250e-07;-0.0006073672175756072
2.86500e-07;-0.0006692166844498714
2.86750e-07;-0.0007310661513241226
2.87000e-07;-0.0007929156181983867
2.87250e-07;-0.0008553392420504191
2.87500e-07;-0.0009180216896561721
2.87750e-07;-0.0009807041372619386
2.88000e-07;-0.001043386584867705
2.88250e-07;-0.0011035944428474708
2.88500e-07;-0.0011626867825966082
2.88750e-07;-0.0012217791223457458
2.89000e-07;-0.0012768406812426456
2.89250e-07;-0.0013300852077406653
2.89500e-07;-0.0013833297342386737
2.89750e-07;-0.001430208041227223
2.90000e-07;-0.001474216525337459
2.90250e-07;-0.001518225009447686
2.90500e-07;-0.0015561116132395791
2.90750e-07;-0.0015912385396169948
2.91000e-07;-0.001626365465994403
2.91250e-07;-0.0016570085341732945
2.91500e-07;-0.0016856303275874502
2.91750e-07;-0.0017142521210015997
2.92000e-07;-0.0017374190118828463
2.92250e-07;-0.001758126891719207
2.92500e-07;-0.0017788347715555631
2.92750e-07;-0.0017953992364582786
2.93000e-07;-0.0018100958947367836
2.93250e-07;-0.0018247925530152855
2.93500e-07;-0.0018327185793092823
2.93750e-07;-0.001837592477956569
2.94000e-07;-0.0018424663766038565
2.94250e-07;-0.001847340275251144
2.94500e-07;-0.0018522141738984304
2.94750e-07;-0.0018570880725457181
2.95000e-07;-0.0018619619711930057
2.95250e-07;-0.001866835869840292
2.95500e-07;-0.001869881773316676
2.95750e-07;-0.0018650980486080836
2.96000e-07;-0.0018603143238994921
2.96250e-07;-0.0018555305991908998
2.96500e-07;-0.0018507468744823072
2.96750e-07;-0.001845963149773716
2.97000e-07;-0.0018411794250651234
2.97250e-07;-0.001836395700356531
2.97500e-07;-0.0018316119756479395
2.97750e-07;-0.0018246911132598002
2.98000e-07;-0.0018168068523275519
2.98250e-07;-0.001808922591395302
2.98500e-07;-0.0018010383304630521
2.98750e-07;-0.0017931540695308038
2.99000e-07;-0.001785269808598554
2.99250e-07;-0.001777385547666304
2.99500e-07;-0.0017717381337921184
2.99750e-07;-0.0017670990663711161
3.00000e-07;-0.001762459998950114
3.00250e-07;-0.0017578209315291127
3.00500e-07;-0.0017531818641081105
3.00750e-07;-0.0017485427966871083
3.01000e-07;-0.0017439037292661071
3.01250e-07;-0.001750196139332891
3.01500e-07;-0.0017614163411828264
3.01750e-07;-0.001772636543032764
3.02000e-07;-0.0017838567448827016
3.02250e-07;-0.001795076946732637
3.02500e-07;-0.0018062971485825747
3.02750e-07;-0.0018175173504325123
3.03000e-07;-0.0018287375522824476
3.03250e-07;-0.0018399577541323854
3.03500e-07;-0.0018511779559823229
3.03750e-07;-0.0018759881592056542
3.04000e-07;-0.0019069245880170558
3.04250e-07;-0.0019378610168284576
3.04500e-07;-0.0019687974456398527
3.04750e-07;-0.0019997338744512545
3.05000e-07;-0.0020306703032626564
3.05250e-07;-0.0020616067320740517
3.05500e-07;-0.0020925431608854535
3.05750e-07;-0.002123479589696849
3.06000e-07;-0.0021544160185082506
3.06250e-07;-0.002191409339030122
3.06500e-07;-0.002231133040805188
3.06750e-07;-0.002270856742580262
3.07000e-07;-0.002310580444355336
3.07250e-07;-0.0023503041461304013
3.07500e-07;-0.0023900278479054753
3.07750e-07;-0.0024297515496805493
3.08000e-07;-0.0024673892149252824
3.08250e-07;-0.0025040865174711024
3.08500e-07;-0.0025407838200169224
3.08750e-07;-0.0025774811225627347
3.09000e-07;-0.0026141784251085542
3.09250e-07;-0.0026508757276543665
3.09500e-07;-0.0026875730302001865
3.09750e-07;-0.0027102348908440337
3.10000e-07;-0.002726569726128731
3.10250e-07;-0.0027429045614134314
3.10500e-07;-0.002759239396698132
3.10750e-07;-0.002775574231982829
3.11000e-07;-0.0027919090672675296
3.11250e-07;-0.00280824390255223
3.11500e-07;-0.0028245787378369273
3.11750e-07;-0.002840913573121628
3.12000e-07;-0.0028572484084063285
3.12250e-07;-0.0028735832436910256
3.12500e-07;-0.002889918078975726
3.12750e-07;-0.002885190742247609
3.13000e-07;-0.0028709688062489628
3.13250e-07;-0.002856746870250314
3.13500e-07;-0.002842524934251668
3.13750e-07;-0.0028283029982530193
3.14000e-07;-0.0028140810622543705
3.14250e-07;-0.0027998591262557242
3.14500e-07;-0.0027856371902570754
3.14750e-07;-0.0027714152542584265
3.15000e-07;-0.0027571933182597807
3.15250e-07;-0.002742971382261132
3.15500e-07;-0.0027287494462624826
3.15750e-07;-0.0027034831033249137
3.16000e-07;-0.002673238061229332
3.16250e-07;-0.0026429930191337503
3.16500e-07;-0.002612747977038175
3.16750e-07;-0.0025825029349425934
3.17000e-07;-0.0025522578928470117
3.17250e-07;-0.0025220128507514364
3.17500e-07;-0.0024915900471391473
3.17750e-07;-0.00246040585935933
3.18000e-07;-0.002429221671579506
3.18250e-07;-0.002398037483799682
3.18500e-07;-0.002366853296019865
3.18750e-07;-0.002335669108240041
3.19000e-07;-0.002304484920460217
3.19250e-07;-0.0022733007326803997
3.19500e-07;-0.00225261305911809
3.19750e-07;-0.0022366571006026837
3.20000e-07;-0.0022207011420872806
3.20250e-07;-0.0022047451835718744
3.20500e-07;-0.0021887892250564683
3.20750e-07;-0.0021728332665410656
3.21000e-07;-0.0021568773080256594
3.21250e-07;-0.0021409213495102563
3.21500e-07;-0.00212496539099485
3.21750e-07;-0.002109009432479444
3.22000e-07;-0.0020930534739640413
3.22250e-07;-0.002077097515448635
3.22500e-07;-0.0020657024196350524
3.22750e-07;-0.002073842309322351
3.23000e-07;-0.002081982199009651
3.23250e-07;-0.0020901220886969506
3.23500e-07;-0.002098261978384249
3.23750e-07;-0.002106401868071549
3.24000e-07;-0.002114541757758849
3.24250e-07;-0.0021226816474461474
3.24500e-07;-0.0021308215371334473
3.24750e-07;-0.0021389614268207476
3.25000e-07;-0.0021471013165080457
3.25250e-07;-0.0021552412061953455
3.25500e-07;-0.002163381095882644
3.25750e-07;-0.0021802849905955563
3.26000e-07;-0.0022011396039557933
3.26250e-07;-0.0022219942173160256
3.26500e-07;-0.002242848830676262
3.26750e-07;-0.0022637034440364987
3.27000e-07;-0.002284558057396731
3.27250e-07;-0.002305412670756968
3.27500e-07;-0.0023262672841172045
3.27750e-07;-0.0023470693865503653
3.28000e-07;-0.0023676465753507286
3.28250e-07;-0.0023882237641510914
3.28500e-07;-0.00240880095295145
3.28750e-07;-0.0024293781417518132
3.29000e-07;-0.0024499553305521718
3.29250e-07;-0.0024705325193525346
3.29500e-07;-0.0024911097081528975
3.29750e-07;-0.0025116868969532564
3.30000e-07;-0.0025225726557262943
3.30250e-07;-0.0025290896226950695
3.30500e-07;-0.002535606589663843
3.30750e-07;-0.002542123556632618
3.31000e-07;-0.002548640523601393
3.31250e-07;-0.0025551574905701667
3.31500e-07;-0.0025616744575389415
3.31750e-07;-0.002568191424507717
3.32000e-07;-0.0025747083914764903
3.32250e-07;-0.002581225358445265
3.32500e-07;-0.0025877423254140404
3.32750e-07;-0.002594259292382814
3.33000e-07;-0.0025969987284044007
3.33250e-07;-0.0025835583280423885
3.33500e-07;-0.0025701179276803733
3.33750e-07;-0.002556677527318358
3.34000e-07;-0.0025432371269563455
3.34250e-07;-0.0025297967265943302
3.34500e-07;-0.002516356326232315
3.34750e-07;-0.002502915925870303
3.35000e-07;-0.0024894755255082876
3.35250e-07;-0.0024760351251462724
3.35500e-07;-0.0024625947247842598
3.35750e-07;-0.0024491543244222445
3.36000e-07;-0.0024357139240602293
3.36250e-07;-0.002416117051530402
3.36500e-07;-0.0023937449079544804
3.36750e-07;-0.0023713727643785635
3.37000e-07;-0.002349000620802642
3.37250e-07;-0.0023266284772267202
3.37500e-07;-0.0023042563336508034
3.37750e-07;-0.0022818841900748817
3.38000e-07;-0.00225951204649896
3.38250e-07;-0.002238697635478857
3.38500e-07;-0.002218585433441731
3.38750e-07;-0.0021984732314046054
3.39000e-07;-0.002178361029367484
3.39250e-07;-0.002158248827330358
3.39500e-07;-0.0021381366252932322
3.39750e-07;-0.0021180244232561108
3.40000e-07;-0.002097912221218985
3.40250e-07;-0.0020797427899140264
3.40500e-07;-0.0020624491386362098
3.40750e-07;-0.002045155487358389
3.41000e-07;-0.0020209897394916562
3.41250e-07;-0.0019937261248321484
3.41500e-07;-0.0019664625101726402
3.41750e-07;-0.0019328866793783626
3.42000e-07;-0.0018964653698426606
3.42250e-07;-0.0018600440603069584
3.42500e-07;-0.0018177440193766013
3.42750e-07;-0.001772793909935768
3.43000e-07;-0.0017211811241246197
3.43250e-07;-0.001666564875889525
3.43500e-07;-0.0016062707305034942
3.43750e-07;-0.0015434170505112357
3.44000e-07;-0.0014760846211093219
3.44250e-07;-0.001406733219929293
3.44500e-07;-0.0013328508714270093
3.44750e-07;-0.001256926020892378
3.45000e-07;-0.0011760806444565297
3.45250e-07;-0.001093017148179811
3.45500e-07;-0.0010063266994059048
3.45750e-07;-0.0009180012596864217
3.46000e-07;-0.0008270934409159683
3.46250e-07;-0.0007350215136081738
3.46500e-07;-0.0006429495863003794
3.46750e-07;-0.0005488915571723624
3.47000e-07;-0.00045393821483147577
3.47250e-07;-0.00035897371281683215
3.47500e-07;-0.0002639614119362264
3.47750e-07;-0.00016894911105560056
3.48000e-07;-7.530127404152973e-05
3.48250e-07;1.6402362871228044e-05
3.48500e-07;0.00010598539314841334
3.48750e-07;0.0001932283007351509
3.49000e-07;0.00027777517127334014
3.49250e-07;0.0003590782294238737
3.49500e-07;0.00043653201602455576
3.49750e-07;0.000509529145151335
3.50000e-07;0.0005774623693305263
3.50250e-07;0.0006398738672370424
3.50500e-07;0.0006968966765765784
3.50750e-07;0.0007491998214615137
3.51000e-07;0.000797201067909828
3.51250e-07;0.0008408188933714444
3.51500e-07;0.0008798123612686028
3.51750e-07;0.000913934970054951
3.52000e-07;0.0009429402464591015
3.52250e-07;0.0009666752440902294
3.52500e-07;0.000983874741243291
3.52750e-07;0.000998871130170393
3.53000e-07;0.0010082301846596013
3.53250e-07;0.0010150479897747355
3.53500e-07;0.0010162894449463119
3.53750e-07;0.0010150171418940653
3.54000e-07;0.0010081411261185654
3.54250e-07;0.0009987390172741949
3.54500e-07;0.0009843515664427216
3.54750e-07;0.0009677167773800559
3.55000e-07;0.0009471409054923368
3.55250e-07;0.0009247884361058086
3.55500e-07;0.000898901895211845
3.55750e-07;0.0008714222331175798
3.56000e-07;0.0008401029685366492
3.56250e-07;0.0008070528526955188
3.56500e-07;0.0007740027368543954
3.56750e-07;0.0007380963533763764
3.57000e-07;0.0007009023953497089
3.57250e-07;0.0006637084373230494
3.57500e-07;0.0006253142501884734
3.57750e-07;0.000586379012757373
3.58000e-07;0.0005474437753262807
3.58250e-07;0.0005087335713007338
3.58500e-07;0.00047098722534379085
3.58750e-07;0.00043324087938685597
3.59000e-07;0.0003954945334299131
3.59250e-07;0.0003596645764886442
3.59500e-07;0.00032590752458236925
3.59750e-07;0.00029408691417445845
3.60000e-07;0.0002644673262131955
3.60250e-07;0.000237149950297168
3.60500e-07;0.00021161950098989545
3.60750e-07;0.0001868751212747368
3.61000e-07;0.00016231520947483527
3.61250e-07;0.00013795086205069845
3.61500e-07;0.00011398079450894034
3.61750e-07;9.061029248486122e-05
3.62000e-07;6.804461250994623e-05
3.62250e-07;4.6386634884534674e-05
3.62500e-07;2.5353077748747286e-05
3.62750e-07;4.356557356046995e-06
3.63000e-07;-1.6940182600389267e-05
3.63250e-07;-3.849057778855216e-05
3.63500e-07;-6.0085457978002105e-05
3.63750e-07;-8.167160531871061e-05
3.64000e-07;-0.0001028776577711691
3.64250e-07;-0.00012391236756026082
3.64500e-07;-0.00014489937386694392
3.64750e-07;-0.00016586487595986914
3.65000e-07;-0.00018683037805278992
3.65250e-07;-0.00020798607665190583
3.65500e-07;-0.00022922751377827083
3.65750e-07;-0.0002504689509046313
3.66000e-07;-0.00027171038803099626
3.66250e-07;-0.000292805250155157
3.66500e-07;-0.0003132723054957606
3.66750e-07;-0.00033373936083636854
3.67000e-07;-0.00035420641617697654
3.67250e-07;-0.00037467347151758014
3.67500e-07;-0.0003944791727525706
3.67750e-07;-0.0004139867427119578
3.68000e-07;-0.00043349431267134084
3.68250e-07;-0.0004518016248646979
3.68500e-07;-0.00046956787384274767
3.68750e-07;-0.0004873341228208012
3.69000e-07;-0.0005038201721874548
3.69250e-07;-0.0005197291214198012
3.69500e-07;-0.000535638070652151
3.69750e-07;-0.0005496667181376718
3.70000e-07;-0.0005628477459387555
3.70250e-07;-0.000576028773739842
3.70500e-07;-0.0005896379768853654
3.70750e-07;-0.0006034401968437176
3.71000e-07;-0.0006172424168020726
3.71250e-07;-0.0006341831181691098
3.71500e-07;-0.0006525386129998634
3.71750e-07;-0.0006708941078306207
3.72000e-07;-0.0006911790597829703
3.72250e-07;-0.0007123337901308824
3.72500e-07;-0.0007355892557624408
3.72750e-07;-0.0007597917101319509
3.73000e-07;-0.0007870601599541594
3.73250e-07;-0.00081571072735536
3.73500e-07;-0.0008474199078757221
3.73750e-07;-0.0008805078780989999
3.74000e-07;-0.0009135958483222777
3.74250e-07;-0.0009495890610109797
3.74500e-07;-0.0009868919255712162
3.74750e-07;-0.0010241947901314529
3.75000e-07;-0.0010656933344067568
3.75250e-07;-0.0011090832457044655
3.75500e-07;-0.0011524731570021743
3.75750e-07;-0.001195863068299874
3.76000e-07;-0.0012392529795975827
3.76250e-07;-0.001282642890895282
3.76500e-07;-0.0013280776015890071
3.76750e-07;-0.0013744340857277243
3.77000e-07;-0.0014207905698664317
3.77250e-07;-0.0014671470540051491
3.77500e-07;-0.0015135035381438663
3.77750e-07;-0.0015598600222825737
3.78000e-07;-0.0016029106519980128
3.78250e-07;-0.0016444710383055504
3.78500e-07;-0.0016860314246130792
3.78750e-07;-0.0017275918109206168
3.79000e-07;-0.0017691521972281543
3.79250e-07;-0.001810712583535683
3.79500e-07;-0.0018522729698432206
3.79750e-07;-0.001883978789175783
3.80000e-07;-0.0019112422763327898
3.80250e-07;-0.0019385057634898027
3.80500e-07;-0.0019657692506468098
3.80750e-07;-0.0019930327378038224
3.81000e-07;-0.002020296224960835
3.81250e-07;-0.002047559712117842
3.81500e-07;-0.0020611515067342373
3.81750e-07;-0.0020685802502676356
3.82000e-07;-0.002076008993801032
3.82250e-07;-0.0020834377373344305
3.82500e-07;-0.002090866480867829
3.82750e-07;-0.0020982952244012255
3.83000e-07;-0.002105723967934624
3.83250e-07;-0.002113152711468022
3.83500e-07;-0.0021205814550014188
3.83750e-07;-0.00212451080745067
3.84000e-07;-0.0021134516459789766
3.84250e-07;-0.0021023924845072852
3.84500e-07;-0.0020913333230355917
3.84750e-07;-0.0020802741615639003
3.85000e-07;-0.0020692150000922067
3.85250e-07;-0.002058155838620513
3.85500e-07;-0.002047096677148822
3.85750e-07;-0.0020360375156771283
3.86000e-07;-0.0020249783542054347
3.86250e-07;-0.0020077911717331413
3.86500e-07;-0.0019878415436929467
3.86750e-07;-0.0019678919156527522
3.87000e-07;-0.0019479422876125618
3.87250e-07;-0.0019279926595723673
3.87500e-07;-0.0019080430315321728
3.87750e-07;-0.0018880934034919824
3.88000e-07;-0.001868260467437771
3.88250e-07;-0.0018489273438978902
3.88500e-07;-0.0018295942203580054
3.88750e-07;-0.0018102610968181204
3.89000e-07;-0.0017909279732782396
3.89250e-07;-0.0017715948497383548
3.89500e-07;-0.0017522617261984698
3.89750e-07;-0.0017329286026585892
3.90000e-07;-0.001718163654945808
3.90250e-07;-0.0017054579914727167
3.90500e-07;-0.0016927523279996282
3.90750e-07;-0.0016800466645265368
3.91000e-07;-0.0016673410010534454
3.91250e-07;-0.001654635337580357
3.91500e-07;-0.0016419296741072655
3.91750e-07;-0.0016292240106341742
3.92000e-07;-0.0016165183471610854
3.92250e-07;-0.001603812683687994
3.92500e-07;-0.0015911070202149055
3.92750e-07;-0.001580314081425128
3.93000e-07;-0.0015703833782287919
3.93250e-07;-0.0015604526750324582
3.93500e-07;-0.0015505219718361222
