Time(s);Current(A)
1.00000e-05;0.0057223206806150855
1.00003e-05;0.0057198002945763275
1.00005e-05;0.005717279908537587
1.00008e-05;0.005714759522498829
1.00010e-05;0.005712239136460071
1.00013e-05;0.00570971875042133
1.00015e-05;0.005707198364382573
1.00018e-05;0.005704677978343815
1.00020e-05;0.005702157592305074
1.00023e-05;0.005699637206266316
1.00025e-05;0.005697116820227559
1.00028e-05;0.005694596434188817
1.00030e-05;0.00569207604815006
1.00033e-05;0.005689555662111302
1.00035e-05;0.0056870352760725615
1.00038e-05;0.0056845148900338035
1.00040e-05;0.005681994503995046
1.00042e-05;0.005679474117956306
1.00045e-05;0.005676953731917548
1.00048e-05;0.00567443334587879
1.00050e-05;0.005671912959840049
1.00053e-05;0.005677853351524705
1.00055e-05;0.005684198888783021
1.00057e-05;0.005690544426041292
1.00060e-05;0.005696889963299607
1.00063e-05;0.005703235500557922
1.00065e-05;0.005709581037816194
1.00068e-05;0.0057159265750745085
1.00070e-05;0.005722272112332823
1.00073e-05;0.005728617649591138
1.00075e-05;0.00573496318684941
1.00078e-05;0.005741308724107725
1.00080e-05;0.0057476542613660395
1.00083e-05;0.005753999798624311
1.00085e-05;0.005760345335882626
1.00088e-05;0.005766690873140941
1.00090e-05;0.0057730364103992125
1.00093e-05;0.005783970386131016
1.00095e-05;0.005795124079907599
1.00098e-05;0.005806277773684106
1.00100e-05;0.005817431467460689
1.00103e-05;0.005828585161237271
1.00105e-05;0.005839738855013777
1.00108e-05;0.00585089254879036
1.00110e-05;0.005862046242566942
1.00113e-05;0.00587319993634345
1.00115e-05;0.005884353630120032
1.00118e-05;0.005895507323896615
1.00120e-05;0.005906661017673121
1.00123e-05;0.005917814711449703
1.00125e-05;0.005928968405226286
1.00127e-05;0.005940122099002793
1.00130e-05;0.005951275792779376
1.00133e-05;0.0059614266519389565
1.00135e-05;0.0059715294902167055
1.00138e-05;0.005981632328494522
1.00140e-05;0.005991735166772339
1.00142e-05;0.006001838005050087
1.00145e-05;0.0060119408433279035
1.00148e-05;0.006022043681605721
1.00150e-05;0.006032146519883469
1.00153e-05;0.006042249358161286
1.00155e-05;0.006052352196439102
1.00157e-05;0.0060624550347168505
1.00160e-05;0.006072557872994667
1.00163e-05;0.006086908814642279
1.00165e-05;0.0061063624668453624
1.00168e-05;0.006125816119048314
1.00170e-05;0.006145269771251397
1.00173e-05;0.00616472342345448
1.00175e-05;0.006184177075657431
1.00178e-05;0.006203630727860514
1.00180e-05;0.006223084380063597
1.00183e-05;0.0062425380322665485
1.00185e-05;0.006261991684469632
1.00188e-05;0.006281445336672715
1.00190e-05;0.0063008989888756655
1.00193e-05;0.006320352641078749
1.00195e-05;0.006344151238197793
1.00198e-05;0.006368157893637365
1.00200e-05;0.006392164549077099
1.00203e-05;0.006416171204516834
1.00205e-05;0.006440177859956406
1.00208e-05;0.00646418451539614
1.00210e-05;0.006488191170835875
1.00212e-05;0.0065121978262754465
1.00215e-05;0.006536204481715181
1.00218e-05;0.006560211137154915
1.00220e-05;0.006578596138218849
1.00223e-05;0.006596711945543496
1.00225e-05;0.006614827752868144
1.00227e-05;0.00663294356019267
1.00230e-05;0.006651059367517317
1.00233e-05;0.006669175174841965
1.00235e-05;0.00668729098216649
1.00238e-05;0.006705406789491138
1.00240e-05;0.006723522596815786
1.00242e-05;0.006741638404140311
1.00245e-05;0.006759958372810379
1.00248e-05;0.006778288117776245
1.00250e-05;0.00679661786274211
1.00253e-05;0.006814947607707852
1.00255e-05;0.006833277352673718
1.00258e-05;0.006851607097639583
1.00260e-05;0.006869936842605325
1.00263e-05;0.00688826658757119
1.00265e-05;0.006906596332537056
1.00268e-05;0.006924926077502797
1.00270e-05;0.006943255822468663
1.00273e-05;0.006961585567434529
1.00275e-05;0.00697991531240027
1.00278e-05;0.006998245057366136
1.00280e-05;0.007019127526784857
1.00283e-05;0.007043076261988931
1.00285e-05;0.007067024997193167
1.00288e-05;0.0070909737323974036
1.00290e-05;0.007114922467601478
1.00293e-05;0.007138871202805714
1.00295e-05;0.00716281993800995
1.00297e-05;0.007186768673214024
1.00300e-05;0.00721071740841826
1.00303e-05;0.0072346661436224965
1.00305e-05;0.007258614878826571
1.00308e-05;0.007282563614030807
1.00310e-05;0.007306512349235043
1.00312e-05;0.007330461084439117
1.00315e-05;0.007354409819643353
1.00318e-05;0.007372290585164546
1.00320e-05;0.007389880785072059
1.00323e-05;0.007407470984979691
1.00325e-05;0.007425061184887323
1.00327e-05;0.0074426513847948355
1.00330e-05;0.007460241584702468
1.00333e-05;0.0074778317846101
1.00335e-05;0.0074954219845177325
1.00338e-05;0.007513012184425245
1.00340e-05;0.007530602384332877
1.00343e-05;0.007537200194911154
1.00345e-05;0.007530594235192055
1.00348e-05;0.007523988275472911
1.00350e-05;0.007517382315753766
1.00353e-05;0.007510776356034667
1.00355e-05;0.007504170396315523
1.00358e-05;0.007497564436596379
1.00360e-05;0.007490958476877279
1.00363e-05;0.0074843525171581346
1.00365e-05;0.007477746557438991
1.00368e-05;0.007471140597719891
1.00370e-05;0.007437165659050644
1.00373e-05;0.0074018801528305525
1.00375e-05;0.0073665946466107005
1.00378e-05;0.00733130914039061
1.00380e-05;0.007296023634170519
1.00382e-05;0.0072607381279506675
1.00385e-05;0.007225452621730576
1.00388e-05;0.007190167115510486
1.00390e-05;0.007154881609290634
1.00393e-05;0.007119596103070542
1.00395e-05;0.0070787328138832975
1.00397e-05;0.007031169637813679
1.00400e-05;0.006983606461743738
1.00403e-05;0.006936043285673797
1.00405e-05;0.006888480109604179
1.00408e-05;0.006840916933534238
1.00410e-05;0.006793353757464297
1.00412e-05;0.006745790581394679
1.00415e-05;0.0066982274053247375
1.00418e-05;0.006650664229254797
1.00420e-05;0.006603101053184856
1.00423e-05;0.006568281749577939
1.00425e-05;0.006534072688163889
1.00428e-05;0.006499863626749839
1.00430e-05;0.006465654565336021
1.00433e-05;0.006431445503921972
1.00435e-05;0.006397236442507922
1.00438e-05;0.0063630273810941045
1.00440e-05;0.006328818319680054
1.00443e-05;0.0062946092582660046
1.00445e-05;0.006260400196852187
1.00448e-05;0.006255343038416985
1.00450e-05;0.006251681823111652
1.00453e-05;0.006248020607806343
1.00455e-05;0.00624435939250101
1.00458e-05;0.006240698177195677
1.00460e-05;0.006237036961890368
1.00463e-05;0.006233375746585035
1.00465e-05;0.006229714531279702
1.00467e-05;0.006226053315974393
1.00470e-05;0.00622239210066906
1.00473e-05;0.006245928806871101
1.00475e-05;0.006270767889515032
1.00478e-05;0.0062956069721591314
1.00480e-05;0.00632044605480323
1.00482e-05;0.006345285137447161
1.00485e-05;0.006370124220091261
1.00488e-05;0.00639496330273536
1.00490e-05;0.006419802385379291
1.00493e-05;0.00644464146802339
1.00495e-05;0.00646948055066749
1.00497e-05;0.006499554098662963
1.00500e-05;0.006535915149410652
1.00503e-05;0.006572276200158342
1.00505e-05;0.006608637250906032
1.00508e-05;0.006644998301653475
1.00510e-05;0.006681359352401165
1.00513e-05;0.0067177204031488545
1.00515e-05;0.0067540814538962985
1.00518e-05;0.006790442504643988
1.00520e-05;0.006826803555391677
1.00523e-05;0.006863164606139121
1.00525e-05;0.006887288675480817
1.00528e-05;0.00691082677518075
1.00530e-05;0.006934364874880522
1.00533e-05;0.006957902974580455
1.00535e-05;0.006981441074280387
1.00538e-05;0.00700497917398016
1.00540e-05;0.007028517273680092
1.00543e-05;0.007052055373380025
1.00545e-05;0.007075593473079797
1.00548e-05;0.007084652731359865
1.00550e-05;0.007076320384352679
1.00552e-05;0.007067988037345549
1.00555e-05;0.0070596556903383635
1.00558e-05;0.007051323343331177
1.00560e-05;0.007042990996324047
1.00563e-05;0.007034658649316861
1.00565e-05;0.007026326302309675
1.00567e-05;0.0070179939553025456
1.00570e-05;0.007009661608295359
1.00573e-05;0.006971621342886885
1.00575e-05;0.006932158509466926
1.00578e-05;0.006892695676046699
1.00580e-05;0.006853232842626473
1.00582e-05;0.006813770009206513
1.00585e-05;0.006774307175786287
1.00588e-05;0.006734844342366061
1.00590e-05;0.0066953815089458345
1.00593e-05;0.006655918675525875
1.00595e-05;0.00661005318491395
1.00598e-05;0.0065564969900909105
1.00600e-05;0.0065029407952682345
1.00603e-05;0.006449384600445195
1.00605e-05;0.006395828405622156
1.00608e-05;0.00634227221079948
1.00610e-05;0.00628871601597644
1.00613e-05;0.006235159821153401
1.00615e-05;0.006181603626330725
1.00618e-05;0.006128047431507686
1.00620e-05;0.006085340179804461
1.00623e-05;0.006043152431327884
1.00625e-05;0.0060009646828510215
1.00628e-05;0.005958776934374159
1.00630e-05;0.005916589185897581
1.00633e-05;0.005874401437420718
1.00635e-05;0.005832213688943855
1.00637e-05;0.0057900259404672786
1.00640e-05;0.005747838191990416
1.00643e-05;0.005705650443513553
1.00645e-05;0.005682947289994047
1.00648e-05;0.005661177159151123
1.00650e-05;0.005639407028308199
1.00652e-05;0.005617636897465422
1.00655e-05;0.005595866766622498
1.00658e-05;0.005574096635779574
1.00660e-05;0.005552326504936797
1.00663e-05;0.005530556374093873
1.00665e-05;0.005508786243250949
1.00667e-05;0.005487016112408172
1.00670e-05;0.005480157830289509
1.00673e-05;0.005474013604226459
1.00675e-05;0.005467869378163408
1.00678e-05;0.005461725152100399
1.00680e-05;0.005455580926037348
1.00683e-05;0.0054494366999742975
1.00685e-05;0.005443292473911288
1.00688e-05;0.005437148247848238
1.00690e-05;0.005431004021785187
1.00693e-05;0.005424859795722178
1.00695e-05;0.005418715569659127
1.00698e-05;0.005412571343596077
1.00700e-05;0.005406427117533068
1.00703e-05;0.005400282891470017
1.00705e-05;0.005394138665406966
1.00708e-05;0.005387994439343957
1.00710e-05;0.005388048231096569
1.00713e-05;0.005388398815838252
1.00715e-05;0.005388749400579931
1.00718e-05;0.005389099985321614
1.00720e-05;0.0053894505700632965
1.00722e-05;0.005389801154804977
1.00725e-05;0.005390151739546658
1.00728e-05;0.005390502324288341
1.00730e-05;0.005390852909030021
1.00733e-05;0.005391203493771704
1.00735e-05;0.005391554078513386
1.00737e-05;0.005391904663255066
1.00740e-05;0.0053922552479967484
1.00743e-05;0.005392605832738431
1.00745e-05;0.005392956417480111
1.00748e-05;0.005393307002221793
1.00750e-05;0.005396999861682552
1.00752e-05;0.005400852766456774
1.00755e-05;0.005404705671231023
1.00758e-05;0.005408558576005272
1.00760e-05;0.00541241148077952
1.00763e-05;0.005416264385553743
1.00765e-05;0.005420117290327991
1.00768e-05;0.00542397019510224
1.00770e-05;0.005427823099876462
1.00773e-05;0.005431676004650711
1.00775e-05;0.00543552890942496
1.00778e-05;0.005439381814199182
1.00780e-05;0.005443234718973431
1.00783e-05;0.005447087623747679
1.00785e-05;0.005450940528521902
1.00788e-05;0.00545479343329615
1.00790e-05;0.005458646338070399
1.00793e-05;0.005462499242844622
1.00795e-05;0.00546635214761887
1.00798e-05;0.005470205052393119
1.00800e-05;0.005475305515168037
1.00803e-05;0.005480465717440275
1.00805e-05;0.005485625919712514
1.00808e-05;0.005490786121984717
1.00810e-05;0.0054959463242569544
1.00813e-05;0.005501106526529192
1.00815e-05;0.005506266728801396
1.00818e-05;0.005511426931073634
1.00820e-05;0.0055165871333458716
1.00822e-05;0.005521747335618075
1.00825e-05;0.005526907537890313
1.00828e-05;0.005532067740162551
1.00830e-05;0.005537227942434754
1.00833e-05;0.005542388144706993
1.00835e-05;0.00554754834697923
1.00837e-05;0.005552708549251433
1.00840e-05;0.005557868751523672
1.00843e-05;0.00556302895379591
1.00845e-05;0.005568189156068148
1.00848e-05;0.005573349358340351
1.00850e-05;0.005583282662019763
1.00853e-05;0.005593444526358206
1.00855e-05;0.005603606390696579
1.00858e-05;0.005613768255035022
1.00860e-05;0.005623930119373464
1.00863e-05;0.0056340919837118385
1.00865e-05;0.005644253848050281
1.00868e-05;0.005654415712388724
1.00870e-05;0.005664577576727098
1.00873e-05;0.005674739441065541
1.00875e-05;0.005684901305403983
1.00878e-05;0.005695063169742357
1.00880e-05;0.005705225034080799
1.00883e-05;0.005715386898419242
1.00885e-05;0.005725548762757616
1.00888e-05;0.005735710627096059
1.00890e-05;0.005750245182448815
1.00893e-05;0.005764989124750435
1.00895e-05;0.005779733067052155
1.00898e-05;0.0057944770093538754
1.00900e-05;0.005809220951655496
1.00903e-05;0.0058239648939572165
1.00905e-05;0.005838708836258937
1.00907e-05;0.0058534527785605575
1.00910e-05;0.005868196720862278
1.00913e-05;0.005882940663163998
1.00915e-05;0.005897684605465619
1.00918e-05;0.005912428547767339
1.00920e-05;0.00592717249006906
1.00922e-05;0.00594191643237068
1.00925e-05;0.005956660374672401
1.00928e-05;0.005971404316974121
1.00930e-05;0.005975597438677578
1.00933e-05;0.005979285332792638
1.00935e-05;0.0059829732269077235
1.00938e-05;0.005986661121022808
1.00940e-05;0.005990349015137868
1.00943e-05;0.005994036909252954
1.00945e-05;0.005997724803368038
1.00948e-05;0.006001412697483098
1.00950e-05;0.006005100591598184
1.00953e-05;0.006008788485713268
1.00955e-05;0.006012476379828329
1.00958e-05;0.006016164273943414
1.00960e-05;0.0060198521680584986
1.00963e-05;0.00600445430005736
1.00965e-05;0.005988142507543844
1.00968e-05;0.005971830715030328
1.00970e-05;0.005955518922516923
1.00973e-05;0.0059392071300034075
1.00975e-05;0.005922895337489891
1.00978e-05;0.005906583544976486
1.00980e-05;0.00589027175246297
1.00983e-05;0.005873959959949454
1.00985e-05;0.0058576481674360486
1.00988e-05;0.005841336374922533
1.00990e-05;0.005825024582409017
1.00992e-05;0.005808712789895611
1.00995e-05;0.005783222424098406
1.00998e-05;0.005757292540975962
1.01000e-05;0.005731362657853694
1.01003e-05;0.0057054327747312495
1.01005e-05;0.005679502891608805
1.01007e-05;0.005653573008486536
1.01010e-05;0.005627643125364092
1.01013e-05;0.005601713242241648
1.01015e-05;0.005575783359119204
1.01018e-05;0.005549853475996936
1.01020e-05;0.005527177756284644
1.01023e-05;0.005508410852478343
1.01025e-05;0.00548964394867217
1.01028e-05;0.0054708770448658696
1.01030e-05;0.00545211014105957
1.01033e-05;0.005433343237253396
1.01035e-05;0.005414576333447096
1.01038e-05;0.005395809429640796
1.01040e-05;0.005377042525834623
1.01043e-05;0.005358275622028322
1.01045e-05;0.0053395087182220215
1.01048e-05;0.005344158016392665
1.01050e-05;0.0053499286028236975
1.01053e-05;0.00535569918925473
1.01055e-05;0.005361469775685724
1.01058e-05;0.005367240362116756
1.01060e-05;0.005373010948547789
1.01063e-05;0.005378781534978783
1.01065e-05;0.005384552121409815
1.01068e-05;0.005390322707840848
1.01070e-05;0.005396093294271842
1.01073e-05;0.005401863880702875
1.01075e-05;0.005407634467133908
1.01077e-05;0.00542364011081992
1.01080e-05;0.00545193983736576
1.01083e-05;0.005480239563911602
1.01085e-05;0.005508539290457252
1.01088e-05;0.005536839017003093
1.01090e-05;0.005565138743548934
1.01092e-05;0.005593438470094584
1.01095e-05;0.0056217381966404256
1.01098e-05;0.005650037923186267
1.01100e-05;0.005678337649732108
1.01103e-05;0.005706637376277758
1.01105e-05;0.005734937102823599
1.01108e-05;0.005763236829369441
1.01110e-05;0.005792279101109318
1.01113e-05;0.005821356929734767
1.01115e-05;0.005850434758360216
1.01118e-05;0.005879512586985467
1.01120e-05;0.005908590415610916
1.01123e-05;0.005937668244236365
1.01125e-05;0.005966746072861617
1.01128e-05;0.0059958239014870655
1.01130e-05;0.006024901730112515
1.01133e-05;0.006053979558737766
1.01135e-05;0.006083057387363215
1.01138e-05;0.006093608796860027
1.01140e-05;0.006100243863698416
1.01143e-05;0.0061068789305368494
1.01145e-05;0.006113513997375283
1.01148e-05;0.006120149064213673
1.01150e-05;0.006126784131052106
1.01153e-05;0.00613341919789054
1.01155e-05;0.00614005426472893
1.01158e-05;0.006146689331567363
1.01160e-05;0.006153324398405797
1.01162e-05;0.0061599594652441865
1.01165e-05;0.0061524806523238044
1.01168e-05;0.0061388572327913124
1.01170e-05;0.006125233813258913
1.01173e-05;0.006111610393726422
1.01175e-05;0.006097986974193931
1.01177e-05;0.006069817383433782
1.01180e-05;0.006041125895288707
1.01183e-05;0.006012434407143633
1.01185e-05;0.005983742918998558
1.01188e-05;0.005955051430853678
1.01190e-05;0.005926359942708603
1.01193e-05;0.005897668454563528
1.01195e-05;0.005868976966418648
1.01198e-05;0.005840285478273573
1.01200e-05;0.005811593990128499
1.01203e-05;0.005776206234756909
1.01205e-05;0.005740791520507126
1.01208e-05;0.005705376806257344
1.01210e-05;0.005669962092007801
1.01213e-05;0.005634547377758019
1.01215e-05;0.005599132663508236
1.01218e-05;0.005563717949258693
1.01220e-05;0.00552830323500891
1.01223e-05;0.005492888520759127
1.01225e-05;0.005457933966706299
1.01228e-05;0.005439807875777852
1.01230e-05;0.0054216817848494045
1.01233e-05;0.0054035556939210794
1.01235e-05;0.005385429602992632
1.01238e-05;0.005367303512064185
1.01240e-05;0.005349177421135861
1.01243e-05;0.005331051330207413
1.01245e-05;0.005312925239278966
1.01247e-05;0.005294799148350641
1.01250e-05;0.005276673057422194
1.01253e-05;0.005258546966493746
1.01255e-05;0.005240420875565422
1.01258e-05;0.005222294784636975
1.01260e-05;0.005204168693708528
1.01262e-05;0.0051860426027802034
1.01265e-05;0.00517965148607058
1.01268e-05;0.0051838091203423135
1.01270e-05;0.005187966754614046
1.01273e-05;0.005192124388885751
1.01275e-05;0.005196282023157485
1.01278e-05;0.005200439657429217
1.01280e-05;0.005204597291700922
1.01283e-05;0.005208754925972655
1.01285e-05;0.005212912560244388
1.01288e-05;0.005217070194516093
1.01290e-05;0.005221227828787826
1.01293e-05;0.005225385463059559
1.01295e-05;0.005229543097331263
1.01298e-05;0.005233700731602997
1.01300e-05;0.00523785836587473
1.01303e-05;0.005242188906141441
1.01305e-05;0.005252842770733754
1.01308e-05;0.005263496635326068
1.01310e-05;0.005274150499918309
1.01313e-05;0.005284804364510623
1.01315e-05;0.0052954582291029366
1.01318e-05;0.005306112093695178
1.01320e-05;0.005316765958287492
1.01323e-05;0.005327419822879806
1.01325e-05;0.005338073687472048
1.01328e-05;0.005348698038976878
1.01330e-05;0.005358243070911854
1.01332e-05;0.005367788102846766
1.01335e-05;0.005377333134781743
1.01338e-05;0.00538687816671672
1.01340e-05;0.005396423198651632
1.01343e-05;0.005405968230586608
1.01345e-05;0.005415513262521585
1.01347e-05;0.0054250582944564965
1.01350e-05;0.0054346033263914725
1.01353e-05;0.00544439185209867
1.01355e-05;0.0054630851592472295
1.01358e-05;0.005481778466395661
1.01360e-05;0.00550047177354422
1.01363e-05;0.005519165080692778
1.01365e-05;0.005537858387841211
1.01368e-05;0.00555655169498977
1.01370e-05;0.005575245002138328
1.01373e-05;0.00559393830928676
1.01375e-05;0.005612631616435319
1.01378e-05;0.005631324923583878
1.01380e-05;0.00565001823073231
1.01383e-05;0.005668711537880868
1.01385e-05;0.005687404845029428
1.01388e-05;0.005706284623033011
1.01390e-05;0.005731983804249115
1.01393e-05;0.005757682985465218
1.01395e-05;0.005783382166681148
1.01398e-05;0.005809081347897252
1.01400e-05;0.005834780529113355
1.01403e-05;0.005860479710329285
1.01405e-05;0.0058861788915453885
1.01408e-05;0.005911878072761492
1.01410e-05;0.005937577253977422
1.01413e-05;0.005963276435193525
1.01415e-05;0.00598897561640963
1.01417e-05;0.006014674797625559
1.01420e-05;0.006040373978841662
1.01423e-05;0.006065790037959636
1.01425e-05;0.0060808520728739025
1.01428e-05;0.0060959141077882705
1.01430e-05;0.0061109761427026385
1.01432e-05;0.006126038177616904
1.01435e-05;0.006141100212531272
1.01438e-05;0.006156162247445641
1.01440e-05;0.006171224282360009
1.01443e-05;0.006186286317274275
1.01445e-05;0.006201348352188643
1.01448e-05;0.006216410387103011
1.01450e-05;0.006231472422017277
1.01453e-05;0.006246534456931645
1.01455e-05;0.006261596491846013
1.01458e-05;0.006276658526760279
1.01460e-05;0.006291720561674647
1.01463e-05;0.0063067825965890155
1.01465e-05;0.006321844631503281
1.01468e-05;0.006336906666417649
1.01470e-05;0.006351806694686338
1.01473e-05;0.0063607819973887795
1.01475e-05;0.006369757300091281
1.01478e-05;0.0063787326027937834
1.01480e-05;0.006387707905496225
1.01483e-05;0.006396683208198728
1.01485e-05;0.006405658510901229
1.01488e-05;0.006414633813603671
1.01490e-05;0.006423609116306173
1.01493e-05;0.006432584419008675
1.01495e-05;0.0064415597217111166
1.01498e-05;0.006450535024413619
1.01500e-05;0.0064595103271161206
1.01502e-05;0.006468485629818562
1.01505e-05;0.006477460932521065
1.01508e-05;0.006486436235223567
