Time(s);Current(A)
1.75000e-06;-0.010503432122263607
1.75025e-06;-0.010482650952941736
1.75050e-06;-0.010456137242841947
1.75075e-06;-0.010429623532742134
1.75100e-06;-0.010403109822642346
1.75125e-06;-0.010373602661602616
1.75150e-06;-0.010341377817185455
1.75175e-06;-0.010309152972768267
1.75200e-06;-0.010276928128351107
1.75225e-06;-0.010235193278275769
1.75250e-06;-0.010190684040151827
1.75275e-06;-0.01014617480202792
1.75300e-06;-0.010100520075608405
1.75325e-06;-0.010053209343882343
1.75350e-06;-0.010005898612156283
1.75375e-06;-0.009958604921321968
1.75400e-06;-0.009911653936955993
1.75425e-06;-0.00986399588451993
1.75450e-06;-0.009815772666418702
1.75475e-06;-0.009768843493334388
1.75500e-06;-0.009723114377681061
1.75525e-06;-0.009677695797988599
1.75550e-06;-0.009633436723769626
1.75575e-06;-0.009590402147456442
1.75600e-06;-0.009548677074952295
1.75625e-06;-0.009508433394725464
1.75650e-06;-0.009469885636033744
1.75675e-06;-0.009434324034306866
1.75700e-06;-0.00940181661814207
1.75725e-06;-0.009371929463692214
1.75750e-06;-0.00934526484783379
1.75775e-06;-0.009321823489917168
1.75800e-06;-0.00930154198467773
1.75825e-06;-0.009284395874003707
1.75850e-06;-0.009270387730357875
1.75875e-06;-0.00926019569092579
1.75900e-06;-0.009253729651510618
1.75925e-06;-0.009250662848817625
1.75950e-06;-0.00925266146706275
1.75975e-06;-0.009255012186484777
1.76000e-06;-0.009265083508806669
1.76025e-06;-0.00927515483112857
1.76050e-06;-0.009285722377259541
1.76075e-06;-0.009307170736152932
1.76100e-06;-0.009328619095046344
1.76125e-06;-0.009350067453939737
1.76150e-06;-0.009371515812833147
1.76175e-06;-0.009398813642566154
1.76200e-06;-0.009431022295526087
1.76225e-06;-0.009463230948486046
1.76250e-06;-0.00949543960144598
1.76275e-06;-0.009527923049668931
1.76300e-06;-0.009566431996365848
1.76325e-06;-0.009604940943062764
1.76350e-06;-0.009643565496583616
1.76375e-06;-0.009684724987327888
1.76400e-06;-0.009725884478072197
1.76425e-06;-0.009767066790941286
1.76450e-06;-0.009808749529752064
1.76475e-06;-0.009850404910447664
1.76500e-06;-0.009891460403504438
1.76525e-06;-0.009932438452987887
1.76550e-06;-0.009971718379556157
1.76575e-06;-0.010010870391195264
1.76600e-06;-0.010047217582976069
1.76625e-06;-0.010083332945026776
1.76650e-06;-0.010114364923653849
1.76675e-06;-0.010145396902280893
1.76700e-06;-0.010175909744254153
1.76725e-06;-0.010195039358289443
1.76750e-06;-0.010214168972324734
1.76775e-06;-0.010233298586360039
1.76800e-06;-0.010252428200395328
1.76825e-06;-0.010271557814430635
1.76850e-06;-0.010290687428465924
1.76875e-06;-0.010309817042501213
1.76900e-06;-0.010320634044540679
1.76925e-06;-0.010324472335311526
1.76950e-06;-0.010328310626082379
1.76975e-06;-0.010332148916853226
1.77000e-06;-0.010335987207624079
1.77025e-06;-0.010339825498394926
1.77050e-06;-0.010343663789165776
1.77075e-06;-0.010346979114094441
1.77100e-06;-0.010338827247598832
1.77125e-06;-0.010330675381103216
1.77150e-06;-0.010322523514607607
1.77175e-06;-0.010314371648111997
1.77200e-06;-0.010306219781616381
1.77225e-06;-0.010298067915120772
1.77250e-06;-0.010289612576360097
1.77275e-06;-0.010274502931955618
1.77300e-06;-0.01025939328755114
1.77325e-06;-0.010244283643146647
1.77350e-06;-0.010229173998742166
1.77375e-06;-0.010214064354337674
1.77400e-06;-0.010198954709933195
1.77425e-06;-0.01018375913317329
1.77450e-06;-0.010166679298036559
1.77475e-06;-0.010149599462899827
1.77500e-06;-0.010132528456019021
1.77525e-06;-0.01011565102832184
1.77550e-06;-0.010098773600624644
1.77575e-06;-0.010081999877854212
1.77600e-06;-0.010067500116690024
1.77625e-06;-0.010053000355525823
1.77650e-06;-0.010038500594361635
1.77675e-06;-0.010024000833197435
1.77700e-06;-0.010009588601753643
1.77725e-06;-0.009997095654473235
1.77750e-06;-0.009984602707192819
1.77775e-06;-0.00997210975991241
1.77800e-06;-0.009959616812631994
1.77825e-06;-0.009947094454982795
1.77850e-06;-0.009933927209462297
1.77875e-06;-0.00992075996394181
1.77900e-06;-0.009907592718421322
1.77925e-06;-0.009894425472900824
1.77950e-06;-0.009880424099498993
1.77975e-06;-0.009865722448296674
1.78000e-06;-0.009851020797094368
1.78025e-06;-0.009836319145892062
1.78050e-06;-0.00982156630344287
1.78075e-06;-0.009805641215219605
1.78100e-06;-0.00978862494881859
1.78125e-06;-0.009771608682417592
1.78150e-06;-0.009754592416016594
1.78175e-06;-0.009737576149615582
1.78200e-06;-0.009720559883214581
1.78225e-06;-0.00970354361681357
1.78250e-06;-0.009685772289082278
1.78275e-06;-0.009667367062521524
1.78300e-06;-0.009648961835960786
1.78325e-06;-0.009630556609400048
1.78350e-06;-0.009612151382839294
1.78375e-06;-0.009593746156278556
1.78400e-06;-0.00957534525427168
1.78425e-06;-0.009557039177745039
1.78450e-06;-0.009538733101218397
1.78475e-06;-0.009520471951307102
1.78500e-06;-0.009503195917547985
1.78525e-06;-0.009485919883788852
1.78550e-06;-0.009468692980898887
1.78575e-06;-0.009452543381793767
1.78600e-06;-0.00943646534978493
1.78625e-06;-0.009421956585835852
1.78650e-06;-0.009407447821886765
1.78675e-06;-0.009393055680281913
1.78700e-06;-0.009381220743444548
1.78725e-06;-0.009369385806607193
1.78750e-06;-0.009357664729899016
1.78775e-06;-0.0093484402902383
1.78800e-06;-0.00933921585057759
1.78825e-06;-0.00933019119953286
1.78850e-06;-0.009325547359083664
1.78875e-06;-0.009320903518634467
1.78900e-06;-0.009316259678185265
1.78925e-06;-0.009311615837736069
1.78950e-06;-0.009306971997286868
1.78975e-06;-0.009302328156837672
1.79000e-06;-0.00929793530656775
1.79025e-06;-0.009299045975261022
1.79050e-06;-0.009300156643954291
1.79075e-06;-0.009301267312647563
1.79100e-06;-0.009302377981340832
1.79125e-06;-0.009303488650034103
1.79150e-06;-0.009304599318727373
1.79175e-06;-0.009305891203428788
1.79200e-06;-0.009311156652912982
1.79225e-06;-0.00931642210239717
1.79250e-06;-0.009321687551881364
1.79275e-06;-0.009326953001365552
1.79300e-06;-0.009332218450849743
1.79325e-06;-0.009337483900333936
1.79350e-06;-0.009342749349818125
1.79375e-06;-0.009348890667329903
1.79400e-06;-0.009355767304868177
1.79425e-06;-0.009362643942406452
1.79450e-06;-0.009369520579944732
1.79475e-06;-0.009376397217483007
1.79500e-06;-0.009383273855021287
1.79525e-06;-0.00939015049255956
1.79550e-06;-0.009396959164906737
1.79575e-06;-0.009402277548992121
1.79600e-06;-0.009407595933077504
1.79625e-06;-0.009412914317162891
1.79650e-06;-0.009418232701248273
1.79675e-06;-0.00942355108533366
1.79700e-06;-0.009428869469419043
1.79725e-06;-0.00943408345222087
1.79750e-06;-0.00943700820424341
1.79775e-06;-0.00943993295626595
1.79800e-06;-0.009442857708288491
1.79825e-06;-0.009445782460311029
1.79850e-06;-0.009448707212333568
1.79875e-06;-0.009451631964356109
1.79900e-06;-0.009454432337007209
1.79925e-06;-0.00945450541478523
1.79950e-06;-0.009454578492563252
1.79975e-06;-0.009454651570341274
1.80000e-06;-0.009454724648119295
1.80025e-06;-0.009454797725897317
1.80050e-06;-0.009454870803675339
1.80075e-06;-0.00945494388145336
1.80100e-06;-0.009455016959231382
1.80125e-06;-0.009455090037009404
1.80150e-06;-0.009455163114787425
1.80175e-06;-0.009455236192565447
1.80200e-06;-0.009455309270343468
1.80225e-06;-0.00945538234812149
1.80250e-06;-0.009455455425899512
1.80275e-06;-0.009455528503677533
1.80300e-06;-0.009455601581455555
1.80325e-06;-0.009455674659233575
1.80350e-06;-0.009455747737011596
1.80375e-06;-0.009455820814789618
1.80400e-06;-0.00945589389256764
1.80425e-06;-0.009455966970345661
1.80450e-06;-0.009456040048123683
1.80475e-06;-0.009456113125901704
1.80500e-06;-0.009456186203679726
1.80525e-06;-0.009456259281457748
1.80550e-06;-0.00945633235923577
1.80575e-06;-0.00945640543701379
1.80600e-06;-0.009456478514791812
1.80625e-06;-0.009456551592569834
1.80650e-06;-0.009456572677065622
1.80675e-06;-0.009455453692992222
1.80700e-06;-0.009454356806639232
1.80725e-06;-0.009453744462046422
1.80750e-06;-0.009453251725427419
1.80775e-06;-0.009455381660155566
1.80800e-06;-0.009457511594883712
1.80825e-06;-0.009459782984811085
1.80850e-06;-0.009465156095184904
1.80875e-06;-0.00947052920555872
1.80900e-06;-0.009476151211089997
1.80925e-06;-0.009487230797559205
1.80950e-06;-0.009498310384028425
1.80975e-06;-0.009509389970497634
1.81000e-06;-0.009520469556966844
1.81025e-06;-0.009531549143436062
1.81050e-06;-0.009542628729905273
1.81075e-06;-0.00955780982447574
1.81100e-06;-0.009576434270042504
1.81125e-06;-0.00959505871560927
1.81150e-06;-0.009613683161176051
1.81175e-06;-0.009632307606742817
1.81200e-06;-0.009650932052309599
1.81225e-06;-0.009669770691851692
1.81250e-06;-0.009693306011588717
1.81275e-06;-0.009716841331325762
1.81300e-06;-0.009740376651062789
1.81325e-06;-0.009763911970799833
1.81350e-06;-0.00978744729053686
1.81375e-06;-0.009810982610273905
1.81400e-06;-0.00983451956644926
1.81425e-06;-0.009858092405181434
1.81450e-06;-0.009881665243913628
1.81475e-06;-0.009905238082645804
1.81500e-06;-0.009928810921377998
1.81525e-06;-0.009952383760110171
1.81550e-06;-0.009975956598842347
1.81575e-06;-0.00999911852907067
1.81600e-06;-0.0100132703747302
1.81625e-06;-0.010027422220389739
1.81650e-06;-0.010041574066049268
1.81675e-06;-0.010055725911708797
1.81700e-06;-0.010069877757368336
1.81725e-06;-0.010084029603027865
1.81750e-06;-0.010098181448687406
1.81775e-06;-0.010112333294346933
1.81800e-06;-0.010126485140006474
1.81825e-06;-0.010140636985666003
1.81850e-06;-0.01015478883132553
1.81875e-06;-0.010168940676985072
1.81900e-06;-0.0101830925226446
1.81925e-06;-0.010196838647657904
1.81950e-06;-0.010201688443442174
1.81975e-06;-0.010206538239226442
1.82000e-06;-0.010211388035010715
1.82025e-06;-0.010216237830794984
1.82050e-06;-0.010221087626579257
1.82075e-06;-0.010225937422363527
1.82100e-06;-0.010230787218147797
1.82125e-06;-0.01023563701393207
1.82150e-06;-0.01024048680971634
1.82175e-06;-0.010245336605500612
1.82200e-06;-0.01025018640128488
1.82225e-06;-0.010255036197069153
1.82250e-06;-0.010259885992853423
1.82275e-06;-0.010264564723248907
1.82300e-06;-0.01026549246381362
1.82325e-06;-0.010266420204378334
1.82350e-06;-0.010267347944943049
1.82375e-06;-0.01026827568550776
1.82400e-06;-0.010269203426072473
1.82425e-06;-0.010270131166637188
1.82450e-06;-0.010271058907201902
1.82475e-06;-0.010271986647766615
1.82500e-06;-0.010272914388331328
1.82525e-06;-0.010273842128896041
1.82550e-06;-0.010274769869460755
1.82575e-06;-0.010275697610025468
1.82600e-06;-0.010276529113642876
1.82625e-06;-0.010275250407747929
1.82650e-06;-0.01027397170185298
1.82675e-06;-0.010272692995958033
1.82700e-06;-0.010271414290063086
1.82725e-06;-0.010270135584168139
1.82750e-06;-0.010268856878273192
1.82775e-06;-0.010267578172378243
1.82800e-06;-0.010266299466483296
1.82825e-06;-0.010265020760588349
1.82850e-06;-0.0102637420546934
1.82875e-06;-0.010262463348798453
1.82900e-06;-0.010261184642903506
1.82925e-06;-0.010259769013633404
1.82950e-06;-0.010255351034260021
1.82975e-06;-0.010250933054886637
1.83000e-06;-0.010246515075513255
1.83025e-06;-0.010242097096139869
1.83050e-06;-0.010237679116766488
1.83075e-06;-0.010233261137393103
1.83100e-06;-0.01022884315801972
1.83125e-06;-0.01022442517864634
1.83150e-06;-0.010220007199272954
1.83175e-06;-0.010215589219899571
1.83200e-06;-0.010211171240526186
1.83225e-06;-0.010206753261152805
1.83250e-06;-0.010202263639169979
1.83275e-06;-0.010196203093335762
1.83300e-06;-0.01019014254750155
1.83325e-06;-0.010184082001667335
1.83350e-06;-0.010178021455833124
1.83375e-06;-0.010171960909998912
1.83400e-06;-0.010165900364164695
1.83425e-06;-0.010159839818330485
1.83450e-06;-0.010153779272496269
1.83475e-06;-0.010147718726662057
1.83500e-06;-0.01014165818082784
1.83525e-06;-0.01013559763499363
1.83550e-06;-0.010129537089159419
1.83575e-06;-0.010123545734798622
1.83600e-06;-0.010119071557669883
1.83625e-06;-0.01011459738054114
1.83650e-06;-0.010110123203412402
1.83675e-06;-0.010105649026283662
1.83700e-06;-0.01010117484915492
1.83725e-06;-0.010096700672026181
1.83750e-06;-0.010092226494897438
1.83775e-06;-0.0100877523177687
1.83800e-06;-0.01008353868702628
1.83825e-06;-0.010085038116371412
1.83850e-06;-0.010086537545716543
1.83875e-06;-0.010088036975061674
1.83900e-06;-0.010089536404406805
1.83925e-06;-0.010091035833751937
1.83950e-06;-0.010092535263097068
1.83975e-06;-0.010094034692442199
1.84000e-06;-0.010095534121787332
1.84025e-06;-0.01009733690733872
1.84050e-06;-0.010105791453671086
1.84075e-06;-0.010114246000003446
1.84100e-06;-0.010122700546335805
1.84125e-06;-0.010131155092668171
1.84150e-06;-0.01013960963900053
1.84175e-06;-0.010148064185332897
1.84200e-06;-0.010156518731665256
1.84225e-06;-0.010164973277997615
1.84250e-06;-0.01017359166159547
1.84275e-06;-0.010185802542312111
1.84300e-06;-0.010198013423028764
1.84325e-06;-0.010210224303745406
1.84350e-06;-0.010222435184462047
1.84375e-06;-0.0102346460651787
1.84400e-06;-0.01024685694589534
1.84425e-06;-0.010259067826611993
1.84450e-06;-0.010271278707328635
1.84475e-06;-0.010283474433098228
1.84500e-06;-0.010295337852884324
1.84525e-06;-0.01030720127267042
1.84550e-06;-0.010319064692456525
1.84575e-06;-0.010330842503886327
1.84600e-06;-0.010340743161346429
1.84625e-06;-0.010350643818806522
1.84650e-06;-0.010360544476266616
1.84675e-06;-0.010370333639759484
1.84700e-06;-0.010377678049582902
1.84725e-06;-0.01038477283099087
1.84750e-06;-0.010386393953152419
1.84775e-06;-0.010388015075313966
1.84800e-06;-0.010389263149500122
1.84825e-06;-0.010382331315577259
1.84850e-06;-0.01037539948165439
1.84875e-06;-0.010368110279388646
1.84900e-06;-0.01035298497989516
1.84925e-06;-0.01033785968040169
1.84950e-06;-0.010322184849055222
1.84975e-06;-0.010294460307331471
1.85000e-06;-0.010266735765607743
1.85025e-06;-0.01023901122388399
1.85050e-06;-0.010211286682160262
1.85075e-06;-0.010182978622506122
1.85100e-06;-0.010141875631998008
1.85125e-06;-0.010100772641489928
1.85150e-06;-0.010059669650981814
1.85175e-06;-0.010018566660473734
1.85200e-06;-0.009977086018298461
1.85225e-06;-0.009927324521814138
1.85250e-06;-0.009877563025329859
1.85275e-06;-0.009827653973754525
1.85300e-06;-0.009774509448017955
1.85325e-06;-0.009721281832415222
1.85350e-06;-0.009666232286352276
1.85375e-06;-0.009611140494647305
1.85400e-06;-0.00955511229914592
1.85425e-06;-0.009498867231067024
1.85450e-06;-0.009442728499964722
1.85475e-06;-0.009387020124853455
1.85500e-06;-0.009332062190441085
1.85525e-06;-0.009278124365197964
1.85550e-06;-0.00922540753636673
1.85575e-06;-0.009174151065673156
1.85600e-06;-0.009124677559271483
1.85625e-06;-0.009077338207013914
1.85650e-06;-0.009032485939535383
1.85675e-06;-0.008990472471802693
1.85700e-06;-0.008951630450650347
1.85725e-06;-0.00891601018370602
1.85750e-06;-0.008883214527256864
1.85775e-06;-0.008852894163727823
1.85800e-06;-0.008825051907778927
1.85825e-06;-0.008799897162723775
1.85850e-06;-0.008778771507102484
1.85875e-06;-0.008757907693220157
1.85900e-06;-0.008742785342914838
1.85925e-06;-0.00872794852305066
1.85950e-06;-0.008719372594342734
1.85975e-06;-0.008710796665634816
1.86000e-06;-0.008702627047929424
1.86025e-06;-0.008703366704318182
1.86050e-06;-0.008704106360706941
1.86075e-06;-0.008704846017095702
1.86100e-06;-0.008705585673484463
1.86125e-06;-0.008706752538928306
1.86150e-06;-0.008717286914834298
1.86175e-06;-0.008727821290740297
1.86200e-06;-0.008738355666646287
1.86225e-06;-0.008748890042552278
1.86250e-06;-0.008759732302531001
1.86275e-06;-0.008777325606847203
1.86300e-06;-0.008794918911163421
1.86325e-06;-0.008812512215479625
1.86350e-06;-0.008830105519795827
1.86375e-06;-0.008847698824112045
1.86400e-06;-0.008865408046678727
1.86425e-06;-0.008885659035182042
1.86450e-06;-0.008905910023685338
1.86475e-06;-0.008926161012188636
1.86500e-06;-0.008946412000691949
1.86525e-06;-0.008966662989195247
1.86550e-06;-0.008986841848680883
1.86575e-06;-0.009005439118732523
1.86600e-06;-0.009024036388784176
1.86625e-06;-0.009042523833706774
1.86650e-06;-0.00905860311795751
1.86675e-06;-0.009074575671030888
1.86700e-06;-0.009088207905216823
1.86725e-06;-0.00910187246679712
1.86750e-06;-0.009116245878532018
1.86775e-06;-0.009130619290266918
1.86800e-06;-0.00914511503834025
1.86825e-06;-0.009162293283229032
1.86850e-06;-0.009179471528117829
1.86875e-06;-0.009196834657059436
1.86900e-06;-0.009218251780826484
1.86925e-06;-0.009239668904593549
1.86950e-06;-0.009261086028360595
1.86975e-06;-0.00928250315212766
1.87000e-06;-0.009303920275894708
1.87025e-06;-0.009325337399661774
1.87050e-06;-0.009350869973760754
1.87075e-06;-0.009379857603816254
1.87100e-06;-0.009408845233871777
1.87125e-06;-0.009437832863927275
1.87150e-06;-0.0094668204939828
1.87175e-06;-0.009495808124038298
1.87200e-06;-0.009525031914107146
1.87225e-06;-0.009559434038690896
1.87250e-06;-0.009593836163274617
1.87275e-06;-0.009628238287858366
1.87300e-06;-0.009662640412442088
1.87325e-06;-0.009697042537025809
1.87350e-06;-0.00973144466160956
1.87375e-06;-0.009765837721949753
1.87400e-06;-0.009800032028553281
1.87425e-06;-0.00983422633515678
1.87450e-06;-0.009868420641760309
1.87475e-06;-0.00990261494836381
1.87500e-06;-0.009936809254967309
1.87525e-06;-0.009971003561570838
1.87550e-06;-0.010005008391440482
1.87575e-06;-0.010034858521720365
1.87600e-06;-0.010064708652000225
1.87625e-06;-0.010094387186439773
1.87650e-06;-0.01012030309972362
1.87675e-06;-0.010145969614776346
1.87700e-06;-0.010166167517892908
1.87725e-06;-0.01018636542100945
1.87750e-06;-0.01020614662232013
1.87775e-06;-0.01021679070802542
1.87800e-06;-0.0102274347937307
1.87825e-06;-0.010237633404556589
1.87850e-06;-0.01023806398602692
1.87875e-06;-0.010238494567497251
1.87900e-06;-0.01023830795096931
1.87925e-06;-0.010224587893064591
1.87950e-06;-0.010210867835159858
1.87975e-06;-0.010197147777255139
1.88000e-06;-0.010183427719350406
1.88025e-06;-0.010168988242533874
1.88050e-06;-0.010138773903039168
1.88075e-06;-0.010108559563544438
1.88100e-06;-0.010078345224049733
1.88125e-06;-0.010048130884555001
1.88150e-06;-0.010017363721115781
1.88175e-06;-0.009974474660870166
1.88200e-06;-0.009931585600624513
1.88225e-06;-0.009888696540378899
1.88250e-06;-0.009845807480133245
1.88275e-06;-0.00979875498093629
1.88300e-06;-0.009748207137758171
1.88325e-06;-0.00969765929458001
1.88350e-06;-0.009647111451401893
1.88375e-06;-0.009596449558530425
1.88400e-06;-0.009543271070508685
1.88425e-06;-0.009489743499768518
1.88450e-06;-0.009436169566767579
1.88475e-06;-0.009382852720181904
1.88500e-06;-0.009330092236568333
1.88525e-06;-0.00927817289457469
1.88550e-06;-0.009227355670581878
1.88575e-06;-0.009177928227315203
1.88600e-06;-0.009130448862458791
1.88625e-06;-0.009090003013159325
1.88650e-06;-0.009049557163859894
1.88675e-06;-0.00900911131456043
1.88700e-06;-0.008968665465260999
1.88725e-06;-0.008928565924612436
1.88750e-06;-0.008896059972790605
1.88775e-06;-0.0088635540209688
1.88800e-06;-0.00883116387907538
1.88825e-06;-0.008801313127913804
1.88850e-06;-0.008771462376752203
1.88875e-06;-0.00874181391722286
1.88900e-06;-0.00871660115248287
1.88925e-06;-0.008691388387742858
1.88950e-06;-0.008666175623002868
1.88975e-06;-0.008640962858262857
1.89000e-06;-0.008615750093522867
1.89025e-06;-0.00859066904852842
1.89050e-06;-0.008568476252457031
1.89075e-06;-0.00854628345638566
1.89100e-06;-0.00852409066031427
1.89125e-06;-0.0085018978642429
1.89150e-06;-0.00847970506817153
1.89175e-06;-0.008457591522068911
1.89200e-06;-0.00843721570811872
1.89225e-06;-0.008416839894168512
1.89250e-06;-0.008396464080218323
1.89275e-06;-0.008376088266268115
1.89300e-06;-0.008355712452317924
1.89325e-06;-0.008336413638464983
1.89350e-06;-0.008318019001628046
1.89375e-06;-0.008299624364791126
1.89400e-06;-0.008281229727954191
1.89425e-06;-0.00826283509111727
1.89450e-06;-0.008244506141822422
1.89475e-06;-0.008227617538254331
1.89500e-06;-0.00821078180267007
1.89525e-06;-0.00819510531543284
1.89550e-06;-0.00817946948962613
1.89575e-06;-0.008164725256286105
1.89600e-06;-0.008150016383360907
1.89625e-06;-0.008136111991442636
1.89650e-06;-0.008122879460512131
1.89675e-06;-0.008110413097874313
1.89700e-06;-0.00809882725977775
1.89725e-06;-0.008088579656226955
1.89750e-06;-0.008080576634674529
