Time(s);Current(A)
5.00000e-06;0.005222685029549898
5.00025e-06;0.00524595869602385
5.00050e-06;0.005269232362497881
5.00075e-06;0.005292506028971833
5.00100e-06;0.005315779695445786
5.00125e-06;0.005339053361919816
5.00150e-06;0.005362327028393768
5.00175e-06;0.005385600694867721
5.00200e-06;0.005408874361341752
5.00225e-06;0.005435803839236812
5.00250e-06;0.005464632209875682
5.00275e-06;0.005493460580514648
5.00300e-06;0.005522288951153517
5.00325e-06;0.005551117321792386
5.00350e-06;0.005579945692431353
5.00375e-06;0.005608774063070221
5.00400e-06;0.005637602433709189
5.00425e-06;0.005666430804348057
5.00450e-06;0.005695259174986926
5.00475e-06;0.005724087545625893
5.00500e-06;0.005748810379997817
5.00525e-06;0.0057714007266322
5.00550e-06;0.005793991073266659
5.00575e-06;0.005816581419901042
5.00600e-06;0.005839171766535425
5.00625e-06;0.0058617621131698844
5.00650e-06;0.005884352459804267
5.00675e-06;0.005908793766649273
5.00700e-06;0.00594308816825532
5.00725e-06;0.005977382569861252
5.00750e-06;0.006011676971467184
5.00775e-06;0.006045971373073232
5.00800e-06;0.006080265774679163
5.00825e-06;0.006114560176285211
5.00850e-06;0.006148854577891143
5.00875e-06;0.006199968257622749
5.00900e-06;0.006259818166198367
5.00925e-06;0.006319668074773783
5.00950e-06;0.006379517983349198
5.00975e-06;0.006439367891924817
5.01000e-06;0.006499217800500233
5.01025e-06;0.006559067709075648
5.01050e-06;0.006618917617651266
5.01075e-06;0.006678767526226682
5.01100e-06;0.006738617434802098
5.01125e-06;0.006809253036046053
5.01150e-06;0.006885490915739561
5.01175e-06;0.006961728795433069
5.01200e-06;0.007037966675126835
5.01225e-06;0.007114204554820343
5.01250e-06;0.0071904424345141105
5.01275e-06;0.0072666803142076184
5.01300e-06;0.007342918193901126
5.01325e-06;0.007419156073594893
5.01350e-06;0.007495393953288401
5.01375e-06;0.00756467147273907
5.01400e-06;0.0076303336586746925
5.01425e-06;0.0076959958446100925
5.01450e-06;0.007761658030545493
5.01475e-06;0.007827320216481115
5.01500e-06;0.007892982402416515
5.01525e-06;0.007958644588351915
5.01550e-06;0.008024306774287539
5.01575e-06;0.008084444599317573
5.01600e-06;0.008115174957259037
5.01625e-06;0.008145905315200607
5.01650e-06;0.008176635673142071
5.01675e-06;0.008207366031083642
5.01700e-06;0.008238096389025108
5.01725e-06;0.008268826746966572
5.01750e-06;0.008299557104908142
5.01775e-06;0.008330287462849606
5.01800e-06;0.008330342566473496
5.01825e-06;0.008314464403550126
5.01850e-06;0.00829858624062681
5.01875e-06;0.008282708077703494
5.01900e-06;0.008266829914780125
5.01925e-06;0.008250951751856809
5.01950e-06;0.008235073588933493
5.01975e-06;0.008219195426010123
5.02000e-06;0.008203317263086807
5.02025e-06;0.008187439100163492
5.02050e-06;0.008166061313746158
5.02075e-06;0.008115407743281487
5.02100e-06;0.008064754172816645
5.02125e-06;0.008014100602351974
5.02150e-06;0.007963447031887302
5.02175e-06;0.00791279346142246
5.02200e-06;0.007862139890957789
5.02225e-06;0.0078114863204931185
5.02250e-06;0.007760832750028275
5.02275e-06;0.007710179179563605
5.02300e-06;0.007659525609098933
5.02325e-06;0.007604679546270685
5.02350e-06;0.007547655829180198
5.02375e-06;0.0074906321120897104
5.02400e-06;0.0074336083949990295
5.02425e-06;0.007376584677908542
5.02450e-06;0.007319560960818055
5.02475e-06;0.007269998188838178
5.02500e-06;0.007224310762956553
5.02525e-06;0.007178623337074775
5.02550e-06;0.00713293591119315
5.02575e-06;0.007087248485311526
5.02600e-06;0.007041561059429748
5.02625e-06;0.007002201030546368
5.02650e-06;0.00696612756293681
5.02675e-06;0.0069300540953271305
5.02700e-06;0.006893980627717573
5.02725e-06;0.006857907160108016
5.02750e-06;0.006821833692498337
5.02775e-06;0.0067857602248887795
5.02800e-06;0.006749686757279222
5.02825e-06;0.006713613289669543
5.02850e-06;0.006677539822059986
5.02875e-06;0.006641466354450429
5.02900e-06;0.006604735166761223
5.02925e-06;0.006567662347696259
5.02950e-06;0.00653058952863117
5.02975e-06;0.006493516709566206
5.03000e-06;0.006456443890501241
5.03025e-06;0.006419371071436152
5.03050e-06;0.006382298252371188
5.03075e-06;0.006345225433306225
5.03100e-06;0.0063081526142411345
5.03125e-06;0.006271079795176171
5.03150e-06;0.006234006976111207
5.03175e-06;0.006196878121919249
5.03200e-06;0.006159720162097098
5.03225e-06;0.006122562202274947
5.03250e-06;0.006085404242452669
5.03275e-06;0.006048246282630518
5.03300e-06;0.006011088322808366
5.03325e-06;0.00597393036298609
5.03350e-06;0.005936772403163938
5.03375e-06;0.00589961444334166
5.03400e-06;0.00586791586696288
5.03425e-06;0.005839052990352257
5.03450e-06;0.005810190113741535
5.03475e-06;0.005781327237130912
5.03500e-06;0.005752464360520289
5.03525e-06;0.005723601483909567
5.03550e-06;0.005694738607298944
5.03575e-06;0.0056658757306883205
5.03600e-06;0.005637012854077599
5.03625e-06;0.005625654474146052
5.03650e-06;0.005623388237619928
5.03675e-06;0.005621122001093797
5.03700e-06;0.005618855764567672
5.03725e-06;0.005616589528041548
5.03750e-06;0.005614323291515416
5.03775e-06;0.005612057054989292
5.03800e-06;0.00560979081846316
5.03825e-06;0.005613184740348342
5.03850e-06;0.005646709011229974
5.03875e-06;0.005680233282111719
5.03900e-06;0.005713757552993351
5.03925e-06;0.005747281823874982
5.03950e-06;0.005780806094756727
5.03975e-06;0.0058143303656383585
5.04000e-06;0.00584785463651999
5.04025e-06;0.005881378907401735
5.04050e-06;0.005932916322888898
5.04075e-06;0.005993810082458611
5.04100e-06;0.00605470384202853
5.04125e-06;0.006115597601598244
5.04150e-06;0.006176491361167957
5.04175e-06;0.006237385120737876
5.04200e-06;0.006298278880307589
5.04225e-06;0.006359172639877508
5.04250e-06;0.00642108967183373
5.04275e-06;0.006488453822382399
5.04300e-06;0.0065558179729312965
5.04325e-06;0.006623182123479965
5.04350e-06;0.006690546274028634
5.04375e-06;0.006757910424577532
5.04400e-06;0.006825274575126201
5.04425e-06;0.0068926387256748696
5.04450e-06;0.006960002876223767
5.04475e-06;0.007015636932280221
5.04500e-06;0.007065178170975604
5.04525e-06;0.007114719409671156
5.04550e-06;0.007164260648366539
5.04575e-06;0.007213801887061922
5.04600e-06;0.007263343125757472
5.04625e-06;0.0073128843644528554
5.04650e-06;0.0073366208374935436
5.04675e-06;0.007346953861458902
5.04700e-06;0.007357286885424261
5.04725e-06;0.0073676199093896545
5.04750e-06;0.007377952933355013
5.04775e-06;0.007388285957320372
5.04800e-06;0.007398618981285766
5.04825e-06;0.0073743032304735764
5.04850e-06;0.007331990296720642
5.04875e-06;0.0072896773629675645
5.04900e-06;0.007247364429214631
5.04925e-06;0.0072050514954616965
5.04950e-06;0.007162738561708619
5.04975e-06;0.0071204256279556845
5.05000e-06;0.007078112694202751
5.05025e-06;0.007035799760449673
5.05050e-06;0.006965144936860625
5.05075e-06;0.006879768837280472
5.05100e-06;0.006794392737700608
5.05125e-06;0.006709016638120744
5.05150e-06;0.006623640538540591
5.05175e-06;0.0065382644389607265
5.05200e-06;0.006452888339380862
5.05225e-06;0.006367512239800709
5.05250e-06;0.006282136140220845
5.05275e-06;0.006189358548963251
5.05300e-06;0.0060927364927682096
5.05325e-06;0.0059961144365734955
5.05350e-06;0.0058994923803787815
5.05375e-06;0.00580287032418374
5.05400e-06;0.005706248267989026
5.05425e-06;0.005609626211794312
5.05450e-06;0.005525741327298009
5.05475e-06;0.005448472353772928
5.05500e-06;0.005371203380247585
5.05525e-06;0.005293934406722503
5.05550e-06;0.005216665433197422
5.05575e-06;0.005139396459672078
5.05600e-06;0.005062127486146997
5.05625e-06;0.00500400346229849
5.05650e-06;0.0049558236619866025
5.05675e-06;0.004907643861674878
5.05700e-06;0.004872901700230417
5.05725e-06;0.004845139284721894
5.05750e-06;0.004817376869213464
5.05775e-06;0.0048037361415153015
5.05800e-06;0.004797430466803417
5.05825e-06;0.004791124792091554
5.05850e-06;0.004798449630262065
5.05875e-06;0.0048128543965236924
5.05900e-06;0.00482725916278527
5.05925e-06;0.0048624342129871875
5.05950e-06;0.004908397713924024
5.05975e-06;0.00495436121486086
5.06000e-06;0.005000324715797853
5.06025e-06;0.005046288216734689
5.06050e-06;0.005092251717671525
5.06075e-06;0.005138215218608517
5.06100e-06;0.005188985960943867
5.06125e-06;0.005265346775217208
5.06150e-06;0.005341707589490806
5.06175e-06;0.005418068403764147
5.06200e-06;0.005494429218037487
5.06225e-06;0.005570790032311085
5.06250e-06;0.005647150846584426
5.06275e-06;0.005723511660857766
5.06300e-06;0.005803953993426878
5.06325e-06;0.005886516338373909
5.06350e-06;0.005969078683321221
5.06375e-06;0.006051641028268252
5.06400e-06;0.006134203373215284
5.06425e-06;0.006216765718162595
5.06450e-06;0.006299328063109627
5.06475e-06;0.00636839024858632
5.06500e-06;0.006430440213827656
5.06525e-06;0.006492490179068782
5.06550e-06;0.006554540144309907
5.06575e-06;0.006616590109551243
5.06600e-06;0.006678640074792369
5.06625e-06;0.0067406900400334945
5.06650e-06;0.006771780611879503
5.06675e-06;0.006786790330360954
5.06700e-06;0.006801800048842405
5.06725e-06;0.006816809767323908
5.06750e-06;0.006831819485805359
5.06775e-06;0.0068468292042868605
5.06800e-06;0.006861838922768312
5.06825e-06;0.006876848641249763
5.06850e-06;0.00685626027038629
5.06875e-06;0.006817181625909459
5.06900e-06;0.006778102981432628
5.06925e-06;0.0067390243369556645
5.06950e-06;0.0066999456924788335
5.06975e-06;0.0066608670480020025
5.07000e-06;0.006621788403525039
5.07025e-06;0.006582709759048208
5.07050e-06;0.006517622855588963
5.07075e-06;0.0064390268050481085
5.07100e-06;0.00636043075450752
5.07125e-06;0.006281834703966932
5.07150e-06;0.006203238653426077
5.07175e-06;0.0061246426028854885
5.07200e-06;0.006046046552344634
5.07225e-06;0.005965181033914927
5.07250e-06;0.00587223460635108
5.07275e-06;0.005779288178786918
5.07300e-06;0.005686341751223071
5.07325e-06;0.005593395323659224
5.07350e-06;0.005500448896095062
5.07375e-06;0.0054075024685312145
5.07400e-06;0.005314556040967367
5.07425e-06;0.00523025674392474
5.07450e-06;0.005150448918538237
5.07475e-06;0.005070641093151734
5.07500e-06;0.00499083326776496
5.07525e-06;0.004911025442378456
5.07550e-06;0.004831217616991953
5.07575e-06;0.004756325443658752
5.07600e-06;0.004707600437559809
5.07625e-06;0.0046588754314607
5.07650e-06;0.004610150425361757
5.07675e-06;0.004561425419262814
5.07700e-06;0.004512700413163705
5.07725e-06;0.0044639754070647615
5.07750e-06;0.004441453021470047
5.07775e-06;0.0044325407377469525
5.07800e-06;0.0044236284540238886
5.07825e-06;0.004414716170300825
5.07850e-06;0.004405803886577731
5.07875e-06;0.004396891602854667
5.07900e-06;0.004387979319131603
5.07925e-06;0.004379067035408509
5.07950e-06;0.004370154751685445
5.07975e-06;0.004382920509441354
5.08000e-06;0.004410540010094353
5.08025e-06;0.00443815951074726
5.08050e-06;0.00446577901140026
5.08075e-06;0.004493398512053166
5.08100e-06;0.004521018012706072
5.08125e-06;0.004548637513359073
5.08150e-06;0.0045762570140119785
5.08175e-06;0.004603876514664885
5.08200e-06;0.0046402276399184735
5.08225e-06;0.004684363740926417
5.08250e-06;0.0047284998419343605
5.08275e-06;0.004772635942942454
5.08300e-06;0.004816328999508598
5.08325e-06;0.004858861184715445
5.08350e-06;0.004901393369922437
5.08375e-06;0.004943925555129285
5.08400e-06;0.004986480668680408
5.08425e-06;0.005029976391873955
5.08450e-06;0.005073472115067355
5.08475e-06;0.005116967838260755
5.08500e-06;0.005160463561454303
5.08525e-06;0.005203959284647703
5.08550e-06;0.005235938601686569
5.08575e-06;0.005267831645961092
5.08600e-06;0.005299724690235613
5.08625e-06;0.005331617734510244
5.08650e-06;0.005363510778784766
5.08675e-06;0.005393630126511904
5.08700e-06;0.00542367813179489
5.08725e-06;0.005453726137077773
5.08750e-06;0.005483774142360656
5.08775e-06;0.00551382214764364
5.08800e-06;0.005543870152926523
5.08825e-06;0.005573918158209406
5.08850e-06;0.005603966163492391
5.08875e-06;0.005634014168775274
5.08900e-06;0.005664062174058157
5.08925e-06;0.005694110179341141
5.08950e-06;0.005724158184624024
5.08975e-06;0.005755855752497284
5.09000e-06;0.00578947940316733
5.09025e-06;0.005823103053837378
5.09050e-06;0.005856726704507539
5.09075e-06;0.005890350355177586
5.09100e-06;0.0059239740058476325
5.09125e-06;0.0059575976565177935
5.09150e-06;0.005991221307187841
5.09175e-06;0.006024844957857887
5.09200e-06;0.006058468608528048
5.09225e-06;0.006092092259198096
5.09250e-06;0.006125715909868143
5.09275e-06;0.006159339560538304
5.09300e-06;0.006191450092195478
5.09325e-06;0.006223499762478762
5.09350e-06;0.006255549432762154
5.09375e-06;0.006287599103045437
5.09400e-06;0.0063196487733288296
5.09425e-06;0.006351698443612113
5.09450e-06;0.0063837481138953964
5.09475e-06;0.006407966435240389
5.09500e-06;0.00643186976044047
5.09525e-06;0.006455773085640551
5.09550e-06;0.006479676410840712
5.09575e-06;0.006503579736040793
5.09600e-06;0.006527483061240874
5.09625e-06;0.0065513863864410365
5.09650e-06;0.006578616431374072
5.09675e-06;0.006605980285169255
5.09700e-06;0.006633344138964531
5.09725e-06;0.006660707992759715
5.09750e-06;0.0066880718465548985
5.09775e-06;0.006715435700350174
5.09800e-06;0.006742799554145358
5.09825e-06;0.006770163407940634
5.09850e-06;0.006797527261735817
5.09875e-06;0.006824891115531001
5.09900e-06;0.0068591155130399845
5.09925e-06;0.0069013505039631695
5.09950e-06;0.006943585494886354
5.09975e-06;0.006985820485809681
5.10000e-06;0.007028055476732866
5.10025e-06;0.00707029046765605
5.10050e-06;0.007112525458579377
5.10075e-06;0.007154760449502562
5.10100e-06;0.0071969954404257465
5.10125e-06;0.007239230431349074
5.10150e-06;0.007281465422272259
5.10175e-06;0.007330597515176354
5.10200e-06;0.007380007026511287
5.10225e-06;0.007429416537846053
5.10250e-06;0.007478826049180987
5.10275e-06;0.007528235560515752
5.10300e-06;0.007577645071850518
5.10325e-06;0.007627054583185451
5.10350e-06;0.007676464094520216
5.10375e-06;0.0077222092248703
5.10400e-06;0.007763675705101017
5.10425e-06;0.007805142185331592
5.10450e-06;0.007846608665562168
5.10475e-06;0.007888075145792884
5.10500e-06;0.007929541626023459
5.10525e-06;0.007971008106254035
5.10550e-06;0.008012474586484752
5.10575e-06;0.008053941066715326
5.10600e-06;0.008075612629723922
5.10625e-06;0.008096487992403355
5.10650e-06;0.008117363355082717
5.10675e-06;0.00813823871776215
5.10700e-06;0.008134354927259647
5.10725e-06;0.00812947526262995
5.10750e-06;0.008124595598000236
5.10775e-06;0.008119715933370538
5.10800e-06;0.008099387230429146
5.10825e-06;0.008046508391575814
5.10850e-06;0.007992345300252848
5.10875e-06;0.007938182208929882
5.10900e-06;0.007884019117606732
5.10925e-06;0.007829856026283766
5.10950e-06;0.007775692934960801
5.10975e-06;0.007721529843637652
5.11000e-06;0.007667366752314686
5.11025e-06;0.007592328348048018
5.11050e-06;0.007492915251142947
5.11075e-06;0.007393502154238211
5.11100e-06;0.00729408905733314
5.11125e-06;0.007194675960428405
5.11150e-06;0.007095262863523671
5.11175e-06;0.006995849766618599
5.11200e-06;0.006896436669713864
5.11225e-06;0.006797023572809129
5.11250e-06;0.006682827445642922
5.11275e-06;0.006568036708587137
5.11300e-06;0.006453245971531353
5.11325e-06;0.006338455234475178
5.11350e-06;0.006223664497419392
5.11375e-06;0.006108873760363608
5.11400e-06;0.006000526215085369
5.11425e-06;0.005899701949559451
5.11450e-06;0.005798877684033534
5.11475e-06;0.005698053418507275
5.11500e-06;0.005597229152981357
5.11525e-06;0.005496404887455098
5.11550e-06;0.0053955806219291805
5.11575e-06;0.005335702759335051
5.11600e-06;0.00527747186192315
5.11625e-06;0.0052192409645114455
5.11650e-06;0.005161010067099741
5.11675e-06;0.00510277916968784
5.11700e-06;0.005044548272276136
5.11725e-06;0.004986317374864432
5.11750e-06;0.0049280864774525306
5.11775e-06;0.004869855580040826
5.11800e-06;0.004811624682629122
5.11825e-06;0.004794259134959429
5.11850e-06;0.00477853729231283
5.11875e-06;0.0047628154496662314
5.11900e-06;0.0047470936070195795
5.11925e-06;0.0047313717643729805
5.11950e-06;0.004715649921726329
5.11975e-06;0.00469992807907973
5.12000e-06;0.0046842062364331315
5.12025e-06;0.004668484393786479
5.12050e-06;0.004652762551139881
5.12075e-06;0.004662068509678989
5.12100e-06;0.004672381148028027
5.12125e-06;0.00468269378637703
5.12150e-06;0.004693006424726033
5.12175e-06;0.004703319063075072
5.12200e-06;0.004713631701424075
5.12225e-06;0.0047239443397730785
5.12250e-06;0.004734256978122116
5.12275e-06;0.0047445696164711195
5.12300e-06;0.0047631932275267064
5.12325e-06;0.004782151126375357
5.12350e-06;0.004801109025223944
5.12375e-06;0.004820066924072595
5.12400e-06;0.004839024822921182
5.12425e-06;0.004857982721769768
5.12450e-06;0.004876940620618418
5.12475e-06;0.004895898519467005
5.12500e-06;0.004914856418315592
5.12525e-06;0.004923351189910691
5.12550e-06;0.0049314251087560325
5.12575e-06;0.004939499027601374
5.12600e-06;0.004947572946446743
5.12625e-06;0.004955646865292084
5.12650e-06;0.004963720784137426
5.12675e-06;0.004971794702982794
5.12700e-06;0.004979868621828135
5.12725e-06;0.004987942540673477
5.12750e-06;0.0049960164595188455
5.12775e-06;0.0050040903783641864
5.12800e-06;0.00500153431591545
5.12825e-06;0.004986566342449943
5.12850e-06;0.004971598368984436
5.12875e-06;0.004956630395518878
5.12900e-06;0.004941662422053371
5.12925e-06;0.0049266944485878645
5.12950e-06;0.004911726475122306
5.12975e-06;0.0048967585016568
5.13000e-06;0.004881790528191292
5.13025e-06;0.004866822554725735
5.13050e-06;0.0048518545812602275
5.13075e-06;0.00483688660779472
5.13100e-06;0.004807486742000284
5.13125e-06;0.0047775063899499
5.13150e-06;0.004747526037899514
5.13175e-06;0.004717545685849028
5.13200e-06;0.004687565333798643
5.13225e-06;0.004657584981748156
5.13250e-06;0.004627604629697771
5.13275e-06;0.004597624277647386
5.13300e-06;0.004567643925596899
5.13325e-06;0.004537863021448378
5.13350e-06;0.004508314999140536
5.13375e-06;0.0044787669768325935
5.13400e-06;0.004449218954524751
5.13425e-06;0.004419670932216908
5.13450e-06;0.0043901229099089665
5.13475e-06;0.0043605748876011236
5.13500e-06;0.0043310268652932814
5.13525e-06;0.004301478842985339
5.13550e-06;0.004271930820677497
5.13575e-06;0.004260435412230702
5.13600e-06;0.004249666124377529
5.13625e-06;0.004238896836524393
5.13650e-06;0.004228127548671221
5.13675e-06;0.004217358260818085
5.13700e-06;0.00420658897296495
5.13725e-06;0.004195819685111777
5.13750e-06;0.004185050397258642
5.13775e-06;0.0041742811094055065
5.13800e-06;0.004163511821552334
5.13825e-06;0.004152742533699199
5.13850e-06;0.004154130874582159
5.13875e-06;0.004169714857192398
5.13900e-06;0.004185298839802585
5.13925e-06;0.004200882822412771
5.13950e-06;0.004216466805023011
5.13975e-06;0.004232050787633198
5.14000e-06;0.004247634770243384
5.14025e-06;0.004263218752853623
5.14050e-06;0.00427880273546381
5.14075e-06;0.004294386718074049
5.14100e-06;0.004309970700684235
5.14125e-06;0.004325554683294422
5.14150e-06;0.004354725948324078
5.14175e-06;0.004384443727318056
5.14200e-06;0.004414161506312033
5.14225e-06;0.004443879285306112
5.14250e-06;0.004473597064300089
5.14275e-06;0.004503314843294066
5.14300e-06;0.004533032622288144
5.14325e-06;0.004562750401282122
5.14350e-06;0.004592468180276099
5.14375e-06;0.004619914356400168
5.14400e-06;0.004647269163061774
5.14425e-06;0.00467462396972338
5.14450e-06;0.0047019787763850785
5.14475e-06;0.004729333583046684
5.14500e-06;0.004756688389708383
5.14525e-06;0.004784043196369989
5.14550e-06;0.004811398003031595
5.14575e-06;0.004838752809693293
5.14600e-06;0.004864553058086889
5.14625e-06;0.004890290778318105
5.14650e-06;0.004916028498549407
5.14675e-06;0.004941766218780622
5.14700e-06;0.004967503939011837
5.14725e-06;0.004993241659243139
5.14750e-06;0.0050189793794743545
5.14775e-06;0.00504471709970557
5.14800e-06;0.005070454819936872
5.14825e-06;0.00511223651261752
5.14850e-06;0.0051546635333858445
5.14875e-06;0.005197090554154312
5.14900e-06;0.005239517574922637
5.14925e-06;0.005281944595691105
5.14950e-06;0.00532437161645943
5.14975e-06;0.005366798637227754
5.15000e-06;0.005409225657996223
5.15025e-06;0.005451652678764547
5.15050e-06;0.005508990930835499
5.15075e-06;0.0055669289493553336
