Time(s);Current(A)
4.00000e-06;0.0013265675476106225
4.00025e-06;0.0013344413921433632
4.00050e-06;0.001342282859952552
4.00075e-06;0.0013488501919592093
4.00100e-06;0.0013554175239658443
4.00125e-06;0.0013619848559724794
4.00150e-06;0.0013685521879791367
4.00175e-06;0.0013751195199857718
4.00200e-06;0.0013816868519924068
4.00225e-06;0.001388254183999064
4.00250e-06;0.0013948215160056992
4.00275e-06;0.0014013888480123343
4.00300e-06;0.0014079561800189916
4.00325e-06;0.0014158891116646426
4.00350e-06;0.001425058671202386
4.00375e-06;0.0014342282307401608
4.00400e-06;0.0014433977902779042
4.00425e-06;0.001452567349815679
4.00450e-06;0.0014617369093534224
4.00475e-06;0.0014709064688911658
4.00500e-06;0.0014800760284289405
4.00525e-06;0.001489245587966684
4.00550e-06;0.0014984151475044276
4.00575e-06;0.001507584707042202
4.00600e-06;0.0015167542665799456
4.00625e-06;0.0015265138885338047
4.00650e-06;0.0015368078454574485
4.00675e-06;0.0015471018023810574
4.00700e-06;0.0015573957593046665
4.00725e-06;0.0015676897162283103
4.00750e-06;0.0015779836731519192
4.00775e-06;0.0015882776300755283
4.00800e-06;0.0015985715869991722
4.00825e-06;0.001608865543922781
4.00850e-06;0.0016191595008464249
4.00875e-06;0.001629453457770034
4.00900e-06;0.001639747414693643
4.00925e-06;0.0016479756269074278
4.00950e-06;0.0016543331901748418
4.00975e-06;0.0016606907534422559
4.01000e-06;0.0016670483167096914
4.01025e-06;0.0016734058799771055
4.01050e-06;0.0016797634432445196
4.01075e-06;0.0016861210065119553
4.01100e-06;0.0016924785697793694
4.01125e-06;0.0016988361330467835
4.01150e-06;0.0017049323974309871
4.01175e-06;0.0017007456490510484
4.01200e-06;0.0016965589006711097
4.01225e-06;0.0016923721522911568
4.01250e-06;0.001688185403911218
4.01275e-06;0.001683998655531265
4.01300e-06;0.0016798119071513263
4.01325e-06;0.0016756251587713876
4.01350e-06;0.0016714384103914347
4.01375e-06;0.001667251662011496
4.01400e-06;0.0016573898475232285
4.01425e-06;0.0016423889389424015
4.01450e-06;0.0016273880303616256
4.01475e-06;0.0016123871217808496
4.01500e-06;0.0015973862132000226
4.01525e-06;0.0015823853046192467
4.01550e-06;0.0015673843960384707
4.01575e-06;0.0015523834874576438
4.01600e-06;0.0015372450449053859
4.01625e-06;0.0015166941659677598
4.01650e-06;0.0014961432870300641
4.01675e-06;0.0014755924080924383
4.01700e-06;0.0014550415291547426
4.01725e-06;0.0014344906502171165
4.01750e-06;0.0014139397712794907
4.01775e-06;0.001393388892341795
4.01800e-06;0.001372838013404169
4.01825e-06;0.001352738604557764
4.01850e-06;0.001333048027473647
4.01875e-06;0.0013133574503895967
4.01900e-06;0.0012936668733055465
4.01925e-06;0.0012739762962214298
4.01950e-06;0.0012542857191373796
4.01975e-06;0.0012347620574294396
4.02000e-06;0.0012218070917657483
4.02025e-06;0.001208852126102101
4.02050e-06;0.0011958971604384536
4.02075e-06;0.0011829421947747625
4.02100e-06;0.001169987229111115
4.02125e-06;0.0011570322634474677
4.02150e-06;0.00114876458156264
4.02175e-06;0.0011447415008709449
4.02200e-06;0.001140718420179236
4.02225e-06;0.0011399424086412596
4.02250e-06;0.001142106802304666
4.02275e-06;0.0011442711959680795
4.02300e-06;0.001149883531097126
4.02325e-06;0.0011586181726938008
4.02350e-06;0.0011673528142905052
4.02375e-06;0.001179296769843631
4.02400e-06;0.0011941469411265184
4.02425e-06;0.0012089971124094562
4.02450e-06;0.0012266671937205705
4.02475e-06;0.0012468908634283456
4.02500e-06;0.0012671145331361892
4.02525e-06;0.0012909720664012808
4.02550e-06;0.0013181202691281643
4.02575e-06;0.00134526847185514
4.02600e-06;0.0013724166745820235
4.02625e-06;0.001399564877308999
4.02650e-06;0.0014267130800358825
4.02675e-06;0.0014538612827627662
4.02700e-06;0.0014830804095545536
4.02725e-06;0.0015141748754914869
4.02750e-06;0.00154526934142842
4.02775e-06;0.0015763638073654587
4.02800e-06;0.001607458273302392
4.02825e-06;0.001638552739239325
4.02850e-06;0.0016696472051763638
4.02875e-06;0.001698203481535066
4.02900e-06;0.0017244612833360383
4.02925e-06;0.0017507190851370996
4.02950e-06;0.0017769768869380716
4.02975e-06;0.0018032346887390438
4.03000e-06;0.0018294924905401051
4.03025e-06;0.0018557502923410773
4.03050e-06;0.0018816457237061863
4.03075e-06;0.0018932806279765544
4.03100e-06;0.0019049155322469226
4.03125e-06;0.0019165504365173302
4.03150e-06;0.0019281853407876984
4.03175e-06;0.0019398202450580666
4.03200e-06;0.0019514551493284742
4.03225e-06;0.001963090053598842
4.03250e-06;0.0019678515325595738
4.03275e-06;0.001966388735235706
4.03300e-06;0.0019649259379118434
4.03325e-06;0.0019566870194227433
4.03350e-06;0.001942311939068183
4.03375e-06;0.0019279368587136712
4.03400e-06;0.0019135617783591595
4.03425e-06;0.001899186698004599
4.03450e-06;0.0018848116176500872
4.03475e-06;0.0018704365372955267
4.03500e-06;0.001856061456941015
4.03525e-06;0.0018345195634582084
4.03550e-06;0.0018064877143885926
4.03575e-06;0.0017784558653190718
4.03600e-06;0.001750424016249551
4.03625e-06;0.0017223921671799352
4.03650e-06;0.0016943603181104143
4.03675e-06;0.0016663284690408935
4.03700e-06;0.0016382966199712777
4.03725e-06;0.0016079220802543617
4.03750e-06;0.0015754261013451274
4.03775e-06;0.0015429301224357832
4.03800e-06;0.0015104341435265489
4.03825e-06;0.0014779381646173146
4.03850e-06;0.0014454421857079704
4.03875e-06;0.0014148512558567878
4.03900e-06;0.0013859854559279852
4.03925e-06;0.0013571196559992802
4.03950e-06;0.0013282538560705753
4.03975e-06;0.0012993880561417727
4.04000e-06;0.0012705222562130677
4.04025e-06;0.001245642012210694
4.04050e-06;0.0012243709150472626
4.04075e-06;0.0012030998178839032
4.04100e-06;0.0011858991545662168
4.04125e-06;0.0011723844998552822
4.04150e-06;0.0011626412716749946
4.04175e-06;0.001156313284026448
4.04200e-06;0.001153694652875377
4.04225e-06;0.0011544350543221964
4.04250e-06;0.001158930906597217
4.04275e-06;0.0011668275324997477
4.04300e-06;0.001178824690512099
4.04325e-06;0.0011945351128156798
4.04350e-06;0.0012142010335099392
4.04375e-06;0.0012374488822404735
4.04400e-06;0.0012642671019121893
4.04425e-06;0.0012943184948809334
4.04450e-06;0.0013284157930357361
4.04475e-06;0.0013661768877053651
4.04500e-06;0.0014039379823748662
4.04525e-06;0.0014460680701932553
4.04550e-06;0.001492154528993151
4.04575e-06;0.0015382409877928906
4.04600e-06;0.0015884989377020731
4.04625e-06;0.0016425344092993218
4.04650e-06;0.0016965698808963873
4.04675e-06;0.0017506053524934527
4.04700e-06;0.0018046408240907014
4.04725e-06;0.0018586762956877669
4.04750e-06;0.0019140233938365107
4.04775e-06;0.0019705582441855397
4.04800e-06;0.0020270930945345683
4.04825e-06;0.002083627944883789
4.04850e-06;0.002140162795232818
4.04875e-06;0.0021966976455818467
4.04900e-06;0.002245699034831035
4.04925e-06;0.0022878784479708554
4.04950e-06;0.0023300578611106753
4.04975e-06;0.0023722372742506384
4.05000e-06;0.0024144166873904583
4.05025e-06;0.0024565961005302787
4.05050e-06;0.0024987755136702417
4.05075e-06;0.0025409549268100616
4.05100e-06;0.0025831343399498816
4.05125e-06;0.0026253137530898446
4.05150e-06;0.0026554394590393685
4.05175e-06;0.002674649849786027
4.05200e-06;0.0026938602405326205
4.05225e-06;0.002713070631279214
4.05250e-06;0.0027322810220258725
4.05275e-06;0.002751491412772466
4.05300e-06;0.0027707018035190594
4.05325e-06;0.002789912194265718
4.05350e-06;0.0028091225850123114
4.05375e-06;0.002828332975758905
4.05400e-06;0.00283911428160649
4.05425e-06;0.002842262573221284
4.05450e-06;0.0028454108648360782
4.05475e-06;0.002848559156450883
4.05500e-06;0.002851707448065677
4.05525e-06;0.0028548557396804713
4.05550e-06;0.0028580040312952758
4.05575e-06;0.0028611523229100703
4.05600e-06;0.0028643006145248747
4.05625e-06;0.002867448906139669
4.05650e-06;0.002870397603384255
4.05675e-06;0.002865491573455941
4.05700e-06;0.0028605855435276436
4.05725e-06;0.0028556795135993465
4.05750e-06;0.002850773483671032
4.05775e-06;0.002845867453742735
4.05800e-06;0.0028409614238144375
4.05825e-06;0.0028360553938861235
4.05850e-06;0.002831149363957826
4.05875e-06;0.0028262433340295284
4.05900e-06;0.0028213373041012144
4.05925e-06;0.002816043959028004
4.05950e-06;0.002810399878133671
4.05975e-06;0.0028047557972393188
4.06000e-06;0.002799111716344986
4.06025e-06;0.0027934676354506335
4.06050e-06;0.0027878235545563007
4.06075e-06;0.0027821794736619674
4.06100e-06;0.0027765353927676154
4.06125e-06;0.002770891311873282
4.06150e-06;0.0027652472309789493
4.06175e-06;0.0027594638779688896
4.06200e-06;0.0027481996866493426
4.06225e-06;0.0027369354953297956
4.06250e-06;0.002725671304010211
4.06275e-06;0.002714407112690664
4.06300e-06;0.002703142921371117
4.06325e-06;0.002691878730051532
4.06350e-06;0.002680614538731985
4.06375e-06;0.002669350347412438
4.06400e-06;0.0026580861560928527
4.06425e-06;0.002646821964773306
4.06450e-06;0.002631725600561142
4.06475e-06;0.0026131589865442516
4.06500e-06;0.002594592372527361
4.06525e-06;0.0025760257585104077
4.06550e-06;0.002557459144493517
4.06575e-06;0.0025388925304766267
4.06600e-06;0.0025203259164596733
4.06625e-06;0.0025017593024427827
4.06650e-06;0.002483192688425892
4.06675e-06;0.002464626074408939
4.06700e-06;0.0024452933475676264
4.06725e-06;0.002425266862131962
4.06750e-06;0.0024052403766962292
4.06775e-06;0.0023852138912605647
4.06800e-06;0.0023651874058249
4.06825e-06;0.0023451609203891674
4.06850e-06;0.002325134434953503
4.06875e-06;0.00230510794951777
4.06900e-06;0.0022850814640821056
4.06925e-06;0.002265054978646441
4.06950e-06;0.002248742839748811
4.06975e-06;0.0022357942522119975
4.07000e-06;0.002222845664675184
4.07025e-06;0.0022098970771383267
4.07050e-06;0.002196948489601513
4.07075e-06;0.0021839999020646997
4.07100e-06;0.002171051314527842
4.07125e-06;0.0021581027269910284
4.07150e-06;0.002145154139454215
4.07175e-06;0.002132205551917357
4.07200e-06;0.0021192569643805437
4.07225e-06;0.00210630837684373
4.07250e-06;0.002093498548428749
4.07275e-06;0.0020861493702337506
4.07300e-06;0.002078800192038727
4.07325e-06;0.002071451013843728
4.07350e-06;0.0020641018356487295
4.07375e-06;0.002056752657453706
4.07400e-06;0.0020494034792587074
4.07425e-06;0.0020420543010637084
4.07450e-06;0.0020347051228686848
4.07475e-06;0.0020273559446736863
4.07500e-06;0.0020200067664786873
4.07525e-06;0.002012657588283664
4.07550e-06;0.002005308410088665
4.07575e-06;0.001999256603982086
4.07600e-06;0.001994379641850914
4.07625e-06;0.001989502679719759
4.07650e-06;0.0019846257175886034
4.07675e-06;0.0019797487554574313
4.07700e-06;0.001974871793326276
4.07725e-06;0.001969994831195104
4.07750e-06;0.0019651178690639486
4.07775e-06;0.0019602409069327934
4.07800e-06;0.0019553639448016214
4.07825e-06;0.001950486982670466
4.07850e-06;0.0019456100205393107
4.07875e-06;0.0019407330584081388
4.07900e-06;0.0019358560962769835
4.07925e-06;0.0019327305310717618
4.07950e-06;0.0019311909550713555
4.07975e-06;0.0019296513790709546
4.08000e-06;0.0019281118030705536
4.08025e-06;0.0019265722270701475
4.08050e-06;0.0019250326510697464
4.08075e-06;0.0019234930750693456
4.08100e-06;0.0019219534990689395
4.08125e-06;0.0019204139230685384
4.08150e-06;0.0019188743470681324
4.08175e-06;0.0019173347710677313
4.08200e-06;0.0019157951950673304
4.08225e-06;0.0019142556190669241
4.08250e-06;0.0019127160430665233
4.08275e-06;0.0019147868986641738
4.08300e-06;0.0019201272047525196
4.08325e-06;0.0019254675108408472
4.08350e-06;0.0019308078169291748
4.08375e-06;0.0019361481230175206
4.08400e-06;0.0019414884291058482
4.08425e-06;0.0019468287351941758
4.08450e-06;0.0019521690412825216
4.08475e-06;0.001957509347370849
4.08500e-06;0.001962849653459177
4.08525e-06;0.0019681899595475226
4.08550e-06;0.0019735302656358504
4.08575e-06;0.001978967562465523
4.08600e-06;0.0019882217796133514
4.08625e-06;0.0019974759967611795
4.08650e-06;0.0020067302139090393
4.08675e-06;0.002015984431056868
4.08700e-06;0.002025238648204696
4.08725e-06;0.002034492865352556
4.08750e-06;0.0020437470825003844
4.08775e-06;0.002053001299648213
4.08800e-06;0.0020622555167960723
4.08825e-06;0.002071509733943901
4.08850e-06;0.0020807639510917295
4.08875e-06;0.0020900181682395893
4.08900e-06;0.002099001004938915
4.08925e-06;0.002107738091257348
4.08950e-06;0.002115682180169733
4.08975e-06;0.0021229081649752407
4.09000e-06;0.0021301341497807725
4.09025e-06;0.00213736013458628
4.09050e-06;0.0021445861193917872
4.09075e-06;0.002151812104197319
4.09100e-06;0.0021590380890028267
4.09125e-06;0.002166264073808334
4.09150e-06;0.0021734900586138656
4.09175e-06;0.002180802300457712
4.09200e-06;0.0021915090543688704
4.09225e-06;0.002202215808280065
4.09250e-06;0.0022129225621912232
4.09275e-06;0.0022236293161023817
4.09300e-06;0.002234336070013576
4.09325e-06;0.0022450428239247345
4.09350e-06;0.002255749577835893
4.09375e-06;0.0022664563317470873
4.09400e-06;0.0022771630856582457
4.09425e-06;0.0022909689565944005
4.09450e-06;0.0023075812536877266
4.09475e-06;0.002324193550781053
4.09500e-06;0.0023408058478744356
4.09525e-06;0.002357418144967762
4.09550e-06;0.0023740304420610888
4.09575e-06;0.0023906427391544713
4.09600e-06;0.002407255036247798
4.09625e-06;0.002423867333341124
4.09650e-06;0.002440479630434507
4.09675e-06;0.002457091927527833
4.09700e-06;0.002474189677149648
4.09725e-06;0.0024917270315566926
4.09750e-06;0.002509264385963678
4.09775e-06;0.002526801740370663
4.09800e-06;0.0025443390947777083
4.09825e-06;0.0025618764491846936
4.09850e-06;0.0025794138035917383
4.09875e-06;0.0025969511579987236
4.09900e-06;0.002614488512405709
4.09925e-06;0.002632025866812754
4.09950e-06;0.0026495632212197393
4.09975e-06;0.0026618649483356794
4.10000e-06;0.002669425518128691
4.10025e-06;0.002676986087921677
4.10050e-06;0.002684546657714663
4.10075e-06;0.0026921072275076746
4.10100e-06;0.00269966779730066
4.10125e-06;0.002707228367093646
4.10150e-06;0.0027147889368866578
4.10175e-06;0.0027223495066796438
4.10200e-06;0.0027299100764726298
4.10225e-06;0.0027374706462656414
4.10250e-06;0.002745031216058627
4.10275e-06;0.0027525917858516385
4.10300e-06;0.0027601523556446245
4.10325e-06;0.0027677129254376105
4.10350e-06;0.002768692035296905
4.10375e-06;0.0027637112600796894
4.10400e-06;0.0027587304848624744
4.10425e-06;0.002753749709645242
4.10450e-06;0.002748768934428027
4.10475e-06;0.0027437881592108117
4.10500e-06;0.0027388073839935798
4.10525e-06;0.0027338266087763644
4.10550e-06;0.0027288458335591494
4.10575e-06;0.002723865058341917
4.10600e-06;0.002718884283124702
4.10625e-06;0.0027139035079074866
4.10650e-06;0.0027089227326902547
4.10675e-06;0.0027039419574730393
4.10700e-06;0.0026989611822558074
4.10725e-06;0.002692741891838099
4.10750e-06;0.0026854010556943276
4.10775e-06;0.0026780602195505313
4.10800e-06;0.0026707193834067597
4.10825e-06;0.002663378547262988
4.10850e-06;0.0026560377111191917
4.10875e-06;0.0026486968749754205
4.10900e-06;0.002641356038831649
4.10925e-06;0.0026340152026878526
4.10950e-06;0.0026266743665440814
4.10975e-06;0.0026193335304003098
4.11000e-06;0.0026119926942565134
4.11025e-06;0.002604651858112742
4.11050e-06;0.0025973110219689706
4.11075e-06;0.0025899701858251743
4.11100e-06;0.0025826293496814027
4.11125e-06;0.0025752885135376063
4.11150e-06;0.0025679476773938347
4.11175e-06;0.0025606068412500635
4.11200e-06;0.002553266005106267
4.11225e-06;0.0025459251689624956
4.11250e-06;0.0025386787275393534
4.11275e-06;0.002535147044043077
4.11300e-06;0.0025316153605468125
4.11325e-06;0.0025280836770505484
4.11350e-06;0.002524551993554272
4.11375e-06;0.002521020310058008
4.11400e-06;0.002517488626561744
4.11425e-06;0.0025139569430654676
4.11450e-06;0.0025104252595692035
4.11475e-06;0.002506893576072939
4.11500e-06;0.0025033618925766627
4.11525e-06;0.0024998302090803986
4.11550e-06;0.0024962985255841223
4.11575e-06;0.002492766842087858
4.11600e-06;0.002489235158591594
4.11625e-06;0.002485703475095318
4.11650e-06;0.0024821717915990533
4.11675e-06;0.002478640108102789
4.11700e-06;0.002475108424606513
4.11725e-06;0.0024715767411102488
4.11750e-06;0.0024680450576139846
4.11775e-06;0.0024645133741177084
4.11800e-06;0.002461626483339028
4.11825e-06;0.002459323488919606
4.11850e-06;0.0024570204945001768
4.11875e-06;0.0024547175000807554
4.11900e-06;0.002452414505661334
4.11925e-06;0.0024501115112419048
4.11950e-06;0.0024478085168224833
4.11975e-06;0.0024448994668288745
4.12000e-06;0.0024414415991554092
4.12025e-06;0.0024379837314819444
4.12050e-06;0.0024345258638084673
4.12075e-06;0.002431067996135002
4.12100e-06;0.002427610128461537
4.12125e-06;0.00242415226078806
4.12150e-06;0.0024124100876682123
4.12175e-06;0.002393166006327482
4.12200e-06;0.002373921924986687
4.12225e-06;0.0023546778436459564
4.12250e-06;0.0023354337623052264
4.12275e-06;0.002316189680964431
4.12300e-06;0.002296945599623701
4.12325e-06;0.0022777015182829704
4.12350e-06;0.002258457436942175
4.12375e-06;0.002239213355601445
4.12400e-06;0.002208793277652515
4.12425e-06;0.002168252701205713
4.12450e-06;0.002127712124758912
4.12475e-06;0.002087171548311973
4.12500e-06;0.0020466309718651715
4.12525e-06;0.0020060903954183702
4.12550e-06;0.0019655498189714315
4.12575e-06;0.00192500924252463
4.12600e-06;0.0018844686660778286
4.12625e-06;0.0018439280896308898
4.12650e-06;0.0017985184473150542
4.12675e-06;0.0017486995898267626
4.12700e-06;0.001698880732338302
4.12725e-06;0.0016490618748500102
4.12750e-06;0.0015992430173617186
4.12775e-06;0.001549454957400542
4.12800e-06;0.0015008788863887777
4.12825e-06;0.001452302815376849
4.12850e-06;0.0014037267443650849
4.12875e-06;0.0013551506733533206
4.12900e-06;0.001306574602341392
4.12925e-06;0.0012610582462900977
4.12950e-06;0.0012183126355910401
4.12975e-06;0.0011755670248918377
4.13000e-06;0.0011359198146235643
4.13025e-06;0.0010990783815939425
4.13050e-06;0.0010657334891586068
4.13075e-06;0.0010355549124507668
4.13100e-06;0.0010053763357429268
4.13125e-06;0.0009776386661443724
4.13150e-06;0.0009521113763086361
4.13175e-06;0.0009292385731452734
4.13200e-06;0.0009087695581466786
4.13225e-06;0.0008883005431481533
4.13250e-06;0.000871245929807413
4.13275e-06;0.0008572832507304732
4.13300e-06;0.0008433205716535334
4.13325e-06;0.0008318204824510168
4.13350e-06;0.0008225504079841526
4.13375e-06;0.0008132803335172882
4.13400e-06;0.0008065388696097777
4.13425e-06;0.0008020872059107766
4.13450e-06;0.0007976355422117756
4.13475e-06;0.0007953934433996396
4.13500e-06;0.0007951522308528142
4.13525e-06;0.0007949110183059888
4.13550e-06;0.0007970773504607818
4.13575e-06;0.0008014238508265629
4.13600e-06;0.000805770351192344
4.13625e-06;0.0008101168515581398
4.13650e-06;0.0008144633519239209
4.13675e-06;0.0008188098522897167
4.13700e-06;0.0008232477120630889
4.13725e-06;0.0008312808797055563
4.13750e-06;0.000839314047348051
4.13775e-06;0.0008473472149905186
4.13800e-06;0.000855380382632986
4.13825e-06;0.0008634135502754807
4.13850e-06;0.0008714467179179483
4.13875e-06;0.0008789542147645981
4.13900e-06;0.0008859856869054155
4.13925e-06;0.0008930171590462091
4.13950e-06;0.0009000486311870027
4.13975e-06;0.0009070801033278201
4.14000e-06;0.0009141115754686137
4.14025e-06;0.0009211430476094073
4.14050e-06;0.0009281745197502248
4.14075e-06;0.0009352059918910184
4.14100e-06;0.0009422374640318358
4.14125e-06;0.0009492689361726295
4.14150e-06;0.0009536469351766299
4.14175e-06;0.0009576846164376057
4.14200e-06;0.000961722297698568
4.14225e-06;0.0009657599789595301
4.14250e-06;0.000969797660220506
4.14275e-06;0.0009738353414814681
4.14300e-06;0.0009778730227424303
4.14325e-06;0.0009819107040034063
4.14350e-06;0.0009859483852643683
4.14375e-06;0.0009899860665253306
4.14400e-06;0.000993735189471563
4.14425e-06;0.00099660871857163
4.14450e-06;0.000999482247671697
4.14475e-06;0.0010023557767717738
4.14500e-06;0.0010052293058718407
4.14525e-06;0.0010081028349719176
4.14550e-06;0.0010109763640719846
4.14575e-06;0.0010138498931720516
4.14600e-06;0.0010167234222721285
4.14625e-06;0.0010195969513721954
4.14650e-06;0.0010224704804722624
4.14675e-06;0.001025344009572339
4.14700e-06;0.0010282175386724063
4.14725e-06;0.0010310910677724732
4.14750e-06;0.0010330721329108604
4.14775e-06;0.0010348862287316142
4.14800e-06;0.001036700324552368
