Time(s);Current(A)
8.25000e-06;-0.0004217173956690271
8.25025e-06;-0.00040150705874936014
8.25050e-06;-0.0003810233121552506
8.25075e-06;-0.00035674283041628094
8.25100e-06;-0.00033246234867731126
8.25125e-06;-0.0003081266847260806
8.25150e-06;-0.0002830247265840193
8.25175e-06;-0.00025792276844195796
8.25200e-06;-0.00023282081030006675
8.25225e-06;-0.0002077253087330304
8.25250e-06;-0.00018263473434636774
8.25275e-06;-0.0001575441599598751
8.25300e-06;-0.00013251312038806314
8.25325e-06;-0.00010834889415370739
8.25350e-06;-8.47832995971947e-05
8.25375e-06;-6.185065393114049e-05
8.25400e-06;-3.964588945306322e-05
8.25425e-06;-1.8322507168792266e-05
8.25450e-06;1.95929829070611e-06
8.25475e-06;2.1039358757561608e-05
8.25500e-06;3.875708441479593e-05
8.25525e-06;5.494410772061275e-05
8.25550e-06;6.941071390964298e-05
8.25575e-06;8.199107579059751e-05
8.25600e-06;9.260731026903102e-05
8.25625e-06;0.00010123664294708665
8.25650e-06;0.00010786134427109413
8.25675e-06;0.00011246371427996334
8.25700e-06;0.00011502580786760493
8.25725e-06;0.00011552478537599411
8.25750e-06;0.00011392446179914247
8.25775e-06;0.0001102036316109141
8.25800e-06;0.000104396153965901
8.25825e-06;9.657042409484548e-05
8.25850e-06;8.679798795523227e-05
8.25875e-06;7.515041284367468e-05
8.25900e-06;6.169910490017864e-05
8.25925e-06;4.651240576670707e-05
8.25950e-06;2.965029957355141e-05
8.25975e-06;1.1182132016314844e-05
8.26000e-06;-8.788237844933701e-06
8.26025e-06;-3.0135343225826204e-05
8.26050e-06;-5.273173778751683e-05
8.26075e-06;-7.644997568039208e-05
8.26100e-06;-0.00010116272991587841
8.26125e-06;-0.00012676582549832823
8.26150e-06;-0.00015337048092991176
8.26175e-06;-0.00018004950191954948
8.26200e-06;-0.00020776120885385846
8.26225e-06;-0.00023547291578835522
8.26250e-06;-0.000263184622722852
8.26275e-06;-0.00029073720974740586
8.26300e-06;-0.0003181683682293699
8.26325e-06;-0.000345599526711334
8.26350e-06;-0.00037289490924509444
8.26375e-06;-0.0003983048233325986
8.26400e-06;-0.00042371473742010274
8.26425e-06;-0.0004489361990015877
8.26450e-06;-0.0004715406930079607
8.26475e-06;-0.0004939391704889987
8.26500e-06;-0.0005134767756014172
8.26525e-06;-0.0005328305938949306
8.26550e-06;-0.000549632235217603
8.26575e-06;-0.0005664338765402753
8.26600e-06;-0.0005830421365783413
8.26625e-06;-0.000596964984984456
8.26650e-06;-0.0006108878333905708
8.26675e-06;-0.0006248106817965912
8.26700e-06;-0.000638733530202706
8.26725e-06;-0.0006526563786088207
8.26750e-06;-0.0006665792270148411
8.26775e-06;-0.0006802940258006808
8.26800e-06;-0.0006911197194080112
8.26825e-06;-0.0007019454130152681
8.26850e-06;-0.0007127711066225984
8.26875e-06;-0.0007235968002299287
8.26900e-06;-0.0007344224938371858
8.26925e-06;-0.0007452481874445161
8.26950e-06;-0.0007559292942665514
8.26975e-06;-0.000764602579927029
8.27000e-06;-0.0007732758655875654
8.27025e-06;-0.0007819491512481018
8.27050e-06;-0.0007906224369085795
8.27075e-06;-0.0007992957225691159
8.27100e-06;-0.0008079690082296523
8.27125e-06;-0.0008166422938901298
8.27150e-06;-0.0008253155795506662
8.27175e-06;-0.0008339888652112026
8.27200e-06;-0.0008426621508716803
8.27225e-06;-0.0008513354365322167
8.27250e-06;-0.0008584761338358099
8.27275e-06;-0.0008644472730921665
8.27300e-06;-0.0008704184123485635
8.27325e-06;-0.0008763895516049605
8.27350e-06;-0.0008823606908613575
8.27375e-06;-0.0008883318301177141
8.27400e-06;-0.0008943029693741111
8.27425e-06;-0.0009002741086305081
8.27450e-06;-0.0009062452478868646
8.27475e-06;-0.0009122163871432617
8.27500e-06;-0.0009181875263996587
8.27525e-06;-0.0009236172336401526
8.27550e-06;-0.0009215282823968931
8.27575e-06;-0.0009194393311536335
8.27600e-06;-0.0009173503799103881
8.27625e-06;-0.0009152614286671286
8.27650e-06;-0.000913172477423869
8.27675e-06;-0.0009110835261806236
8.27700e-06;-0.0009089945749373641
8.27725e-06;-0.0009069056236941045
8.27750e-06;-0.0009048166724508591
8.27775e-06;-0.0009027277212075996
8.27800e-06;-0.0008998121335286039
8.27825e-06;-0.0008854173631099666
8.27850e-06;-0.0008710225926912318
8.27875e-06;-0.0008566278222724969
8.27900e-06;-0.0008422330518538596
8.27925e-06;-0.0008278382814351248
8.27950e-06;-0.00081344351101639
8.27975e-06;-0.0007990487405977526
8.28000e-06;-0.0007846539701790178
8.28025e-06;-0.000770259199760283
8.28050e-06;-0.0007558644293416458
8.28075e-06;-0.0007410634502727062
8.28100e-06;-0.0007206216076686163
8.28125e-06;-0.000700179765064665
8.28150e-06;-0.0006797379224605752
8.28175e-06;-0.0006592960798564853
8.28200e-06;-0.0006388542372523954
8.28225e-06;-0.0006181475391581617
8.28250e-06;-0.0005972387229485908
8.28275e-06;-0.0005763299067390198
8.28300e-06;-0.0005554210905295906
8.28325e-06;-0.0005345122743200196
8.28350e-06;-0.0005137253781360588
8.28375e-06;-0.0004946315385292972
8.28400e-06;-0.00047553769892240606
8.28425e-06;-0.00045658436528018344
8.28450e-06;-0.0004395821840138642
8.28475e-06;-0.00042273507012617503
8.28500e-06;-0.0004080413173800773
8.28525e-06;-0.00039352704744656536
8.28550e-06;-0.0003815051864074633
8.28575e-06;-0.0003696656380915943
8.28600e-06;-0.0003603577965541371
8.28625e-06;-0.00035123969491145595
8.28650e-06;-0.0003447564383274226
8.28675e-06;-0.00033847177011910756
8.28700e-06;-0.0003349448224251963
8.28725e-06;-0.0003316176938004628
8.28750e-06;-0.00033106537585797204
8.28775e-06;-0.0003307005876451366
8.28800e-06;-0.0003329399527758071
8.28825e-06;-0.00033535743610566617
8.28850e-06;-0.0003402483784696825
8.28875e-06;-0.0003453089209526948
8.28900e-06;-0.0003527246351606812
8.28925e-06;-0.00036029666014863044
8.28950e-06;-0.0003700393129131744
8.28975e-06;-0.0003799459727720946
8.29000e-06;-0.00039213013617237706
8.29025e-06;-0.0004043142995726595
8.29050e-06;-0.0004166558301225152
8.29075e-06;-0.0004311826578489299
8.29100e-06;-0.00044570948557544305
8.29125e-06;-0.000460365995639223
8.29150e-06;-0.00047682335452229734
8.29175e-06;-0.0004932807134054831
8.29200e-06;-0.000509738072288669
8.29225e-06;-0.0005261954311717432
8.29250e-06;-0.000542652790054929
8.29275e-06;-0.0005590689535970395
8.29300e-06;-0.0005754536799025054
8.29325e-06;-0.0005918384062080822
8.29350e-06;-0.0006082231325136591
8.29375e-06;-0.000624607858819125
8.29400e-06;-0.0006408452103282869
8.29425e-06;-0.0006550360246309003
8.29450e-06;-0.0006692268389334175
8.29475e-06;-0.0006832251841147975
8.29500e-06;-0.0006945507845166064
8.29525e-06;-0.0007058763849183383
8.29550e-06;-0.000716947430857169
8.29575e-06;-0.0007244835767156356
8.29600e-06;-0.0007320197225740511
8.29625e-06;-0.0007392791790822124
8.29650e-06;-0.0007426963568289134
8.29675e-06;-0.0007461135345755912
8.29700e-06;-0.0007492444485220946
8.29725e-06;-0.0007484001269979873
8.29750e-06;-0.0007475558054738857
8.29775e-06;-0.0007464273146419258
8.29800e-06;-0.0007413526737507101
8.29825e-06;-0.0007362780328595287
8.29850e-06;-0.0007309444725675887
8.29875e-06;-0.0007220153979809092
8.29900e-06;-0.0007130863233942296
8.29925e-06;-0.0007039266708734075
8.29950e-06;-0.0006915650711201072
8.29975e-06;-0.0006792034713668068
8.30000e-06;-0.0006665929145888147
8.30025e-06;-0.0006505251872045725
8.30050e-06;-0.0006344574598203303
8.30075e-06;-0.0006183897324361971
8.30100e-06;-0.0006023220050519549
8.30125e-06;-0.0005862542776677127
8.30150e-06;-0.0005687484229076074
8.30175e-06;-0.000550145095731497
8.30200e-06;-0.0005315417685553867
8.30225e-06;-0.0005129384413794024
8.30250e-06;-0.0004943351142032922
8.30275e-06;-0.00047575386480385573
8.30300e-06;-0.00045747920101167736
8.30325e-06;-0.0004392045372193751
8.30350e-06;-0.0004209298734270729
8.30375e-06;-0.00040265520963489454
8.30400e-06;-0.0003859535589983257
8.30425e-06;-0.00037045231562556747
8.30450e-06;-0.0003549510722529143
8.30475e-06;-0.00033944982888015605
8.30500e-06;-0.0003241706971696119
8.30525e-06;-0.0003119759448257642
8.30550e-06;-0.0002998914944846625
8.30575e-06;-0.0002893387657031859
8.30600e-06;-0.00027888202123802473
8.30625e-06;-0.0002697581741166519
8.30650e-06;-0.00026074610309322543
8.30675e-06;-0.00025328622382252125
8.30700e-06;-0.00024594797792773754
8.30725e-06;-0.0002402988080207637
8.30750e-06;-0.00023474409848154554
8.30775e-06;-0.00023050112379886323
8.30800e-06;-0.0002263392087079581
8.30825e-06;-0.00022330293704364413
8.30850e-06;-0.000220353180980405
8.30875e-06;-0.0002186048338493293
8.30900e-06;-0.00021694474327649504
8.30925e-06;-0.00021651023763969273
8.30950e-06;-0.00021615607996256254
8.30975e-06;-0.00021691768354987128
8.31000e-06;-0.0002176792871371749
8.31025e-06;-0.00021852107511303702
8.31050e-06;-0.00022047635290397776
8.31075e-06;-0.00022243163069490528
8.31100e-06;-0.00022447459099002076
8.31125e-06;-0.00022773516455276338
8.31150e-06;-0.00023099573811548392
8.31175e-06;-0.00023425631167822656
8.31200e-06;-0.00023751688524096919
8.31225e-06;-0.00024077745880368974
8.31250e-06;-0.00024440342567775116
8.31275e-06;-0.00024830823369407574
8.31300e-06;-0.00025221304171037386
8.31325e-06;-0.00025611784972669844
8.31350e-06;-0.0002600226577430231
8.31375e-06;-0.00026390171240153157
8.31400e-06;-0.0002674231400689209
8.31425e-06;-0.0002709445677363102
8.31450e-06;-0.00027446599540367566
8.31475e-06;-0.000277987423071065
8.31500e-06;-0.0002806225156381423
8.31525e-06;-0.0002825812228304238
8.31550e-06;-0.0002845399300227185
8.31575e-06;-0.0002864986372150133
8.31600e-06;-0.000288299291367257
8.31625e-06;-0.00028790512363946756
8.31650e-06;-0.0002874096754102186
8.31675e-06;-0.0002855077837456103
8.31700e-06;-0.000283506534354835
8.31725e-06;-0.00028012554237067625
8.31750e-06;-0.0002766266677420562
8.31775e-06;-0.00027149080209288255
8.31800e-06;-0.0002662366266244429
8.31825e-06;-0.00025933952812323
8.31850e-06;-0.0002523385870494546
8.31875e-06;-0.00024389562404161701
8.31900e-06;-0.00023536090594346442
8.31925e-06;-0.00022555202013682508
8.31950e-06;-0.00021565065734375802
8.31975e-06;-0.0002044651021487878
8.32000e-06;-0.00019319768482098102
8.32025e-06;-0.00018079347948521122
8.32050e-06;-0.0001683273533564468
8.32075e-06;-0.0001550013569506264
8.32100e-06;-0.00014162311863296146
8.32125e-06;-0.00012751941694554353
8.32150e-06;-0.00011341571525822117
8.32175e-06;-9.927587927636957e-05
8.32200e-06;-8.463426022176897e-05
8.32225e-06;-6.999264116726758e-05
8.32250e-06;-5.5371831597360386e-05
8.32275e-06;-4.0766902286625077e-05
8.32300e-06;-2.6184020473298894e-05
8.32325e-06;-1.1927170166373974e-05
8.32350e-06;2.030307264648019e-06
8.32375e-06;1.5633038294213924e-05
8.32400e-06;2.880575077212533e-05
8.32425e-06;4.1455269820404886e-05
8.32450e-06;5.34864384089329e-05
8.32475e-06;6.480411055057123e-05
8.32500e-06;7.531728424633071e-05
8.32525e-06;8.501916453264595e-05
8.32550e-06;9.428448537380616e-05
8.32575e-06;0.00010358779153499568
8.32600e-06;0.00011341858525007779
8.32625e-06;0.00012327814092659312
8.32650e-06;0.00013353710291939708
8.32675e-06;0.00014380033421622165
8.32700e-06;0.00015412285169871554
8.32725e-06;0.00016446880954206977
8.32750e-06;0.00017514027467585225
8.32775e-06;0.00018588647486841213
8.32800e-06;0.00019767049212906417
8.32825e-06;0.00020952307582967254
8.32850e-06;0.00022232781535605877
8.32875e-06;0.00023513255488253175
8.32900e-06;0.00024798810279252215
8.32925e-06;0.00026154920721672807
8.32950e-06;0.0002751103116410259
8.32975e-06;0.0002887700165417699
8.33000e-06;0.00030379894840185914
8.33025e-06;0.0003188278802620503
8.33050e-06;0.0003338568121222414
8.33075e-06;0.0003488857439823307
8.33100e-06;0.0003639146758425218
8.33125e-06;0.0003789745125436363
8.33150e-06;0.0003944635129049441
8.33175e-06;0.0004099525132663569
8.33200e-06;0.00042544151362776964
8.33225e-06;0.0004409305139890774
8.33250e-06;0.00045641951435049016
8.33275e-06;0.0004717954536310133
8.33300e-06;0.00048560135708955123
8.33325e-06;0.0004994072605479956
8.33350e-06;0.0005132131640065336
8.33375e-06;0.0005270190674650716
8.33400e-06;0.000540824970923516
8.33425e-06;0.0005546308743820539
8.33450e-06;0.0005664566373064206
8.33475e-06;0.0005767713034709599
8.33500e-06;0.0005870859696355689
8.33525e-06;0.000597400635800178
8.33550e-06;0.0006077153019647172
8.33575e-06;0.0006180299681293264
8.33600e-06;0.0006284153324615517
8.33625e-06;0.0006397824551041706
8.33650e-06;0.0006511495777468665
8.33675e-06;0.0006625167003895624
8.33700e-06;0.0006738838230321813
8.33725e-06;0.0006852509456748772
8.33750e-06;0.000696618068317573
8.33775e-06;0.000707985190960192
8.33800e-06;0.0007193523136028878
8.33825e-06;0.0007307194362455837
8.33850e-06;0.0007420865588882026
8.33875e-06;0.0007534536815308985
8.33900e-06;0.0007648208041735944
8.33925e-06;0.000778163005659516
8.33950e-06;0.0007930124411975695
8.33975e-06;0.000807861876735623
8.34000e-06;0.000822711312273576
8.34025e-06;0.0008375607478116295
8.34050e-06;0.0008524101833496829
8.34075e-06;0.0008672596188876358
8.34100e-06;0.0008821090544256894
8.34125e-06;0.0008969584899637429
8.34150e-06;0.0009118079255017964
8.34175e-06;0.0009266573610397493
8.34200e-06;0.0009415067965778028
8.34225e-06;0.0009562399655283847
8.34250e-06;0.0009693585850156062
8.34275e-06;0.0009824772045029166
8.34300e-06;0.0009955958239902271
8.34325e-06;0.0010087144434774487
8.34350e-06;0.001021833062964759
8.34375e-06;0.0010349516824520696
8.34400e-06;0.0010480703019392912
8.34425e-06;0.0010611889214266015
8.34450e-06;0.001074307540913912
8.34475e-06;0.0010874261604011336
8.34500e-06;0.001100544779888444
8.34525e-06;0.0011132991792751434
8.34550e-06;0.0011209957939534196
8.34575e-06;0.001128692408631748
8.34600e-06;0.0011363890233100761
8.34625e-06;0.0011440856379883522
8.34650e-06;0.0011517822526666804
8.34675e-06;0.0011594788673450086
8.34700e-06;0.0011671754820232847
8.34725e-06;0.0011748720967016128
8.34750e-06;0.0011825687113799412
8.34775e-06;0.0011902653260582173
8.34800e-06;0.0011979619407365455
8.34825e-06;0.001205520520788735
8.34850e-06;0.0012111622669801478
8.34875e-06;0.0012168040131715992
8.34900e-06;0.0012224457593630503
8.34925e-06;0.0012280875055544632
8.34950e-06;0.0012337292517459143
8.34975e-06;0.0012393709979373656
8.35000e-06;0.0012450127441287785
8.35025e-06;0.0012506544903202296
8.35050e-06;0.001256296236511681
8.35075e-06;0.001261937982703132
8.35100e-06;0.001267579728894545
8.35125e-06;0.0012732214750859963
8.35150e-06;0.0012787653065918772
8.35175e-06;0.0012829494344487543
8.35200e-06;0.00128713356230566
8.35225e-06;0.0012913176901625657
8.35250e-06;0.0012955018180194429
8.35275e-06;0.0012996859458763487
8.35300e-06;0.0013038700737332543
8.35325e-06;0.0013080542015901316
8.35350e-06;0.0013122383294470372
8.35375e-06;0.0013164224573039428
8.35400e-06;0.0013206065851608202
8.35425e-06;0.0013247907130177258
8.35450e-06;0.0013289748408746313
8.35475e-06;0.0013328513490515636
8.35500e-06;0.0013324560608262994
8.35525e-06;0.001332060772601035
8.35550e-06;0.0013316654843757735
8.35575e-06;0.0013312701961505093
8.35600e-06;0.0013308749079252449
8.35625e-06;0.0013296113476967929
8.35650e-06;0.0013162904274839477
8.35675e-06;0.0013029695072711023
8.35700e-06;0.0012896485870583473
8.35725e-06;0.001276327666845502
8.35750e-06;0.0012630067466326566
8.35775e-06;0.0012488855100714375
8.35800e-06;0.001223650587615193
8.35825e-06;0.0011984156651589483
8.35850e-06;0.0011726928133079513
8.35875e-06;0.0011401942732616368
8.35900e-06;0.0011076957332153223
8.35925e-06;0.0010747674090716194
8.35950e-06;0.0010358708381583894
8.35975e-06;0.0009969742672448958
8.36000e-06;0.0009576871171688204
8.36025e-06;0.0009129761442018762
8.36050e-06;0.000868265171234629
8.36075e-06;0.0008232846369704433
8.36100e-06;0.0007745608084575983
8.36125e-06;0.000725836979944423
8.36150e-06;0.0006771131514312478
8.36175e-06;0.0006282553679456974
8.36200e-06;0.0005775374031772877
8.36225e-06;0.000526819438408878
8.36250e-06;0.00047610147364081194
8.36275e-06;0.0004254560924167794
8.36300e-06;0.0003758186510098216
8.36325e-06;0.0003263234676023672
8.36350e-06;0.0002788037664185936
8.36375e-06;0.00023142314923740016
8.36400e-06;0.0001860932558466089
8.36425e-06;0.00014256156655271485
8.36450e-06;0.00010115510991284409
8.36475e-06;6.220085823143357e-05
8.36500e-06;2.6023378990137712e-05
8.36525e-06;-7.101138358959447e-06
8.36550e-06;-3.7126090081021286e-05
8.36575e-06;-6.421851007360918e-05
8.36600e-06;-8.844618855992859e-05
8.36625e-06;-0.00010972833103069106
8.36650e-06;-0.00012796481840978072
8.36675e-06;-0.0001430556053023403
8.36700e-06;-0.00015490212638465627
8.36725e-06;-0.00016343619632849243
8.36750e-06;-0.000168733398101814
8.36775e-06;-0.0001710031374983665
8.36800e-06;-0.00017039265977353193
8.36825e-06;-0.00016695611377388442
8.36850e-06;-0.00016073554487015966
8.36875e-06;-0.00015177306532750337
8.36900e-06;-0.0001401117073650668
8.36925e-06;-0.00012581350731683598
8.36950e-06;-0.0001090305976087646
8.36975e-06;-8.99988856348371e-05
8.37000e-06;-6.891534643466415e-05
8.37025e-06;-4.591861998529875e-05
8.37050e-06;-2.11397721154697e-05
8.37075e-06;5.290124822952678e-06
8.37100e-06;3.32394031452015e-05
8.37125e-06;6.256450602196078e-05
8.37150e-06;9.306546093543349e-05
8.37175e-06;0.00012450717089892635
8.37200e-06;0.00015685041775656203
8.37225e-06;0.00018923775354797012
8.37250e-06;0.00022223733543792724
8.37275e-06;0.00025523691732810795
8.37300e-06;0.00028823649921828865
8.37325e-06;0.0003204902287872063
8.37350e-06;0.00035217477904433985
8.37375e-06;0.0003838593293014734
8.37400e-06;0.0004153445172706186
8.37425e-06;0.0004440612376784473
8.37450e-06;0.00047255715075880103
8.37475e-06;0.0004979867972431826
8.37500e-06;0.0005231465631090979
8.37525e-06;0.0005445586004220824
8.37550e-06;0.0005657154980674879
8.37575e-06;0.0005833293690905468
8.37600e-06;0.0006006943311373393
8.37625e-06;0.0006146027897781382
8.37650e-06;0.0006282425662356794
8.37675e-06;0.000638151256352979
8.37700e-06;0.0006477774226512642
8.37725e-06;0.0006534802891254114
8.37750e-06;0.0006589267647108683
8.37775e-06;0.0006608128384436233
8.37800e-06;0.0006624633228420813
8.37825e-06;0.0006608422685894661
8.37850e-06;0.0006589901313543286
8.37875e-06;0.0006539290334455806
8.37900e-06;0.0006485960594808539
8.37925e-06;0.0006394876470909
8.37950e-06;0.0006303792347010078
8.37975e-06;0.0006210096233437327
8.38000e-06;0.000608012842191991
8.38025e-06;0.0005950160610403373
8.38050e-06;0.000581809498297413
8.38075e-06;0.0005656897791248955
8.38100e-06;0.0005495700599524873
8.38125e-06;0.0005332813924490159
8.38150e-06;0.00051464660432616
8.38175e-06;0.0004960118162034303
8.38200e-06;0.00047737702808057434
8.38225e-06;0.0004587422399577184
8.38250e-06;0.00043967648108608407
8.38275e-06;0.000420281837222628
8.38300e-06;0.0004008871933591718
8.38325e-06;0.00038149254949584714
8.38350e-06;0.00036218389429698106
8.38375e-06;0.0003440693306760213
8.38400e-06;0.00032595476705518433
8.38425e-06;0.0003079735487620918
8.38450e-06;0.0002918440458519025
8.38475e-06;0.00027585932391109574
8.38500e-06;0.00026188511971738976
8.38525e-06;0.0002479786496076844
8.38550e-06;0.00023501277672388773
8.38575e-06;0.00022204690384017888
8.38600e-06;0.0002090077709706405
8.38625e-06;0.00019495130480005386
8.38650e-06;0.00018089483862956246
8.38675e-06;0.00016682210609307265
8.38700e-06;0.00015252348877712837
8.38725e-06;0.00013821313881762646
8.38750e-06;0.00012369547604038926
8.38775e-06;0.00010850421085704441
8.38800e-06;9.246768425642474e-05
8.38825e-06;7.568784309644254e-05
8.38850e-06;5.82983032795035e-05
8.38875e-06;4.04326330754437e-05
8.38900e-06;2.22221656757534e-05
8.38925e-06;3.754190723463838e-06
8.38950e-06;-1.5074914995023386e-05
8.38975e-06;-3.449570670681537e-05
8.39000e-06;-5.4565017654748245e-05
8.39025e-06;-7.517750400677539e-05
8.39050e-06;-9.629907781584404e-05
8.39075e-06;-0.0001174502217131896
8.39100e-06;-0.0001390119940760378
8.39125e-06;-0.0001605737664390321
8.39150e-06;-0.00018213553880202637
8.39175e-06;-0.00020369731116487457
8.39200e-06;-0.00022525908352786887
8.39225e-06;-0.00024682085589086315
8.39250e-06;-0.0002683381605412065
8.39275e-06;-0.0002892380674509206
8.39300e-06;-0.00031013797436063475
8.39325e-06;-0.00033092938800021604
8.39350e-06;-0.0003502141972411567
