Time(s);Current(A)
1.32500e-05;0.015068541288853458
1.32503e-05;0.01506815342882123
1.32505e-05;0.015067765568789
1.32508e-05;0.015067377708756774
1.32510e-05;0.015074020773153856
1.32513e-05;0.015085352962961405
1.32515e-05;0.015096685152768878
1.32518e-05;0.015108017342576425
1.32520e-05;0.015119349532383974
1.32523e-05;0.015130681722191446
1.32525e-05;0.015143331621275994
1.32528e-05;0.01516785334466562
1.32530e-05;0.015192375068055078
1.32533e-05;0.015216896791444704
1.32535e-05;0.01524141851483433
1.32538e-05;0.015265940238223955
1.32540e-05;0.015290461961613416
1.32543e-05;0.015314983685003041
1.32545e-05;0.015339505408392667
1.32548e-05;0.015364027131782126
1.32550e-05;0.015392708566130632
1.32553e-05;0.015424164231173158
1.32555e-05;0.01545561989621547
1.32558e-05;0.015487075561257996
1.32560e-05;0.015518531226300522
1.32563e-05;0.015549986891342835
1.32565e-05;0.01558144255638536
1.32568e-05;0.015612898221427886
1.32570e-05;0.0156443538864702
1.32573e-05;0.015675441288259685
1.32575e-05;0.015703210843907852
1.32578e-05;0.01573098039955583
1.32580e-05;0.015758749955204
1.32583e-05;0.01578651951085217
1.32585e-05;0.015809981818029485
1.32588e-05;0.015830571497509084
1.32590e-05;0.015851161176988683
1.32593e-05;0.015871750856468143
1.32595e-05;0.01589155025066866
1.32598e-05;0.015904229616078097
1.32600e-05;0.015916908981487444
1.32603e-05;0.015929588346896877
1.32605e-05;0.015942267712306314
1.32608e-05;0.01595494707771566
1.32610e-05;0.015967626443125094
1.32613e-05;0.015980305808534528
1.32615e-05;0.015992985173943878
1.32618e-05;0.01600566453935331
1.32620e-05;0.016018343904762745
1.32623e-05;0.01603102327017218
1.32625e-05;0.01604370263558153
1.32628e-05;0.016055914139515313
1.32630e-05;0.016062378598010057
1.32633e-05;0.01606884305650476
1.32635e-05;0.016075307514999505
1.32638e-05;0.016081771973494252
1.32640e-05;0.016088236431988954
1.32643e-05;0.0160947008904837
1.32645e-05;0.016101165348978444
1.32648e-05;0.016107629807473146
1.32650e-05;0.016114094265967892
1.32653e-05;0.01612055872446264
1.32655e-05;0.01612702318295734
1.32658e-05;0.016133487641452088
1.32660e-05;0.016139823246136262
1.32663e-05;0.01614374397066464
1.32665e-05;0.016147664695193045
1.32668e-05;0.016151585419721448
1.32670e-05;0.016155506144249827
1.32673e-05;0.016159426868778234
1.32675e-05;0.01616293208387649
1.32678e-05;0.016165305264190397
1.32680e-05;0.01616767844450432
1.32683e-05;0.016170051624818244
1.32685e-05;0.016172424805132153
1.32688e-05;0.016174797985446077
1.32690e-05;0.01617429737645429
1.32693e-05;0.016170761502839484
1.32695e-05;0.016167225629224655
1.32698e-05;0.016163689755609827
1.32700e-05;0.016160153881995022
1.32703e-05;0.016156618008380193
1.32705e-05;0.016153082134765365
1.32708e-05;0.016137338240915594
1.32710e-05;0.016121425233564617
1.32713e-05;0.016105512226213533
1.32715e-05;0.01608959921886245
1.32718e-05;0.016073686211511472
1.32720e-05;0.016057773204160384
1.32723e-05;0.016034831953941002
1.32725e-05;0.016004467550987892
1.32728e-05;0.015974103148034578
1.32730e-05;0.01594373874508126
1.32733e-05;0.01591337434212815
1.32735e-05;0.015883009939174835
1.32738e-05;0.015852645536221517
1.32740e-05;0.015822281133268407
1.32743e-05;0.015791916730315093
1.32745e-05;0.015751934178639272
1.32748e-05;0.015711818390060556
1.32750e-05;0.01567170260148157
1.32753e-05;0.01563158681290258
1.32755e-05;0.015591471024323867
1.32758e-05;0.01555135523574488
1.32760e-05;0.015511239447165892
1.32763e-05;0.015471123658587176
1.32765e-05;0.015430674659891095
1.32768e-05;0.01538987372833805
1.32770e-05;0.01534907279678528
1.32773e-05;0.01530948331877982
1.32775e-05;0.015271173364673013
1.32778e-05;0.015232863410566466
1.32780e-05;0.015199059323105814
1.32783e-05;0.015170014282386603
1.32785e-05;0.015140969241667588
1.32788e-05;0.015111924200948377
1.32790e-05;0.015082879160229165
1.32793e-05;0.015053834119509954
1.32795e-05;0.015024789078790941
1.32798e-05;0.01499574403807173
1.32800e-05;0.014973921688989143
1.32803e-05;0.014959727867290813
1.32805e-05;0.014945534045592386
1.32808e-05;0.014931340223893958
1.32810e-05;0.014917146402195627
1.32813e-05;0.0149029525804972
1.32815e-05;0.014888758758798772
1.32818e-05;0.014874564937100442
1.32820e-05;0.01486827976014917
1.32823e-05;0.014870347606705676
1.32825e-05;0.014872415453262167
1.32828e-05;0.014874483299818674
1.32830e-05;0.014876551146375181
1.32833e-05;0.014878618992931674
1.32835e-05;0.01488068683948818
1.32838e-05;0.014882754686044686
1.32840e-05;0.014884822532601179
1.32843e-05;0.014886890379157684
1.32845e-05;0.014888958225714191
1.32848e-05;0.014891026072270684
1.32850e-05;0.014893093918827191
1.32853e-05;0.014895161765383696
1.32855e-05;0.01489722961194019
1.32858e-05;0.014902281432848918
1.32860e-05;0.014910484894615168
1.32863e-05;0.014918688356381363
1.32865e-05;0.014926891818147613
1.32868e-05;0.014935095279913864
1.32870e-05;0.014943298741680058
1.32873e-05;0.01495150220344631
1.32875e-05;0.01495970566521256
1.32878e-05;0.014967909126978811
1.32880e-05;0.014976112588745006
1.32883e-05;0.014984316050511256
1.32885e-05;0.014992519512277506
1.32888e-05;0.015000722974043701
1.32890e-05;0.015008926435809951
1.32893e-05;0.015017129897576201
1.32895e-05;0.01502252044392215
1.32898e-05;0.015024940019971003
1.32900e-05;0.015027359596019856
1.32903e-05;0.015029779172068693
1.32905e-05;0.015032198748117545
1.32908e-05;0.015034618324166398
1.32910e-05;0.015037037900215234
1.32913e-05;0.015039457476264086
1.32915e-05;0.015041877052312939
1.32918e-05;0.015044296628361776
1.32920e-05;0.015044837379463058
1.32923e-05;0.015043393736340145
1.32925e-05;0.015041950093217243
1.32928e-05;0.01504050645009433
1.32930e-05;0.015039062806971417
1.32933e-05;0.015037619163848515
1.32935e-05;0.015036175520725602
1.32938e-05;0.015034731877602691
1.32940e-05;0.015033288234479789
1.32943e-05;0.015031844591356876
1.32945e-05;0.015029708453968576
1.32948e-05;0.015026376849011957
1.32950e-05;0.015022555106088591
1.32953e-05;0.015018733363165226
1.32955e-05;0.015014911620241886
1.32958e-05;0.01501108987731852
1.32960e-05;0.015007268134395155
1.32963e-05;0.01500344639147179
1.32965e-05;0.014999624648548449
1.32968e-05;0.014995802905625084
1.32970e-05;0.014991981162701718
1.32973e-05;0.014988159419778378
1.32975e-05;0.014984337676855013
1.32978e-05;0.014981237472344509
1.32980e-05;0.014978147263057382
1.32983e-05;0.014975057053770235
1.32985e-05;0.014971966844483086
1.32988e-05;0.014968876635195959
1.32990e-05;0.014965786425908812
1.32993e-05;0.014962696216621664
1.32995e-05;0.014959606007334538
1.32998e-05;0.01495651579804739
1.33000e-05;0.014953425588760241
1.33003e-05;0.014950335379473115
1.33005e-05;0.014950461925226467
1.33008e-05;0.014953985972238598
1.33010e-05;0.014957510019250707
1.33013e-05;0.01496103406626284
1.33015e-05;0.014964558113274972
1.33018e-05;0.014968082160287081
1.33020e-05;0.014971606207299213
1.33023e-05;0.014975130254311346
1.33025e-05;0.014978654301323453
1.33028e-05;0.014982178348335587
1.33030e-05;0.014985702395347718
1.33033e-05;0.014989226442359827
1.33035e-05;0.014995717825864481
1.33038e-05;0.015005343277503781
1.33040e-05;0.015014968729143017
1.33043e-05;0.015024594180782317
1.33045e-05;0.015034219632421617
1.33048e-05;0.015043845084060916
1.33050e-05;0.01505347053570015
1.33053e-05;0.015063095987339452
1.33055e-05;0.015072721438978752
1.33058e-05;0.015082346890617986
1.33060e-05;0.015091972342257285
1.33063e-05;0.015101597793896587
1.33065e-05;0.01511095692496795
1.33068e-05;0.015120034771187615
1.33070e-05;0.01512911261740728
1.33073e-05;0.015138190463626884
1.33075e-05;0.01514726830984655
1.33078e-05;0.015156346156066215
1.33080e-05;0.015165424002285818
1.33083e-05;0.015174501848505483
1.33085e-05;0.015183579694725148
1.33088e-05;0.01519265754094475
1.33090e-05;0.015196652061663849
1.33093e-05;0.015200576164823502
1.33095e-05;0.01520450026798313
1.33098e-05;0.015208424371142783
1.33100e-05;0.015212348474302436
1.33103e-05;0.015216272577462064
1.33105e-05;0.015220196680621717
1.33108e-05;0.01522412078378137
1.33110e-05;0.015228044886940996
1.33113e-05;0.01522933442514368
1.33115e-05;0.015227841364843252
1.33118e-05;0.015226348304542834
1.33120e-05;0.015224855244242406
1.33123e-05;0.015223362183941979
1.33125e-05;0.015221869123641561
1.33128e-05;0.015220376063341133
1.33130e-05;0.015218883003040706
1.33133e-05;0.015217389942740278
1.33135e-05;0.01521589688243986
1.33138e-05;0.015214403822139433
1.33140e-05;0.015212910761839005
1.33143e-05;0.015211417701538587
1.33145e-05;0.01520992464123816
1.33148e-05;0.015208431580937732
1.33150e-05;0.015206938520637314
1.33153e-05;0.015202709165635075
1.33155e-05;0.015198441905683513
1.33158e-05;0.01519417464573198
1.33160e-05;0.015189907385780417
1.33163e-05;0.015185640125828855
1.33165e-05;0.01518137286587732
1.33168e-05;0.015177105605925757
1.33170e-05;0.015172838345974195
1.33173e-05;0.015168571086022662
1.33175e-05;0.0151643038260711
1.33178e-05;0.015160036566119537
1.33180e-05;0.015155769306168002
1.33183e-05;0.01515150204621644
1.33185e-05;0.015147234786264877
1.33188e-05;0.015142967526313344
1.33190e-05;0.015137543867000796
1.33193e-05;0.015130898831413936
1.33195e-05;0.015124253795827122
1.33198e-05;0.015117608760240262
1.33200e-05;0.015110963724653405
1.33203e-05;0.01510431868906659
1.33205e-05;0.015097673653479731
1.33208e-05;0.015091028617892872
1.33210e-05;0.015084383582306057
1.33213e-05;0.015077738546719198
1.33215e-05;0.015064553773376793
1.33218e-05;0.015051278407296358
1.33220e-05;0.015038003041216013
1.33223e-05;0.01502472767513558
1.33225e-05;0.015011452309055144
1.33228e-05;0.0149981769429748
1.33230e-05;0.014984901576894364
1.33233e-05;0.014971626210813929
1.33235e-05;0.014958350844733586
1.33238e-05;0.014942481614484313
1.33240e-05;0.014923872773455232
1.33243e-05;0.014905263932426277
1.33245e-05;0.014886655091397197
1.33248e-05;0.014868046250368116
1.33250e-05;0.014849437409339162
1.33253e-05;0.014830828568310082
1.33255e-05;0.014812219727281
1.33258e-05;0.014793610886252046
1.33260e-05;0.014775002045222967
1.33263e-05;0.014756393204193885
1.33265e-05;0.014738568395850382
1.33268e-05;0.01472157167419796
1.33270e-05;0.01470457495254554
1.33273e-05;0.014687578230893235
1.33275e-05;0.014670581509240813
1.33278e-05;0.014653584787588393
1.33280e-05;0.014636588065936085
1.33283e-05;0.014619591344283665
1.33285e-05;0.014602594622631243
1.33288e-05;0.014585597900978938
1.33290e-05;0.014568601179326518
1.33293e-05;0.014554420343256564
1.33295e-05;0.01454321361453995
1.33298e-05;0.014532006885823259
1.33300e-05;0.014520800157106566
1.33303e-05;0.014509593428389875
1.33305e-05;0.01449838669967326
1.33308e-05;0.014487179970956568
1.33310e-05;0.014475973242239877
1.33313e-05;0.014464766513523263
1.33315e-05;0.01445355978480657
1.33318e-05;0.014442353056089879
1.33320e-05;0.014431146327373265
1.33323e-05;0.014419939598656572
1.33325e-05;0.014408732869939881
1.33328e-05;0.014397526141223266
1.33330e-05;0.014387293769013076
1.33333e-05;0.014378090501418897
1.33335e-05;0.014368887233824781
1.33338e-05;0.014359683966230602
1.33340e-05;0.014350480698636425
1.33343e-05;0.014341277431042309
1.33345e-05;0.01433207416344813
1.33348e-05;0.014322870895853951
1.33350e-05;0.014313667628259835
1.33353e-05;0.014304464360665656
1.33355e-05;0.014295261093071478
1.33358e-05;0.014286057825477361
1.33360e-05;0.014276854557883184
1.33363e-05;0.014267651290289006
1.33365e-05;0.01425844802269489
1.33368e-05;0.014250319882378527
1.33370e-05;0.014243327279657662
1.33373e-05;0.014236334676936845
1.33375e-05;0.014229342074215981
1.33378e-05;0.014222349471495116
1.33380e-05;0.0142153568687743
1.33383e-05;0.014208364266053434
1.33385e-05;0.01420137166333257
1.33388e-05;0.014194379060611705
1.33390e-05;0.014187386457890888
1.33393e-05;0.014180393855170023
1.33395e-05;0.01417340125244916
1.33398e-05;0.01416987361220232
1.33400e-05;0.014170005627177271
1.33403e-05;0.014170137642152223
1.33405e-05;0.014170269657127173
1.33408e-05;0.014170401672102127
1.33410e-05;0.014170533687077078
1.33413e-05;0.014170665702052028
1.33415e-05;0.01417079771702698
1.33418e-05;0.014170929732001932
1.33420e-05;0.014171061746976884
1.33423e-05;0.014171193761951835
1.33425e-05;0.014171325776926787
1.33428e-05;0.01417559209000895
1.33430e-05;0.0141842250032408
1.33433e-05;0.014192857916472651
1.33435e-05;0.014201490829704441
1.33438e-05;0.01421012374293629
1.33440e-05;0.014218756656168141
1.33443e-05;0.014227389569399932
1.33445e-05;0.014236022482631781
1.33448e-05;0.014244655395863632
1.33450e-05;0.014253288309095422
1.33453e-05;0.014261921222327271
1.33455e-05;0.014270554135559122
1.33458e-05;0.014279187048790913
1.33460e-05;0.014288871645995398
1.33463e-05;0.014298570811816473
1.33465e-05;0.014308269977637483
1.33468e-05;0.014317969143458559
1.33470e-05;0.014327668309279635
1.33473e-05;0.014337367475100709
1.33475e-05;0.014347066640921719
1.33478e-05;0.014356765806742795
1.33480e-05;0.01436646497256387
1.33483e-05;0.01437616413838488
1.33485e-05;0.014385863304205956
1.33488e-05;0.01439556247002703
1.33490e-05;0.014404109587410013
1.33493e-05;0.014411439923914526
1.33495e-05;0.014418770260419038
1.33498e-05;0.014426100596923501
1.33500e-05;0.014433430933428013
1.33503e-05;0.014440761269932526
1.33505e-05;0.014448091606436989
1.33508e-05;0.0144554219429415
1.33510e-05;0.014462752279446014
1.33513e-05;0.014472193701583473
1.33515e-05;0.014483864829127982
1.33518e-05;0.014495535956672492
1.33520e-05;0.014507207084216921
1.33523e-05;0.01451887821176143
1.33525e-05;0.01453054933930594
1.33528e-05;0.014542220466850369
1.33530e-05;0.014553891594394878
1.33533e-05;0.014565562721939387
1.33535e-05;0.014579415895132519
1.33538e-05;0.014595573720920381
1.33540e-05;0.014611731546708242
1.33543e-05;0.014627889372495996
1.33545e-05;0.014644047198283858
1.33548e-05;0.01466020502407172
1.33550e-05;0.014676362849859473
1.33553e-05;0.014692520675647334
1.33555e-05;0.014708678501435197
1.33557e-05;0.01472483632722295
1.33560e-05;0.014740994153010811
1.33563e-05;0.014757151978798674
1.33565e-05;0.014773309804586536
1.33568e-05;0.014789467630374288
1.33570e-05;0.01480562545616215
1.33573e-05;0.01481827583405479
1.33575e-05;0.014827221684089287
1.33578e-05;0.014836167534123847
1.33580e-05;0.014845113384158405
1.33583e-05;0.014854059234192902
1.33585e-05;0.014863005084227462
1.33588e-05;0.01487195093426202
1.33590e-05;0.01488089678429652
1.33593e-05;0.014889842634331078
1.33595e-05;0.014898788484365636
1.33598e-05;0.014907734334400135
1.33600e-05;0.014916680184434693
1.33603e-05;0.014925626034469253
1.33605e-05;0.01493457188450375
1.33608e-05;0.014943517734538309
1.33610e-05;0.014944493864614198
1.33613e-05;0.014937052464196986
1.33615e-05;0.014929611063779722
1.33618e-05;0.014922169663362458
1.33620e-05;0.014914728262945246
1.33623e-05;0.014907286862527982
1.33625e-05;0.014899845462110718
1.33628e-05;0.014892404061693506
1.33630e-05;0.014884962661276242
1.33633e-05;0.014877521260858978
1.33635e-05;0.014870079860441766
1.33638e-05;0.014862638460024502
1.33640e-05;0.01485519705960724
1.33642e-05;0.014847755659190026
1.33645e-05;0.014836304931607662
1.33648e-05;0.01482061959680598
1.33650e-05;0.014804934262004299
1.33653e-05;0.014789248927202724
1.33655e-05;0.014773563592401041
1.33658e-05;0.01475787825759936
1.33660e-05;0.014742192922797786
1.33663e-05;0.014726507587996105
1.33665e-05;0.014710822253194422
1.33668e-05;0.014695136918392847
1.33670e-05;0.014679451583591166
1.33673e-05;0.014663766248789484
1.33675e-05;0.014648080913987909
1.33678e-05;0.014632395579186228
1.33680e-05;0.014618178210838577
1.33683e-05;0.014605511292501316
1.33685e-05;0.014592844374163971
1.33688e-05;0.014580177455826626
1.33690e-05;0.014567510537489366
1.33693e-05;0.014554843619152021
1.33695e-05;0.014542176700814676
1.33698e-05;0.014529509782477417
1.33700e-05;0.014516842864140072
1.33703e-05;0.014504175945802727
1.33705e-05;0.014491509027465467
1.33708e-05;0.014478533083063305
1.33710e-05;0.014465230748733005
1.33713e-05;0.014451928414402796
1.33715e-05;0.014438626080072499
1.33718e-05;0.0144253237457422
1.33720e-05;0.01441202141141199
1.33723e-05;0.014398719077081693
1.33725e-05;0.014385416742751393
1.33727e-05;0.014372114408421184
1.33730e-05;0.014358812074090887
1.33733e-05;0.014345509739760587
1.33735e-05;0.014331059953152082
1.33738e-05;0.014315398240077635
1.33740e-05;0.01429973652700308
1.33743e-05;0.014284074813928526
1.33745e-05;0.014268413100854077
1.33748e-05;0.014252751387779525
1.33750e-05;0.01423708967470497
1.33753e-05;0.014221427961630522
1.33755e-05;0.014205766248555967
1.33758e-05;0.014190104535481413
1.33760e-05;0.014174442822406966
1.33763e-05;0.014159568024338964
1.33765e-05;0.01414552435723927
1.33768e-05;0.014131480690139673
1.33770e-05;0.014117437023039981
1.33773e-05;0.014103393355940288
1.33775e-05;0.01408934968884069
1.33778e-05;0.014075306021740999
1.33780e-05;0.014061262354641306
1.33783e-05;0.014047218687541708
1.33785e-05;0.014033175020442016
1.33788e-05;0.014019131353342323
1.33790e-05;0.014009505070751941
1.33793e-05;0.014004544381058245
1.33795e-05;0.013999583691364547
1.33798e-05;0.013994623001670882
1.33800e-05;0.013989662311977184
1.33803e-05;0.013984701622283487
1.33805e-05;0.013979740932589822
1.33808e-05;0.013974780242896124
1.33810e-05;0.013976874828258892
1.33812e-05;0.013986421117479296
1.33815e-05;0.013995967406699766
1.33818e-05;0.014005513695920234
1.33820e-05;0.014015059985140702
1.33823e-05;0.014024606274361105
1.33825e-05;0.014034152563581575
1.33828e-05;0.014043698852802043
1.33830e-05;0.014060257663833406
1.33833e-05;0.014084223023215414
1.33835e-05;0.014108188382597421
1.33838e-05;0.014132153741979266
1.33840e-05;0.014156119101361274
1.33843e-05;0.014180084460743281
1.33845e-05;0.014204049820125126
1.33848e-05;0.014228015179507133
1.33850e-05;0.01425198053888914
1.33853e-05;0.014275945898270985
1.33855e-05;0.014299911257652993
1.33858e-05;0.014323876617035
1.33860e-05;0.014350193346531419
1.33863e-05;0.014376542648750728
1.33865e-05;0.014402891950970036
1.33868e-05;0.014429241253189165
1.33870e-05;0.014455590555408473
1.33873e-05;0.01448193985762778
1.33875e-05;0.01450828915984691
1.33878e-05;0.014534638462066218
1.33880e-05;0.014560987764285526
1.33883e-05;0.014587337066504655
1.33885e-05;0.014613686368723964
1.33888e-05;0.014632887920226798
1.33890e-05;0.014644540096095992
1.33893e-05;0.014656192271965263
1.33895e-05;0.014667844447834536
1.33897e-05;0.014679496623703728
1.33900e-05;0.014691148799573001
1.33903e-05;0.014702800975442272
1.33905e-05;0.014704248755952021
1.33908e-05;0.014694918766399568
1.33910e-05;0.014685588776847051
1.33913e-05;0.014676258787294536
1.33915e-05;0.014666928797742083
1.33918e-05;0.014657598808189566
1.33920e-05;0.014648268818637051
1.33923e-05;0.01462785326418415
1.33925e-05;0.014595729258098225
1.33928e-05;0.014563605252012298
1.33930e-05;0.01453148124592659
1.33933e-05;0.014499357239840666
1.33935e-05;0.014467233233754739
1.33938e-05;0.014435109227669031
1.33940e-05;0.014402985221583106
1.33943e-05;0.01437086121549718
1.33945e-05;0.014331629481819833
1.33948e-05;0.01428489064449161
1.33950e-05;0.014238151807163387
1.33953e-05;0.014191412969835483
1.33955e-05;0.014144674132507262
1.33958e-05;0.014097935295179038
1.33960e-05;0.014051196457851134
1.33963e-05;0.01400445762052291
1.33965e-05;0.013957718783194689
1.33968e-05;0.013910637123436103
1.33970e-05;0.013863193378399185
1.33973e-05;0.013815749633362264
1.33975e-05;0.0137712753247911
1.33978e-05;0.013729937302331463
1.33980e-05;0.013688599279871825
1.33983e-05;0.013647261257412469
1.33985e-05;0.01360592323495283
1.33988e-05;0.013564585212493194
1.33990e-05;0.013534851749475047
1.33993e-05;0.01350527904043504
1.33995e-05;0.01347570633139483
1.33998e-05;0.013446133622354623
1.34000e-05;0.013416560913314614
1.34003e-05;0.01339627568721054
1.34005e-05;0.013385799798362226
1.34008e-05;0.013375323909513985
1.34010e-05;0.013364848020665671
1.34013e-05;0.013354372131817359
1.34015e-05;0.013343896242969116
1.34018e-05;0.013333420354120804
1.34020e-05;0.01332294446527249
