Time(s);Current(A)
2.80000e-06;0.003353487777185633
2.80025e-06;0.003396964570448844
2.80050e-06;0.0034349396209578157
2.80075e-06;0.0034729146714667872
2.80100e-06;0.0035108897219757592
2.80125e-06;0.0035488647724846666
2.80150e-06;0.003586839822993638
2.80175e-06;0.0036248148735026097
2.80200e-06;0.003661563276015261
2.80225e-06;0.00368877267098488
2.80250e-06;0.0037159820659544993
2.80275e-06;0.0037431914609240727
2.80300e-06;0.0037704008558936916
2.80325e-06;0.003797610250863311
2.80350e-06;0.0038248196458329302
2.80375e-06;0.003852029040802503
2.80400e-06;0.0038792384357721225
2.80425e-06;0.003906447830741741
2.80450e-06;0.003933657225711315
2.80475e-06;0.003960866620680934
2.80500e-06;0.003988076015650554
2.80525e-06;0.004014158525249597
2.80550e-06;0.0040314778296883045
2.80575e-06;0.004048797134127043
2.80600e-06;0.004066116438565781
2.80625e-06;0.0040834357430044885
2.80650e-06;0.004100755047443227
2.80675e-06;0.004118074351881964
2.80700e-06;0.0041353936563206725
2.80725e-06;0.004152712960759411
2.80750e-06;0.004170032265198148
2.80775e-06;0.004187351569636886
2.80800e-06;0.004204670874075594
2.80825e-06;0.004221990178514332
2.80850e-06;0.004238492767623468
2.80875e-06;0.004247026308499425
2.80900e-06;0.004242978470149286
2.80925e-06;0.004238930631799148
2.80950e-06;0.00423488279344901
2.80975e-06;0.004230834955098879
2.81000e-06;0.00422678711674874
2.81025e-06;0.0042227392783986024
2.81050e-06;0.004218691440048471
2.81075e-06;0.004214643601698332
2.81100e-06;0.004210595763348195
2.81125e-06;0.004206547924998063
2.81150e-06;0.004202500086647925
2.81175e-06;0.00419580083723666
2.81200e-06;0.004168482934232065
2.81225e-06;0.004141165031227517
2.81250e-06;0.004113847128222922
2.81275e-06;0.004086529225218328
2.81300e-06;0.00405921132221378
2.81325e-06;0.0040318934192091855
2.81350e-06;0.004004575516204591
2.81375e-06;0.0039772576131999965
2.81400e-06;0.003949939710195449
2.81425e-06;0.003922621807190854
2.81450e-06;0.00389530390418626
2.81475e-06;0.003867120643938872
2.81500e-06;0.00383220794762369
2.81525e-06;0.003797295251308507
2.81550e-06;0.0037623825549933836
2.81575e-06;0.003727469858678201
2.81600e-06;0.003692557162363019
2.81625e-06;0.003657644466047836
2.81650e-06;0.0036227317697327126
2.81675e-06;0.0035878190734175298
2.81700e-06;0.0035538893562187873
2.81725e-06;0.0035276037596130277
2.81750e-06;0.0035013181630072234
2.81775e-06;0.003475032566401419
2.81800e-06;0.003448746969795615
2.81825e-06;0.0034224613731898552
2.81850e-06;0.003396175776584051
2.81875e-06;0.0033698901799782467
2.81900e-06;0.003343604583372487
2.81925e-06;0.003318103556591201
2.81950e-06;0.0032987037238761943
2.81975e-06;0.0032793038911612207
2.82000e-06;0.0032599040584462145
2.82025e-06;0.003240504225731208
2.82050e-06;0.0032211043930162014
2.82075e-06;0.003201704560301228
2.82100e-06;0.0031823047275862217
2.82125e-06;0.003162904894871215
2.82150e-06;0.0031435050621562415
2.82175e-06;0.003124105229441235
2.82200e-06;0.0031047053967262284
2.82225e-06;0.0030853055640112223
2.82250e-06;0.0030659057312962487
2.82275e-06;0.003046505898581242
2.82300e-06;0.0030271060658662355
2.82325e-06;0.003007706233151262
2.82350e-06;0.0029886131699733928
2.82375e-06;0.0029719056949501586
2.82400e-06;0.002955198219926952
2.82425e-06;0.0029384907449037175
2.82450e-06;0.002921783269880483
2.82475e-06;0.002905075794857248
2.82500e-06;0.002888368319834042
2.82525e-06;0.0028716608448108075
2.82550e-06;0.002854953369787573
2.82575e-06;0.0028382458947643664
2.82600e-06;0.0028215384197411318
2.82625e-06;0.0028048309447178976
2.82650e-06;0.002788123469694663
2.82675e-06;0.0027714159946714565
2.82700e-06;0.002754708519648222
2.82725e-06;0.002738001044624987
2.82750e-06;0.002721293569601781
2.82775e-06;0.0027061193834543532
2.82800e-06;0.0027028687925054564
2.82825e-06;0.002699618201556565
2.82850e-06;0.002696367610607668
2.82875e-06;0.0026931170196587712
2.82900e-06;0.002689866428709874
2.82925e-06;0.0026866158377609824
2.82950e-06;0.0026833652468120856
2.82975e-06;0.0026801146558631888
2.83000e-06;0.002676864064914297
2.83025e-06;0.0026736134739654004
2.83050e-06;0.002673426985633782
2.83075e-06;0.0026970684398590263
2.83100e-06;0.0027207098940842302
2.83125e-06;0.002744351348309474
2.83150e-06;0.0027679928025347183
2.83175e-06;0.0027916342567599222
2.83200e-06;0.002815275710985166
2.83225e-06;0.0028389171652104103
2.83250e-06;0.002862558619435614
2.83275e-06;0.002886200073660858
2.83300e-06;0.002909841527886102
2.83325e-06;0.0029355236359754257
2.83350e-06;0.0029770748545762987
2.83375e-06;0.0030186260731772424
2.83400e-06;0.003060177291778186
2.83425e-06;0.0031017285103790595
2.83450e-06;0.0031432797289800032
2.83475e-06;0.003184830947580947
2.83500e-06;0.0032263821661818906
2.83525e-06;0.0032681327794810235
2.83550e-06;0.0033114339823035
2.83575e-06;0.003354735185125977
2.83600e-06;0.0033980363879483797
2.83625e-06;0.0034413375907708563
2.83650e-06;0.003484638793593333
2.83675e-06;0.0035279399964157363
2.83700e-06;0.003571241199238213
2.83725e-06;0.0036130430224123435
2.83750e-06;0.003643184944924583
2.83775e-06;0.003673326867436771
2.83800e-06;0.0037034687899490104
2.83825e-06;0.0037336107124612498
2.83850e-06;0.0037637526349734384
2.83875e-06;0.0037938945574856773
2.83900e-06;0.0038203899696832655
2.83925e-06;0.00381852835564117
2.83950e-06;0.0038166667415990775
2.83975e-06;0.0038148051275569816
2.84000e-06;0.003812943513514886
2.84025e-06;0.0038110818994727936
2.84050e-06;0.003809220285430698
2.84075e-06;0.00380411288171286
2.84100e-06;0.003773764649076062
2.84125e-06;0.0037434164164392133
2.84150e-06;0.0037112027672390304
2.84175e-06;0.0036644827374528012
2.84200e-06;0.0036177627076666515
2.84225e-06;0.003569424953024298
2.84250e-06;0.0035085069881982704
2.84275e-06;0.0034475890233723458
2.84300e-06;0.0033847015248048788
2.84325e-06;0.0033064979801633444
2.84350e-06;0.0032282944355218096
2.84375e-06;0.0031500908908804076
2.84400e-06;0.0030718873462388732
2.84425e-06;0.002993683801597339
2.84450e-06;0.0029141896823516736
2.84475e-06;0.002824659431362773
2.84500e-06;0.0027351291803738723
2.84525e-06;0.0026455989293851234
2.84550e-06;0.0025560686783962228
2.84575e-06;0.002466538427407322
2.84600e-06;0.0023773518188170755
2.84625e-06;0.0022908375395708754
2.84650e-06;0.0022043232603245286
2.84675e-06;0.0021178089810781823
2.84700e-06;0.002031294701831982
2.84725e-06;0.001953341416913998
2.84750e-06;0.0018807714683963977
2.84775e-06;0.0018082015198789205
2.84800e-06;0.00173563157136132
2.84825e-06;0.0016649801164117673
2.84850e-06;0.001609247794486306
2.84875e-06;0.0015550076183403533
2.84900e-06;0.0015123710887978475
2.84925e-06;0.0014712967347581356
2.84950e-06;0.0014423706122902197
2.84975e-06;0.0014146421446643218
2.85000e-06;0.00139703950889221
2.85025e-06;0.0013865766853407302
2.85050e-06;0.0013833448473424743
2.85075e-06;0.001387396058625818
2.85100e-06;0.0013990570139067067
2.85125e-06;0.0014200116554202154
2.85150e-06;0.0014424762568847063
2.85175e-06;0.001476683036558402
2.85200e-06;0.0015122994703266925
2.85225e-06;0.0015588780554969019
2.85250e-06;0.0016067584745881698
2.85275e-06;0.0016647625833114228
2.85300e-06;0.001723912754754462
2.85325e-06;0.001791975263698884
2.85350e-06;0.001861196518398927
2.85375e-06;0.0019394287400146056
2.85400e-06;0.002017660961630417
2.85425e-06;0.0020971336921461045
2.85450e-06;0.0021862532192964026
2.85475e-06;0.0022753727464465494
2.85500e-06;0.002364492273596847
2.85525e-06;0.0024536118007471453
2.85550e-06;0.002542731327897292
2.85575e-06;0.0026325190544155106
2.85600e-06;0.002722726958992752
2.85625e-06;0.0028129348635698406
2.85650e-06;0.002903142768147082
2.85675e-06;0.0029933506727243234
2.85700e-06;0.0030824049582603022
2.85725e-06;0.003162488144687919
2.85750e-06;0.003242571331115671
2.85775e-06;0.0033210504020249176
2.85800e-06;0.0033870550955329543
2.85825e-06;0.0034530597890411025
2.85850e-06;0.0035169011461858224
2.85875e-06;0.003563919354416358
2.85900e-06;0.003610937562646813
2.85925e-06;0.00365555357693805
2.85950e-06;0.003681488970385742
2.85975e-06;0.0037074243638333896
2.86000e-06;0.003730853658395022
2.86025e-06;0.003734794317038866
2.86050e-06;0.0037387349756827035
2.86075e-06;0.003740165131639339
2.86100e-06;0.0037220724055924783
2.86125e-06;0.0037039796795456173
2.86150e-06;0.00368356680467401
2.86175e-06;0.0036451113314149184
2.86200e-06;0.003606655858155827
2.86225e-06;0.0035661132395990447
2.86250e-06;0.003509339970670914
2.86275e-06;0.0034525667017427835
2.86300e-06;0.0033940395261563543
2.86325e-06;0.0033218731248844577
2.86350e-06;0.003249706723612439
2.86375e-06;0.0031758304070670313
2.86400e-06;0.003088656963102229
2.86425e-06;0.003001483519137279
2.86450e-06;0.002914310075172329
2.86475e-06;0.002827136631207527
2.86500e-06;0.0027399631872425767
2.86525e-06;0.002648471761512323
2.86550e-06;0.002554265096462438
2.86575e-06;0.002460058431412712
2.86600e-06;0.0023658517663628273
2.86625e-06;0.002271645101312942
2.86650e-06;0.0021780434693417705
2.86675e-06;0.002089146866949574
2.86700e-06;0.002000250264557377
2.86725e-06;0.0019122991595979665
2.86750e-06;0.0018317006995533913
2.86775e-06;0.0017521899651276019
2.86800e-06;0.0016811379107186642
2.86825e-06;0.0016114016510761196
2.86850e-06;0.0015518976473464484
2.86875e-06;0.0014936868423732475
2.86900e-06;0.001445532575822192
2.86925e-06;0.0013986846066830268
2.86950e-06;0.0013619950374407282
2.86975e-06;0.0013266959883073413
2.87000e-06;0.0013022102954598626
2.87025e-06;0.0012791646853808289
2.87050e-06;0.0012673178547780836
2.87075e-06;0.0012568036515429655
2.87100e-06;0.0012566526026628949
2.87125e-06;0.001257749076366836
2.87150e-06;0.001268546888504598
2.87175e-06;0.001280551687032661
2.87200e-06;0.001301942594964752
2.87225e-06;0.0013244782524348196
2.87250e-06;0.0013559160354711473
2.87275e-06;0.001388337961948231
2.87300e-06;0.0014284130633722397
2.87325e-06;0.0014695104104019137
2.87350e-06;0.0015185572332254977
2.87375e-06;0.0015676040560490818
2.87400e-06;0.0016176312728922969
2.87425e-06;0.001675282507372441
2.87450e-06;0.001732933741852683
2.87475e-06;0.00179126673145747
2.87500e-06;0.001854901378344501
2.87525e-06;0.00191853602523164
2.87550e-06;0.0019821706721187787
2.87575e-06;0.0020458053190059175
2.87600e-06;0.0021094399658929484
2.87625e-06;0.0021715081777702273
2.87650e-06;0.002232591381798499
2.87675e-06;0.0022936745858266674
2.87700e-06;0.0023547577898549396
2.87725e-06;0.0024158409938832112
2.87750e-06;0.0024757109145196396
2.87775e-06;0.0025261457572253662
2.87800e-06;0.002576580599931093
2.87825e-06;0.002625619844450103
2.87850e-06;0.002663806243095281
2.87875e-06;0.002701992641740523
2.87900e-06;0.0027386002865176424
2.87925e-06;0.0027629307783385722
2.87950e-06;0.0027872612701595433
2.87975e-06;0.002809925285808451
2.88000e-06;0.0028196299774768136
2.88025e-06;0.0028293346691451596
2.88050e-06;0.0028373418015871527
2.88075e-06;0.002832147893198734
2.88100e-06;0.0028269539848103237
2.88125e-06;0.002820174327761197
2.88150e-06;0.0028010631228687893
2.88175e-06;0.002781951917976414
2.88200e-06;0.0027613912611844935
2.88225e-06;0.002729558966024995
2.88250e-06;0.002697726670865496
2.88275e-06;0.002664155113013428
2.88300e-06;0.002617058208025338
2.88325e-06;0.0025699613030372476
2.88350e-06;0.0025228643980492373
2.88375e-06;0.0024757674930611473
2.88400e-06;0.002428670588073057
2.88425e-06;0.002380211060349067
2.88450e-06;0.002321155119790654
2.88475e-06;0.002262099179232141
2.88500e-06;0.002203043238673628
2.88525e-06;0.002143987298115215
2.88550e-06;0.002084931357556702
2.88575e-06;0.002025796786155992
2.88600e-06;0.001966050743330812
2.88625e-06;0.00190630470050553
2.88650e-06;0.0018465586576802485
2.88675e-06;0.0017868126148549669
2.88700e-06;0.0017281368495760932
2.88725e-06;0.0016777840796722546
2.88750e-06;0.001627431309768416
2.88775e-06;0.0015770785398646625
2.88800e-06;0.0015267257699608239
2.88825e-06;0.0014777592556413045
2.88850e-06;0.001439572934606277
2.88875e-06;0.0014024003699216134
2.88900e-06;0.001373111264480192
2.88925e-06;0.0013448824205903305
2.88950e-06;0.0013248986828608745
2.88975e-06;0.001306004633890285
2.89000e-06;0.0012955845312641909
2.89025e-06;0.001286282065616941
2.89050e-06;0.0012856708851773492
2.89075e-06;0.0012861736939897474
2.89100e-06;0.0012953394215231553
2.89125e-06;0.0013055627179224677
2.89150e-06;0.001324010180857484
2.89175e-06;0.0013434481210132592
2.89200e-06;0.0013705884906520139
2.89225e-06;0.0013986513239863285
2.89250e-06;0.0014338876807662615
2.89275e-06;0.0014701424651976088
2.89300e-06;0.00151431703516691
2.89325e-06;0.0015584916051362859
2.89350e-06;0.0016036412544975865
2.89375e-06;0.0016563735923845857
2.89400e-06;0.0017091059302716742
2.89425e-06;0.0017626808838168584
2.89450e-06;0.0018228084238849586
2.89475e-06;0.0018829359639531609
2.89500e-06;0.001943063504021363
2.89525e-06;0.002003191044089565
2.89550e-06;0.0020633185841576656
2.89575e-06;0.002123913915763098
2.89600e-06;0.0021848034046958497
2.89625e-06;0.0022456928936284985
2.89650e-06;0.0023065823825612506
2.89675e-06;0.0023674718714940023
2.89700e-06;0.0024267314237258
2.89725e-06;0.002473315800558191
2.89750e-06;0.0025199001773906615
2.89775e-06;0.0025664845542231318
2.89800e-06;0.002613068931055523
2.89825e-06;0.0026596533078879934
2.89850e-06;0.0027062376847204637
2.89875e-06;0.002752822061552855
2.89900e-06;0.0027973565750677083
2.89925e-06;0.0028259503608956877
2.89950e-06;0.002854544146723667
2.89975e-06;0.002883137932551598
2.90000e-06;0.0029117317183795775
2.90025e-06;0.002940325504207557
2.90050e-06;0.0029689192900354882
2.90075e-06;0.0029975130758634677
2.90100e-06;0.0030246183875895167
2.90125e-06;0.0030401486054423728
2.90150e-06;0.003055678823295203
2.90175e-06;0.0030712090411480594
2.90200e-06;0.003086739259000916
2.90225e-06;0.003102269476853746
2.90250e-06;0.0031177996947066022
2.90275e-06;0.003133329912559459
2.90300e-06;0.003148860130412289
2.90325e-06;0.0031643903482651455
2.90350e-06;0.0031799205661180016
2.90375e-06;0.003195450783970858
2.90400e-06;0.0032109810018236882
2.90425e-06;0.0032265112196765444
2.90450e-06;0.0032366280013443917
2.90475e-06;0.0032433406985147794
2.90500e-06;0.0032500533956851788
2.90525e-06;0.0032567660928555777
2.90550e-06;0.003263478790025977
2.90575e-06;0.0032701914871963653
2.90600e-06;0.0032769041843667642
2.90625e-06;0.0032836168815371636
2.90650e-06;0.0032903295787075518
2.90675e-06;0.0032970422758779507
2.90700e-06;0.00330375497304835
2.90725e-06;0.003310467670218738
2.90750e-06;0.003317180367389137
2.90775e-06;0.0033228082454548483
2.90800e-06;0.0033200000459579072
2.90825e-06;0.0033171918464609713
2.90850e-06;0.0033143836469640303
2.90875e-06;0.003311575447467089
2.90900e-06;0.003308767247970153
2.90925e-06;0.0033059590484732122
2.90950e-06;0.003303150848976271
2.90975e-06;0.003297025124810279
2.91000e-06;0.0032651007257287023
2.91025e-06;0.003233176326647071
2.91050e-06;0.00320125192756544
2.91075e-06;0.003169327528483863
2.91100e-06;0.0031374031294022315
2.91125e-06;0.0031054787303206005
2.91150e-06;0.0030735543312390237
2.91175e-06;0.003039043899418484
2.91200e-06;0.002984423227401148
2.91225e-06;0.0029298025553838123
2.91250e-06;0.0028739894436694154
2.91275e-06;0.0028089033446606964
2.91300e-06;0.002743817245651977
2.91325e-06;0.0026773997355873584
2.91350e-06;0.0026006285297882005
2.91375e-06;0.0025238573239890426
2.91400e-06;0.0024470861181898848
2.91425e-06;0.0023703149123908565
2.91450e-06;0.0022935437065916987
2.91475e-06;0.0022128236270566024
2.91500e-06;0.0021296204112274055
2.91525e-06;0.0020464171953980675
2.91550e-06;0.0019632139795687296
2.91575e-06;0.0018800107637395327
2.91600e-06;0.0017972712110397473
2.91625e-06;0.0017181373268863002
2.91650e-06;0.001639003442732853
2.91675e-06;0.0015598695585795398
2.91700e-06;0.0014807356744260926
2.91725e-06;0.0014095416283270092
2.91750e-06;0.0013433403222754556
2.91775e-06;0.00127713901622379
2.91800e-06;0.0012109377101721243
2.91825e-06;0.0011461654228535532
2.91850e-06;0.0010931670693346547
2.91875e-06;0.0010460221814313207
2.91900e-06;0.0010051450526801123
2.91925e-06;0.000970711043119898
2.91950e-06;0.0009427918041188956
2.91975e-06;0.0009214562668121443
2.92000e-06;0.0009067734256921128
2.92025e-06;0.0008988139024100161
2.92050e-06;0.0008976650698615444
2.92075e-06;0.0009034171329262169
2.92100e-06;0.0009160618860665499
2.92125e-06;0.0009354415801353075
2.92150e-06;0.0009613334750134734
2.92175e-06;0.0009935131669036195
2.92200e-06;0.0010317561687544499
2.92225e-06;0.0010761495712626442
2.92250e-06;0.0011279623057174266
2.92275e-06;0.0011809508086522255
2.92300e-06;0.0012430826554414962
2.92325e-06;0.001306220883540173
2.92350e-06;0.001377185219003994
2.92375e-06;0.001449136616089475
2.92400e-06;0.0015287638813118456
2.92425e-06;0.0016083911465340813
2.92450e-06;0.0016889570899290204
2.92475e-06;0.0017768226483819247
2.92500e-06;0.001864688206834829
2.92525e-06;0.0019525537652875843
2.92550e-06;0.0020404193237404883
2.92575e-06;0.0021282294181750065
2.92600e-06;0.0022156081976010757
2.92625e-06;0.0023029869770272928
2.92650e-06;0.00239036575645351
2.92675e-06;0.002477744535879579
2.92700e-06;0.002564023673779968
2.92725e-06;0.002641751467806303
2.92750e-06;0.0027194792618326384
2.92775e-06;0.0027956702000033916
2.92800e-06;0.0028599098044019998
2.92825e-06;0.002924149408800608
2.92850e-06;0.002986758894032145
2.92875e-06;0.0030366917849142345
2.92900e-06;0.0030866246757963235
2.92925e-06;0.0031365575666784124
2.92950e-06;0.003186490457560417
2.92975e-06;0.003236423348442506
2.93000e-06;0.003286356239324595
2.93025e-06;0.0033362891302065995
2.93050e-06;0.0033796487204812847
2.93075e-06;0.003418874878692918
2.93100e-06;0.0034581010369044846
2.93125e-06;0.0034973271951161174
2.93150e-06;0.0035365533533277503
2.93175e-06;0.0035757795115393836
2.93200e-06;0.00361500566975095
2.93225e-06;0.0036533814297909505
2.93250e-06;0.0036851440827179276
2.93275e-06;0.0037169067356448504
2.93300e-06;0.003748669388571827
2.93325e-06;0.003780432041498804
2.93350e-06;0.003812194694425781
2.93375e-06;0.0038439573473527037
2.93400e-06;0.003875720000279681
2.93425e-06;0.0039074826532066575
2.93450e-06;0.00393924530613358
2.93475e-06;0.003971007959060557
2.93500e-06;0.0040027706119875345
2.93525e-06;0.004034533264914457
2.93550e-06;0.004066295917841434
2.93575e-06;0.0040912997857095856
2.93600e-06;0.004112053584922887
2.93625e-06;0.004132807384136154
2.93650e-06;0.004153561183349456
2.93675e-06;0.004174314982562759
2.93700e-06;0.004195068781776026
2.93725e-06;0.004215822580989328
2.93750e-06;0.00423657638020263
2.93775e-06;0.004257330179415932
2.93800e-06;0.004278083978629199
2.93825e-06;0.004298837777842501
2.93850e-06;0.0043195915770558035
2.93875e-06;0.00434034537626907
2.93900e-06;0.004358235061740378
2.93925e-06;0.004353852014750522
2.93950e-06;0.004349468967760672
2.93975e-06;0.004345085920770816
2.94000e-06;0.004340702873780959
2.94025e-06;0.0043363198267911025
2.94050e-06;0.004331936779801254
2.94075e-06;0.004327553732811397
2.94100e-06;0.0043231706858215405
2.94125e-06;0.004318787638831692
2.94150e-06;0.004314404591841835
2.94175e-06;0.0043100215448519785
2.94200e-06;0.004290145057102775
2.94225e-06;0.004260525962308604
2.94250e-06;0.004230906867514381
2.94275e-06;0.004201287772720159
2.94300e-06;0.004171668677925988
2.94325e-06;0.004142049583131765
2.94350e-06;0.004112430488337543
2.94375e-06;0.004082811393543371
2.94400e-06;0.004053192298749149
2.94425e-06;0.0040235732039549275
2.94450e-06;0.003993954109160705
2.94475e-06;0.003963338569734531
2.94500e-06;0.003924974195345276
2.94525e-06;0.0038866098209560202
2.94550e-06;0.0038482454465668297
2.94575e-06;0.0038098810721775745
2.94600e-06;0.003771516697788319
2.94625e-06;0.0037331523233990636
2.94650e-06;0.003694787949009873
2.94675e-06;0.0036603801950679652
2.94700e-06;0.0036284604487187137
2.94725e-06;0.0035965407023695163
2.94750e-06;0.0035646209560202644
2.94775e-06;0.003532701209671013
2.94800e-06;0.0035007814633218155
2.94825e-06;0.0034688617169725635
2.94850e-06;0.003436748759752163
2.94875e-06;0.003403133301433744
