Time(s);Current(A)
5.00000e-06;-0.010457678382721996
5.00025e-06;-0.01043526553184229
5.00050e-06;-0.010412852680962509
5.00075e-06;-0.010390439830082802
5.00100e-06;-0.010368026979203096
5.00125e-06;-0.010350367373753038
5.00150e-06;-0.010336442668458574
5.00175e-06;-0.010322517963164113
5.00200e-06;-0.010308593257869604
5.00225e-06;-0.010294668552575142
5.00250e-06;-0.010280743847280678
5.00275e-06;-0.01026681914198617
5.00300e-06;-0.010252894436691707
5.00325e-06;-0.010238969731397244
5.00350e-06;-0.010225045026102735
5.00375e-06;-0.010211120320808273
5.00400e-06;-0.010197195615513762
5.00425e-06;-0.0101832709102193
5.00450e-06;-0.010170973757111991
5.00475e-06;-0.010159955465996197
5.00500e-06;-0.010148937174880438
5.00525e-06;-0.010137918883764679
5.00550e-06;-0.010126900592648884
5.00575e-06;-0.010115882301533126
5.00600e-06;-0.010104864010417366
5.00625e-06;-0.0100939619740054
5.00650e-06;-0.01008488170307924
5.00675e-06;-0.01007580143215308
5.00700e-06;-0.010066721161226888
5.00725e-06;-0.010057640890300729
5.00750e-06;-0.010048560619374569
5.00775e-06;-0.01003948034844838
5.00800e-06;-0.01003040007752222
5.00825e-06;-0.010022097856690995
5.00850e-06;-0.01001440699486982
5.00875e-06;-0.010007049910906885
5.00900e-06;-0.010000785367955813
5.00925e-06;-0.00999517321812118
5.00950e-06;-0.00999220547552125
5.00975e-06;-0.009991315596801201
5.01000e-06;-0.009993449536865673
5.01025e-06;-0.009997959466433249
5.01050e-06;-0.010005891749024972
5.01075e-06;-0.010016513172547602
5.01100e-06;-0.010027134596070233
5.01125e-06;-0.010042448553826053
5.01150e-06;-0.010061449707434217
5.01175e-06;-0.010080450861042381
5.01200e-06;-0.010106595990794255
5.01225e-06;-0.01013835455624993
5.01250e-06;-0.010170113121705713
5.01275e-06;-0.010201871687161388
5.01300e-06;-0.010233630252617063
5.01325e-06;-0.010265388818072846
5.01350e-06;-0.01030456550950687
5.01375e-06;-0.010349571052043448
5.01400e-06;-0.010394576594580176
5.01425e-06;-0.010439582137116753
5.01450e-06;-0.010484587679653328
5.01475e-06;-0.010529593222190058
5.01500e-06;-0.010578366188694144
5.01525e-06;-0.010630099438349293
5.01550e-06;-0.010681832688004619
5.01575e-06;-0.01073356593765977
5.01600e-06;-0.010785299187314919
5.01625e-06;-0.010837032436970245
5.01650e-06;-0.010888575929217232
5.01675e-06;-0.010937145834287542
5.01700e-06;-0.010985715739357688
5.01725e-06;-0.011034285644427834
5.01750e-06;-0.011082855549498144
5.01775e-06;-0.01113142545456829
5.01800e-06;-0.011179995359638435
5.01825e-06;-0.01122401308834392
5.01850e-06;-0.011264453908501448
5.01875e-06;-0.011301420309765579
5.01900e-06;-0.011335656658931135
5.01925e-06;-0.01136417323773576
5.01950e-06;-0.011388195461784533
5.01975e-06;-0.011412217685833389
5.02000e-06;-0.011428548590203265
5.02025e-06;-0.011438835979362467
5.02050e-06;-0.011449123368521705
5.02075e-06;-0.01145152212661179
5.02100e-06;-0.011447722330507344
5.02125e-06;-0.011443922534402913
5.02150e-06;-0.01142947084378512
5.02175e-06;-0.011406649342887636
5.02200e-06;-0.011383827841990228
5.02225e-06;-0.01136100634109282
5.02250e-06;-0.011338184840195336
5.02275e-06;-0.011303777596920323
5.02300e-06;-0.011260266765027832
5.02325e-06;-0.011216755933135194
5.02350e-06;-0.011173245101242704
5.02375e-06;-0.011129734269350215
5.02400e-06;-0.011078876708648551
5.02425e-06;-0.011022246397735623
5.02450e-06;-0.010965616086822698
5.02475e-06;-0.010905746739943137
5.02500e-06;-0.010843332294960132
5.02525e-06;-0.010779076074185445
5.02550e-06;-0.010713372663530184
5.02575e-06;-0.010646726069661312
5.02600e-06;-0.010578991024545849
5.02625e-06;-0.010510851631148002
5.02650e-06;-0.010442693457013432
5.02675e-06;-0.010374901026631994
5.02700e-06;-0.010307853872681664
5.02725e-06;-0.010241920948091702
5.02750e-06;-0.010177471727000838
5.02775e-06;-0.010114904069840168
5.02800e-06;-0.010054645229886295
5.02825e-06;-0.00999712950152024
5.02850e-06;-0.009942792035851208
5.02875e-06;-0.009892068058582781
5.02900e-06;-0.009845367054223108
5.02925e-06;-0.009802991108715567
5.02950e-06;-0.009765080742264587
5.02975e-06;-0.009731697683083532
5.03000e-06;-0.009702919602965461
5.03025e-06;-0.009678839000906624
5.03050e-06;-0.009660925805532655
5.03075e-06;-0.009646220687740764
5.03100e-06;-0.009637073753581426
5.03125e-06;-0.0096322942061285
5.03150e-06;-0.009634191258897445
5.03175e-06;-0.00964133450304477
5.03200e-06;-0.009648477747192071
5.03225e-06;-0.00966534925993642
5.03250e-06;-0.009689864836597136
5.03275e-06;-0.00971438041325777
5.03300e-06;-0.009738895989918403
5.03325e-06;-0.009763411566579118
5.03350e-06;-0.009797828246184173
5.03375e-06;-0.00984002479565951
5.03400e-06;-0.009882221345134704
5.03425e-06;-0.009924417894609896
5.03450e-06;-0.009966614444085233
5.03475e-06;-0.010014295102846621
5.03500e-06;-0.010066284943811097
5.03525e-06;-0.01011827478477575
5.03550e-06;-0.010172542659623227
5.03575e-06;-0.010228600517593625
5.03600e-06;-0.010284658375564212
5.03625e-06;-0.010341272529965136
5.03650e-06;-0.01039832379868179
5.03675e-06;-0.010455375067398636
5.03700e-06;-0.010511604755824447
5.03725e-06;-0.010567188881045223
5.03750e-06;-0.010621131757953471
5.03775e-06;-0.010673785011031932
5.03800e-06;-0.010714791763730651
5.03825e-06;-0.010746647186734086
5.03850e-06;-0.010778502609737521
5.03875e-06;-0.010810358032741064
5.03900e-06;-0.0108422134557445
5.03925e-06;-0.010874068878747934
5.03950e-06;-0.010905924301751477
5.03975e-06;-0.010937779724754912
5.04000e-06;-0.010969635147758347
5.04025e-06;-0.01100149057076189
5.04050e-06;-0.011033345993765325
5.04075e-06;-0.01106520141676876
5.04100e-06;-0.011097056839772305
5.04125e-06;-0.01112891226277574
5.04150e-06;-0.011160767685779175
5.04175e-06;-0.011192623108782718
5.04200e-06;-0.011212730692015102
5.04225e-06;-0.011223607317325768
5.04250e-06;-0.011234483942636398
5.04275e-06;-0.011245360567947027
5.04300e-06;-0.011256237193257693
5.04325e-06;-0.011267113818568323
5.04350e-06;-0.011277990443878953
5.04375e-06;-0.011288867069189619
5.04400e-06;-0.011299743694500248
5.04425e-06;-0.011310620319810878
5.04450e-06;-0.011321496945121546
5.04475e-06;-0.011332373570432175
5.04500e-06;-0.011343250195742805
5.04525e-06;-0.01135412682105347
5.04550e-06;-0.0113650034463641
5.04575e-06;-0.01137588007167473
5.04600e-06;-0.011381901740218104
5.04625e-06;-0.011384108588122025
5.04650e-06;-0.011386315436025956
5.04675e-06;-0.01138852228392988
5.04700e-06;-0.011390729131833803
5.04725e-06;-0.011392935979737734
5.04750e-06;-0.011395142827641657
5.04775e-06;-0.011397349675545579
5.04800e-06;-0.01139955652344951
5.04825e-06;-0.011401763371353433
5.04850e-06;-0.011403970219257356
5.04875e-06;-0.011406177067161287
5.04900e-06;-0.01140838391506521
5.04925e-06;-0.011410590762969132
5.04950e-06;-0.011412797610873063
5.04975e-06;-0.011415004458776986
5.05000e-06;-0.01141721130668091
5.05025e-06;-0.01141941815458484
5.05050e-06;-0.011421625002488764
5.05075e-06;-0.011423831850392694
5.05100e-06;-0.011426038698296616
5.05125e-06;-0.011423603479586205
5.05150e-06;-0.01142073948101655
5.05175e-06;-0.011417875482446906
5.05200e-06;-0.01141501148387726
5.05225e-06;-0.011412147485307606
5.05250e-06;-0.011409283486737962
5.05275e-06;-0.011406419488168316
5.05300e-06;-0.011403555489598661
5.05325e-06;-0.011400691491029017
5.05350e-06;-0.011397827492459371
5.05375e-06;-0.011394963493889717
5.05400e-06;-0.011392099495320072
5.05425e-06;-0.011389235496750427
5.05450e-06;-0.011386371498180772
5.05475e-06;-0.011383507499611128
5.05500e-06;-0.011380643501041473
5.05525e-06;-0.011377779502471827
5.05550e-06;-0.011374915503902183
5.05575e-06;-0.011372051505332529
5.05600e-06;-0.011369187506762884
5.05625e-06;-0.011365989324702471
5.05650e-06;-0.011361891712334721
5.05675e-06;-0.011357794099966985
5.05700e-06;-0.01135369648759925
5.05725e-06;-0.0113495988752315
5.05750e-06;-0.011345501262863765
5.05775e-06;-0.011341403650496028
5.05800e-06;-0.011337306038128278
5.05825e-06;-0.011333208425760542
5.05850e-06;-0.011329214702211618
5.05875e-06;-0.011325500587784039
5.05900e-06;-0.01132139895068209
5.05925e-06;-0.011316254324779897
5.05950e-06;-0.011309142987666086
5.05975e-06;-0.011296738391853923
5.06000e-06;-0.01128433379604172
5.06025e-06;-0.011269609110051364
5.06050e-06;-0.011248640071843037
5.06075e-06;-0.011227671033634642
5.06100e-06;-0.011204319084189547
5.06125e-06;-0.011174553704263977
5.06150e-06;-0.011144788324338309
5.06175e-06;-0.011111231815471329
5.06200e-06;-0.011067471761657871
5.06225e-06;-0.011023711707844266
5.06250e-06;-0.010979951654030809
5.06275e-06;-0.010936191600217351
5.06300e-06;-0.010888599764584459
5.06325e-06;-0.010830694969772257
5.06350e-06;-0.010772790174959858
5.06375e-06;-0.010714885380147655
5.06400e-06;-0.010656980585335454
5.06425e-06;-0.010596715703429765
5.06450e-06;-0.010530098820549236
5.06475e-06;-0.010463481937668708
5.06500e-06;-0.0103960835339083
5.06525e-06;-0.01032658172413247
5.06550e-06;-0.010256696176083335
5.06575e-06;-0.010185621907345234
5.06600e-06;-0.010114085865583194
5.06625e-06;-0.010042507320397902
5.06650e-06;-0.00997130426118277
5.06675e-06;-0.0099008957052458
5.06700e-06;-0.009831672724436823
5.06725e-06;-0.009763922662025089
5.06750e-06;-0.009697850315276282
5.06775e-06;-0.009633739708765063
5.06800e-06;-0.009572000705165859
5.06825e-06;-0.00951307872896252
5.06850e-06;-0.00945742013596152
5.06875e-06;-0.009405469438064966
5.06900e-06;-0.009357568485387756
5.06925e-06;-0.009313641647527708
5.06950e-06;-0.00927319777149369
5.06975e-06;-0.009235907257106029
5.07000e-06;-0.009202301015470853
5.07025e-06;-0.00917241347706758
5.07050e-06;-0.009144531292816616
5.07075e-06;-0.009122046371897598
5.07100e-06;-0.0091020168545217
5.07125e-06;-0.009088595875339773
5.07150e-06;-0.009075174896157803
5.07175e-06;-0.009065032738923956
5.07200e-06;-0.0090637152900099
5.07225e-06;-0.009062397841095849
5.07250e-06;-0.009061080392181798
5.07275e-06;-0.009059762943267742
5.07300e-06;-0.009062038253399038
5.07325e-06;-0.00907398321047654
5.07350e-06;-0.009085928167554084
5.07375e-06;-0.009097873124631587
5.07400e-06;-0.009109818081709091
5.07425e-06;-0.009124433362674215
5.07450e-06;-0.009146235624145963
5.07475e-06;-0.009168037885617712
5.07500e-06;-0.009189840147089534
5.07525e-06;-0.009211642408561283
5.07550e-06;-0.009233444670033031
5.07575e-06;-0.009256481823638606
5.07600e-06;-0.00928284259867224
5.07625e-06;-0.00930920337370596
5.07650e-06;-0.009335564148739595
5.07675e-06;-0.009361924923773227
5.07700e-06;-0.00938828569880695
5.07725e-06;-0.009414344815022556
5.07750e-06;-0.009439592038697807
5.07775e-06;-0.009464839262373145
5.07800e-06;-0.009489140469866625
5.07825e-06;-0.009510895544327927
5.07850e-06;-0.009532650618789301
5.07875e-06;-0.009553363006644697
5.07900e-06;-0.009571269080125542
5.07925e-06;-0.009589443804036951
5.07950e-06;-0.009608341580839333
5.07975e-06;-0.009627239357641712
5.08000e-06;-0.009647112668954688
5.08025e-06;-0.009669611559712249
5.08050e-06;-0.009692110450469886
5.08075e-06;-0.009716088479256401
5.08100e-06;-0.009744047499348346
5.08125e-06;-0.009772006519440386
5.08150e-06;-0.00979996553953233
5.08175e-06;-0.009827924559624274
5.08200e-06;-0.009855883579716314
5.08225e-06;-0.009883842599808259
5.08250e-06;-0.009919305351010864
5.08275e-06;-0.009956998124811612
5.08300e-06;-0.009994690898612232
5.08325e-06;-0.010032383672412852
5.08350e-06;-0.0100700764462136
5.08375e-06;-0.01010776922001422
5.08400e-06;-0.010147344313344443
5.08425e-06;-0.010191985531359719
5.08450e-06;-0.010236626749374846
5.08475e-06;-0.010281267967389972
5.08500e-06;-0.010325909185405248
5.08525e-06;-0.010370550403420374
5.08550e-06;-0.010415191621435652
5.08575e-06;-0.010459755781835615
5.08600e-06;-0.010504112547327237
5.08625e-06;-0.01054846931281901
5.08650e-06;-0.01059282607831063
5.08675e-06;-0.010637182843802252
5.08700e-06;-0.010681539609294025
5.08725e-06;-0.010725896374785647
5.08750e-06;-0.01076873667668605
5.08775e-06;-0.010807495528273953
5.08800e-06;-0.010846254379861725
5.08825e-06;-0.010879952309784221
5.08850e-06;-0.010900029140966133
5.08875e-06;-0.010920105972147976
5.08900e-06;-0.01094018280332982
5.08925e-06;-0.010960259634511733
5.08950e-06;-0.010980336465693576
5.08975e-06;-0.011000413296875488
5.09000e-06;-0.011020490128057333
5.09025e-06;-0.011040566959239178
5.09050e-06;-0.011060643790421088
5.09075e-06;-0.011080720621602933
5.09100e-06;-0.011100797452784777
5.09125e-06;-0.01112087428396669
5.09150e-06;-0.011140951115148533
5.09175e-06;-0.011161027946330377
5.09200e-06;-0.01118110477751229
5.09225e-06;-0.011201181608694134
5.09250e-06;-0.011221258439875977
5.09275e-06;-0.011236689161803743
5.09300e-06;-0.011239615222112757
5.09325e-06;-0.01124254128242177
5.09350e-06;-0.011245467342730792
5.09375e-06;-0.011248393403039805
5.09400e-06;-0.011251319463348827
5.09425e-06;-0.01125424552365784
5.09450e-06;-0.011257171583966852
5.09475e-06;-0.011260097644275876
5.09500e-06;-0.011263023704584887
5.09525e-06;-0.0112659497648939
5.09550e-06;-0.011268875825202923
5.09575e-06;-0.011271801885511936
5.09600e-06;-0.01127472794582095
5.09625e-06;-0.011277654006129971
5.09650e-06;-0.011280580066438985
5.09675e-06;-0.011283506126747998
5.09700e-06;-0.01128643218705702
5.09725e-06;-0.011288086177996055
5.09750e-06;-0.01128631648770951
5.09775e-06;-0.011284546797422957
5.09800e-06;-0.011282777107136412
5.09825e-06;-0.011281007416849861
5.09850e-06;-0.011279237726563314
5.09875e-06;-0.011277468036276769
5.09900e-06;-0.011275698345990216
5.09925e-06;-0.011273928655703671
5.09950e-06;-0.011272158965417126
5.09975e-06;-0.011270389275130573
5.10000e-06;-0.01126179361348437
5.10025e-06;-0.011251169351645322
5.10050e-06;-0.011240545089806238
5.10075e-06;-0.01122992082796719
5.10100e-06;-0.011219296566128144
5.10125e-06;-0.01120867230428906
5.10150e-06;-0.011198048042450013
5.10175e-06;-0.011187423780610965
5.10200e-06;-0.011176799518771883
5.10225e-06;-0.011166175256932835
5.10250e-06;-0.011152654184709333
5.10275e-06;-0.01113133656022235
5.10300e-06;-0.011110018935735367
5.10325e-06;-0.011088701311248311
5.10350e-06;-0.011067383686761328
5.10375e-06;-0.011046066062274346
5.10400e-06;-0.01102474843778729
5.10425e-06;-0.011003430813300307
5.10450e-06;-0.010980737369786133
5.10475e-06;-0.01095434101046904
5.10500e-06;-0.010927944651152035
5.10525e-06;-0.01090154829183503
5.10550e-06;-0.010875151932517936
5.10575e-06;-0.010848755573200931
5.10600e-06;-0.010822359213883926
5.10625e-06;-0.010795962854566833
5.10650e-06;-0.010769519410992558
5.10675e-06;-0.010742949243599975
5.10700e-06;-0.01071745389806839
5.10725e-06;-0.010694851356586647
5.10750e-06;-0.010672248815104828
5.10775e-06;-0.010649646273623085
5.10800e-06;-0.010627043732141342
5.10825e-06;-0.010604441190659522
5.10850e-06;-0.01058183864917778
5.10875e-06;-0.010559236107696037
5.10900e-06;-0.010536633566214218
5.10925e-06;-0.01052290604281512
5.10950e-06;-0.01051181607273132
5.10975e-06;-0.010500726102647481
5.11000e-06;-0.010489636132563682
5.11025e-06;-0.010478546162479882
5.11050e-06;-0.010467456192396045
5.11075e-06;-0.010456366222312245
5.11100e-06;-0.010445276252228406
5.11125e-06;-0.010437794691298765
5.11150e-06;-0.010440024898424112
5.11175e-06;-0.010442255105549464
5.11200e-06;-0.010444485312674811
5.11225e-06;-0.010446715519800157
5.11250e-06;-0.01044894572692551
5.11275e-06;-0.010451175934050856
5.11300e-06;-0.010453406141176201
5.11325e-06;-0.010455636348301555
5.11350e-06;-0.010460504395138404
5.11375e-06;-0.010472471993702498
5.11400e-06;-0.010484439592266633
5.11425e-06;-0.010496407190830729
5.11450e-06;-0.010508374789394823
5.11475e-06;-0.010520342387958959
5.11500e-06;-0.010532309986523054
5.11525e-06;-0.01054427758508719
5.11550e-06;-0.010556245183651284
5.11575e-06;-0.010568746586009769
5.11600e-06;-0.010582684682051296
5.11625e-06;-0.010596622778092778
5.11650e-06;-0.010610560874134258
5.11675e-06;-0.010624498970175787
5.11700e-06;-0.010638437066217267
5.11725e-06;-0.010652375162258747
5.11750e-06;-0.010666313258300275
5.11775e-06;-0.010680251354341756
5.11800e-06;-0.010694189450383237
5.11825e-06;-0.010708127546424764
5.11850e-06;-0.010722065642466245
5.11875e-06;-0.010732741900108193
5.11900e-06;-0.01073463915941312
5.11925e-06;-0.010736536418718043
5.11950e-06;-0.01073843367802297
5.11975e-06;-0.01074033093732789
5.12000e-06;-0.01074222819663281
5.12025e-06;-0.010744125455937737
5.12050e-06;-0.01074602271524266
5.12075e-06;-0.01074791997454758
5.12100e-06;-0.010749817233852507
5.12125e-06;-0.010751714493157427
5.12150e-06;-0.010753611752462349
5.12175e-06;-0.010751259970286167
5.12200e-06;-0.010737472205230272
5.12225e-06;-0.010723684440174377
5.12250e-06;-0.010709896675118435
5.12275e-06;-0.01069610891006254
5.12300e-06;-0.010682321145006645
5.12325e-06;-0.010668533379950704
5.12350e-06;-0.010654745614894809
5.12375e-06;-0.010638585471849234
5.12400e-06;-0.010616040247793586
5.12425e-06;-0.010593495023737938
5.12450e-06;-0.010570949799682214
5.12475e-06;-0.010548404575626566
5.12500e-06;-0.010525859351570918
5.12525e-06;-0.010503314127515194
5.12550e-06;-0.010480768903459546
5.12575e-06;-0.010457633060535543
5.12600e-06;-0.010432907610332637
5.12625e-06;-0.010408182160129814
5.12650e-06;-0.010383456709926991
5.12675e-06;-0.010358731259724084
5.12700e-06;-0.010334005809521261
5.12725e-06;-0.010309280359318438
5.12750e-06;-0.010284554909115532
5.12775e-06;-0.010261465266297523
5.12800e-06;-0.010242778278837801
5.12825e-06;-0.010224091291378141
5.12850e-06;-0.010205404303918482
5.12875e-06;-0.010186717316458758
5.12900e-06;-0.010168030328999099
5.12925e-06;-0.010149343341539439
5.12950e-06;-0.010130656354079717
5.12975e-06;-0.010114851845364987
5.13000e-06;-0.010106805316354267
5.13025e-06;-0.010098758787343518
5.13050e-06;-0.010090712258332798
5.13075e-06;-0.010082665729322076
5.13100e-06;-0.010074619200311328
5.13125e-06;-0.010066572671300606
5.13150e-06;-0.010058526142289886
5.13175e-06;-0.010050479613279137
5.13200e-06;-0.010042433084268417
5.13225e-06;-0.010042046527264533
5.13250e-06;-0.010043936425853316
5.13275e-06;-0.010045826324442099
5.13300e-06;-0.010047716223030889
5.13325e-06;-0.010049606121619672
5.13350e-06;-0.010051496020208455
5.13375e-06;-0.010053385918797245
5.13400e-06;-0.010055275817386028
5.13425e-06;-0.01005716571597481
5.13450e-06;-0.01006054018274709
5.13475e-06;-0.010067910255681453
5.13500e-06;-0.010075280328615816
5.13525e-06;-0.010082650401550203
5.13550e-06;-0.010090020474484566
5.13575e-06;-0.010097390547418927
5.13600e-06;-0.010104760620353316
5.13625e-06;-0.010112130693287678
5.13650e-06;-0.010119500766222067
5.13675e-06;-0.010126797141448648
5.13700e-06;-0.010133895164710938
5.13725e-06;-0.01014099318797325
5.13750e-06;-0.01014809121123554
5.13775e-06;-0.010155189234497828
5.13800e-06;-0.01016228725776014
5.13825e-06;-0.010169385281022429
5.13850e-06;-0.010176483304284719
5.13875e-06;-0.010183581327547032
5.13900e-06;-0.010190311417825587
5.13925e-06;-0.010196051243518632
5.13950e-06;-0.010201791069211694
5.13975e-06;-0.010207530894904738
5.14000e-06;-0.010213270720597783
5.14025e-06;-0.010219010546290845
5.14050e-06;-0.01022475037198389
5.14075e-06;-0.010230490197676953
5.14100e-06;-0.010236230023369996
5.14125e-06;-0.01024196984906304
5.14150e-06;-0.010247709674756102
5.14175e-06;-0.010254304568680964
5.14200e-06;-0.010263200815910757
5.14225e-06;-0.01027209706314058
5.14250e-06;-0.010280993310370372
5.14275e-06;-0.010289889557600166
5.14300e-06;-0.010298785804829989
5.14325e-06;-0.010307682052059782
5.14350e-06;-0.010316578299289574
5.14375e-06;-0.010325474546519397
5.14400e-06;-0.01033437079374919
5.14425e-06;-0.010343267040978982
5.14450e-06;-0.010352526323678762
5.14475e-06;-0.010362762689665482
5.14500e-06;-0.010372999055652239
5.14525e-06;-0.010383235421638961
5.14550e-06;-0.010393471787625683
5.14575e-06;-0.01040370815361244
5.14600e-06;-0.010413944519599162
5.14625e-06;-0.010424180885585884
5.14650e-06;-0.010434417251572639
5.14675e-06;-0.010444653617559361
5.14700e-06;-0.010454889983546083
5.14725e-06;-0.01046512634953284
5.14750e-06;-0.010475362715519562
