Time(s);Current(A)
1.03000e-05;-0.0028670791195063478
1.03003e-05;-0.002862896912004777
1.03005e-05;-0.002858714704503178
1.03008e-05;-0.002854532497001579
1.03010e-05;-0.0028503502895000084
1.03013e-05;-0.0028461680819984094
1.03015e-05;-0.0028419858744968105
1.03018e-05;-0.0028378036669952397
1.03020e-05;-0.0028336214594936408
1.03023e-05;-0.002829439251992042
1.03025e-05;-0.002825257044490471
1.03028e-05;-0.002821926629225509
1.03030e-05;-0.002818952226376188
1.03032e-05;-0.002815977823526887
1.03035e-05;-0.0028130034206775663
1.03038e-05;-0.0028100290178282453
1.03040e-05;-0.0028070546149789443
1.03043e-05;-0.0028040802121296234
1.03045e-05;-0.0028011058092803024
1.03047e-05;-0.0027981314064310014
1.03050e-05;-0.0027951570035816805
1.03053e-05;-0.0027921826007323595
1.03055e-05;-0.0027892081978830585
1.03058e-05;-0.0027862337950337376
1.03060e-05;-0.0027841417871126363
1.03063e-05;-0.0027854667149518862
1.03065e-05;-0.0027867916427911266
1.03068e-05;-0.0027881165706303765
1.03070e-05;-0.002789441498469626
1.03073e-05;-0.0027907664263088668
1.03075e-05;-0.0027920913541481162
1.03078e-05;-0.002793416281987366
1.03080e-05;-0.0027947412098266065
1.03083e-05;-0.0027960661376658564
1.03085e-05;-0.002797391065505106
1.03088e-05;-0.0027987159933443467
1.03090e-05;-0.002801980069497773
1.03093e-05;-0.002806054626007861
1.03095e-05;-0.0028101291825179215
1.03098e-05;-0.0028142037390280093
1.03100e-05;-0.0028182782955380975
1.03103e-05;-0.002822352852048158
1.03105e-05;-0.002826427408558246
1.03108e-05;-0.002830501965068334
1.03110e-05;-0.0028345765215783943
1.03113e-05;-0.0028386510780884825
1.03115e-05;-0.0028427256345985707
1.03117e-05;-0.0028468120310987137
1.03120e-05;-0.002850944276100762
1.03123e-05;-0.00285507652110281
1.03125e-05;-0.0028592087661048304
1.03128e-05;-0.002863341011106879
1.03130e-05;-0.002867473256108927
1.03132e-05;-0.0028716055011109476
1.03135e-05;-0.0028755534655463943
1.03138e-05;-0.002878787832432712
1.03140e-05;-0.002882023991300661
1.03143e-05;-0.0028852670893361157
1.03145e-05;-0.0028891026403991336
1.03148e-05;-0.002895232372754609
1.03150e-05;-0.002902289364025255
1.03153e-05;-0.0029129370198004044
1.03155e-05;-0.002923584675575554
1.03158e-05;-0.0029351813170478084
1.03160e-05;-0.0029504527565752804
1.03163e-05;-0.0029657241961027524
1.03165e-05;-0.002982506092983084
1.03168e-05;-0.0030051369987155966
1.03170e-05;-0.003027767904448109
1.03173e-05;-0.0030503988101804685
1.03175e-05;-0.003074556818784358
1.03178e-05;-0.003104628293396117
1.03180e-05;-0.0031346997680076726
1.03183e-05;-0.0031647712426194317
1.03185e-05;-0.0031958745641598937
1.03188e-05;-0.0032309735508598333
1.03190e-05;-0.003266701188616839
1.03193e-05;-0.0033048631788496047
1.03195e-05;-0.003343374509932007
1.03198e-05;-0.0033834060513508197
1.03200e-05;-0.003424213004238914
1.03202e-05;-0.003465629120383544
1.03205e-05;-0.003507619989646332
1.03208e-05;-0.003550168914324445
1.03210e-05;-0.00359311075650006
1.03213e-05;-0.00363618537215765
1.03215e-05;-0.0036791285879884885
1.03217e-05;-0.003721675818908988
1.03220e-05;-0.0037635684825940447
1.03223e-05;-0.003804588254043978
1.03225e-05;-0.003844598991381727
1.03228e-05;-0.0038834756716794564
1.03230e-05;-0.003920811135250512
1.03232e-05;-0.0039561618118762396
1.03235e-05;-0.0039908851515653805
1.03238e-05;-0.004022684258276015
1.03240e-05;-0.004052073903343842
1.03243e-05;-0.004079276298599438
1.03245e-05;-0.004105434160522362
1.03248e-05;-0.004131881008935243
1.03250e-05;-0.004159008318653486
1.03253e-05;-0.004186582119287193
1.03255e-05;-0.004214338558809102
1.03258e-05;-0.004241997705673658
1.03260e-05;-0.004269280102005088
1.03263e-05;-0.0042966778541687345
1.03265e-05;-0.004324522303673756
1.03268e-05;-0.004352963172458939
1.03270e-05;-0.004383713581227593
1.03273e-05;-0.004414463989996039
1.03275e-05;-0.004445618342148732
1.03278e-05;-0.0044783369016097125
1.03280e-05;-0.004511055461070472
1.03283e-05;-0.004543774020531452
1.03285e-05;-0.004578124836724021
1.03287e-05;-0.004613157865828766
1.03290e-05;-0.004648190894933748
1.03293e-05;-0.004683605175815083
1.03295e-05;-0.0047204957943179264
1.03298e-05;-0.0047574239727564424
1.03300e-05;-0.004794497596145448
1.03302e-05;-0.004831577145020197
1.03305e-05;-0.004868679639409016
1.03308e-05;-0.004905823516627446
1.03310e-05;-0.0049431276423534155
1.03313e-05;-0.004980357986221767
1.03315e-05;-0.005017188030180836
1.03317e-05;-0.005053410908782902
1.03320e-05;-0.005088797844056694
1.03323e-05;-0.005123188081168352
1.03325e-05;-0.005156562178242797
1.03328e-05;-0.005188929777941225
1.03330e-05;-0.005220156326532741
1.03333e-05;-0.005250010544900584
1.03335e-05;-0.00527825662948897
1.03338e-05;-0.005304659600292409
1.03340e-05;-0.005328951445871558
1.03343e-05;-0.005350633695191054
1.03345e-05;-0.005368763821352895
1.03348e-05;-0.005382416545142509
1.03350e-05;-0.005390804331847598
1.03353e-05;-0.005393572688200652
1.03355e-05;-0.00539399694140883
1.03358e-05;-0.005385344023368118
1.03360e-05;-0.005376691105327345
1.03363e-05;-0.005364229735141431
1.03365e-05;-0.00533702073220308
1.03368e-05;-0.005309811729264545
1.03370e-05;-0.005282602726326009
1.03373e-05;-0.005255393723387658
1.03375e-05;-0.005213403666383572
1.03378e-05;-0.005165235766304672
1.03380e-05;-0.0051170678662261
1.03383e-05;-0.0050688999661472
1.03385e-05;-0.00501767178617378
1.03387e-05;-0.004954593152975072
1.03390e-05;-0.004891514519775937
1.03393e-05;-0.004826554990778123
1.03395e-05;-0.004754311988224832
1.03398e-05;-0.004682068985671051
1.03400e-05;-0.004608776280087775
1.03402e-05;-0.004531418764395589
1.03405e-05;-0.004453476919326054
1.03408e-05;-0.004373272350522744
1.03410e-05;-0.004292808254990161
1.03413e-05;-0.004211339182961719
1.03415e-05;-0.004129919951915715
1.03418e-05;-0.004048857342119345
1.03420e-05;-0.003968685079707064
1.03423e-05;-0.003889840130867839
1.03425e-05;-0.003812689929811811
1.03428e-05;-0.003737605530286796
1.03430e-05;-0.0036654087220917707
1.03433e-05;-0.003596932880547202
1.03435e-05;-0.0035305729870434696
1.03438e-05;-0.0034724067699845726
1.03440e-05;-0.0034142405529256755
1.03443e-05;-0.0033577569827442856
1.03445e-05;-0.003308408889457701
1.03448e-05;-0.0032614604528100476
1.03450e-05;-0.003214512016162712
1.03453e-05;-0.0031685603609457615
1.03455e-05;-0.0031264685852602126
1.03458e-05;-0.003084376809574949
1.03460e-05;-0.0030464654726973565
1.03463e-05;-0.0030103013789347204
1.03465e-05;-0.0029747567182748826
1.03468e-05;-0.002941610715013674
1.03470e-05;-0.0029084647117524655
1.03472e-05;-0.002876114449226309
1.03475e-05;-0.0028468455677132963
1.03478e-05;-0.0028175766862002837
1.03480e-05;-0.002788307804687469
1.03483e-05;-0.0027590389231744563
1.03485e-05;-0.0027325081928832678
1.03487e-05;-0.002707121891703713
1.03490e-05;-0.002681735590523986
1.03493e-05;-0.002656349289344259
1.03495e-05;-0.002631594774524826
1.03498e-05;-0.0026092867531550693
1.03500e-05;-0.0025869787317851617
1.03503e-05;-0.002564670710415254
1.03505e-05;-0.002542362689045498
1.03508e-05;-0.00252189865051129
1.03510e-05;-0.0025022053172696155
1.03513e-05;-0.002482511984028074
1.03515e-05;-0.0024628186507863995
1.03518e-05;-0.0024438807835173554
1.03520e-05;-0.002427868339571506
1.03523e-05;-0.002411855895625548
1.03525e-05;-0.00239584345167959
1.03528e-05;-0.0023798310077337405
1.03530e-05;-0.0023638185637877823
1.03533e-05;-0.0023478061198418244
1.03535e-05;-0.002335456455583437
1.03538e-05;-0.0023246376752552186
1.03540e-05;-0.0023138188949269997
1.03543e-05;-0.002303000114598854
1.03545e-05;-0.0022921813342706354
1.03548e-05;-0.0022813625539424166
1.03550e-05;-0.002272064986180618
1.03553e-05;-0.002268658075156586
1.03555e-05;-0.0022652511641325537
1.03557e-05;-0.002261844253108545
1.03560e-05;-0.0022584373420845125
1.03563e-05;-0.0022550304310604806
1.03565e-05;-0.0022516235200364717
1.03568e-05;-0.002249787572765748
1.03570e-05;-0.002254034935890331
1.03572e-05;-0.0022582822990148852
1.03575e-05;-0.002262529662139469
1.03578e-05;-0.002266777025264052
1.03580e-05;-0.002271024388388635
1.03583e-05;-0.002275271751513189
1.03585e-05;-0.002280748257037999
1.03588e-05;-0.0022909844234555977
1.03590e-05;-0.002301220589873127
1.03593e-05;-0.0023114567562907257
1.03595e-05;-0.0023216929227083244
1.03598e-05;-0.0023319290891258538
1.03600e-05;-0.0023421652555434525
1.03603e-05;-0.0023524014219610517
1.03605e-05;-0.0023645276133144847
1.03608e-05;-0.002377443753572797
1.03610e-05;-0.0023903598938311093
1.03613e-05;-0.002403276034089334
1.03615e-05;-0.0024161921743476463
1.03618e-05;-0.002429108314605958
1.03620e-05;-0.002442024454864183
1.03623e-05;-0.002454824630813102
1.03625e-05;-0.002467175753187438
1.03628e-05;-0.00247952687556169
1.03630e-05;-0.00249129247145468
1.03633e-05;-0.0025007907080123017
1.03635e-05;-0.0025102889445698592
1.03638e-05;-0.0025197871811274814
1.03640e-05;-0.0025292854176851036
1.03642e-05;-0.002538783654242661
1.03645e-05;-0.002548281890800283
1.03648e-05;-0.00255413144373791
1.03650e-05;-0.002558456004293009
1.03653e-05;-0.0025627805648481368
1.03655e-05;-0.0025671051254032647
1.03657e-05;-0.002571429685958363
1.03660e-05;-0.002575754246513491
1.03663e-05;-0.0025788112701381673
1.03665e-05;-0.0025769599560802594
1.03668e-05;-0.002575108642022364
1.03670e-05;-0.002573257327964456
1.03673e-05;-0.0025714060139065483
1.03675e-05;-0.002569554699848653
1.03678e-05;-0.002567703385790745
1.03680e-05;-0.002565852071732837
1.03683e-05;-0.0025640007576749418
1.03685e-05;-0.0025610844808693217
1.03688e-05;-0.002554044303086934
1.03690e-05;-0.0025470041253045947
1.03693e-05;-0.0025399639475222075
1.03695e-05;-0.0025329237697398204
1.03698e-05;-0.002525883591957481
1.03700e-05;-0.0025188434141750937
1.03703e-05;-0.0025118032363927066
1.03705e-05;-0.002504763058610367
1.03708e-05;-0.0024973566730509896
1.03710e-05;-0.002488532205391993
1.03713e-05;-0.0024797077377330563
1.03715e-05;-0.0024708832700740596
1.03718e-05;-0.0024620588024150633
1.03720e-05;-0.002453312818773746
1.03723e-05;-0.0024448707521638863
1.03725e-05;-0.0024364286855540268
1.03727e-05;-0.0024279866189442245
1.03730e-05;-0.002419544552334365
1.03733e-05;-0.0024112830888030376
1.03735e-05;-0.0024038090044664604
1.03738e-05;-0.002396775310644174
1.03740e-05;-0.002390289585234305
1.03742e-05;-0.0023848350300194887
1.03745e-05;-0.002381646520744622
1.03748e-05;-0.0023820317137093166
1.03750e-05;-0.002386782432767755
1.03753e-05;-0.002396077381308351
1.03755e-05;-0.0024068154962969194
1.03758e-05;-0.002423142046691271
1.03760e-05;-0.00244088555281515
1.03763e-05;-0.002464115997455071
1.03765e-05;-0.0024896197739082446
1.03768e-05;-0.002523926670758479
1.03770e-05;-0.0025582335676089456
1.03773e-05;-0.0025942983267779446
1.03775e-05;-0.002637938867919936
1.03778e-05;-0.002685258341695509
1.03780e-05;-0.0027359523957401215
1.03783e-05;-0.0027898642414555005
1.03785e-05;-0.0028471322605523454
1.03788e-05;-0.0029079227541360664
1.03790e-05;-0.0029720509970461596
1.03793e-05;-0.0030391110505827716
1.03795e-05;-0.0031086867091269735
1.03798e-05;-0.0031803620415763495
1.03800e-05;-0.0032537334100780136
1.03803e-05;-0.003328489555624012
1.03805e-05;-0.0034045040664164527
1.03808e-05;-0.0034816686203117185
1.03810e-05;-0.0035596544889270887
1.03812e-05;-0.0036379943862446967
1.03815e-05;-0.0037162147347364147
1.03818e-05;-0.0037938420524448757
1.03820e-05;-0.0038704110644347395
1.03823e-05;-0.003945513937827225
1.03825e-05;-0.004018858559630488
1.03827e-05;-0.0040901644838242535
1.03830e-05;-0.004159012710834561
1.03833e-05;-0.0042248986183687325
1.03835e-05;-0.0042873126774061006
1.03838e-05;-0.004345745275553754
1.03840e-05;-0.004399747452263642
1.03843e-05;-0.004449318048353602
1.03845e-05;-0.004495414097347659
1.03848e-05;-0.004539256866224072
1.03850e-05;-0.004581182155820692
1.03853e-05;-0.004620639899314804
1.03855e-05;-0.004657086044119163
1.03858e-05;-0.004692309101715711
1.03860e-05;-0.004722795946195542
1.03863e-05;-0.004752427418102066
1.03865e-05;-0.004778258697190556
1.03868e-05;-0.004802200672277321
1.03870e-05;-0.004825519324467682
1.03873e-05;-0.0048464242566387886
1.03875e-05;-0.004866359416127869
1.03878e-05;-0.004882539283216664
1.03880e-05;-0.004898719150305458
1.03883e-05;-0.004914011245792514
1.03885e-05;-0.004925865585183507
1.03888e-05;-0.004937213868957036
1.03890e-05;-0.004946602531831671
1.03893e-05;-0.00495599119470637
1.03895e-05;-0.004964679726368941
1.03897e-05;-0.004970657109873212
1.03900e-05;-0.004976634493377523
1.03903e-05;-0.0049820369773116635
1.03905e-05;-0.004985213252952369
1.03908e-05;-0.004988389528593095
1.03910e-05;-0.004991162329610305
1.03912e-05;-0.004992372738516441
1.03915e-05;-0.004993583147422584
1.03918e-05;-0.004994793556328728
1.03920e-05;-0.004996003965234872
1.03923e-05;-0.004996021906365267
1.03925e-05;-0.00499554144739705
1.03928e-05;-0.004995060988428833
1.03930e-05;-0.00499458052946062
1.03933e-05;-0.004994069466100641
1.03935e-05;-0.004993435495711891
1.03938e-05;-0.004992779531469802
1.03940e-05;-0.004992029967311358
1.03943e-05;-0.004990609993400286
1.03945e-05;-0.004986921311806472
1.03948e-05;-0.0049792457359537625
1.03950e-05;-0.004966625872454468
1.03953e-05;-0.004948910254440253
1.03955e-05;-0.004929611289228019
1.03958e-05;-0.004904181060666856
1.03960e-05;-0.004877212260556127
1.03963e-05;-0.00484428558376124
1.03965e-05;-0.004808756137248691
1.03968e-05;-0.0047631478737862176
1.03970e-05;-0.004717539610323436
1.03973e-05;-0.00466906920970156
1.03975e-05;-0.004609515632447747
1.03978e-05;-0.0045499620551935314
1.03980e-05;-0.004488072466592084
1.03982e-05;-0.004417137040933544
1.03985e-05;-0.004346201615274523
1.03988e-05;-0.004273276628053561
1.03990e-05;-0.004192647376156772
1.03993e-05;-0.004110797044071678
1.03995e-05;-0.004024218270737056
1.03997e-05;-0.003936827347427269
1.04000e-05;-0.003846291500888427
1.04003e-05;-0.0037553126525932262
1.04005e-05;-0.0036623375102085897
1.04008e-05;-0.003568061735145032
1.04010e-05;-0.0034728625089526424
1.04013e-05;-0.0033773020291801353
1.04015e-05;-0.0032819504563885264
1.04018e-05;-0.0031873785001700528
1.04020e-05;-0.003094145616982028
1.04023e-05;-0.0030027337581426273
1.04025e-05;-0.002913467385869405
1.04028e-05;-0.0028266524253740964
1.04030e-05;-0.0027427773593993766
1.04033e-05;-0.002662445769360103
1.04035e-05;-0.0025862668296927583
1.04038e-05;-0.002514849255272664
1.04040e-05;-0.0024492188504214615
1.04043e-05;-0.002389855068946931
1.04045e-05;-0.00233190580610582
1.04048e-05;-0.0022794340445140876
1.04050e-05;-0.0022281911761498135
1.04053e-05;-0.0021817070038059206
1.04055e-05;-0.0021367207608670854
1.04058e-05;-0.0020975350142941737
1.04060e-05;-0.0020599658263118856
1.04063e-05;-0.0020286565075831407
1.04065e-05;-0.001998692465316477
1.04067e-05;-0.0019739377948680436
1.04070e-05;-0.0019491831244194424
1.04073e-05;-0.0019259576753578526
1.04075e-05;-0.0019086538959471506
1.04078e-05;-0.0018913501165363313
1.04080e-05;-0.0018754409129937031
1.04082e-05;-0.0018649319854771352
1.04085e-05;-0.0018553393021587261
1.04088e-05;-0.0018492946305983854
1.04090e-05;-0.0018432499590380444
1.04093e-05;-0.0018381715399104722
1.04095e-05;-0.0018368347815750376
1.04098e-05;-0.0018354980232396032
1.04100e-05;-0.00183508059927521
1.04103e-05;-0.0018382231532777277
1.04105e-05;-0.0018413657072802454
1.04108e-05;-0.0018449162278066636
1.04110e-05;-0.0018500465346242547
1.04113e-05;-0.0018554851021069345
1.04115e-05;-0.0018621173606015846
1.04118e-05;-0.0018687496190962795
1.04120e-05;-0.0018756324284826603
1.04123e-05;-0.0018834854568470867
1.04125e-05;-0.0018912931839155345
1.04128e-05;-0.0018989254888298302
1.04130e-05;-0.001906557793744074
1.04133e-05;-0.0019140487710391616
1.04135e-05;-0.0019209014466571952
1.04138e-05;-0.00192729856167545
1.04140e-05;-0.0019332345301646086
1.04143e-05;-0.0019390942027815966
1.04145e-05;-0.0019460585692063581
1.04148e-05;-0.0019554195640780246
1.04150e-05;-0.001967574734612318
1.04152e-05;-0.0019825792376624856
1.04155e-05;-0.0020004317600952897
1.04158e-05;-0.00201914280898843
1.04160e-05;-0.00204117836676497
1.04163e-05;-0.0020642789111807356
1.04165e-05;-0.002091503449097217
1.04167e-05;-0.0021201078845605615
1.04170e-05;-0.002154055756558514
1.04173e-05;-0.0021891972555846354
1.04175e-05;-0.002228960887815096
1.04178e-05;-0.0022694693392968012
1.04180e-05;-0.0023132990865177656
1.04183e-05;-0.0023592918903879434
1.04185e-05;-0.002407641088780582
1.04188e-05;-0.0024585834888013213
1.04190e-05;-0.0025120047513156364
1.04193e-05;-0.0025675657539168924
1.04195e-05;-0.0026249163732042172
1.04198e-05;-0.002683707357111513
1.04200e-05;-0.002743601717335231
1.04203e-05;-0.0028043589825003296
1.04205e-05;-0.0028659340119198914
1.04208e-05;-0.0029283091562418858
1.04210e-05;-0.0029912469861827686
1.04213e-05;-0.00305436887641384
1.04215e-05;-0.0031172897250500726
1.04218e-05;-0.0031796244779938934
1.04220e-05;-0.0032409963898410448
1.04223e-05;-0.003301088701094394
1.04225e-05;-0.003359707309279668
1.04228e-05;-0.003416675479685721
1.04230e-05;-0.003471678454778755
1.04233e-05;-0.003524313180314375
1.04235e-05;-0.003574172805585387
1.04237e-05;-0.003620850205368097
1.04240e-05;-0.0036639932441292324
1.04243e-05;-0.0037036596047951872
1.04245e-05;-0.003740777931826213
1.04248e-05;-0.0037764991600557165
1.04250e-05;-0.003811146708606123
1.04252e-05;-0.0038442983935984376
1.04255e-05;-0.0038755291319849494
1.04258e-05;-0.0039059344119461315
1.04260e-05;-0.003933143233794166
1.04263e-05;-0.003959793960878261
1.04265e-05;-0.003984059388681722
1.04268e-05;-0.004007456772893143
1.04270e-05;-0.004030465129835669
1.04273e-05;-0.0040519670397771036
1.04275e-05;-0.004073468949718538
1.04278e-05;-0.004094383854258893
1.04280e-05;-0.004113025672573684
1.04283e-05;-0.004131282334300104
1.04285e-05;-0.004148047537626931
1.04288e-05;-0.004164602895920993
1.04290e-05;-0.004180345662281435
1.04293e-05;-0.004196088428641769
1.04295e-05;-0.004211356001291633
1.04298e-05;-0.004224783460926473
1.04300e-05;-0.004238210920561224
1.04303e-05;-0.004251638380196064
1.04305e-05;-0.004264658677707966
1.04308e-05;-0.004276102303843477
1.04310e-05;-0.0042875459299790645
1.04313e-05;-0.004298989556114652
1.04315e-05;-0.004310018196468127
1.04318e-05;-0.004319439869554081
1.04320e-05;-0.004328861542640036
1.04322e-05;-0.004338283215725926
1.04325e-05;-0.004347704888811881
1.04328e-05;-0.004355742525707084
1.04330e-05;-0.004363201695167701
1.04333e-05;-0.004370660864628368
1.04335e-05;-0.0043781200340890355
1.04337e-05;-0.004385260761774337
1.04340e-05;-0.004391168373695767
1.04343e-05;-0.0043970113787056165
1.04345e-05;-0.004402604203596826
1.04348e-05;-0.00440839612163095
1.04350e-05;-0.004414958996593837
1.04353e-05;-0.004421521871556723
1.04355e-05;-0.004428267321573925
1.04358e-05;-0.004435719764815998
1.04360e-05;-0.004443172208058071
1.04363e-05;-0.004450624651300094
1.04365e-05;-0.004458444164062327
1.04368e-05;-0.004467685095893627
1.04370e-05;-0.004476926027724865
1.04373e-05;-0.004486166959556165
1.04375e-05;-0.004495811211501635
1.04378e-05;-0.004507017257248363
1.04380e-05;-0.004518223302995166
1.04383e-05;-0.004529429348741969
1.04385e-05;-0.004540635394488696
1.04388e-05;-0.0045522190848366366
1.04390e-05;-0.004565265144594107
1.04393e-05;-0.00457831120435149
1.04395e-05;-0.004591357264108961
1.04398e-05;-0.004604403323866433
1.04400e-05;-0.004617586956842205
1.04403e-05;-0.0046313033205007135
1.04405e-05;-0.004645019684159221
1.04407e-05;-0.004658776666068247
1.04410e-05;-0.0046726909357738605
1.04413e-05;-0.004686605205479474
1.04415e-05;-0.004700415301318722
1.04418e-05;-0.00471382200022117
1.04420e-05;-0.0047272286991236175
1.04422e-05;-0.004740414052453244
1.04425e-05;-0.004752742279814288
1.04428e-05;-0.004765070507175331
1.04430e-05;-0.00477720637924447
1.04433e-05;-0.004788470943429682
1.04435e-05;-0.00479910013211628
1.04438e-05;-0.004809000168441214
1.04440e-05;-0.00481804837608898
1.04443e-05;-0.004825903321683085
1.04445e-05;-0.0048317907223612575
1.04448e-05;-0.004834610703544296
1.04450e-05;-0.004833840266944443
