Time(s);Current(A)
5.00000e-06;-0.00010249906002327174
5.00025e-06;-0.00010644789320549301
5.00050e-06;-0.00011031314025469638
5.00075e-06;-0.00011390369073208004
5.00100e-06;-0.0001173900239121441
5.00125e-06;-0.00012053385848319841
5.00150e-06;-0.00012367769305424205
5.00175e-06;-0.00012666468041882818
5.00200e-06;-0.00012913620680505284
5.00225e-06;-0.00013160773319126912
5.00250e-06;-0.00013398941775292263
5.00275e-06;-0.0001360758471051809
5.00300e-06;-0.00013816227645743208
5.00325e-06;-0.000140092945707358
5.00350e-06;-0.0001415117266263078
5.00375e-06;-0.00014293050754525278
5.00400e-06;-0.0001443492884642026
5.00425e-06;-0.0001457680693831476
5.00450e-06;-0.0001471868503020926
5.00475e-06;-0.0001486056312210424
5.00500e-06;-0.0001500244121399874
5.00525e-06;-0.0001514431930589324
5.00550e-06;-0.00015239864355557224
5.00575e-06;-0.00015318557860331196
5.00600e-06;-0.0001539725136510517
5.00625e-06;-0.00015475944869879408
5.00650e-06;-0.00015554638374653382
5.00675e-06;-0.00015633331879427354
5.00700e-06;-0.00015712025384201592
5.00725e-06;-0.00015790718888975566
5.00750e-06;-0.00015864123879419465
5.00775e-06;-0.00015920148753048867
5.00800e-06;-0.00015965533292890472
5.00825e-06;-0.00015975949553810972
5.00850e-06;-0.00015962436776156027
5.00875e-06;-0.0001584212238698592
5.00900e-06;-0.00015629258426216172
5.00925e-06;-0.0001539017046623051
5.00950e-06;-0.00015048709900042782
5.00975e-06;-0.00014638804541472543
5.01000e-06;-0.00014162735493507042
5.01025e-06;-0.00013613972455585213
5.01050e-06;-0.00012977396044284122
5.01075e-06;-0.00012243992148177973
5.01100e-06;-0.00011416656373176493
5.01125e-06;-0.00010502477175543045
5.01150e-06;-9.508541338000209e-05
5.01175e-06;-8.441925798015813e-05
5.01200e-06;-7.308544122751538e-05
5.01225e-06;-6.108790225445575e-05
5.01250e-06;-4.837679552587382e-05
5.01275e-06;-3.4940493778234955e-05
5.01300e-06;-2.084199705794659e-05
5.01325e-06;-6.170550987961201e-06
5.01350e-06;8.984606387405408e-06
5.01375e-06;2.4534310138137898e-05
5.01400e-06;4.042672910416424e-05
5.01425e-06;5.662317082440405e-05
5.01450e-06;7.293191737155921e-05
5.01475e-06;8.960974129824832e-05
5.01500e-06;0.00010628756522488092
5.01525e-06;0.0001229318236546807
5.01550e-06;0.00013946577279550648
5.01575e-06;0.0001559997219362762
5.01600e-06;0.00017231241899136576
5.01625e-06;0.00018789799556356358
5.01650e-06;0.00020348357213570862
5.01675e-06;0.00021877029741680976
5.01700e-06;0.00023307488101799768
5.01725e-06;0.00024702842221133636
5.01750e-06;0.00025982830139816644
5.01775e-06;0.00027216604428302273
5.01800e-06;0.00028298502737859297
5.01825e-06;0.0002938040104741999
5.01850e-06;0.00030462299356977013
5.01875e-06;0.0003156531745205229
5.01900e-06;0.00032676016912232004
5.01925e-06;0.0003378671637240795
5.01950e-06;0.00034931840201363055
5.01975e-06;0.00036190095906898586
5.02000e-06;0.0003744835161242985
5.02025e-06;0.00038706607317961117
5.02050e-06;0.0003996486302349665
5.02075e-06;0.00041223118729027914
5.02100e-06;0.0004248137443456344
5.02125e-06;0.0004373963014009471
5.02150e-06;0.00044997885845625977
5.02175e-06;0.00046256141551161503
5.02200e-06;0.0004774806796369816
5.02225e-06;0.0004932498150890071
5.02250e-06;0.000509018950541086
5.02275e-06;0.0005247880859931115
5.02300e-06;0.000540557221445137
5.02325e-06;0.0005563263568972159
5.02350e-06;0.0005720954923492413
5.02375e-06;0.0005878646278012668
5.02400e-06;0.0006036337632533457
5.02425e-06;0.0006195680839013293
5.02450e-06;0.0006360452674066899
5.02475e-06;0.0006525224509121063
5.02500e-06;0.0006689996344174668
5.02525e-06;0.0006854768179228833
5.02550e-06;0.0007019540014282438
5.02575e-06;0.0007184311849336044
5.02600e-06;0.000734304981965393
5.02625e-06;0.0007481958161580053
5.02650e-06;0.0007620866503506177
5.02675e-06;0.0007759774845432771
5.02700e-06;0.0007898683187358895
5.02725e-06;0.0008037591529285018
5.02750e-06;0.0008176499871211612
5.02775e-06;0.0008295838089256776
5.02800e-06;0.0008350861261957722
5.02825e-06;0.0008405884434658856
5.02850e-06;0.0008460907607359803
5.02875e-06;0.000851593078006075
5.02900e-06;0.0008570953952761883
5.02925e-06;0.000862597712546283
5.02950e-06;0.0008681000298163963
5.02975e-06;0.0008736023470864911
5.03000e-06;0.0008791046643565857
5.03025e-06;0.0008846069816266991
5.03050e-06;0.0008874029711892878
5.03075e-06;0.0008813049143845603
5.03100e-06;0.0008752068575798123
5.03125e-06;0.0008691088007750849
5.03150e-06;0.0008630107439703574
5.03175e-06;0.0008569126871656093
5.03200e-06;0.0008508146303608818
5.03225e-06;0.0008447165735561545
5.03250e-06;0.0008386185167514064
5.03275e-06;0.000832520459946679
5.03300e-06;0.0008264224031419515
5.03325e-06;0.0008188526880825756
5.03350e-06;0.0008064465311111013
5.03375e-06;0.000794040374139585
5.03400e-06;0.0007816342171681107
5.03425e-06;0.0007692280601966364
5.03450e-06;0.00075682190322512
5.03475e-06;0.0007444157462536457
5.03500e-06;0.0007311536082230728
5.03525e-06;0.0007175801458645623
5.03550e-06;0.0007040066835060978
5.03575e-06;0.0006904332211476333
5.03600e-06;0.0006768597587891228
5.03625e-06;0.0006632862964306583
5.03650e-06;0.0006503307231333059
5.03675e-06;0.0006394057738225514
5.03700e-06;0.000628480824511834
5.03725e-06;0.0006175558752011164
5.03750e-06;0.0006066309258903619
5.03775e-06;0.0005957059765796444
5.03800e-06;0.0005847810272688899
5.03825e-06;0.0005738560779581724
5.03850e-06;0.0005654470295002424
5.03875e-06;0.00055795302598825
5.03900e-06;0.0005504590224762831
5.03925e-06;0.0005429650189643161
5.03950e-06;0.0005354710154523237
5.03975e-06;0.0005279770119403568
5.04000e-06;0.0005204830084283898
5.04025e-06;0.0005134802438921129
5.04050e-06;0.0005080918818593604
5.04075e-06;0.0005027035198266078
5.04100e-06;0.0004973151577938372
5.04125e-06;0.0004919267957610847
5.04150e-06;0.00048653843372833223
5.04175e-06;0.00048115007169556145
5.04200e-06;0.000475761709662809
5.04225e-06;0.00047037334763003826
5.04250e-06;0.0004649849855972858
5.04275e-06;0.00045959662356453334
5.04300e-06;0.0004542082615317626
5.04325e-06;0.00044881989949901015
5.04350e-06;0.0004434315374662577
5.04375e-06;0.0004380431754334869
5.04400e-06;0.00043265481340073444
5.04425e-06;0.00042854532551132564
5.04450e-06;0.00042490097014885223
5.04475e-06;0.0004212566147863912
5.04500e-06;0.00041761225942393013
5.04525e-06;0.0004139679040614567
5.04550e-06;0.00041032354869899567
5.04575e-06;0.0004066791933365346
5.04600e-06;0.0004030348379740612
5.04625e-06;0.0003993904826116001
5.04650e-06;0.0003957461272491267
5.04675e-06;0.00039210177188666565
5.04700e-06;0.0003884574165242046
5.04725e-06;0.0003848130611617312
5.04750e-06;0.00038116870579927014
5.04775e-06;0.0003775243504368091
5.04800e-06;0.0003747135077833038
5.04825e-06;0.0003746419123603802
5.04850e-06;0.00037457031693745665
5.04875e-06;0.00037449872151453287
5.04900e-06;0.0003744271260916093
5.04925e-06;0.00037435553066868574
5.04950e-06;0.00037428393524576196
5.04975e-06;0.0003742123398228384
5.05000e-06;0.0003741407443999149
5.05025e-06;0.00037406914897699105
5.05050e-06;0.0003739975535540675
5.05075e-06;0.0003739259581311437
5.05100e-06;0.00037737546766264206
5.05125e-06;0.00038210561958836465
5.05150e-06;0.0003868357715141033
5.05175e-06;0.0003915659234398259
5.05200e-06;0.00039629607536554847
5.05225e-06;0.0004010262272912871
5.05250e-06;0.0004057563792170097
5.05275e-06;0.0004104865311427323
5.05300e-06;0.00041521668306847086
5.05325e-06;0.00041994683499419345
5.05350e-06;0.00042467698691991604
5.05375e-06;0.0004299442774444844
5.05400e-06;0.00043697681450124005
5.05425e-06;0.0004440093515579957
5.05450e-06;0.00045104188861477514
5.05475e-06;0.00045807442567153073
5.05500e-06;0.0004651069627283102
5.05525e-06;0.0004721394997850658
5.05550e-06;0.0004791720368418214
5.05575e-06;0.0004858713069838824
5.05600e-06;0.000492449366385244
5.05625e-06;0.0004990274257866057
5.05650e-06;0.0005056054851879896
5.05675e-06;0.0005121835445893513
5.05700e-06;0.0005187616039907129
5.05725e-06;0.0005253396633920969
5.05750e-06;0.0005310391190649974
5.05775e-06;0.0005338511408650039
5.05800e-06;0.0005366631626650198
5.05825e-06;0.0005394751844650262
5.05850e-06;0.0005422872062650326
5.05875e-06;0.0005450992280650487
5.05900e-06;0.0005479112498650551
5.05925e-06;0.000550723271665071
5.05950e-06;0.0005535352934650775
5.05975e-06;0.0005563473152650839
5.06000e-06;0.0005591593370650998
5.06025e-06;0.0005619713588651062
5.06050e-06;0.0005635238026060975
5.06075e-06;0.0005609367825193433
5.06100e-06;0.0005583497624325979
5.06125e-06;0.0005557627423458524
5.06150e-06;0.0005531757222590983
5.06175e-06;0.0005505887021723529
5.06200e-06;0.0005480016820856074
5.06225e-06;0.0005454146619988532
5.06250e-06;0.0005428276419121078
5.06275e-06;0.0005402406218253625
5.06300e-06;0.0005376536017386082
5.06325e-06;0.0005350665816518628
5.06350e-06;0.0005318302783839161
5.06375e-06;0.0005264601778312343
5.06400e-06;0.0005210900772785525
5.06425e-06;0.0005157199767258524
5.06450e-06;0.0005103498761731706
5.06475e-06;0.0005049797756204888
5.06500e-06;0.0004996096750677887
5.06525e-06;0.0004942395745151069
5.06550e-06;0.000488880015164789
5.06575e-06;0.0004835550983088733
5.06600e-06;0.00047823018145297554
5.06625e-06;0.0004729052645970778
5.06650e-06;0.000467580347741162
5.06675e-06;0.0004622554308852642
5.06700e-06;0.00045693051402936647
5.06725e-06;0.00045160559717345066
5.06750e-06;0.00044687023010925796
5.06775e-06;0.0004440723531588947
5.06800e-06;0.000441274476208541
5.06825e-06;0.0004384765992581872
5.06850e-06;0.00043567872230782396
5.06875e-06;0.0004328808453574702
5.06900e-06;0.0004300829684071164
5.06925e-06;0.0004272850914567532
5.06950e-06;0.00042448721450639944
5.06975e-06;0.00042168933755604566
5.07000e-06;0.0004188914606056824
5.07025e-06;0.0004160935836553287
5.07050e-06;0.0004132957067049749
5.07075e-06;0.00041249837198698567
5.07100e-06;0.0004124286438658242
5.07125e-06;0.00041235891574466276
5.07150e-06;0.0004122891876235011
5.07175e-06;0.0004122194595023396
5.07200e-06;0.00041214973138117795
5.07225e-06;0.0004120800032600165
5.07250e-06;0.00041201027513885504
5.07275e-06;0.00041194054701769337
5.07300e-06;0.0004118708188965319
5.07325e-06;0.00041180109077537045
5.07350e-06;0.0004117313626542087
5.07375e-06;0.0004119637966807179
5.07400e-06;0.0004131892531491402
5.07425e-06;0.0004144147096175667
5.07450e-06;0.000415640166085989
5.07475e-06;0.0004168656225544113
5.07500e-06;0.00041809107902283774
5.07525e-06;0.00041931653549126004
5.07550e-06;0.00042054199195968233
5.07575e-06;0.0004217674484281088
5.07600e-06;0.0004229929048965311
5.07625e-06;0.00042421836136495757
5.07650e-06;0.00042537141114607787
5.07675e-06;0.0004262865043665096
5.07700e-06;0.0004272015975869444
5.07725e-06;0.00042811669080737607
5.07750e-06;0.00042903178402780776
5.07775e-06;0.0004299468772482426
5.07800e-06;0.0004308619704686743
5.07825e-06;0.00043177706368910596
5.07850e-06;0.0004326921569095408
5.07875e-06;0.0004336072501299725
5.07900e-06;0.00043452234335040416
5.07925e-06;0.00043510081236650583
5.07950e-06;0.00043457300320739204
5.07975e-06;0.00043404519404827824
5.08000e-06;0.0004335173848891626
5.08025e-06;0.0004329895757300488
5.08050e-06;0.00043246176657093323
5.08075e-06;0.0004319339574118194
5.08100e-06;0.0004314061482527056
5.08125e-06;0.00043087833909359
5.08150e-06;0.00043035052993447615
5.08175e-06;0.00042982272077536236
5.08200e-06;0.0004292949116162468
5.08225e-06;0.000428767102457133
5.08250e-06;0.0004279659720509066
5.08275e-06;0.00042626660162928834
5.08300e-06;0.0004245672312076759
5.08325e-06;0.00042286786078606336
5.08350e-06;0.00042116849036444515
5.08375e-06;0.00041946911994283263
5.08400e-06;0.0004177697495212201
5.08425e-06;0.0004160703790996019
5.08450e-06;0.0004143710086779894
5.08475e-06;0.00041267163825637693
5.08500e-06;0.00041097226783475867
5.08525e-06;0.00040927289741314615
5.08550e-06;0.00040757352699152794
5.08575e-06;0.0004058906074347637
5.08600e-06;0.00040426175182381083
5.08625e-06;0.00040263289621285246
5.08650e-06;0.00040100404060189955
5.08675e-06;0.0003993751849909467
5.08700e-06;0.00039774632937998833
5.08725e-06;0.0003961174737690355
5.08750e-06;0.00039448861815808263
5.08775e-06;0.00039285976254712425
5.08800e-06;0.0003912309069361714
5.08825e-06;0.0003895735207890945
5.08850e-06;0.0003879057579521576
5.08875e-06;0.00038623799511522633
5.08900e-06;0.00038457023227829505
5.08925e-06;0.00038290246944135814
5.08950e-06;0.00038123470660442687
5.08975e-06;0.00037956694376748996
5.09000e-06;0.0003778991809305587
5.09025e-06;0.0003762314180936274
5.09050e-06;0.00037429871494752166
5.09075e-06;0.0003714953148108134
5.09100e-06;0.00036869191467410516
5.09125e-06;0.0003658885145373874
5.09150e-06;0.00036308511440067917
5.09175e-06;0.0003602817142639709
5.09200e-06;0.0003574783141272532
5.09225e-06;0.00035467491399054495
5.09250e-06;0.00035187151385383667
5.09275e-06;0.00034906811371711896
5.09300e-06;0.0003462647135804107
5.09325e-06;0.00034289813542329547
5.09350e-06;0.0003393267267777236
5.09375e-06;0.0003357553181321638
5.09400e-06;0.00033218390948659194
5.09425e-06;0.0003286125008410322
5.09450e-06;0.00032504109219547243
5.09475e-06;0.00032146968354990056
5.09500e-06;0.00031789827490434077
5.09525e-06;0.00031432686625878104
5.09550e-06;0.00031075545761320917
5.09575e-06;0.0003072250453615174
5.09600e-06;0.0003038293632189356
5.09625e-06;0.0003004336810763423
5.09650e-06;0.0002970379989337605
5.09675e-06;0.0002937538668161382
5.09700e-06;0.0002908363315041202
5.09725e-06;0.0002879187961921121
5.09750e-06;0.000285001260880104
5.09775e-06;0.0002822495517517951
5.09800e-06;0.0002800428120150742
5.09825e-06;0.00027819366516986514
5.09850e-06;0.0002779616574377654
5.09875e-06;0.000279649052112634
5.09900e-06;0.00028331625770029506
5.09925e-06;0.0002888695394971761
5.09950e-06;0.0002962151230170234
5.09975e-06;0.000305259655731027
5.10000e-06;0.00031595237111344573
5.10025e-06;0.0003284447791448983
5.10050e-06;0.00034308440027002764
5.10075e-06;0.00036007623327486066
5.10100e-06;0.00037935013285717966
5.10125e-06;0.0004009517163806806
5.10150e-06;0.00042477504970275115
5.10175e-06;0.00044938355831775637
5.10200e-06;0.0004765724585939357
5.10225e-06;0.0005045589154077518
5.10250e-06;0.0005351664534727973
5.10275e-06;0.0005666898098418673
5.10300e-06;0.0006012229016626437
5.10325e-06;0.0006357559934835373
5.10350e-06;0.0006711676994446686
5.10375e-06;0.0007094668734926752
5.10400e-06;0.0007477660475408114
5.10425e-06;0.0007860652215888179
5.10450e-06;0.0008243643956368245
5.10475e-06;0.0008629829956156399
5.10500e-06;0.0009026513535467174
5.10525e-06;0.0009423197114777949
5.10550e-06;0.0009819880694090068
5.10575e-06;0.0010216564273400842
5.10600e-06;0.001060878068366577
5.10625e-06;0.0010986316237495254
5.10650e-06;0.0011363851791323458
5.10675e-06;0.0011582336234567069
5.10700e-06;0.0011961581360991876
5.10725e-06;0.0012270180588064854
5.10750e-06;0.0012578779815138877
5.10775e-06;0.0012887379042211852
5.10800e-06;0.001317371236848203
5.10825e-06;0.001341196095318709
5.10850e-06;0.0013650209537891347
5.10875e-06;0.00138884581225956
5.10900e-06;0.0014121825980757412
5.10925e-06;0.0014331597266768366
5.10950e-06;0.0014541368552779322
5.10975e-06;0.0014751139838790988
5.11000e-06;0.0014920831059429005
5.11025e-06;0.0015078971490495314
5.11050e-06;0.001523711192156216
5.11075e-06;0.0015386587718161308
5.11100e-06;0.0015520657085874487
5.11125e-06;0.0015654726453587212
5.11150e-06;0.0015788795821299936
5.11175e-06;0.0015922865189013115
5.11200e-06;0.0016056934556725841
5.11225e-06;0.0016191003924438565
5.11250e-06;0.0016325073292151745
5.11275e-06;0.001645914265986447
5.11300e-06;0.0016593212027577195
5.11325e-06;0.0016727281395290373
5.11350e-06;0.0016861350763003099
5.11375e-06;0.0016985115203713872
5.11400e-06;0.0017071904512502903
5.11425e-06;0.001715869382129164
5.11450e-06;0.0017245483130080377
5.11475e-06;0.0017332272438869408
5.11500e-06;0.0017419061747658143
5.11525e-06;0.0017505851056447174
5.11550e-06;0.001759264036523591
5.11575e-06;0.0017679429674024648
5.11600e-06;0.0017766218982813678
5.11625e-06;0.0017853008291602414
5.11650e-06;0.001793979760039115
5.11675e-06;0.0018019261182714353
5.11700e-06;0.0018052826596140303
5.11725e-06;0.0018086392009566254
5.11750e-06;0.0018119957422992317
5.11775e-06;0.001815352283641827
5.11800e-06;0.001818708824984422
5.11825e-06;0.0018220653663270283
5.11850e-06;0.0018254219076696233
5.11875e-06;0.0018287784490122183
5.11900e-06;0.0018321349903548249
5.11925e-06;0.00183549153169742
5.11950e-06;0.0018388480730400262
5.11975e-06;0.0018422046143826212
5.12000e-06;0.0018455611557252163
5.12025e-06;0.0018489176970678228
5.12050e-06;0.0018522742384104178
5.12075e-06;0.0018556307797530128
5.12100e-06;0.001858165232059159
5.12125e-06;0.001855549016835822
5.12150e-06;0.001852932801612485
5.12175e-06;0.0018503165863891394
5.12200e-06;0.0018477003711658024
5.12225e-06;0.0018450841559424654
5.12250e-06;0.0018424679407191198
5.12275e-06;0.0018398517254957828
5.12300e-06;0.0018372355102724458
5.12325e-06;0.0018346192950491
5.12350e-06;0.0018320030798257632
5.12375e-06;0.0018293868646024173
5.12400e-06;0.0018267706493790804
5.12425e-06;0.0018241544341557436
5.12450e-06;0.0018215382189323978
5.12475e-06;0.0018189220037090608
5.12500e-06;0.0018163057884857238
5.12525e-06;0.0018135161801226078
5.12550e-06;0.0018096402047419562
5.12575e-06;0.0018057642293613045
5.12600e-06;0.0018018882539806397
5.12625e-06;0.001798012278599988
5.12650e-06;0.0017941363032193364
5.12675e-06;0.0017902603278386715
5.12700e-06;0.0017863843524580198
5.12725e-06;0.001782447820711122
5.12750e-06;0.0017781318827254412
5.12775e-06;0.0017738159447397751
5.12800e-06;0.0017695000067540945
5.12825e-06;0.0017651840687684284
5.12850e-06;0.0017608681307827623
5.12875e-06;0.0017565521927970817
5.12900e-06;0.0017522362548114156
5.12925e-06;0.0017468434724040535
5.12950e-06;0.0017347038933001981
5.12975e-06;0.001722564314196384
5.13000e-06;0.0017104247350925698
5.13025e-06;0.0016982851559887145
5.13050e-06;0.0016861455768849003
5.13075e-06;0.0016740059977810862
5.13100e-06;0.001661866418677231
5.13125e-06;0.0016497268395734169
5.13150e-06;0.0016375872604696027
5.13175e-06;0.0016254476813657474
5.13200e-06;0.0016073300572213621
5.13225e-06;0.0015858152085483678
5.13250e-06;0.0015643003598754465
5.13275e-06;0.001542785511202525
5.13300e-06;0.0015212706625295307
5.13325e-06;0.0014997558138566095
5.13350e-06;0.001478240965183688
5.13375e-06;0.0014567261165106937
5.13400e-06;0.0014352112678377724
5.13425e-06;0.001413696419164851
5.13450e-06;0.0013918229145553948
5.13475e-06;0.0013677023084725042
5.13500e-06;0.0013435817023896134
5.13525e-06;0.001319461096306641
5.13550e-06;0.0012953404902237503
5.13575e-06;0.0012712198841408596
5.13600e-06;0.001247099278057887
5.13625e-06;0.001223552038940662
5.13650e-06;0.0012035971389493972
5.13675e-06;0.0011836422389582
5.13700e-06;0.0011636873389670025
5.13725e-06;0.0011437324389757379
5.13750e-06;0.0011237775389845404
5.13775e-06;0.0011038226389933432
5.13800e-06;0.001084639796056687
5.13825e-06;0.001070294153256558
5.13850e-06;0.0010559485104564286
5.13875e-06;0.0010416028676562509
5.13900e-06;0.0010272572248561217
5.13925e-06;0.0010129115820559924
5.13950e-06;0.0009985659392558147
5.13975e-06;0.0009842202964556854
5.14000e-06;0.0009706849498220866
5.14025e-06;0.0009576100811529268
5.14050e-06;0.0009445352124838114
5.14075e-06;0.0009314603438146516
5.14100e-06;0.0009183854751455362
5.14125e-06;0.0009053106064764206
5.14150e-06;0.0008922357378072609
5.14175e-06;0.000879166519544849
5.14200e-06;0.0008661327030029585
5.14225e-06;0.0008530988864610238
5.14250e-06;0.0008400650699191333
5.14275e-06;0.0008270312533772427
5.14300e-06;0.0008139974368353081
5.14325e-06;0.0008009636202934175
5.14350e-06;0.000787929803751527
5.14375e-06;0.0007748959872095922
5.14400e-06;0.0007618621706677017
5.14425e-06;0.0007493708736561234
5.14450e-06;0.0007371878815573293
5.14475e-06;0.0007250048894585766
5.14500e-06;0.0007128218973597825
5.14525e-06;0.0007006389052610297
5.14550e-06;0.000688455913162277
