Time(s);Current(A)
7.25000e-06;-0.0009779843247931944
7.25025e-06;-0.0010275428431845268
7.25050e-06;-0.0010709404366583295
7.25075e-06;-0.0011080702208099518
7.25100e-06;-0.0011388235116152757
7.25125e-06;-0.0011630912986474585
7.25150e-06;-0.001180764475706154
7.25175e-06;-0.0011917377829971233
7.25200e-06;-0.0011959381839214299
7.25225e-06;-0.0011933916640296245
7.25250e-06;-0.0011842385068816222
7.25275e-06;-0.0011686626074020915
7.25300e-06;-0.0011468467148033391
7.25325e-06;-0.0011189734161968583
7.25350e-06;-0.0010853047815179118
7.25375e-06;-0.0010473583732702088
7.25400e-06;-0.0010094862084265262
7.25425e-06;-0.000963419218771208
7.25450e-06;-0.0009079768136435522
7.25475e-06;-0.0008521129516857694
7.25500e-06;-0.0007790219679870598
7.25525e-06;-0.0007098220401433162
7.25550e-06;-0.0006390681414541076
7.25575e-06;-0.0005669651364355131
7.25600e-06;-0.0004903123615558827
7.25625e-06;-0.0004130865559371389
7.25650e-06;-0.0003322712341448782
7.25675e-06;-0.00024994054629887895
7.25700e-06;-0.00016430640369272773
7.25725e-06;-7.765457521578158e-05
7.25750e-06;3.7819676214109886e-06
7.25775e-06;8.406239289698426e-05
7.25800e-06;0.00015579191747954396
7.25825e-06;0.00024007433939294979
7.25850e-06;0.0003134199262346838
7.25875e-06;0.0003903341368986405
7.25900e-06;0.0004646223883151562
7.25925e-06;0.0005341868114656105
7.25950e-06;0.0005977882161399662
7.25975e-06;0.0006555131496438164
7.26000e-06;0.0007082255197243916
7.26025e-06;0.0007554136701327191
7.26050e-06;0.0007968829715238801
7.26075e-06;0.000833091611772057
7.26100e-06;0.0008633462535109618
7.26125e-06;0.0008865868502570044
7.26150e-06;0.0009022913948380822
7.26175e-06;0.0009107683005728364
7.26200e-06;0.0009128128828202528
7.26225e-06;0.0009083587837555923
7.26250e-06;0.000897538268754439
7.26275e-06;0.0008808924478633348
7.26300e-06;0.0008582411612063838
7.26325e-06;0.00082917462562141
7.26350e-06;0.0007936199812215692
7.26375e-06;0.0007520246616521261
7.26400e-06;0.0007051409649096323
7.26425e-06;0.0006531814711714424
7.26450e-06;0.0005964831940831068
7.26475e-06;0.0005356391518287089
7.26500e-06;0.0004707904750635319
7.26525e-06;0.00040193458466248743
7.26550e-06;0.00032927992965651006
7.26575e-06;0.0002533607970057861
7.26600e-06;0.000174902459415622
7.26625e-06;9.429202320548308e-05
7.26650e-06;1.199449780321517e-05
7.26675e-06;-7.145008817960083e-05
7.26700e-06;-0.000155642027274636
7.26725e-06;-0.00023994923509912955
7.26750e-06;-0.00032452474085171166
7.26775e-06;-0.00040850555519422515
7.26800e-06;-0.0004911022987900116
7.26825e-06;-0.0005724366152022554
7.26850e-06;-0.0006508327883965718
7.26875e-06;-0.0007272916372074466
7.26900e-06;-0.0007992416029936354
7.26925e-06;-0.00086941114414307
7.26950e-06;-0.0009340333886804074
7.26975e-06;-0.0009937996706177285
7.27000e-06;-0.0010476044711752563
7.27025e-06;-0.0010961434321573704
7.27050e-06;-0.0011418702682647601
7.27075e-06;-0.0011810522313398452
7.27100e-06;-0.0012173085888115746
7.27125e-06;-0.0012467559608830196
7.27150e-06;-0.0012730825167071
7.27175e-06;-0.0012921457584869043
7.27200e-06;-0.0013081268797756134
7.27225e-06;-0.0013169347466097175
7.27250e-06;-0.0013230044688373385
7.27275e-06;-0.0013227014979622829
7.27300e-06;-0.00131977970605847
7.27325e-06;-0.0013107629319293475
7.27350e-06;-0.00129919547419046
7.27375e-06;-0.0012816916156465276
7.27400e-06;-0.0012618517019894887
7.27425e-06;-0.001236574908822408
7.27450e-06;-0.0012093679286448412
7.27475e-06;-0.0011776686767956369
7.27500e-06;-0.0011439376586597422
7.27525e-06;-0.0011054779556439577
7.27550e-06;-0.0010670182526281735
7.27575e-06;-0.001026643926039509
7.27600e-06;-0.0009818135497571747
7.27625e-06;-0.0009369831734746883
7.27650e-06;-0.0008910753206794942
7.27675e-06;-0.0008426597744904319
7.27700e-06;-0.0007942442283012056
7.27725e-06;-0.0007458286821121433
7.27750e-06;-0.0006975055806447775
7.27775e-06;-0.0006493976328396494
7.27800e-06;-0.0006012896850346843
7.27825e-06;-0.0005531817372297192
7.27850e-06;-0.0005061735089999607
7.27875e-06;-0.0004617247421425751
7.27900e-06;-0.0004182030290427246
7.27925e-06;-0.00037759302263699456
7.27950e-06;-0.00033959071796150635
7.27975e-06;-0.0003045010648682352
7.28000e-06;-0.00027250936506357154
7.28025e-06;-0.00024359070835210832
7.28050e-06;-0.00021762235876927056
7.28075e-06;-0.00019459770251599188
7.28100e-06;-0.00017461487511110307
7.28125e-06;-0.00015778053967033796
7.28150e-06;-0.0001441963146622666
7.28175e-06;-0.0001339451160731786
7.28200e-06;-0.00012703492688604818
7.28225e-06;-0.0001233420431482158
7.28250e-06;-0.00012268146217111336
7.28275e-06;-0.00012494095556064635
7.28300e-06;-0.00013007392991011397
7.28325e-06;-0.00013803910281454056
7.28350e-06;-0.00014879202480951064
7.28375e-06;-0.00016227655750929038
7.28400e-06;-0.00017838961945799362
7.28425e-06;-0.00019694564356154294
7.28450e-06;-0.00021772068762779837
7.28475e-06;-0.00024053638130592506
7.28500e-06;-0.000265255501573351
7.28525e-06;-0.0002919752014455224
7.28550e-06;-0.00032040420138555216
7.28575e-06;-0.0003496552368646373
7.28600e-06;-0.00038081945844664026
7.28625e-06;-0.0004126852986425827
7.28650e-06;-0.0004461840694327573
7.28675e-06;-0.0004796828402229319
7.28700e-06;-0.00051318161101322
7.28725e-06;-0.0005467983583770004
7.28750e-06;-0.0005806896816323754
7.28775e-06;-0.0006145810048878653
7.28800e-06;-0.0006484723281432403
7.28825e-06;-0.000681611728593071
7.28850e-06;-0.0007130011216607856
7.28875e-06;-0.000744390514728394
7.28900e-06;-0.000774700753358996
7.28925e-06;-0.000802499393435067
7.28950e-06;-0.0008290905229877119
7.28975e-06;-0.0008528713210616505
7.29000e-06;-0.0008746732387981463
7.29025e-06;-0.0008918695571656424
7.29050e-06;-0.0009070019240099467
7.29075e-06;-0.0009159314063862423
7.29100e-06;-0.0009202290922746695
7.29125e-06;-0.0009199753197012348
7.29150e-06;-0.0009152500074717558
7.29175e-06;-0.0009061035229788553
7.29200e-06;-0.0008924214546105945
7.29225e-06;-0.0008738346439269472
7.29250e-06;-0.0008500280968498365
7.29275e-06;-0.0008210579536946876
7.29300e-06;-0.0007871880133569767
7.29325e-06;-0.0007486918807902814
7.29350e-06;-0.0007058428349232548
7.29375e-06;-0.0006588956588887267
7.29400e-06;-0.0006080019623176237
7.29425e-06;-0.0005531536975336881
7.29450e-06;-0.0004943768480623426
7.29475e-06;-0.0004319297995034039
7.29500e-06;-0.0003662010112550678
7.29525e-06;-0.00029758506128387663
7.29550e-06;-0.00022647632096603186
7.29575e-06;-0.0001532575731838971
7.29600e-06;-7.824684904220833e-05
7.29625e-06;-1.6622613121396838e-06
7.29650e-06;7.635068538393354e-05
7.29675e-06;0.000155343909107889
7.29700e-06;0.00023433535358469224
7.29725e-06;0.0003133226449778729
7.29750e-06;0.0003923099363713212
7.29775e-06;0.0004704977968212612
7.29800e-06;0.0005468250805715495
7.29825e-06;0.0006219705649593899
7.29850e-06;0.0006943655574170927
7.29875e-06;0.0007650182874397276
7.29900e-06;0.0008316161170128097
7.29925e-06;0.0008958504003409092
7.29950e-06;0.0009545838219515775
7.29975e-06;0.0010105423187433023
7.30000e-06;0.0010600425210377414
7.30025e-06;0.0011072592013810015
7.30050e-06;0.0011491612666582431
7.30075e-06;0.0011888905617171831
7.30100e-06;0.0012235630026781864
7.30125e-06;0.0012558016694948786
7.30150e-06;0.0012823760278389566
7.30175e-06;0.0013063839583675736
7.30200e-06;0.0013244188454020196
7.30225e-06;0.0013403199728587085
7.30250e-06;0.0013512550386609323
7.30275e-06;0.0013597578989079152
7.30300e-06;0.0013626001013801053
7.30325e-06;0.001365442303852305
7.30350e-06;0.001365341949459397
7.30375e-06;0.0013583931577046545
7.30400e-06;0.0013514443659498885
7.30425e-06;0.0013421487430474905
7.30450e-06;0.0013273911607505628
7.30475e-06;0.001312633578453585
7.30500e-06;0.0012960109959836586
7.30525e-06;0.0012750478561516388
7.30550e-06;0.001254084716319548
7.30575e-06;0.0012313230285205784
7.30600e-06;0.0012043754426546318
7.30625e-06;0.0011774278567887766
7.30650e-06;0.0011504802709229214
7.30675e-06;0.001123532685056975
7.30700e-06;0.001095815490978555
7.30725e-06;0.001066307128920005
7.30750e-06;0.001036798766861355
7.30775e-06;0.0010072904048028049
7.30800e-06;0.0009777820427442547
7.30825e-06;0.0009489905807996701
7.30850e-06;0.0009218676152514826
7.30875e-06;0.0008947446497032951
7.30900e-06;0.0008676216841550157
7.30925e-06;0.0008421212594858596
7.30950e-06;0.0008203970981431419
7.30975e-06;0.0007986729368003506
7.31000e-06;0.0007769487754576329
7.31025e-06;0.00075502652140638
7.31050e-06;0.0007326432310633934
7.31075e-06;0.0007090473279080223
7.31100e-06;0.0006826292183283001
7.31125e-06;0.0006562111087486674
7.31150e-06;0.0006290111973614616
7.31175e-06;0.0005999917389091236
7.31200e-06;0.0005700495388615808
7.31225e-06;0.000537959771815308
7.31250e-06;0.0005043595801206084
7.31275e-06;0.0004672440617676602
7.31300e-06;0.0004291538678109414
7.31325e-06;0.00038826828708698693
7.31350e-06;0.0003457214496946184
7.31375e-06;0.00030178376473971596
7.31400e-06;0.00025651195358731275
7.31425e-06;0.00020960001926196694
7.31450e-06;0.0001607293460378413
7.31475e-06;0.00010998124573021075
7.31500e-06;5.767617316473958e-05
7.31525e-06;4.146187381953623e-06
7.31550e-06;-5.027669806157703e-05
7.31575e-06;-0.00010534586906023183
7.31600e-06;-0.00016084363230229392
7.31625e-06;-0.00021666727470494434
7.31650e-06;-0.00027324936057080454
7.31675e-06;-0.0003298314464368564
7.31700e-06;-0.0003861818096815001
7.31725e-06;-0.0004419928671696237
7.31750e-06;-0.0004978039246579364
7.31775e-06;-0.0005525667388302969
7.31800e-06;-0.0006048898962637173
7.31825e-06;-0.000657213053697315
7.31850e-06;-0.0007083109708829361
7.31875e-06;-0.0007565572928499712
7.31900e-06;-0.0008033824029547816
7.31925e-06;-0.0008468998181337213
7.31950e-06;-0.0008886069384194125
7.31975e-06;-0.0009261008211202134
7.32000e-06;-0.000962244066814171
7.32025e-06;-0.0009952438718338302
7.32050e-06;-0.001028243676853378
7.32075e-06;-0.0010601540937022415
7.32100e-06;-0.0010895290942487168
7.32125e-06;-0.0011189040947950928
7.32150e-06;-0.0011482790953414685
7.32175e-06;-0.001177654095887944
7.32200e-06;-0.00120702909643432
7.32225e-06;-0.0012354351578069103
7.32250e-06;-0.001261586133028146
7.32275e-06;-0.0012877371082492934
7.32300e-06;-0.001313888083470529
7.32325e-06;-0.0013400390586916762
7.32350e-06;-0.0013661900339128233
7.32375e-06;-0.0013917793183883666
7.32400e-06;-0.0014160613370867597
7.32425e-06;-0.0014403433557851528
7.32450e-06;-0.0014646253744836283
7.32475e-06;-0.0014889073931820217
7.32500e-06;-0.0015131894118804148
7.32525e-06;-0.0015374714305788904
7.32550e-06;-0.0015617534492772835
7.32575e-06;-0.0015860354679756768
7.32600e-06;-0.0016103174866741521
7.32625e-06;-0.0016345995053725455
7.32650e-06;-0.001655888595823158
7.32675e-06;-0.00167643196417909
7.32700e-06;-0.0016969753325349521
7.32725e-06;-0.0017175187008908839
7.32750e-06;-0.0017380620692467462
7.32775e-06;-0.0017586054376026083
7.32800e-06;-0.0017791488059585403
7.32825e-06;-0.0017996921743144024
7.32850e-06;-0.0018202355426702645
7.32875e-06;-0.0018407789110261965
7.32900e-06;-0.0018578471729878041
7.32925e-06;-0.0018668275543938188
7.32950e-06;-0.001875807935799864
7.32975e-06;-0.0018847883172058786
7.33000e-06;-0.0018937686986118933
7.33025e-06;-0.0019027490800179385
7.33050e-06;-0.0019117294614239531
7.33075e-06;-0.0019207098428299678
7.33100e-06;-0.001929690224236013
7.33125e-06;-0.0019386706056420276
7.33150e-06;-0.0019476509870480726
7.33175e-06;-0.0019566313684540875
7.33200e-06;-0.001965611749860102
7.33225e-06;-0.001974592131266147
7.33250e-06;-0.001971108987638355
7.33275e-06;-0.0019645204150710942
7.33300e-06;-0.0019579318425038115
7.33325e-06;-0.0019513432699365507
7.33350e-06;-0.00194475469736929
7.33375e-06;-0.0019381661248020071
7.33400e-06;-0.0019315775522347463
7.33425e-06;-0.0019249889796674857
7.33450e-06;-0.0019184004071002027
7.33475e-06;-0.0019118118345329421
7.33500e-06;-0.0019052232619656815
7.33525e-06;-0.0018986346893983986
7.33550e-06;-0.0018920461168311377
7.33575e-06;-0.001883375540518264
7.33600e-06;-0.001869859357856276
7.33625e-06;-0.0018563431751942882
7.33650e-06;-0.0018428269925322544
7.33675e-06;-0.0018293108098702666
7.33700e-06;-0.0018157946272082787
7.33725e-06;-0.0018022784445462451
7.33750e-06;-0.0017887622618842573
7.33775e-06;-0.0017755836918245801
7.33800e-06;-0.0017631908733624347
7.33825e-06;-0.001750798054900331
7.33850e-06;-0.0017384052364382274
7.33875e-06;-0.0017260124179760818
7.33900e-06;-0.0017136195995139782
7.33925e-06;-0.0017012267810518746
7.33950e-06;-0.0016888339625897289
7.33975e-06;-0.001676633532477577
7.34000e-06;-0.0016648808624676063
7.34025e-06;-0.0016531281924576752
7.34050e-06;-0.001638100529614781
7.34075e-06;-0.0016154507257949485
7.34100e-06;-0.001592800921975193
7.34125e-06;-0.0015675116139038496
7.34150e-06;-0.0015360791859721661
7.34175e-06;-0.0015026940393217023
7.34200e-06;-0.0014647641812406595
7.34225e-06;-0.0014239675309041812
7.34250e-06;-0.0013764987759756222
7.34275e-06;-0.0013261172207269791
7.34300e-06;-0.0012689564828025077
7.34325e-06;-0.0012094136292170828
7.34350e-06;-0.0011443266958985573
7.34375e-06;-0.0010772213730337948
7.34400e-06;-0.0010054184980067343
7.34425e-06;-0.0009313276314218573
7.34450e-06;-0.000851911747320094
7.34475e-06;-0.0007704821444530123
7.34500e-06;-0.0006843658600878862
7.34525e-06;-0.0005968712318310217
7.34550e-06;-0.0005061686785513238
7.34575e-06;-0.0004146185141455587
7.34600e-06;-0.0003210956396235358
7.34625e-06;-0.00022700526961730544
7.34650e-06;-0.00013130190721080475
7.34675e-06;-3.4797976890895195e-05
7.34700e-06;6.193110390847334e-05
7.34725e-06;0.00015830074403880187
7.34750e-06;0.0002537264236784443
7.34775e-06;0.00034764157267550054
7.34800e-06;0.0004395846842066554
7.34825e-06;0.000529269667708047
7.34850e-06;0.0006164089553777776
7.34875e-06;0.0007005107039172252
7.34900e-06;0.000780962837901875
7.34925e-06;0.000857147558712599
7.34950e-06;0.0009284471609242931
7.34975e-06;0.0009936247542171265
7.35000e-06;0.001053209899426313
7.35025e-06;0.0011107089375153982
7.35050e-06;0.0011633528191604518
7.35075e-06;0.0012141961235843889
7.35100e-06;0.0012608488071069411
7.35125e-06;0.0013052988763949482
7.35150e-06;0.0013446226333320192
7.35175e-06;0.0013811307841719966
7.35200e-06;0.0014110859598772507
7.35225e-06;0.0014410411355826062
7.35250e-06;0.0014687675733358722
7.35275e-06;0.0014913068990152906
7.35300e-06;0.0015138462246946326
7.35325e-06;0.0015340188348771024
7.35350e-06;0.0015486832073064037
7.35375e-06;0.0015633475797356554
7.35400e-06;0.0015759329824176782
7.35425e-06;0.0015836798400086778
7.35450e-06;0.0015914266975996512
7.35475e-06;0.0015967795380765473
7.35500e-06;0.0015965605996612973
7.35525e-06;0.001596341661246048
7.35550e-06;0.0015961227228307989
7.35575e-06;0.0015959037844155489
7.35600e-06;0.0015956848460002995
7.35625e-06;0.0015954659075850504
7.35650e-06;0.0015952469691698004
7.35675e-06;0.0015896991158175801
7.35700e-06;0.0015828235027341164
7.35725e-06;0.001575947889650676
7.35750e-06;0.0015690722765672354
7.35775e-06;0.0015621966634837717
7.35800e-06;0.0015553210504003312
7.35825e-06;0.0015484454373168907
7.35850e-06;0.001541532512800808
7.35875e-06;0.001534532750537659
7.35900e-06;0.00152753298827451
7.35925e-06;0.0015205332260113372
7.35950e-06;0.0015132802444562388
7.35975e-06;0.0015054379263013673
7.36000e-06;0.0014975956081464694
7.36025e-06;0.001489753289991598
7.36050e-06;0.0014790219802520114
7.36075e-06;0.0014615668997278652
7.36100e-06;0.001441797596051257
7.36125e-06;0.0014166422240649275
7.36150e-06;0.0013894804631146068
7.36175e-06;0.001357649079875129
7.36200e-06;0.0013233807736478184
7.36225e-06;0.0012834408304124509
7.36250e-06;0.0012404092851715804
7.36275e-06;0.0011901824184381274
7.36300e-06;0.0011372635551076885
7.36325e-06;0.0010780794024747367
7.36350e-06;0.0010166972714001933
7.36375e-06;0.000950199617211769
7.36400e-06;0.0008815354992316583
7.36425e-06;0.0008078292045886472
7.36450e-06;0.0007323565413822671
7.36475e-06;0.0006513240569959582
7.36500e-06;0.0005669196308344725
7.36525e-06;0.0004813783768806327
7.36550e-06;0.00039264137794193214
7.36575e-06;0.0003022038738656685
7.36600e-06;0.00021040138928143156
7.36625e-06;0.00011730848096149271
7.36650e-06;2.300439728951263e-05
7.36675e-06;-7.210259254638901e-05
7.36700e-06;-0.0001674602234724308
7.36725e-06;-0.00026238492594319056
7.36750e-06;-0.0003563020409525804
7.36775e-06;-0.00044915762920188346
7.36800e-06;-0.0005395426451393832
7.36825e-06;-0.0006284687549636711
7.36850e-06;-0.0007139994411561754
7.36875e-06;-0.0007980775845178878
7.36900e-06;-0.0008775628452279971
7.36925e-06;-0.0009528309414935678
7.36950e-06;-0.0010232713331587726
7.36975e-06;-0.0010882789555530677
7.37000e-06;-0.0011472996234816377
7.37025e-06;-0.0011999330894948148
7.37050e-06;-0.00124596754335844
7.37075e-06;-0.0012852809428768532
7.37100e-06;-0.0013177610401468114
7.37125e-06;-0.0013432952265650564
7.37150e-06;-0.001361770812099896
7.37175e-06;-0.0013730785004706825
7.37200e-06;-0.001377140895097464
7.37225e-06;-0.0013739771841551336
7.37250e-06;-0.0013637244297439845
7.37275e-06;-0.0013465760256234094
7.37300e-06;-0.001321776050393149
7.37325e-06;-0.0012901664383417515
7.37350e-06;-0.0012548562209534352
7.37375e-06;-0.0012109333021047418
7.37400e-06;-0.0011635995237661107
7.37425e-06;-0.001108327391607644
7.37450e-06;-0.001050071479005017
7.37475e-06;-0.0009848711862666414
7.37500e-06;-0.0009171606375335586
7.37525e-06;-0.0008436077782849651
7.37550e-06;-0.0007680195257480226
7.37575e-06;-0.0006876941469444863
7.37600e-06;-0.0006058389475056225
7.37625e-06;-0.0005204232796510836
7.37650e-06;-0.0004339640509231873
7.37675e-06;-0.0003450760632648058
7.37700e-06;-0.0002561880756061232
7.37725e-06;-0.00016708590915499966
7.37750e-06;-7.763682756477448e-05
7.37775e-06;1.115176314952582e-05
7.37800e-06;9.875479355983003e-05
7.37825e-06;0.0001846235400105011
7.37850e-06;0.00026818035813081886
7.37875e-06;0.00034883381619889455
7.37900e-06;0.0004259910664035294
7.37925e-06;0.0004990594194154775
7.37950e-06;0.0005674462194616549
7.37975e-06;0.0006305897362082255
7.38000e-06;0.0006881273656746681
7.38025e-06;0.0007400939567911236
7.38050e-06;0.0007866986751114481
7.38075e-06;0.0008279404368784121
7.38100e-06;0.0008636537626010364
7.38125e-06;0.0008936643085683909
7.38150e-06;0.0009177976381871039
7.38175e-06;0.0009358988081051509
7.38200e-06;0.0009479376346881703
7.38225e-06;0.0009541328123269854
7.38250e-06;0.000954812215143629
7.38275e-06;0.0009501721235805266
7.38300e-06;0.0009403057587132123
7.38325e-06;0.0009253007230712877
7.38350e-06;0.0009052446716652188
7.38375e-06;0.0008802374522045439
7.38400e-06;0.0008504569842309395
7.38425e-06;0.0008162371478792217
7.38450e-06;0.0007779802027243999
7.38475e-06;0.0007355120153036725
7.38500e-06;0.0006894199879710388
7.38525e-06;0.0006415040032721753
7.38550e-06;0.0005893429832780526
7.38575e-06;0.0005356913763319405
7.38600e-06;0.00047857061251879506
7.38625e-06;0.00042044384213321445
7.38650e-06;0.000359975715812003
7.38675e-06;0.0002989176672613201
7.38700e-06;0.00023648664764665793
7.38725e-06;0.0001740556280322073
7.38750e-06;0.00011162460841754513
7.38775e-06;4.932814418323117e-05
7.38800e-06;-1.2361210573954045e-05
7.38825e-06;-7.292625096892248e-05
7.38850e-06;-0.00013188947118696344
7.38875e-06;-0.00018880579662359994
7.38900e-06;-0.0002432555194895493
7.38925e-06;-0.00029482037265329125
7.38950e-06;-0.00034308210639926405
7.38975e-06;-0.00038770606844352155
7.39000e-06;-0.0004288602493818265
7.39025e-06;-0.000467592235567506
7.39050e-06;-0.0005050524332000331
7.39075e-06;-0.0005413074692954897
7.39100e-06;-0.0005762493535188615
7.39125e-06;-0.000610158566610034
7.39150e-06;-0.0006416643652981924
7.39175e-06;-0.0006718545461711202
7.39200e-06;-0.0006989827892138972
7.39225e-06;-0.0007261110322566742
7.39250e-06;-0.0007526383656560541
7.39275e-06;-0.0007777671561438998
7.39300e-06;-0.0008028959466317456
7.39325e-06;-0.0008271817049328069
7.39350e-06;-0.0008495054100335716
7.39375e-06;-0.0008718291151343365
7.39400e-06;-0.0008925594250839835
7.39425e-06;-0.0009095813047929989
