Time(s);Current(A)
3.75000e-06;-0.002494687758993101
3.75025e-06;-0.0025153552815178953
3.75050e-06;-0.0025360228040426894
3.75075e-06;-0.002556818326701209
3.75100e-06;-0.0025778361817344873
3.75125e-06;-0.0025988540367677657
3.75150e-06;-0.002620300865222297
3.75175e-06;-0.0026424928075812694
3.75200e-06;-0.0026646847499402796
3.75225e-06;-0.0026869814403041883
3.75250e-06;-0.002709460074795713
3.75275e-06;-0.0027318450911123517
3.75300e-06;-0.0027540674954805735
3.75325e-06;-0.0027763036809885845
3.75350e-06;-0.0027985638039210404
3.75375e-06;-0.0028207450681091866
3.75400e-06;-0.002842789357035013
3.75425e-06;-0.0028645459434005205
3.75450e-06;-0.0028858027990895097
3.75475e-06;-0.002906612405751094
3.75500e-06;-0.002926645154331039
3.75525e-06;-0.002946226528048555
3.75550e-06;-0.0029650238772333066
3.75575e-06;-0.0029834109397686693
3.75600e-06;-0.003000744391152425
3.75625e-06;-0.0030170942115393183
3.75650e-06;-0.0030323219920825764
3.75675e-06;-0.003046251302631699
3.75700e-06;-0.0030585458461372624
3.75725e-06;-0.0030682185306702614
3.75750e-06;-0.003075489715256244
3.75775e-06;-0.003080394471139875
3.75800e-06;-0.003081188811685808
3.75825e-06;-0.0030819831522317406
3.75850e-06;-0.003079991235546213
3.75875e-06;-0.0030731596740205427
3.75900e-06;-0.003066328112494872
3.75925e-06;-0.0030554602366051472
3.75950e-06;-0.0030375814043096102
3.75975e-06;-0.0030197025720140732
3.76000e-06;-0.0030018237397185362
3.76025e-06;-0.0029839449074230296
3.76050e-06;-0.002961692621908705
3.76075e-06;-0.0029318437799584077
3.76100e-06;-0.002901994938008161
3.76125e-06;-0.0028721460960578634
3.76150e-06;-0.0028422972541075663
3.76175e-06;-0.0028096227794306003
3.76200e-06;-0.002772040265864782
3.76225e-06;-0.002734457752298963
3.76250e-06;-0.002695515811526151
3.76275e-06;-0.0026542125866645993
3.76300e-06;-0.0026129093618029774
3.76325e-06;-0.002570865783487167
3.76350e-06;-0.002527536233533899
3.76375e-06;-0.0024839700222787603
3.76400e-06;-0.0024399927374747737
3.76425e-06;-0.0023961540722219296
3.76450e-06;-0.002352556184951851
3.76475e-06;-0.002309291044152574
3.76500e-06;-0.0022669284112802114
3.76525e-06;-0.002225526931244312
3.76550e-06;-0.0021853051102407478
3.76575e-06;-0.002146525974716656
3.76600e-06;-0.0021094729019410733
3.76625e-06;-0.0020744295423309606
3.76650e-06;-0.002041679420917236
3.76675e-06;-0.0020115068686670993
3.76700e-06;-0.001984186979936138
3.76725e-06;-0.001959943578185549
3.76750e-06;-0.001939511848823241
3.76775e-06;-0.0019221939055482954
3.76800e-06;-0.0019073203068744537
3.76825e-06;-0.0018966924611065591
3.76850e-06;-0.0018885739099412232
3.76875e-06;-0.00188481392787686
3.76900e-06;-0.0018842309522337218
3.76925e-06;-0.0018891663409974701
3.76950e-06;-0.0018941017297612103
3.76975e-06;-0.0019020678562953433
3.77000e-06;-0.001915298282998003
3.77025e-06;-0.0019307752268908135
3.77050e-06;-0.0019501543034387342
3.77075e-06;-0.0019711221667598165
3.77100e-06;-0.001995853856515658
3.77125e-06;-0.002023278244217404
3.77150e-06;-0.00205323029830958
3.77175e-06;-0.0020855183993789086
3.77200e-06;-0.002119943074256834
3.77225e-06;-0.002156304894526276
3.77250e-06;-0.0021944046825424397
3.77275e-06;-0.0022340431800256556
3.77300e-06;-0.0022750191229294787
3.77325e-06;-0.002317118226839945
3.77350e-06;-0.0023601041511248483
3.77375e-06;-0.0024037235627423275
3.77400e-06;-0.0024477183375774822
3.77425e-06;-0.0024918304992770706
3.77450e-06;-0.0025358021565566147
3.77475e-06;-0.0025793753957562096
3.77500e-06;-0.0026222908167292717
3.77525e-06;-0.0026642814211933095
3.77550e-06;-0.0027050658424928034
3.77575e-06;-0.002744352567794376
3.77600e-06;-0.002781846833503091
3.77625e-06;-0.0028172539610927896
3.77650e-06;-0.002850279504868133
3.77675e-06;-0.0028806028806473674
3.77700e-06;-0.002907801445237414
3.77725e-06;-0.002931375346097472
3.77750e-06;-0.002950969077122187
3.77775e-06;-0.0029657229860107007
3.77800e-06;-0.0029765748730654325
3.77825e-06;-0.0029836645798488087
3.77850e-06;-0.002984219492882851
3.77875e-06;-0.002984774405916892
3.77900e-06;-0.002980624420813698
3.77925e-06;-0.0029683021694391614
3.77950e-06;-0.0029559799180646244
3.77975e-06;-0.002939080938824137
3.78000e-06;-0.0029142323212108215
3.78025e-06;-0.002889383703597506
3.78050e-06;-0.002860493525713361
3.78075e-06;-0.0028245832794404793
3.78100e-06;-0.0027886730331675973
3.78125e-06;-0.002749710888269371
3.78150e-06;-0.0027054476874350526
3.78175e-06;-0.002659120845986244
3.78200e-06;-0.002609209522982773
3.78225e-06;-0.0025576522044624276
3.78250e-06;-0.002503235841334898
3.78275e-06;-0.0024475713918345812
3.78300e-06;-0.002389739053918782
3.78325e-06;-0.002331191287696638
3.78350e-06;-0.0022710693310938374
3.78375e-06;-0.0022101701036130565
3.78400e-06;-0.0021488496883773104
3.78425e-06;-0.0020874644013399455
3.78450e-06;-0.0020263705360789707
3.78475e-06;-0.001965920262554249
3.78500e-06;-0.0019064502117549082
3.78525e-06;-0.0018482848912357713
3.78550e-06;-0.0017917711596738652
3.78575e-06;-0.0017372935364642831
3.78600e-06;-0.001685252120909227
3.78625e-06;-0.001636047211578347
3.78650e-06;-0.0015900789816550426
3.78675e-06;-0.0015476940087841748
3.78700e-06;-0.0015089849088397913
3.78725e-06;-0.0014736877584962944
3.78750e-06;-0.0014415157678280702
3.78775e-06;-0.0014124633202805103
3.78800e-06;-0.0013866748625721902
3.78825e-06;-0.0013642975123233758
3.78850e-06;-0.0013454783647785752
3.78875e-06;-0.0013309676762041094
3.78900e-06;-0.0013199156130035054
3.78925e-06;-0.0013111878836448469
3.78950e-06;-0.0013064974521207748
3.78975e-06;-0.0013039688518320259
3.79000e-06;-0.0013051952872474716
3.79025e-06;-0.001308566306206318
3.79050e-06;-0.0013156624021482847
3.79075e-06;-0.0013248127386061455
3.79100e-06;-0.0013375312289310706
3.79125e-06;-0.0013515627556301482
3.79150e-06;-0.0013686362247755362
3.79175e-06;-0.0013877520056538553
3.79200e-06;-0.0014087982589211913
3.79225e-06;-0.0014316643676461596
3.79250e-06;-0.0014562394842836041
3.79275e-06;-0.001482399774897229
3.79300e-06;-0.0015099589051665043
3.79325e-06;-0.0015386430067074722
3.79350e-06;-0.001568172518022092
3.79375e-06;-0.0015983370913162005
3.79400e-06;-0.0016289632699771903
3.79425e-06;-0.0016598783250139758
3.79450e-06;-0.001690909422208131
3.79475e-06;-0.0017218755070175114
3.79500e-06;-0.0017525564907095062
3.79525e-06;-0.0017826774277230298
3.79550e-06;-0.0018119598294065902
3.79575e-06;-0.0018401686414180611
3.79600e-06;-0.0018670918087633761
3.79625e-06;-0.0018925177421096114
3.79650e-06;-0.0019162350625788872
3.79675e-06;-0.0019380414309579336
3.79700e-06;-0.001957394347202803
3.79725e-06;-0.0019747225932337594
3.79750e-06;-0.0019900634698865067
3.79775e-06;-0.002001952345822975
3.79800e-06;-0.0020138412217594434
3.79825e-06;-0.0020232127995407456
3.79850e-06;-0.002028211906290632
3.79875e-06;-0.002033211013040527
3.79900e-06;-0.0020346715298765966
3.79925e-06;-0.0020299856226752688
3.79950e-06;-0.002025299715473933
3.79975e-06;-0.0020206138082725974
3.80000e-06;-0.00201592790107127
3.80025e-06;-0.0020112419938699343
3.80050e-06;-0.001997091243514358
3.80075e-06;-0.0019814679686624218
3.80100e-06;-0.001965844693810512
3.80125e-06;-0.0019502214189585755
3.80150e-06;-0.0019345981441066394
3.80175e-06;-0.0019165714459517084
3.80200e-06;-0.00189437007395163
3.80225e-06;-0.0018721687019515518
3.80250e-06;-0.0018487807057608453
3.80275e-06;-0.0018233315791124824
3.80300e-06;-0.0017978824524640762
3.80325e-06;-0.0017717917513748517
3.80350e-06;-0.0017445866548171612
3.80375e-06;-0.001717143812330919
3.80400e-06;-0.001689288012331831
3.80425e-06;-0.0016613985463693926
3.80450e-06;-0.0016335051752552569
3.80475e-06;-0.001605820500461994
3.80500e-06;-0.001578511897886253
3.80525e-06;-0.0015517602789486174
3.80550e-06;-0.0015257543282931139
3.80575e-06;-0.0015009049289640623
3.80600e-06;-0.0014771113252048437
3.80625e-06;-0.0014546449146798169
3.80650e-06;-0.00143448379880497
3.80675e-06;-0.0014143226829301232
3.80700e-06;-0.0013952667449933323
3.80725e-06;-0.0013781304678280684
3.80750e-06;-0.0013614136576495758
3.80775e-06;-0.0013454254489856426
3.80800e-06;-0.0013294372403216824
3.80825e-06;-0.0013142357759444786
3.80850e-06;-0.0013004008626832672
3.80875e-06;-0.0012865659494220325
3.80900e-06;-0.0012734472107520374
3.80925e-06;-0.0012615724457636674
3.80950e-06;-0.0012496976807753173
3.80975e-06;-0.0012378229157869473
3.81000e-06;-0.0012259481507985773
3.81025e-06;-0.0012140733858102275
3.81050e-06;-0.0012036804630069888
3.81075e-06;-0.001193518082737008
3.81100e-06;-0.001183355702467027
3.81125e-06;-0.001173193322197063
3.81150e-06;-0.001163030941927082
3.81175e-06;-0.0011533639418177875
3.81200e-06;-0.001144557402118364
3.81225e-06;-0.0011357508624189258
3.81250e-06;-0.0011269443227194876
3.81275e-06;-0.0011181377830200643
3.81300e-06;-0.001109331243320626
3.81325e-06;-0.0011005247036211879
3.81350e-06;-0.0010917181639217496
3.81375e-06;-0.001084359542592955
3.81400e-06;-0.0010772261859869872
3.81425e-06;-0.0010700928293810195
3.81450e-06;-0.001062959472775064
3.81475e-06;-0.0010558261161690962
3.81500e-06;-0.0010486927595631406
3.81525e-06;-0.001041559402957161
3.81550e-06;-0.0010348442897655673
3.81575e-06;-0.001028855652780146
3.81600e-06;-0.0010230177151103247
3.81625e-06;-0.0010175628882021386
3.81650e-06;-0.0010124557617909402
3.81675e-06;-0.0010078009590135893
3.81700e-06;-0.0010039736855659692
3.81725e-06;-0.0010016614710547467
3.81750e-06;-0.001001418031203752
3.81775e-06;-0.001003360409097765
3.81800e-06;-0.001007403348507007
3.81825e-06;-0.0010134583200646537
3.81850e-06;-0.0010217808572372874
3.81875e-06;-0.0010318862892485087
3.81900e-06;-0.0010435949059209725
3.81925e-06;-0.0010580882060347995
3.81950e-06;-0.0010744149932216136
3.81975e-06;-0.0010939264921981124
3.82000e-06;-0.0011150601036359182
3.82025e-06;-0.001139011275533351
3.82050e-06;-0.001164022787041005
3.82075e-06;-0.0011915239176693896
3.82100e-06;-0.0012208239458999562
3.82125e-06;-0.0012520049037009783
3.82150e-06;-0.0012850961221699381
3.82175e-06;-0.0013199555722451042
3.82200e-06;-0.0013563619976881686
3.82225e-06;-0.001394092769869547
3.82250e-06;-0.0014329252288127086
3.82275e-06;-0.001472652058265606
3.82300e-06;-0.0015131324050183333
3.82325e-06;-0.0015543020634423454
3.82350e-06;-0.0015960640348301708
3.82375e-06;-0.001638213960129075
3.82400e-06;-0.001680497713662132
3.82425e-06;-0.0017226605361709449
3.82450e-06;-0.001764447594516175
3.82475e-06;-0.0018056136257940231
3.82500e-06;-0.001845955000529349
3.82525e-06;-0.0018853162100210723
3.82550e-06;-0.0019235212042983895
3.82575e-06;-0.001960326485868523
3.82600e-06;-0.001995457769045175
3.82625e-06;-0.0020286402062245482
3.82650e-06;-0.002059135754816007
3.82675e-06;-0.002087305235899758
3.82700e-06;-0.0021138483298166542
3.82725e-06;-0.0021375664382397887
3.82750e-06;-0.0021596339432544535
3.82775e-06;-0.0021788343998935845
3.82800e-06;-0.0021980348565327802
3.82825e-06;-0.002214961510175669
3.82850e-06;-0.0022279386365405755
3.82875e-06;-0.002240915762905526
3.82900e-06;-0.0022517306397801906
3.82925e-06;-0.0022587897544549414
3.82950e-06;-0.0022658488691296684
3.82975e-06;-0.002271127324433741
3.83000e-06;-0.0022733128280755127
3.83025e-06;-0.0022754983317172773
3.83050e-06;-0.0022758794418031793
3.83075e-06;-0.002273126374662392
3.83100e-06;-0.0022703733075216145
3.83125e-06;-0.0022662147909724545
3.83150e-06;-0.002259615051157634
3.83175e-06;-0.0022530153113428358
3.83200e-06;-0.0022454637087699673
3.83225e-06;-0.0022362587492730803
3.83250e-06;-0.002226210956817502
3.83275e-06;-0.0022146991889135386
3.83300e-06;-0.002203187421009536
3.83325e-06;-0.0021910599253908104
3.83350e-06;-0.002177862929288035
3.83375e-06;-0.0021646659331853047
3.83400e-06;-0.002151189060848589
3.83425e-06;-0.00213722605192819
3.83450e-06;-0.0021232630430078384
3.83475e-06;-0.0021093109228892955
3.83500e-06;-0.0020953777162912844
3.83525e-06;-0.00208144450969332
3.83550e-06;-0.002067861162565972
3.83575e-06;-0.0020548855107950974
3.83600e-06;-0.0020423688050067576
3.83625e-06;-0.00203064927455844
3.83650e-06;-0.002019728086105211
3.83675e-06;-0.00201019359363737
3.83700e-06;-0.00200065910116953
3.83725e-06;-0.0019925151427201784
3.83750e-06;-0.001986786499953504
3.83775e-06;-0.0019810578571868103
3.83800e-06;-0.0019773785152768725
3.83825e-06;-0.0019772587471937773
3.83850e-06;-0.0019771389791106812
3.83875e-06;-0.0019770192110275856
3.83900e-06;-0.00197689944294449
3.83925e-06;-0.0019794152753118423
3.83950e-06;-0.001986509066230431
3.83975e-06;-0.0019936028571490194
3.84000e-06;-0.0020006966480676323
3.84025e-06;-0.002007790438986221
3.84050e-06;-0.0020167884431487437
3.84075e-06;-0.0020290940083271796
3.84100e-06;-0.002041399573505574
3.84125e-06;-0.00205475344106443
3.84150e-06;-0.0020699281782646226
3.84175e-06;-0.002085813579920372
3.84200e-06;-0.0021029333843176554
3.84225e-06;-0.002120493079294242
3.84250e-06;-0.002139060402821531
3.84275e-06;-0.0021582599527009546
3.84300e-06;-0.002178004470853478
3.84325e-06;-0.0021982174142566873
3.84350e-06;-0.0022188091749756394
3.84375e-06;-0.002239664833455474
3.84400e-06;-0.002260658786534919
3.84425e-06;-0.0022816651802802404
3.84450e-06;-0.0023025584115299543
3.84475e-06;-0.002323214242656846
3.84500e-06;-0.0023435162581326627
3.84525e-06;-0.002363354790290275
3.84550e-06;-0.0023826117405809535
3.84575e-06;-0.0024011533614112152
3.84600e-06;-0.002418425282940238
3.84625e-06;-0.002434378528202597
3.84650e-06;-0.002450331773464902
3.84675e-06;-0.002464991378030877
3.84700e-06;-0.00247740396769518
3.84725e-06;-0.0024898165573594404
3.84750e-06;-0.0025010252822297865
3.84775e-06;-0.0025101429302353028
3.84800e-06;-0.0025192605782407883
3.84825e-06;-0.002528378226246274
3.84850e-06;-0.0025359908802109043
3.84875e-06;-0.0025409894048841874
3.84900e-06;-0.0025459879295574705
3.84925e-06;-0.0025509864542307705
3.84950e-06;-0.0025547798148686457
3.84975e-06;-0.002556479841898436
3.85000e-06;-0.0025581798689282313
3.85025e-06;-0.0025598798959580215
3.85050e-06;-0.002559633218140796
3.85075e-06;-0.0025586211681067287
3.85100e-06;-0.002557609118072661
3.85125e-06;-0.0025565955050782987
3.85150e-06;-0.0025543352726196907
3.85175e-06;-0.0025509796034152332
3.85200e-06;-0.002548048022303193
3.85225e-06;-0.002542640590415471
3.85250e-06;-0.002537015655549767
3.85275e-06;-0.0025316418306218316
3.85300e-06;-0.002526120041090915
3.85325e-06;-0.0025202094799813327
3.85350e-06;-0.0025142989188717303
3.85375e-06;-0.002508181226489835
3.85400e-06;-0.0025013368473871403
3.85425e-06;-0.002493984754152457
3.85450e-06;-0.0024866326609177987
3.85475e-06;-0.0024796385303743817
3.85500e-06;-0.002473054812597963
3.85525e-06;-0.002466534357160919
3.85550e-06;-0.002460013901723853
3.85575e-06;-0.0024534982986106
3.85600e-06;-0.002447492798034271
3.85625e-06;-0.002441487297457922
3.85650e-06;-0.002435481796881593
3.85675e-06;-0.0024300965548623363
3.85700e-06;-0.0024252008097055697
3.85725e-06;-0.00242020123729439
3.85750e-06;-0.0024145133359175525
3.85775e-06;-0.0024081625696710136
3.85800e-06;-0.002401811803424496
3.85825e-06;-0.0023947917647638064
3.85850e-06;-0.0023871272128053386
3.85875e-06;-0.002379462660846897
3.85900e-06;-0.002370714613466016
3.85925e-06;-0.0023609231535777994
3.85950e-06;-0.0023511316936895826
3.85975e-06;-0.0023413402338013324
3.86000e-06;-0.0023315487739131156
3.86025e-06;-0.002321729164438067
3.86050e-06;-0.002308950318060344
3.86075e-06;-0.0022961714716826635
3.86100e-06;-0.0022833926253049835
3.86125e-06;-0.0022706137789272603
3.86150e-06;-0.00225783493254958
3.86175e-06;-0.0022440335235516967
3.86200e-06;-0.0022292473806957637
3.86225e-06;-0.002214461237839881
3.86250e-06;-0.0021992435154900617
3.86275e-06;-0.0021836101795320874
3.86300e-06;-0.0021679768435741665
3.86325e-06;-0.0021523435076161927
3.86350e-06;-0.002136710171658272
3.86375e-06;-0.002121076835700351
3.86400e-06;-0.0021054434997423766
3.86425e-06;-0.0020898226006771416
3.86450e-06;-0.002075509135071959
3.86475e-06;-0.0020611956694667278
3.86500e-06;-0.002046882203861545
3.86525e-06;-0.0020325687382563625
3.86550e-06;-0.0020182552726511313
3.86575e-06;-0.0020039418070459487
3.86600e-06;-0.0019896283414407656
3.86625e-06;-0.001977852575911649
3.86650e-06;-0.0019685206305817423
3.86675e-06;-0.001959188685251836
3.86700e-06;-0.0019498567399218974
3.86725e-06;-0.0019405247945919908
3.86750e-06;-0.0019311928492620526
3.86775e-06;-0.001921860903932146
3.86800e-06;-0.0019125827226552478
3.86825e-06;-0.0019089565095566706
3.86850e-06;-0.0019053302964581057
3.86875e-06;-0.0019017040833595408
3.86900e-06;-0.0018980778702609635
3.86925e-06;-0.0018944516571623986
3.86950e-06;-0.0018908254440638337
3.86975e-06;-0.0018871992309652567
3.87000e-06;-0.001886307528130346
3.87025e-06;-0.001888049174870343
3.87050e-06;-0.0018897908216103459
3.87075e-06;-0.001891532468350343
3.87100e-06;-0.00189327411509034
3.87125e-06;-0.0018950157618303428
3.87150e-06;-0.0018967574085703399
3.87175e-06;-0.0018984990553103371
3.87200e-06;-0.00190024070205034
3.87225e-06;-0.0019020141816433222
3.87250e-06;-0.0019071341029888002
3.87275e-06;-0.001912254024334261
3.87300e-06;-0.0019173739456797216
3.87325e-06;-0.0019224938670251996
3.87350e-06;-0.0019276137883706603
3.87375e-06;-0.001932733709716121
3.87400e-06;-0.001937853631061599
3.87425e-06;-0.0019429735524070597
3.87450e-06;-0.0019480934737525204
3.87475e-06;-0.0019534306404092837
3.87500e-06;-0.0019589770155870843
3.87525e-06;-0.001964523390764885
3.87550e-06;-0.0019698293331489336
3.87575e-06;-0.0019749037373289866
3.87600e-06;-0.0019799712938464503
3.87625e-06;-0.0019843189870215393
3.87650e-06;-0.001988666680196614
3.87675e-06;-0.0019927215034321894
3.87700e-06;-0.0019964942911819567
3.87725e-06;-0.0020006473994651176
3.87750e-06;-0.002005166758673776
3.87775e-06;-0.0020103688524456455
3.87800e-06;-0.0020162284236442682
3.87825e-06;-0.0020220879948429104
3.87850e-06;-0.002028562950323704
3.87875e-06;-0.0020356305245118173
3.87900e-06;-0.002042698098699955
3.87925e-06;-0.002051019781115416
3.87950e-06;-0.002060549177179164
3.87975e-06;-0.002070078573242945
3.88000e-06;-0.002079607969306693
3.88025e-06;-0.0020891614828874644
3.88050e-06;-0.0021012503603468767
3.88075e-06;-0.0021133392378062488
3.88100e-06;-0.002125428115265661
3.88125e-06;-0.0021375169927250327
3.88150e-06;-0.0021506117160901617
3.88175e-06;-0.002164675075017976
3.88200e-06;-0.002178738433945742
3.88225e-06;-0.0021932535557068187
3.88250e-06;-0.002208203727751206
3.88275e-06;-0.002223332584618118
3.88300e-06;-0.0022386335160271193
3.88325e-06;-0.0022541005596791322
3.88350e-06;-0.002269727570404571
3.88375e-06;-0.0022853991189002564
3.88400e-06;-0.0023011135575324404
3.88425e-06;-0.0023166722622302567
3.88450e-06;-0.00233208099422727
3.88475e-06;-0.002347156197036753
3.88500e-06;-0.0023619102092638116
3.88525e-06;-0.002376239837624215
3.88550e-06;-0.0023901607818082797
3.88575e-06;-0.0024034981685233142
3.88600e-06;-0.0024162735859406454
3.88625e-06;-0.0024280197518951035
3.88650e-06;-0.0024387747425969773
3.88675e-06;-0.002449529733298888
3.88700e-06;-0.002458240414647676
3.88725e-06;-0.0024649824139857464
3.88750e-06;-0.00247172441332384
3.88775e-06;-0.00247846641266191
3.88800e-06;-0.002485208411999981
3.88825e-06;-0.0024919504113380744
3.88850e-06;-0.002495958329278065
3.88875e-06;-0.0024973333106441628
3.88900e-06;-0.002498708292010265
3.88925e-06;-0.002500083273376363
3.88950e-06;-0.0025014582547424656
3.88975e-06;-0.0025028332361085636
3.89000e-06;-0.002501354957045373
3.89025e-06;-0.0024971289712956784
3.89050e-06;-0.002492902985545998
3.89075e-06;-0.0024886769997963173
3.89100e-06;-0.0024844510140466227
3.89125e-06;-0.0024802250282969424
3.89150e-06;-0.002475999042547262
3.89175e-06;-0.0024717730567975675
3.89200e-06;-0.0024675086082774507
3.89225e-06;-0.002459200745250595
3.89250e-06;-0.0024508928822237113
3.89275e-06;-0.002442585019196855
3.89300e-06;-0.0024342771561699996
3.89325e-06;-0.0024259692931431157
3.89350e-06;-0.00241766143011626
3.89375e-06;-0.0024093535670893763
3.89400e-06;-0.0024010457040625206
