Time(s);Current(A)
1.00500e-05;-0.006973641292286268
1.00503e-05;-0.0069830991446672395
1.00505e-05;-0.006992556997048211
1.00508e-05;-0.007002054788703699
1.00510e-05;-0.00701162901760139
1.00513e-05;-0.007021203246499081
1.00515e-05;-0.007030777475396707
1.00518e-05;-0.007040351704294397
1.00520e-05;-0.007049925933192088
1.00523e-05;-0.007059500162089714
1.00525e-05;-0.007069074390987405
1.00528e-05;-0.007078648619885095
1.00530e-05;-0.007088222848782721
1.00533e-05;-0.007097215671578991
1.00535e-05;-0.0071050957781473275
1.00538e-05;-0.00711297588471561
1.00540e-05;-0.007120855991283947
1.00543e-05;-0.007128736097852284
1.00545e-05;-0.0071366162044205666
1.00548e-05;-0.007144496310988903
1.00550e-05;-0.00715237641755724
1.00552e-05;-0.007160256524125523
1.00555e-05;-0.007168136630693859
1.00558e-05;-0.0071750333601411
1.00560e-05;-0.007180048066544094
1.00563e-05;-0.007185062772947123
1.00565e-05;-0.007187205207598344
1.00567e-05;-0.007183850583684596
1.00570e-05;-0.007180495959770824
1.00573e-05;-0.007177141335857053
1.00575e-05;-0.0071737867119433035
1.00578e-05;-0.0071704320880295325
1.00580e-05;-0.007167077464115761
1.00582e-05;-0.007158898484799925
1.00585e-05;-0.007141486477944898
1.00588e-05;-0.00712407447108987
1.00590e-05;-0.007106662464234842
1.00593e-05;-0.007089250457379932
1.00595e-05;-0.007071838450524904
1.00598e-05;-0.007054426443669877
1.00600e-05;-0.0070328083262628915
1.00603e-05;-0.007003140400886732
1.00605e-05;-0.006973472475510574
1.00608e-05;-0.006943804550134616
1.00610e-05;-0.006914136624758458
1.00613e-05;-0.0068844686993823
1.00615e-05;-0.006854800774006342
1.00618e-05;-0.006819071921155226
1.00620e-05;-0.006782215904867789
1.00623e-05;-0.006745359888580602
1.00625e-05;-0.006708503872293165
1.00628e-05;-0.006671647856005728
1.00630e-05;-0.006634791839718541
1.00633e-05;-0.006597466571017027
1.00635e-05;-0.006559243229909658
1.00637e-05;-0.006521019888802549
1.00640e-05;-0.006483350130811348
1.00643e-05;-0.006446739840403213
1.00645e-05;-0.006410129549995327
1.00648e-05;-0.00637462370904324
1.00650e-05;-0.0063412316037916895
1.00652e-05;-0.006307839498540365
1.00655e-05;-0.006277920671883066
1.00658e-05;-0.00625464913263452
1.00660e-05;-0.006231377593386132
1.00663e-05;-0.0062081060541375865
1.00665e-05;-0.00618483451488904
1.00667e-05;-0.006161562975640652
1.00670e-05;-0.006138291436392106
1.00673e-05;-0.00611501989714356
1.00675e-05;-0.006096823216048712
1.00678e-05;-0.006088338983809345
1.00680e-05;-0.00607985475156992
1.00683e-05;-0.006071370519330495
1.00685e-05;-0.006062886287091127
1.00688e-05;-0.006054402054851702
1.00690e-05;-0.0060459178226122765
1.00693e-05;-0.006037433590372909
1.00695e-05;-0.006033293039198597
1.00698e-05;-0.006037465583467601
1.00700e-05;-0.006041638127736577
1.00703e-05;-0.006045810672005581
1.00705e-05;-0.006049983216274585
1.00708e-05;-0.006054155760543561
1.00710e-05;-0.006058328304812565
1.00713e-05;-0.006062500849081569
1.00715e-05;-0.006066673393350545
1.00718e-05;-0.006077263539478656
1.00720e-05;-0.006089047180529519
1.00722e-05;-0.006100830821580301
1.00725e-05;-0.006112614462631163
1.00728e-05;-0.006124398103682025
1.00730e-05;-0.0061361817447328085
1.00733e-05;-0.006147965385783671
1.00735e-05;-0.006159749026834533
1.00737e-05;-0.006172019581875934
1.00740e-05;-0.006185222010693683
1.00743e-05;-0.006198424439511432
1.00745e-05;-0.0062116268683290905
1.00748e-05;-0.006224299725538631
1.00750e-05;-0.006235959069265564
1.00752e-05;-0.006247618412992418
1.00755e-05;-0.006259277756719351
1.00758e-05;-0.006270173965984708
1.00760e-05;-0.006279609660649424
1.00763e-05;-0.0062895501962677595
1.00765e-05;-0.006300456914939081
1.00768e-05;-0.006311363633610403
1.00770e-05;-0.006324580304616156
1.00773e-05;-0.006342217846754653
1.00775e-05;-0.00635985538889315
1.00778e-05;-0.006380301992454437
1.00780e-05;-0.006406124680348542
1.00783e-05;-0.0064319473682426485
1.00785e-05;-0.00645777005613658
1.00788e-05;-0.006483592744030685
1.00790e-05;-0.006513856945606428
1.00793e-05;-0.006552621478261644
1.00795e-05;-0.006591386010917121
1.00798e-05;-0.006630150543572598
1.00800e-05;-0.006668915076227813
1.00803e-05;-0.006711991511790006
1.00805e-05;-0.006763320224598241
1.00808e-05;-0.006814648937406127
1.00810e-05;-0.006865977650214361
1.00813e-05;-0.006917306363022596
1.00815e-05;-0.0069686350758304825
1.00818e-05;-0.0070199637886387166
1.00820e-05;-0.007073836865151479
1.00822e-05;-0.007132579437837582
1.00825e-05;-0.007191322010524084
1.00828e-05;-0.007250064583210586
1.00830e-05;-0.00730880715589669
1.00833e-05;-0.007367549728583192
1.00835e-05;-0.007426292301269694
1.00837e-05;-0.007484457578025217
1.00840e-05;-0.0075415180047471875
1.00843e-05;-0.007598578431469158
1.00845e-05;-0.007654064406442253
1.00848e-05;-0.007706537138161312
1.00850e-05;-0.007759009869880726
1.00853e-05;-0.007807866966594715
1.00855e-05;-0.00784980432899711
1.00858e-05;-0.007891741691399785
1.00860e-05;-0.007933679053802463
1.00863e-05;-0.007975616416204857
1.00865e-05;-0.008013879067036093
1.00868e-05;-0.008045108920666158
1.00870e-05;-0.008076338774296013
1.00873e-05;-0.008107568627926078
1.00875e-05;-0.008138798481556145
1.00878e-05;-0.008166811056822472
1.00880e-05;-0.008188666287265651
1.00883e-05;-0.00821052151770883
1.00885e-05;-0.008232376748151863
1.00888e-05;-0.008254231978595043
1.00890e-05;-0.008276087209038222
1.00893e-05;-0.008297942439481254
1.00895e-05;-0.008319797669924434
1.00898e-05;-0.008339240203284541
1.00900e-05;-0.008354065228857814
1.00903e-05;-0.008368890254431187
1.00905e-05;-0.00838371528000456
1.00907e-05;-0.008398540305577832
1.00910e-05;-0.008413365331151204
1.00913e-05;-0.008428190356724577
1.00915e-05;-0.00844301538229785
1.00918e-05;-0.0084549653640264
1.00920e-05;-0.008461412981850663
1.00922e-05;-0.008467860599674882
1.00925e-05;-0.008474308217499144
1.00928e-05;-0.008480755835323407
1.00930e-05;-0.00848720345314767
1.00933e-05;-0.008493651070971888
1.00935e-05;-0.008500098688796151
1.00938e-05;-0.008506546306620413
1.00940e-05;-0.008512993924444634
1.00943e-05;-0.008519441542268896
1.00945e-05;-0.008525889160093158
1.00948e-05;-0.008532336777917378
1.00950e-05;-0.00853878439574164
1.00953e-05;-0.008545232013565902
1.00955e-05;-0.008551679631390122
1.00958e-05;-0.008558127249214384
1.00960e-05;-0.008564574867038648
1.00963e-05;-0.008571022484862866
1.00965e-05;-0.008577470102687128
1.00968e-05;-0.008583917720511392
1.00970e-05;-0.00859036533833561
1.00973e-05;-0.008596812956159872
1.00975e-05;-0.008603260573984136
1.00978e-05;-0.008609708191808355
1.00980e-05;-0.008616155809632616
1.00983e-05;-0.00862038137492382
1.00985e-05;-0.008620354294928958
1.00988e-05;-0.008620327214934095
1.00990e-05;-0.008620300134939234
1.00992e-05;-0.008620273054944373
1.00995e-05;-0.00862024597494951
1.00998e-05;-0.00862021889495465
1.01000e-05;-0.008620191814959786
1.01003e-05;-0.008620164734964925
1.01005e-05;-0.008620137654970062
1.01007e-05;-0.008620110574975201
1.01010e-05;-0.008620083494980339
1.01013e-05;-0.008620056414985477
1.01015e-05;-0.008620029334990616
1.01018e-05;-0.008620002254995754
1.01020e-05;-0.008619975175000892
1.01023e-05;-0.00861994809500603
1.01025e-05;-0.008619921015011169
1.01028e-05;-0.008619893935016306
1.01030e-05;-0.008619866855021445
1.01033e-05;-0.008619839775026584
1.01035e-05;-0.00861981269503172
1.01038e-05;-0.00861978561503686
1.01040e-05;-0.008619758535041997
1.01043e-05;-0.008619731455047136
1.01045e-05;-0.008619704375052273
1.01048e-05;-0.00861929482494221
1.01050e-05;-0.008618153289557897
1.01053e-05;-0.008617011754173582
1.01055e-05;-0.008615870218789274
1.01058e-05;-0.00861428107265138
1.01060e-05;-0.008612608683399534
1.01063e-05;-0.008610936294147699
1.01065e-05;-0.008606762781312423
1.01068e-05;-0.008597802526822048
1.01070e-05;-0.008588842272331733
1.01073e-05;-0.008576320270893964
1.01075e-05;-0.008556981668072932
1.01077e-05;-0.00853764306525203
1.01080e-05;-0.00851283511238799
1.01083e-05;-0.008477559717670138
1.01085e-05;-0.008442284322952524
1.01088e-05;-0.008407008928234672
1.01090e-05;-0.00837173353351682
1.01092e-05;-0.008336458138799206
1.01095e-05;-0.00829365045526502
1.01098e-05;-0.008236427202312921
1.01100e-05;-0.008179203949360822
1.01103e-05;-0.00812198069640911
1.01105e-05;-0.008064757443457011
1.01108e-05;-0.008007534190504912
1.01110e-05;-0.00794485858552252
1.01113e-05;-0.007871748070101433
1.01115e-05;-0.007798637554680346
1.01118e-05;-0.007725527039259754
1.01120e-05;-0.007652416523838667
1.01123e-05;-0.00757930600841758
1.01125e-05;-0.007500855146899695
1.01128e-05;-0.007421411129977092
1.01130e-05;-0.007341967113054488
1.01133e-05;-0.007262523096132422
1.01135e-05;-0.007183079079209818
1.01138e-05;-0.007104056438643587
1.01140e-05;-0.00702584024353761
1.01143e-05;-0.0069487446387331
1.01145e-05;-0.0068737936605731955
1.01148e-05;-0.006800379578724992
1.01150e-05;-0.006729906865165126
1.01153e-05;-0.006661620916778828
1.01155e-05;-0.006597520079444272
1.01158e-05;-0.006536290315279521
1.01160e-05;-0.006480555315801658
1.01162e-05;-0.006428507194789036
1.01165e-05;-0.00638351515642979
1.01168e-05;-0.006338523118070546
1.01170e-05;-0.006297437857243057
1.01173e-05;-0.006263829529933766
1.01175e-05;-0.0062302212026244756
1.01177e-05;-0.0062032961121323135
1.01180e-05;-0.006189161644337939
1.01183e-05;-0.006175027176543564
1.01185e-05;-0.00616089270874919
1.01188e-05;-0.006146758240954911
1.01190e-05;-0.006132623773160537
1.01193e-05;-0.0061184893053661624
1.01195e-05;-0.006123367179835756
1.01198e-05;-0.006131780819615048
1.01200e-05;-0.006140194459394339
1.01203e-05;-0.006148608099173575
1.01205e-05;-0.006157021738952866
1.01208e-05;-0.006165435378732158
1.01210e-05;-0.006179462104808011
1.01213e-05;-0.006204231360433361
1.01215e-05;-0.006229000616058711
1.01218e-05;-0.006253769871683894
1.01220e-05;-0.006278539127309244
1.01223e-05;-0.006303308382934594
1.01225e-05;-0.006328077638559777
1.01228e-05;-0.006355333817475
1.01230e-05;-0.006387349561007351
1.01233e-05;-0.0064193653045394854
1.01235e-05;-0.006451381048071836
1.01238e-05;-0.006483396791604188
1.01240e-05;-0.006515412535136322
1.01243e-05;-0.006547428278668673
1.01245e-05;-0.006578929440425448
1.01247e-05;-0.006609445776786808
1.01250e-05;-0.006639962113148375
1.01253e-05;-0.006668995249482735
1.01255e-05;-0.006695189783436622
1.01258e-05;-0.006721384317390686
1.01260e-05;-0.006745212432682706
1.01262e-05;-0.006764511609514616
1.01265e-05;-0.006783810786346656
1.01268e-05;-0.006799447375890459
1.01270e-05;-0.006808074372119571
1.01273e-05;-0.006816701368348624
1.01275e-05;-0.00682148987934423
1.01278e-05;-0.006818932157113466
1.01280e-05;-0.006816374434882719
1.01283e-05;-0.006808103540416529
1.01285e-05;-0.006788898568274006
1.01288e-05;-0.006769693596131613
1.01290e-05;-0.00675048862398909
1.01293e-05;-0.006731283651846567
1.01295e-05;-0.006712078679704174
1.01298e-05;-0.006676273059748917
1.01300e-05;-0.0066373801823760405
1.01303e-05;-0.006598487305003427
1.01305e-05;-0.006559594427630551
1.01308e-05;-0.006520701550257675
1.01310e-05;-0.006476912853199418
1.01313e-05;-0.006423754357624228
1.01315e-05;-0.006370595862049039
1.01318e-05;-0.006317437366474209
1.01320e-05;-0.006264278870899019
1.01323e-05;-0.0062086823722710535
1.01325e-05;-0.006148419934361621
1.01328e-05;-0.006088157496451778
1.01330e-05;-0.006027895058541937
1.01332e-05;-0.005967632620632504
1.01335e-05;-0.005907045543940758
1.01338e-05;-0.00584583716169188
1.01340e-05;-0.0057849704540105604
1.01343e-05;-0.005725132091286565
1.01345e-05;-0.005666481298421105
1.01347e-05;-0.005609316754162225
1.01350e-05;-0.005554414987546054
1.01353e-05;-0.005501701431330887
1.01355e-05;-0.005451556587068427
1.01358e-05;-0.005406327837555107
1.01360e-05;-0.005361099088041481
1.01363e-05;-0.005318284114328577
1.01365e-05;-0.005280088712898706
1.01368e-05;-0.005241893311468576
1.01370e-05;-0.00520414005205702
1.01373e-05;-0.005167232980188691
1.01375e-05;-0.0051303259083201125
1.01378e-05;-0.005094496810654868
1.01380e-05;-0.0050607307793898385
1.01383e-05;-0.00502696474812458
1.01385e-05;-0.004993333713035764
1.01388e-05;-0.0049599610385599735
1.01390e-05;-0.0049265883640839565
1.01393e-05;-0.0048932156896079404
1.01395e-05;-0.00485984301513215
1.01398e-05;-0.004826470340656133
1.01400e-05;-0.004793132218589155
1.01403e-05;-0.004759800522306647
1.01405e-05;-0.0047264688260239135
1.01408e-05;-0.00469313712974118
1.01410e-05;-0.004659805433458672
1.01413e-05;-0.004626300066890416
1.01415e-05;-0.004592462323786912
1.01417e-05;-0.004558624580683637
1.01420e-05;-0.004525099426660209
1.01423e-05;-0.004492172517034679
1.01425e-05;-0.004459363307745502
1.01428e-05;-0.004426779357658074
1.01430e-05;-0.004394316623734875
1.01432e-05;-0.0043620858777340885
1.01435e-05;-0.004330112426425774
1.01438e-05;-0.0042988947625840135
1.01440e-05;-0.004268507633639148
1.01443e-05;-0.004239081279516167
1.01445e-05;-0.004210589637757302
1.01448e-05;-0.0041829454169224345
1.01450e-05;-0.004156197287409991
1.01453e-05;-0.0041329141674199005
1.01455e-05;-0.0041150057656326195
1.01458e-05;-0.00409709736384546
1.01460e-05;-0.004079188962058179
1.01463e-05;-0.004061280560270898
1.01465e-05;-0.004043372158483738
1.01468e-05;-0.004025463756696457
1.01470e-05;-0.004007555354909176
1.01473e-05;-0.0039896469531220165
1.01475e-05;-0.0039717385513347355
1.01478e-05;-0.0039538301495474545
1.01480e-05;-0.003935921747760295
1.01483e-05;-0.003918013345973014
1.01485e-05;-0.003903120074107792
1.01488e-05;-0.003893997268008109
1.01490e-05;-0.003884874461908364
1.01493e-05;-0.003875751655808619
1.01495e-05;-0.003866628849708936
1.01498e-05;-0.003857506043609191
1.01500e-05;-0.003848383237509446
1.01502e-05;-0.003839260431409763
1.01505e-05;-0.003830137625310018
1.01508e-05;-0.003821014819210273
1.01510e-05;-0.0038118920131105898
1.01513e-05;-0.0038027692070108448
1.01515e-05;-0.0037936464009111
1.01517e-05;-0.003785688601857889
1.01520e-05;-0.0037799604358396757
1.01523e-05;-0.0037742322698214622
1.01525e-05;-0.0037685041038032488
1.01528e-05;-0.003762775937785074
1.01530e-05;-0.0037570477717668604
1.01533e-05;-0.003751319605748647
1.01535e-05;-0.0037460986664237623
1.01538e-05;-0.003741848476069943
1.01540e-05;-0.003737598285716124
1.01543e-05;-0.003733348095362333
1.01545e-05;-0.003729097905008514
1.01548e-05;-0.0037248477146546947
1.01550e-05;-0.0037205975243009043
1.01553e-05;-0.0037165642308616526
1.01555e-05;-0.003713002535624389
1.01558e-05;-0.0037096131225498787
1.01560e-05;-0.0037064387991069744
1.01563e-05;-0.0037037437854070673
1.01565e-05;-0.003702306528265883
1.01568e-05;-0.0037030511929170297
1.01570e-05;-0.0037063631613185976
1.01573e-05;-0.0037121857335557233
1.01575e-05;-0.0037203918571173033
1.01578e-05;-0.003730854173641261
1.01580e-05;-0.0037438573158942627
1.01583e-05;-0.003758992239054339
1.01585e-05;-0.0037760438079114307
1.01587e-05;-0.0037967635233053703
1.01590e-05;-0.0038199388714978393
1.01593e-05;-0.0038478138994275826
1.01595e-05;-0.003875688927357137
1.01598e-05;-0.003906734214771657
1.01600e-05;-0.00394384686057654
1.01602e-05;-0.00398095950638117
1.01605e-05;-0.004018072152186052
1.01608e-05;-0.004055184797990934
1.01610e-05;-0.004095539452808784
1.01613e-05;-0.004142098782884448
1.01615e-05;-0.004188658112960427
1.01618e-05;-0.004235217443036406
1.01620e-05;-0.004281776773112069
1.01623e-05;-0.004329749828320073
1.01625e-05;-0.0043804285223199195
1.01628e-05;-0.0044311072163194225
1.01630e-05;-0.004482151449901156
1.01633e-05;-0.004533895266485504
1.01635e-05;-0.0045856390830695025
1.01638e-05;-0.004636989925958788
1.01640e-05;-0.004687588681437647
1.01643e-05;-0.004737446715860214
1.01645e-05;-0.004785887131272402
1.01648e-05;-0.004833297808578007
1.01650e-05;-0.004878737735485119
1.01653e-05;-0.004922709724256771
1.01655e-05;-0.004963872319409626
1.01658e-05;-0.00500310328664356
1.01660e-05;-0.005038637433816726
1.01663e-05;-0.005071296432658272
1.01665e-05;-0.0050984528676113
1.01668e-05;-0.005125609302564513
1.01670e-05;-0.0051491395869965794
1.01672e-05;-0.005165730012120238
1.01675e-05;-0.00518232043724401
1.01678e-05;-0.005195069234200466
1.01680e-05;-0.005200465782859064
1.01683e-05;-0.005205862331517697
1.01685e-05;-0.005206266979595804
1.01687e-05;-0.005197117946019603
1.01690e-05;-0.005187968912443341
1.01693e-05;-0.005178819878867078
1.01695e-05;-0.0051696708452908776
1.01698e-05;-0.005155033540131042
1.01700e-05;-0.005129892580361521
1.01703e-05;-0.005104751620592
1.01705e-05;-0.005079610660822648
1.01708e-05;-0.005054469701053127
1.01710e-05;-0.005025842126521895
1.01713e-05;-0.004990541741315197
1.01715e-05;-0.004955241356108259
1.01718e-05;-0.004918316898036091
1.01720e-05;-0.004878284229997159
1.01723e-05;-0.004837285747998712
1.01725e-05;-0.004794438855969665
1.01728e-05;-0.004751088401471227
1.01730e-05;-0.004706557987297921
1.01733e-05;-0.004661485109484571
1.01735e-05;-0.004616124950416929
1.01738e-05;-0.0045707326924798244
1.01740e-05;-0.004525563837679745
1.01743e-05;-0.004480880412708626
1.01745e-05;-0.00443696407088065
1.01748e-05;-0.0043941150865349655
1.01750e-05;-0.00435263589707933
1.01753e-05;-0.00431282280913246
1.01755e-05;-0.004274971197991345
1.01757e-05;-0.00423937598706145
1.01760e-05;-0.004206328729959983
1.01763e-05;-0.004176071595986211
1.01765e-05;-0.004148707213351018
1.01768e-05;-0.004124223871672772
1.01770e-05;-0.004102630682655126
1.01772e-05;-0.004083990662039964
1.01775e-05;-0.004068377717700984
1.01778e-05;-0.004056418472726147
1.01780e-05;-0.004047584412444662
1.01783e-05;-0.0040409332019798695
1.01785e-05;-0.004038459609221683
1.01788e-05;-0.00403852114160153
1.01790e-05;-0.0040434344890643206
1.01793e-05;-0.004048347836527145
1.01795e-05;-0.0040569768815866885
1.01798e-05;-0.00407271716442018
1.01800e-05;-0.004088457447253778
1.01803e-05;-0.004104197730087375
1.01805e-05;-0.004119938012920866
1.01808e-05;-0.004139377138684285
1.01810e-05;-0.004165895245144856
1.01813e-05;-0.004192413351605247
1.01815e-05;-0.004218931458065819
1.01818e-05;-0.00424544956452639
1.01820e-05;-0.00427397917212686
1.01823e-05;-0.004306358464078517
1.01825e-05;-0.004338737756030173
1.01828e-05;-0.004371886854524302
1.01830e-05;-0.00440650923689692
1.01833e-05;-0.004441131619269538
1.01835e-05;-0.004475875830412463
1.01838e-05;-0.004510853201906438
1.01840e-05;-0.004545830573400414
1.01842e-05;-0.004580419392619418
1.01845e-05;-0.0046142645863035195
1.01848e-05;-0.004646889787638298
1.01850e-05;-0.004677180123054887
1.01853e-05;-0.004707470458471681
1.01855e-05;-0.004737760793888475
1.01857e-05;-0.004766195091691169
1.01860e-05;-0.004791077236917171
1.01863e-05;-0.004815578953562161
1.01865e-05;-0.004839352592093565
1.01868e-05;-0.004864900285520208
1.01870e-05;-0.004893843230002177
1.01873e-05;-0.0049244957458957385
1.01875e-05;-0.004958420101998452
1.01878e-05;-0.0049939012241660965
1.01880e-05;-0.005032361742089133
1.01883e-05;-0.00507082226001191
1.01885e-05;-0.005113334148330456
1.01888e-05;-0.005163599697288175
1.01890e-05;-0.005213865246245553
1.01893e-05;-0.005264130795203272
1.01895e-05;-0.00531439634416099
1.01898e-05;-0.005375516061243954
1.01900e-05;-0.0054386543508280075
1.01903e-05;-0.005501792640412061
1.01905e-05;-0.005564930929995687
1.01908e-05;-0.005631461922665043
1.01910e-05;-0.005704485994418068
1.01913e-05;-0.005777510066170598
1.01915e-05;-0.005852150380080117
1.01918e-05;-0.005929883917262329
1.01920e-05;-0.0060082247338423
1.01923e-05;-0.006087727783916281
1.01925e-05;-0.006167781140992366
1.01927e-05;-0.006248887695708642
1.01930e-05;-0.006330216386836941
1.01933e-05;-0.006411970210743124
1.01935e-05;-0.006493261223823131
1.01938e-05;-0.006573666492641271
1.01940e-05;-0.0066529632368420326
1.01942e-05;-0.006730138446140239
1.01945e-05;-0.006805884631128669
1.01948e-05;-0.006878895897196293
1.01950e-05;-0.006949988080459809
1.01953e-05;-0.007017407452958798
1.01955e-05;-0.007081390210035114
1.01958e-05;-0.007138795846991409
1.01960e-05;-0.007196201483947314
1.01963e-05;-0.0072487549585117895
1.01965e-05;-0.007292022187462847
