Time(s);Current(A)
7.50000e-07;0.00731901916123784
7.50250e-07;0.007302826566073859
7.50500e-07;0.0072866339709098775
7.50750e-07;0.007271170165490663
7.51000e-07;0.007256823606889999
7.51250e-07;0.007242477048289341
7.51500e-07;0.007228756821142578
7.51750e-07;0.007216395879906861
7.52000e-07;0.0072050973635868504
7.52250e-07;0.007195399315106134
7.52500e-07;0.007187095875861509
7.52750e-07;0.007180592748893972
7.53000e-07;0.007176849530635949
7.53250e-07;0.007176517052060158
7.53500e-07;0.0071814132942316835
7.53750e-07;0.007186309536403209
7.54000e-07;0.007191205778574733
7.54250e-07;0.007196102020746259
7.54500e-07;0.007206083699296695
7.54750e-07;0.007223861436526757
7.55000e-07;0.00724163917375682
7.55250e-07;0.007259416910986883
7.55500e-07;0.0072771946482169374
7.55750e-07;0.0073003206714627655
7.56000e-07;0.007331645706259958
7.56250e-07;0.0073629707410571505
7.56500e-07;0.007394295775854343
7.56750e-07;0.0074256208106515224
7.57000e-07;0.007456945845448715
7.57250e-07;0.007488270880245908
7.57500e-07;0.007529049647133231
7.57750e-07;0.007570940035058048
7.58000e-07;0.007612830422982864
7.58250e-07;0.007654720810907663
7.58500e-07;0.00769661119883248
7.58750e-07;0.0077385015867572965
7.59000e-07;0.007781752808958088
7.59250e-07;0.007827090212772086
7.59500e-07;0.007872427616586084
7.59750e-07;0.007917547480368624
7.60000e-07;0.007962333851659308
7.60250e-07;0.008007120222949991
7.60500e-07;0.00805133559761731
7.60750e-07;0.008094006275720487
7.61000e-07;0.008135650830305688
7.61250e-07;0.008176060002627864
7.61500e-07;0.008214575313362374
7.61750e-07;0.008251423777225009
7.62000e-07;0.0082857169370675
7.62250e-07;0.008317825014532236
7.62500e-07;0.008346583324313775
7.62750e-07;0.008371732430497677
7.63000e-07;0.008391348567445946
7.63250e-07;0.008410964704394213
7.63500e-07;0.008425243818385273
7.63750e-07;0.008431341187281281
7.64000e-07;0.008437438556177285
7.64250e-07;0.008443535925073293
7.64500e-07;0.008443306647705703
7.64750e-07;0.008433378516229658
7.65000e-07;0.008423450384753613
7.65250e-07;0.008413522253277572
7.65500e-07;0.008398994620829789
7.65750e-07;0.008377415876775948
7.66000e-07;0.00835310954840117
7.66250e-07;0.008324621787827544
7.66500e-07;0.008294203558631275
7.66750e-07;0.008259586829883682
7.67000e-07;0.008221913535203865
7.67250e-07;0.00818141636130987
7.67500e-07;0.008138365587724326
7.67750e-07;0.008093031469691175
7.68000e-07;0.008045685218055619
7.68250e-07;0.007996590298245052
7.68500e-07;0.007945985690741317
7.68750e-07;0.00789409133509066
7.69000e-07;0.007841161461570262
7.69250e-07;0.007787509743797622
7.69500e-07;0.007733472095258213
7.69750e-07;0.007679386120385287
7.70000e-07;0.00762558868826558
7.70250e-07;0.007572412047790963
7.70500e-07;0.007520172982169579
7.70750e-07;0.00746917608331395
7.71000e-07;0.007419748664298198
7.71250e-07;0.007372253917520946
7.71500e-07;0.0073270694821468765
7.71750e-07;0.007284574038790568
7.72000e-07;0.0072451453367440195
7.72250e-07;0.007209146590064848
7.72500e-07;0.007176861317921035
7.72750e-07;0.007149201307418175
7.73000e-07;0.007125077491598554
7.73250e-07;0.007105773872644512
7.73500e-07;0.0070938596957781
7.73750e-07;0.007081945518911692
7.74000e-07;0.00707003134204528
7.74250e-07;0.007064772189651845
7.74500e-07;0.0070697153006319385
7.74750e-07;0.007074658411612032
7.75000e-07;0.007079601522592125
7.75250e-07;0.007090033827313334
7.75500e-07;0.007108881157476256
7.75750e-07;0.007127728487639179
7.76000e-07;0.0071508415633424775
7.76250e-07;0.007180494098016089
7.76500e-07;0.007210146632689688
7.76750e-07;0.007243450775947318
7.77000e-07;0.0072823528959911525
7.77250e-07;0.007321255016034986
7.77500e-07;0.007363017940689409
7.77750e-07;0.007409166526465896
7.78000e-07;0.007455315112242365
7.78250e-07;0.007503508696872113
7.78500e-07;0.007554837298808612
7.78750e-07;0.007606165900745111
7.79000e-07;0.007658465282731753
7.79250e-07;0.007712252886706095
7.79500e-07;0.007766275066241072
7.79750e-07;0.00782065685401802
7.80000e-07;0.007874810684353575
7.80250e-07;0.00792861505213426
7.80500e-07;0.007981700250954685
7.80750e-07;0.0080336829517794
7.81000e-07;0.008084410415983316
7.81250e-07;0.008133213581538316
7.81500e-07;0.008180227648851686
7.81750e-07;0.008224498998758607
7.82000e-07;0.00826575064791368
7.82250e-07;0.008302373045515269
7.82500e-07;0.008338995443116873
7.82750e-07;0.008371118377521816
7.83000e-07;0.008396343559896135
7.83250e-07;0.008421568742270454
7.83500e-07;0.008440712935206431
7.83750e-07;0.008450534870038892
7.84000e-07;0.00846035680487136
7.84250e-07;0.008470178739703826
7.84500e-07;0.008480000674536293
7.84750e-07;0.00847300980644162
7.85000e-07;0.008464041997890366
7.85250e-07;0.008455074189339107
7.85500e-07;0.008446106380787848
7.85750e-07;0.008432162706584242
7.86000e-07;0.008410590947449711
7.86250e-07;0.008386262373967526
7.86500e-07;0.00835770755816854
7.86750e-07;0.008327230730232657
7.87000e-07;0.008292639327624378
7.87250e-07;0.008255186914292367
7.87500e-07;0.008215121957388058
7.87750e-07;0.008172693683688175
7.88000e-07;0.008128151123993394
7.88250e-07;0.008081742034387268
7.88500e-07;0.008033713191073384
7.88750e-07;0.007984322644987468
7.89000e-07;0.00793385538258385
7.89250e-07;0.007882623691762283
7.89500e-07;0.00783094851113767
7.89750e-07;0.007779150215675702
7.90000e-07;0.007727548996505402
7.90250e-07;0.007676464395257856
7.90500e-07;0.00762621538991487
7.90750e-07;0.007577127576577536
7.91000e-07;0.007529544234336461
7.91250e-07;0.0074838246091721026
7.91500e-07;0.007440334343182994
7.91750e-07;0.007400066041210467
7.92000e-07;0.007362463659429739
7.92250e-07;0.007328060740001441
7.92500e-07;0.007298562649654787
7.92750e-07;0.007269064559308133
7.93000e-07;0.007242996799502213
7.93250e-07;0.007222187793556292
7.93500e-07;0.00720137878761038
7.93750e-07;0.007185834746227006
7.94000e-07;0.007178361983219669
7.94250e-07;0.007170889220212332
7.94500e-07;0.007163416457204995
7.94750e-07;0.007155943694197657
7.95000e-07;0.007148470931190323
7.95250e-07;0.007154834097970261
7.95500e-07;0.0071628241683349535
7.95750e-07;0.007170814238699645
7.96000e-07;0.007178804309064338
7.96250e-07;0.007186794379429027
7.96500e-07;0.007198815642056601
7.96750e-07;0.0072170167895731704
7.97000e-07;0.007235217937089739
7.97250e-07;0.00725553320603854
7.97500e-07;0.007279089458359147
7.97750e-07;0.007302645710679745
7.98000e-07;0.007327925983069175
7.98250e-07;0.007355849206942155
7.98500e-07;0.007383772430815135
7.98750e-07;0.007412727897456981
7.99000e-07;0.007443265809458194
7.99250e-07;0.007473803721459393
7.99500e-07;0.007504722788107228
7.99750e-07;0.0075362261711774585
8.00000e-07;0.007567729554247689
8.00250e-07;0.007599002528721248
8.00500e-07;0.007629922282978039
8.00750e-07;0.007660842037234844
8.01000e-07;0.0076907282618662596
8.01250e-07;0.00771903006836582
8.01500e-07;0.007747331874865381
8.01750e-07;0.00777394501921109
8.02000e-07;0.0077979694163458615
8.02250e-07;0.007821993813480642
8.02500e-07;0.007845053558453509
8.02750e-07;0.007866634475593355
8.03000e-07;0.007888215392733204
8.03250e-07;0.00790972485869653
8.03500e-07;0.007931124788816035
8.03750e-07;0.007952524718935549
8.04000e-07;0.007973924649055063
8.04250e-07;0.007995324579174576
8.04500e-07;0.00801672450929409
8.04750e-07;0.008038722470611185
8.05000e-07;0.00806079075167652
8.05250e-07;0.008082859032741854
8.05500e-07;0.008104927313807188
8.05750e-07;0.008126995594872524
8.06000e-07;0.008149698564717091
8.06250e-07;0.008173374523032613
8.06500e-07;0.008197050481348144
8.06750e-07;0.008220726439663676
8.07000e-07;0.008244402397979208
8.07250e-07;0.00826807835629474
8.07500e-07;0.008291754314610263
8.07750e-07;0.008315430272925795
8.08000e-07;0.008339819787864246
8.08250e-07;0.008364293206656334
8.08500e-07;0.008388766625448423
8.08750e-07;0.008413240044240511
8.09000e-07;0.00843771346303259
8.09250e-07;0.008462186881824678
8.09500e-07;0.008486660300616766
8.09750e-07;0.008510510586712625
8.10000e-07;0.008533405600005256
8.10250e-07;0.00855630061329789
8.10500e-07;0.00857919562659051
8.10750e-07;0.008602090639883143
8.11000e-07;0.008622343612186672
8.11250e-07;0.008642285918996625
8.11500e-07;0.00866222822580658
8.11750e-07;0.008682170532616525
8.12000e-07;0.008700865916307358
8.12250e-07;0.008717649746085791
8.12500e-07;0.008734266100679464
8.12750e-07;0.00875062571302516
8.13000e-07;0.008767799354040578
8.13250e-07;0.008786220914566465
8.13500e-07;0.00880464247509236
8.13750e-07;0.008823811515422022
8.14000e-07;0.00884412645474211
8.14250e-07;0.008864441394062197
8.14500e-07;0.008884756333382284
8.14750e-07;0.008906576802917062
8.15000e-07;0.008930705275349556
8.15250e-07;0.00895483374778205
8.15500e-07;0.008978962220214545
8.15750e-07;0.009004875593285198
8.16000e-07;0.009033525248766366
8.16250e-07;0.009062174904247544
8.16500e-07;0.009090824559728724
8.16750e-07;0.009119474215209904
8.17000e-07;0.009148123870691083
8.17250e-07;0.009178349557740807
8.17500e-07;0.009210991327438063
8.17750e-07;0.009243633097135332
8.18000e-07;0.0092762748668326
8.18250e-07;0.00930891663652987
8.18500e-07;0.009341558406227139
8.18750e-07;0.00937453494245728
8.19000e-07;0.009408024681358722
8.19250e-07;0.009441514420260177
8.19500e-07;0.009475004159161634
8.19750e-07;0.00950849389806309
8.20000e-07;0.009541983636964546
8.20250e-07;0.009574043433152357
8.20500e-07;0.009603911103340705
8.20750e-07;0.009633778773529052
8.21000e-07;0.0096636464437174
8.21250e-07;0.009693514113905748
8.21500e-07;0.009723381784094095
8.21750e-07;0.009751272046036185
8.22000e-07;0.009776130908197822
8.22250e-07;0.009799281560242247
8.22500e-07;0.00981981349772222
8.22750e-07;0.00983750387216068
8.23000e-07;0.009850838083122737
8.23250e-07;0.009859166892011419
8.23500e-07;0.009859822336143376
8.23750e-07;0.009860477780275332
8.24000e-07;0.009861133224407289
8.24250e-07;0.009861788668539246
8.24500e-07;0.00984609186598876
8.24750e-07;0.009828472277679896
8.25000e-07;0.009810852689371033
8.25250e-07;0.00979323310106217
8.25500e-07;0.009770297651436966
8.25750e-07;0.009739212897864025
8.26000e-07;0.009705331069717993
8.26250e-07;0.009667161279658665
8.26500e-07;0.009626324939045089
8.26750e-07;0.009581400732013362
8.27000e-07;0.009534539989749754
8.27250e-07;0.009483578072976484
8.27500e-07;0.009429881883425157
8.27750e-07;0.009373790250815656
8.28000e-07;0.00931564068159328
8.28250e-07;0.009255755068227746
8.28500e-07;0.009194384543458783
8.28750e-07;0.009131706474806262
8.29000e-07;0.009067950146306781
8.29250e-07;0.009003465665905356
8.29500e-07;0.008938654433631647
8.29750e-07;0.008873919320208482
8.30000e-07;0.008809664347935944
8.30250e-07;0.008746281185640806
8.30500e-07;0.008684117213150353
8.30750e-07;0.008623475134580047
8.31000e-07;0.008564689397088416
8.31250e-07;0.008508169491264051
8.31500e-07;0.008455033774817619
8.31750e-07;0.008404734905207786
8.32000e-07;0.00835743330827884
8.32250e-07;0.008314726580297272
8.32500e-07;0.008274672982794763
8.32750e-07;0.00823868667851162
8.33000e-07;0.008205120154724544
8.33250e-07;0.008175263194745803
8.33500e-07;0.008145406234767064
8.33750e-07;0.00811959346653031
8.34000e-07;0.00809998051160084
8.34250e-07;0.008080367556671368
8.34500e-07;0.008060754601741906
8.34750e-07;0.008045026207066566
8.35000e-07;0.00803525290796855
8.35250e-07;0.008025479608870536
8.35500e-07;0.008015706309772521
8.35750e-07;0.008012206769858135
8.36000e-07;0.008018325007278499
8.36250e-07;0.008024443244698864
8.36500e-07;0.008030561482119229
8.36750e-07;0.008036679719539593
8.37000e-07;0.008042797956959958
8.37250e-07;0.008048916194380319
8.37500e-07;0.008055034431800685
8.37750e-07;0.008061152669221049
8.38000e-07;0.008067270906641413
8.38250e-07;0.008073389144061778
8.38500e-07;0.008079507381482142
8.38750e-07;0.008085625618902505
8.39000e-07;0.008091743856322869
8.39250e-07;0.008105399759339268
8.39500e-07;0.008119941981914174
8.39750e-07;0.00813448420448908
8.40000e-07;0.008149026427063978
8.40250e-07;0.008163568649638884
8.40500e-07;0.008178110872213788
8.40750e-07;0.008192653094788694
8.41000e-07;0.0082071953173636
8.41250e-07;0.008221737539938505
8.41500e-07;0.008236279762513404
8.41750e-07;0.00825082198508831
8.42000e-07;0.008265364207663214
8.42250e-07;0.00827990643023812
8.42500e-07;0.008291533363494953
8.42750e-07;0.008298691109665201
8.43000e-07;0.008305848855835447
8.43250e-07;0.008313006602005695
8.43500e-07;0.008320164348175944
8.43750e-07;0.008327322094346192
8.44000e-07;0.00833447984051644
8.44250e-07;0.008338156718576612
8.44500e-07;0.008336497367840813
8.44750e-07;0.008334838017105013
8.45000e-07;0.008333178666369212
8.45250e-07;0.00833151931563341
8.45500e-07;0.00832985996489761
8.45750e-07;0.00832820061416181
8.46000e-07;0.008323128782548355
8.46250e-07;0.008312825560905384
8.46500e-07;0.008302522339262413
8.46750e-07;0.008292219117619442
8.47000e-07;0.008281915895976474
8.47250e-07;0.008271612674333503
8.47500e-07;0.008261309452690532
8.47750e-07;0.008251006231047561
8.48000e-07;0.00824070300940459
8.48250e-07;0.008228609995026084
8.48500e-07;0.008213773198570177
8.48750e-07;0.008198936402114264
8.49000e-07;0.008184099605658352
8.49250e-07;0.008169262809202438
8.49500e-07;0.008154426012746525
8.49750e-07;0.008139589216290611
8.50000e-07;0.008124752419834704
8.50250e-07;0.008109915623378792
8.50500e-07;0.008095445111227432
8.50750e-07;0.008081536119016408
8.51000e-07;0.008067627126805383
8.51250e-07;0.008054548095773408
8.51500e-07;0.008042741409054149
8.51750e-07;0.008030934722334892
8.52000e-07;0.008019758388714576
8.52250e-07;0.008009930627669564
8.52500e-07;0.008004300785908825
8.52750e-07;0.007997757830039769
8.53000e-07;0.00799103344021
8.53250e-07;0.00799191393960743
8.53500e-07;0.007992794439004858
8.53750e-07;0.007993674938402287
8.54000e-07;0.007994555437799717
8.54250e-07;0.007995435937197145
8.54500e-07;0.007996316436594575
8.54750e-07;0.007997196935992002
8.55000e-07;0.008001558317549319
8.55250e-07;0.008013114841845385
8.55500e-07;0.008024671366141446
8.55750e-07;0.008036227890437512
8.56000e-07;0.008047784414733578
8.56250e-07;0.008059340939029642
8.56500e-07;0.008070897463325708
8.56750e-07;0.008082453987621774
8.57000e-07;0.00809680407497593
8.57250e-07;0.008112162224197387
8.57500e-07;0.008125639995762806
8.57750e-07;0.008143702395552054
8.58000e-07;0.008162787523412362
8.58250e-07;0.008185637681633565
8.58500e-07;0.008209026957951802
8.58750e-07;0.008230684590111472
8.59000e-07;0.008252475745702502
8.59250e-07;0.008274379521334883
8.59500e-07;0.008296283296967265
8.59750e-07;0.008318699534007845
8.60000e-07;0.008341230089732943
8.60250e-07;0.008365042179707688
8.60500e-07;0.008388418288896471
8.60750e-07;0.008409789876269232
8.61000e-07;0.008430750222133528
8.61250e-07;0.008450322175772509
8.61500e-07;0.008469584410142424
8.61750e-07;0.008488846644512337
8.62000e-07;0.008506807039079035
8.62250e-07;0.008524477022287215
8.62500e-07;0.008541183760797946
8.62750e-07;0.00855767562094923
8.63000e-07;0.008575963507313732
8.63250e-07;0.008594652046977682
8.63500e-07;0.008613340586641632
8.63750e-07;0.008635196285023563
8.64000e-07;0.008657758505716187
8.64250e-07;0.008680320726408822
8.64500e-07;0.008702882947101457
8.64750e-07;0.008725445167794091
8.65000e-07;0.008753023266329426
8.65250e-07;0.008781720295085567
8.65500e-07;0.008810417323841697
8.65750e-07;0.008839114352597838
8.66000e-07;0.00886781138135398
8.66250e-07;0.008902238637327387
8.66500e-07;0.008937944178898366
8.66750e-07;0.008973649720469332
8.67000e-07;0.009009355262040313
8.67250e-07;0.009045060803611293
8.67500e-07;0.009080766345182274
8.67750e-07;0.009116471886753253
8.68000e-07;0.009153505635605649
8.68250e-07;0.009193393063889325
8.68500e-07;0.009233280492173018
8.68750e-07;0.00927316792045671
8.69000e-07;0.009313055348740402
8.69250e-07;0.009352942777024096
8.69500e-07;0.009392830205307788
8.69750e-07;0.009432717633591462
8.70000e-07;0.009469635476193413
8.70250e-07;0.009505890870612448
8.70500e-07;0.009542146265031484
8.70750e-07;0.009578401659450519
8.71000e-07;0.00961465705386954
8.71250e-07;0.009650912448288574
8.71500e-07;0.00968716784270761
8.71750e-07;0.009719170347149022
8.72000e-07;0.009742035433942921
8.72250e-07;0.00976490052073682
8.72500e-07;0.00978776560753071
8.72750e-07;0.009810630694324609
8.73000e-07;0.009833495781118508
8.73250e-07;0.009856360867912407
8.73500e-07;0.009879225954706305
8.73750e-07;0.009887135790431066
8.74000e-07;0.009891709443954802
8.74250e-07;0.009896283097478541
8.74500e-07;0.009900856751002279
8.74750e-07;0.009905430404526018
8.75000e-07;0.009910004058049758
8.75250e-07;0.00990936872690468
8.75500e-07;0.009897541789889441
8.75750e-07;0.0098857148528742
8.76000e-07;0.009873887915858961
8.76250e-07;0.009862060978843722
8.76500e-07;0.009850234041828483
8.76750e-07;0.009838407104813247
8.77000e-07;0.009818572985141105
8.77250e-07;0.009796952642012266
8.77500e-07;0.009775332298883426
8.77750e-07;0.009750095029025064
8.78000e-07;0.009724050903666799
8.78250e-07;0.009698006778308546
8.78500e-07;0.009669472684443856
8.78750e-07;0.009640383134266598
8.79000e-07;0.009611293584089343
8.79250e-07;0.009581130123947694
8.79500e-07;0.009550727098499384
8.79750e-07;0.009520214803790917
8.80000e-07;0.009489678133553137
8.80250e-07;0.009459678672116974
8.80500e-07;0.009429799049955586
8.80750e-07;0.009401111490698421
8.81000e-07;0.009372689854027606
8.81250e-07;0.009346199656230339
8.81500e-07;0.009320140319270023
8.81750e-07;0.009296745324757409
8.82000e-07;0.009273944685485673
8.82250e-07;0.009255686398547378
8.82500e-07;0.00923844140887408
8.82750e-07;0.009221196419200784
8.83000e-07;0.009214129726701008
8.83250e-07;0.009209333584773115
8.83500e-07;0.009204537442845223
8.83750e-07;0.009199741300917332
8.84000e-07;0.00919494515898944
8.84250e-07;0.009195578881396157
8.84500e-07;0.009207878773973414
8.84750e-07;0.009220178666550671
8.85000e-07;0.009232478559127929
8.85250e-07;0.00924477845170518
8.85500e-07;0.00925707834428244
8.85750e-07;0.009284773278795927
8.86000e-07;0.009315902503021806
8.86250e-07;0.009347031727247684
8.86500e-07;0.009378160951473551
8.86750e-07;0.00940929017569943
8.87000e-07;0.009440419399925308
8.87250e-07;0.009471548624151187
8.87500e-07;0.009502677848377066
8.87750e-07;0.00954503715418666
8.88000e-07;0.00958990164015827
8.88250e-07;0.0096347661261299
8.88500e-07;0.009679630612101529
8.88750e-07;0.009724495098073159
8.89000e-07;0.009769359584044788
8.89250e-07;0.009814224070016418
8.89500e-07;0.009859088555988028
8.89750e-07;0.009905781906060262
8.90000e-07;0.009952883234830581
8.90250e-07;0.0099999845636009
8.90500e-07;0.010045234533524553
8.90750e-07;0.010090071506675105
8.91000e-07;0.010134908479825677
8.91250e-07;0.010175949329736497
8.91500e-07;0.010216143349411752
8.91750e-07;0.010256337369087007
8.92000e-07;0.010290514599420304
8.92250e-07;0.010323349618551792
8.92500e-07;0.010356184637683293
8.92750e-07;0.010379702453559597
8.93000e-07;0.010401141809668104
8.93250e-07;0.010422581165776611
8.93500e-07;0.01042973165613017
8.93750e-07;0.010433694619949672
8.94000e-07;0.010437657583769177
8.94250e-07;0.01044162054758868
8.94500e-07;0.010445583511408183
8.94750e-07;0.01043109527557438
8.95000e-07;0.010412490989559355
8.95250e-07;0.010393886703544322
8.95500e-07;0.010375282417529288
8.95750e-07;0.010356678131514254
8.96000e-07;0.010324524355713623
8.96250e-07;0.010289347991629538
8.96500e-07;0.010254171627545468
8.96750e-07;0.010211543886759782
8.97000e-07;0.010167253910401368
8.97250e-07;0.0101177764996546
8.97500e-07;0.010067141888256618
8.97750e-07;0.010012355806431433
8.98000e-07;0.00995664362435667
8.98250e-07;0.009898466221168889
8.98500e-07;0.009838391101140636
8.98750e-07;0.00977684952867918
8.99000e-07;0.009714129575290107
8.99250e-07;0.009650595598929168
8.99500e-07;0.009586639422810257
8.99750e-07;0.00952265516624678
9.00000e-07;0.00945903601722954
9.00250e-07;0.009396172709510249
9.00500e-07;0.009334426531833835
9.00750e-07;0.0092741348045613
9.01000e-07;0.009215669775545502
9.01250e-07;0.00916058576289636
9.01500e-07;0.009106178829409898
9.01750e-07;0.009058606999074204
