Time(s);Current(A)
3.50000e-06;0.0022490631398269065
3.50025e-06;0.0022248250706843335
3.50050e-06;0.0022005870015417194
3.50075e-06;0.0021763489323991052
3.50100e-06;0.0021521108632565323
3.50125e-06;0.002127872794113918
3.50150e-06;0.002103634724971304
3.50175e-06;0.0020850970829281866
3.50200e-06;0.002068866857897349
3.50225e-06;0.002052636632866484
3.50250e-06;0.002036406407835619
3.50275e-06;0.0020201761828047816
3.50300e-06;0.0020039459577739166
3.50325e-06;0.0019877157327430517
3.50350e-06;0.0019854278672418258
3.50375e-06;0.0019887835854596114
3.50400e-06;0.0019921393036774026
3.50425e-06;0.001995495021895194
3.50450e-06;0.0019988507401129795
3.50475e-06;0.0020022064583307708
3.50500e-06;0.002005562176548562
3.50525e-06;0.0020089178947663476
3.50550e-06;0.002012273612984139
3.50575e-06;0.00201562933120193
3.50600e-06;0.0020347426978529026
3.50625e-06;0.0020602344402700845
3.50650e-06;0.0020857261826873093
3.50675e-06;0.002111217925104534
3.50700e-06;0.002136709667521716
3.50725e-06;0.0021622014099389407
3.50750e-06;0.002187693152356166
3.50775e-06;0.0022131848947733908
3.50800e-06;0.0022386766371905726
3.50825e-06;0.0022641683796077974
3.50850e-06;0.0022968997548889524
3.50875e-06;0.002332561586387042
3.50900e-06;0.002368223417885192
3.50925e-06;0.0024038852493833422
3.50950e-06;0.002439547080881432
3.50975e-06;0.002475208912379582
3.51000e-06;0.002510870743877732
3.51025e-06;0.0025459090893019086
3.51050e-06;0.0025786279414642104
3.51075e-06;0.002611346793626568
3.51100e-06;0.0026440656457889255
3.51125e-06;0.0026767844979512273
3.51150e-06;0.002709503350113585
3.51175e-06;0.0027422222022759424
3.51200e-06;0.0027749410544382997
3.51225e-06;0.00279798676494228
3.51250e-06;0.0028171169843372416
3.51275e-06;0.002836247203732204
3.51300e-06;0.0028553774231271332
3.51325e-06;0.0028745076425220955
3.51350e-06;0.0028936378619170574
3.51375e-06;0.002912768081311987
3.51400e-06;0.002931898300706949
3.51425e-06;0.002951028520101911
3.51450e-06;0.002970158739496873
3.51475e-06;0.0029892889588918024
3.51500e-06;0.0030084191782867647
3.51525e-06;0.0030208674084663423
3.51550e-06;0.003030610905241953
3.51575e-06;0.00304035440201758
3.51600e-06;0.0030500978987932073
3.51625e-06;0.0030598413955688344
3.51650e-06;0.003069584892344445
3.51675e-06;0.003079328389120072
3.51700e-06;0.0030890718858956993
3.51725e-06;0.00309881538267131
3.51750e-06;0.003108558879446937
3.51775e-06;0.0031183023762225643
3.51800e-06;0.003128045872998175
3.51825e-06;0.003134203723409986
3.51850e-06;0.003138910177062138
3.51875e-06;0.00314361663071429
3.51900e-06;0.0031483230843664337
3.51925e-06;0.0031530295380185857
3.51950e-06;0.0031577359916707378
3.51975e-06;0.0031624424453228816
3.52000e-06;0.0031671488989750336
3.52025e-06;0.0031718553526271856
3.52050e-06;0.0031765618062793376
3.52075e-06;0.0031812682599314814
3.52100e-06;0.0031859747135836334
3.52125e-06;0.0031906811672357854
3.52150e-06;0.0031953876208879292
3.52175e-06;0.0032000940745400813
3.52200e-06;0.003203430418181292
3.52225e-06;0.0032016696777473247
3.52250e-06;0.003199908937313354
3.52275e-06;0.003198148196879384
3.52300e-06;0.0031963874564454138
3.52325e-06;0.003194626716011446
3.52350e-06;0.003192865975577476
3.52375e-06;0.003191105235143506
3.52400e-06;0.0031893444947095383
3.52425e-06;0.003187583754275568
3.52450e-06;0.003185823013841598
3.52475e-06;0.003184062273407628
3.52500e-06;0.0031823015329736602
3.52525e-06;0.00318054079253969
3.52550e-06;0.00317878005210572
3.52575e-06;0.0031770193116717523
3.52600e-06;0.003168890868037078
3.52625e-06;0.003158184907588247
3.52650e-06;0.0031474789471394337
3.52675e-06;0.0031367729866906024
3.52700e-06;0.003126067026241771
3.52725e-06;0.0031153610657929398
3.52750e-06;0.0031046551053441262
3.52775e-06;0.003093949144895295
3.52800e-06;0.0030832431844464636
3.52825e-06;0.0030725372239976505
3.52850e-06;0.003061831263548819
3.52875e-06;0.003051125303099988
3.52900e-06;0.0030389372108482124
3.52925e-06;0.00302614918177106
3.52950e-06;0.003013361152693908
3.52975e-06;0.003000573123616755
3.53000e-06;0.0029877850945396246
3.53025e-06;0.0029749970654624723
3.53050e-06;0.0029622090363853196
3.53075e-06;0.002949421007308189
3.53100e-06;0.0029366329782310368
3.53125e-06;0.002923844949153884
3.53150e-06;0.002911056920076732
3.53175e-06;0.002898268890999601
3.53200e-06;0.0028902898341327554
3.53225e-06;0.0028842573514608603
3.53250e-06;0.002878224868788975
3.53275e-06;0.00287219238611708
3.53300e-06;0.002866159903445185
3.53325e-06;0.0028601274207733004
3.53350e-06;0.0028540949381014053
3.53375e-06;0.0028480624554295102
3.53400e-06;0.002842029972757615
3.53425e-06;0.0028359974900857305
3.53450e-06;0.0028299650074138354
3.53475e-06;0.0028239325247419404
3.53500e-06;0.0028179000420700553
3.53525e-06;0.00281186755939816
3.53550e-06;0.002805835076726265
3.53575e-06;0.00279980259405437
3.53600e-06;0.0027937701113824854
3.53625e-06;0.0027877376287105903
3.53650e-06;0.0027817051460386952
3.53675e-06;0.0027793977702994447
3.53700e-06;0.0027785982421233814
3.53725e-06;0.0027777987139473185
3.53750e-06;0.002776999185771257
3.53775e-06;0.0027761996575951936
3.53800e-06;0.0027754001294191307
3.53825e-06;0.002774600601243068
3.53850e-06;0.002773801073067006
3.53875e-06;0.002773001544890943
3.53900e-06;0.00277220201671488
3.53925e-06;0.002771402488538818
3.53950e-06;0.002770602960362755
3.53975e-06;0.002769803432186692
3.54000e-06;0.002769003904010629
3.54025e-06;0.0027682043758345673
3.54050e-06;0.0027674048476585044
3.54075e-06;0.002766605319482441
3.54100e-06;0.0027658057913063794
3.54125e-06;0.0027650062631303166
3.54150e-06;0.002766775221421889
3.54175e-06;0.0027695838508239776
3.54200e-06;0.002772392480226071
3.54225e-06;0.002775201109628164
3.54250e-06;0.0027780097390302573
3.54275e-06;0.0027808183684323454
3.54300e-06;0.0027836269978344388
3.54325e-06;0.002786435627236532
3.54350e-06;0.0027892442566386203
3.54375e-06;0.0027920528860407136
3.54400e-06;0.002794861515442807
3.54425e-06;0.0027976701448449
3.54450e-06;0.0028004787742469885
3.54475e-06;0.002803287403649082
3.54500e-06;0.0028060960330511748
3.54525e-06;0.0028089046624532633
3.54550e-06;0.0028117132918553567
3.54575e-06;0.002816454237640592
3.54600e-06;0.0028283837879817713
3.54625e-06;0.0028403133383229705
3.54650e-06;0.0028522428886641697
3.54675e-06;0.0028641724390053684
3.54700e-06;0.0028761019893465477
3.54725e-06;0.002888031539687747
3.54750e-06;0.002899961090028946
3.54775e-06;0.002911890640370125
3.54800e-06;0.002923820190711324
3.54825e-06;0.0029357497410525232
3.54850e-06;0.0029476792913937224
3.54875e-06;0.0029596088417349013
3.54900e-06;0.0029715383920761004
3.54925e-06;0.0029834679424172996
3.54950e-06;0.0029953974927584785
3.54975e-06;0.0030073270430996776
3.55000e-06;0.003019256593440877
3.55025e-06;0.003031036722857405
3.55050e-06;0.0030427563697210443
3.55075e-06;0.0030544760165846837
3.55100e-06;0.003066195663448323
3.55125e-06;0.003077915310311943
3.55150e-06;0.0030896349571755822
3.55175e-06;0.0031013546040392216
3.55200e-06;0.003113074250902841
3.55225e-06;0.0031247938977664804
3.55250e-06;0.0031365135446301197
3.55275e-06;0.0031483762100513128
3.55300e-06;0.003160296766477341
3.55325e-06;0.003172217322903389
3.55350e-06;0.0031841378793294375
3.55375e-06;0.0031960584357554655
3.55400e-06;0.003207978992181514
3.55425e-06;0.003219899548607562
3.55450e-06;0.00323182010503359
3.55475e-06;0.0032437406614596385
3.55500e-06;0.003255661217885687
3.55525e-06;0.003274022619846827
3.55550e-06;0.0032949911451528283
3.55575e-06;0.003315959670458865
3.55600e-06;0.003336928195764902
3.55625e-06;0.003357896721070903
3.55650e-06;0.0033788652463769397
3.55675e-06;0.0033998337716829763
3.55700e-06;0.003420802296989013
3.55725e-06;0.003441770822295014
3.55750e-06;0.0034627393476010506
3.55775e-06;0.0034837078729070877
3.55800e-06;0.00350568288042397
3.55825e-06;0.0035314022036599807
3.55850e-06;0.003557121526895992
3.55875e-06;0.00358284085013196
3.55900e-06;0.003608560173367971
3.55925e-06;0.003634279496603982
3.55950e-06;0.0036599988198399934
3.55975e-06;0.003685718143075961
3.56000e-06;0.0037114374663119723
3.56025e-06;0.0037371567895479836
3.56050e-06;0.0037628761127839515
3.56075e-06;0.0037885954360199624
3.56100e-06;0.0038095258747313765
3.56125e-06;0.0038285178703342283
3.56150e-06;0.003847509865937048
3.56175e-06;0.0038665018615399
3.56200e-06;0.0038854938571427516
3.56225e-06;0.0039044858527455713
3.56250e-06;0.003923477848348423
3.56275e-06;0.003942469843951275
3.56300e-06;0.003956883946446463
3.56325e-06;0.003954267368281239
3.56350e-06;0.003951650790116015
3.56375e-06;0.003949034211950792
3.56400e-06;0.003946417633785572
3.56425e-06;0.003943801055620348
3.56450e-06;0.003941184477455124
3.56475e-06;0.003938567899289904
3.56500e-06;0.003935951321124681
3.56525e-06;0.003913234343774285
3.56550e-06;0.0038823811334284947
3.56575e-06;0.003851527923082757
3.56600e-06;0.0038206747127369667
3.56625e-06;0.0037898215023911765
3.56650e-06;0.0037589682920454383
3.56675e-06;0.003728115081699648
3.56700e-06;0.003697261871353858
3.56725e-06;0.003662257708462073
3.56750e-06;0.0036118111694404876
3.56775e-06;0.0035613646304189024
3.56800e-06;0.0035109180913973173
3.56825e-06;0.0034604715523758175
3.56850e-06;0.0034100250133542323
3.56875e-06;0.003359578474332647
3.56900e-06;0.0033091319353111474
3.56925e-06;0.0032586853962895622
3.56950e-06;0.0032052297910169607
3.56975e-06;0.003150556176893275
3.57000e-06;0.003095882562769682
3.57025e-06;0.003041208948645996
3.57050e-06;0.0029865353345223103
3.57075e-06;0.0029318617203987173
3.57100e-06;0.0028793433221814164
3.57125e-06;0.002834842759460837
3.57150e-06;0.0027903421967403327
3.57175e-06;0.002745841634019753
3.57200e-06;0.0027013410712991735
3.57225e-06;0.0026568405085785935
3.57250e-06;0.0026123399458580893
3.57275e-06;0.0025785781439629867
3.57300e-06;0.0025491631741561167
3.57325e-06;0.0025197482043492966
3.57350e-06;0.0024982456905215987
3.57375e-06;0.00247994597803255
3.57400e-06;0.0024616462655435013
3.57425e-06;0.002451735019344528
3.57450e-06;0.0024452192537818673
3.57475e-06;0.0024387034882192063
3.57500e-06;0.002440400336948074
3.57525e-06;0.002445421484998902
3.57550e-06;0.002450442633049729
3.57575e-06;0.002463028510884646
3.57600e-06;0.002478676437562915
3.57625e-06;0.002494324364241184
3.57650e-06;0.0025147102951282134
3.57675e-06;0.0025450272013255093
3.57700e-06;0.0025785876586544606
3.57725e-06;0.0026121481159834124
3.57750e-06;0.002645708573312307
3.57775e-06;0.0026792690306412584
3.57800e-06;0.00271282948797021
3.57825e-06;0.0027463899452991616
3.57850e-06;0.0027822677846111375
3.57875e-06;0.0028267667497553
3.57900e-06;0.0028712657148994626
3.57925e-06;0.0029157646800435496
3.57950e-06;0.0029602636451877117
3.57975e-06;0.0030047626103318742
3.58000e-06;0.0030492615754759613
3.58025e-06;0.003093760540620124
3.58050e-06;0.003136465389975163
3.58075e-06;0.003178444017728917
3.58100e-06;0.0032204226454826007
3.58125e-06;0.0032624012732363553
3.58150e-06;0.0033043799009901094
3.58175e-06;0.003346358528743793
3.58200e-06;0.00337911594839979
3.58225e-06;0.003408140810463218
3.58250e-06;0.0034371656725266458
3.58275e-06;0.0034661905345900242
3.58300e-06;0.003495215396653452
3.58325e-06;0.0035242402587168796
3.58350e-06;0.0035402077924510857
3.58375e-06;0.003558427218111345
3.58400e-06;0.00357894311561535
3.58425e-06;0.00359945901311932
3.58450e-06;0.003619974910623325
3.58475e-06;0.00364049080812733
3.58500e-06;0.003659385967029721
3.58525e-06;0.003669568230430912
3.58550e-06;0.0036797504938321205
3.58575e-06;0.003689932757233329
3.58600e-06;0.00370011502063452
3.58625e-06;0.003710297284035728
3.58650e-06;0.003715629764880797
3.58675e-06;0.00371694933047131
3.58700e-06;0.0037182688960618205
3.58725e-06;0.0037195884616523333
3.58750e-06;0.0037209080272428458
3.58775e-06;0.0037222275928333565
3.58800e-06;0.0037235471584238693
3.58825e-06;0.003724866724014382
3.58850e-06;0.003726186289604893
3.58875e-06;0.0037275058551954057
3.58900e-06;0.0037288254207859185
3.58925e-06;0.0037301449863764314
3.58950e-06;0.003731464551966942
3.58975e-06;0.003732784117557455
3.59000e-06;0.003731808254647734
3.59025e-06;0.003728529585711698
3.59050e-06;0.003725250916775656
3.59075e-06;0.0037219722478396143
3.59100e-06;0.003718693578903572
3.59125e-06;0.003715414909967536
3.59150e-06;0.0037121362410314942
3.59175e-06;0.0037088575720954525
3.59200e-06;0.0037055789031594163
3.59225e-06;0.0037023002342233746
3.59250e-06;0.003699021565287333
3.59275e-06;0.0036957428963512963
3.59300e-06;0.0036924642274152545
3.59325e-06;0.0036891855584792127
3.59350e-06;0.003681816074210362
3.59375e-06;0.003669470533801478
3.59400e-06;0.0036571249933925734
3.59425e-06;0.0036447794529836687
3.59450e-06;0.003632433912574785
3.59475e-06;0.00362008837216588
3.59500e-06;0.003607742831756975
3.59525e-06;0.0035953972913480704
3.59550e-06;0.0035830517509391866
3.59575e-06;0.003570706210530282
3.59600e-06;0.0035583606701213772
3.59625e-06;0.0035460151297124934
3.59650e-06;0.0035336695893035887
3.59675e-06;0.0035164239018699206
3.59700e-06;0.003493217689527028
3.59725e-06;0.0034700114771840963
3.59750e-06;0.003446805264841165
3.59775e-06;0.003423599052498233
3.59800e-06;0.0034003928401553406
3.59825e-06;0.003377186627812409
3.59850e-06;0.0033539804154694773
3.59875e-06;0.003330774203126585
3.59900e-06;0.0033075679907836534
3.59925e-06;0.0032843617784407216
3.59950e-06;0.00326115556609779
3.59975e-06;0.0032379493537548977
3.60000e-06;0.003215674435177228
3.60025e-06;0.0031945323396878832
3.60050e-06;0.003173390244198574
3.60075e-06;0.0031522481487092292
3.60100e-06;0.003131106053219884
3.60125e-06;0.0031099639577305753
3.60150e-06;0.00308882186224123
3.60175e-06;0.0030676797667518853
3.60200e-06;0.0030465376712625405
3.60225e-06;0.0030253955757732313
3.60250e-06;0.0030042534802838866
3.60275e-06;0.0029831113847945414
3.60300e-06;0.002967571242820343
3.60325e-06;0.0029523186085852918
3.60350e-06;0.0029370659743502402
3.60375e-06;0.0029218133401152143
3.60400e-06;0.002906560705880163
3.60425e-06;0.0028913080716451113
3.60450e-06;0.0028760554374100598
3.60475e-06;0.0028608028031750343
3.60500e-06;0.0028455501689399827
3.60525e-06;0.0028302975347049312
3.60550e-06;0.0028150449004699057
3.60575e-06;0.002799244864051524
3.60600e-06;0.0027827789691736147
3.60625e-06;0.0027663130742957053
3.60650e-06;0.0027498471794178236
3.60675e-06;0.002733381284539914
3.60700e-06;0.0027169153896620044
3.60725e-06;0.002700449494784123
3.60750e-06;0.0026839835999062133
3.60775e-06;0.002667517705028304
3.60800e-06;0.002651051810150422
3.60825e-06;0.0026345859152725128
3.60850e-06;0.0026181200203946034
3.60875e-06;0.002601654125516694
3.60900e-06;0.0025862850821716755
3.60925e-06;0.002570972332279201
3.60950e-06;0.002555659582386727
3.60975e-06;0.0025403468324942786
3.61000e-06;0.0025250340826018045
3.61025e-06;0.00250972133270933
3.61050e-06;0.002494408582816856
3.61075e-06;0.0024790958329244076
3.61100e-06;0.0024637830830319335
3.61125e-06;0.002448470333139459
3.61150e-06;0.0024331575832470106
3.61175e-06;0.0024178448333545366
3.61200e-06;0.002407385073991058
3.61225e-06;0.002402828478510197
3.61250e-06;0.0023982718830293276
3.61275e-06;0.002393715287548459
3.61300e-06;0.00238915869206759
3.61325e-06;0.002384602096586729
3.61350e-06;0.00238004550110586
3.61375e-06;0.002375488905624991
3.61400e-06;0.00237093231014413
3.61425e-06;0.002366375714663261
3.61450e-06;0.002361819119182392
3.61475e-06;0.0023572625237015233
3.61500e-06;0.002352705928220662
3.61525e-06;0.002348149332739793
3.61550e-06;0.0023505181701899587
3.61575e-06;0.002361311084568799
3.61600e-06;0.0023721039989476576
3.61625e-06;0.0023828969133265158
3.61650e-06;0.002393689827705356
3.61675e-06;0.0024044827420842147
3.61700e-06;0.0024152756564630733
3.61725e-06;0.002426068570841932
3.61750e-06;0.002436861485220772
3.61775e-06;0.0024476543995996304
3.61800e-06;0.002458447313978489
3.61825e-06;0.0024692402283573293
3.61850e-06;0.002480033142736188
3.61875e-06;0.0024908260571150464
3.61900e-06;0.002503864674765246
3.61925e-06;0.0025196349594903077
3.61950e-06;0.002535405244215396
3.61975e-06;0.0025511755289404844
3.62000e-06;0.0025669458136655457
3.62025e-06;0.0025827160983906343
3.62050e-06;0.0025984863831157224
3.62075e-06;0.002614256667840784
3.62100e-06;0.0026300269525658723
3.62125e-06;0.002645797237290961
3.62150e-06;0.002661567522016049
3.62175e-06;0.0026712859208640753
3.62200e-06;0.002680693720200247
3.62225e-06;0.0026901015195364185
3.62250e-06;0.0026995093188725743
3.62275e-06;0.0027089171182087457
3.62300e-06;0.002718324917544917
3.62325e-06;0.002727732716881089
3.62350e-06;0.002737140516217244
3.62375e-06;0.002746548315553416
3.62400e-06;0.0027559561148895874
3.62425e-06;0.0027605564732712685
3.62450e-06;0.0027593090741428678
3.62475e-06;0.002758061675014467
3.62500e-06;0.0027568142758860686
3.62525e-06;0.002755566876757668
3.62550e-06;0.002754319477629267
3.62575e-06;0.0027530720785008665
3.62600e-06;0.002751824679372468
3.62625e-06;0.0027505772802440672
3.62650e-06;0.0027493298811156665
3.62675e-06;0.002748082481987268
3.62700e-06;0.0027468350828588673
3.62725e-06;0.0027455876837304666
3.62750e-06;0.0027412014644002474
3.62775e-06;0.002732997193099778
3.62800e-06;0.002724792921799295
3.62825e-06;0.002716588650498812
3.62850e-06;0.0027083843791983427
3.62875e-06;0.00270018010789786
3.62900e-06;0.0026919758365973765
3.62925e-06;0.0026837715652969075
3.62950e-06;0.0026755672939964247
3.62975e-06;0.0026673630226959413
3.63000e-06;0.0026591587513954584
3.63025e-06;0.0026509544800949894
3.63050e-06;0.002642750208794506
3.63075e-06;0.0026355464757257694
3.63100e-06;0.002629559794517765
3.63125e-06;0.0026235731133097506
3.63150e-06;0.002617586432101736
3.63175e-06;0.002611599750893722
3.63200e-06;0.0026056130696857174
3.63225e-06;0.002599626388477703
3.63250e-06;0.0025936397072696886
3.63275e-06;0.002587653026061684
3.63300e-06;0.0025816663448536697
3.63325e-06;0.002575679663645655
3.63350e-06;0.002569692982437651
3.63375e-06;0.002563706301229636
3.63400e-06;0.0025577196200216217
3.63425e-06;0.0025517329388136073
3.63450e-06;0.002545746257605603
3.63475e-06;0.0025397595763975885
3.63500e-06;0.002533772895189574
3.63525e-06;0.0025277862139815696
3.63550e-06;0.0025217995327735552
3.63575e-06;0.002517339331309931
3.63600e-06;0.002514735935467915
3.63625e-06;0.0025121325396259037
3.63650e-06;0.002509529143783888
3.63675e-06;0.002506925747941872
3.63700e-06;0.002504322352099861
3.63725e-06;0.002501718956257845
3.63750e-06;0.0024991155604158293
3.63775e-06;0.002496512164573818
3.63800e-06;0.002493908768731802
3.63825e-06;0.0024913053728897864
3.63850e-06;0.0024887019770477707
3.63875e-06;0.0024860985812057597
3.63900e-06;0.002483495185363744
3.63925e-06;0.002480891789521728
3.63950e-06;0.002478288393679717
3.63975e-06;0.002475684997837701
3.64000e-06;0.0024730816019956853
3.64025e-06;0.0024704782061536696
3.64050e-06;0.002467874810311658
3.64075e-06;0.002466404692233637
3.64100e-06;0.0024663130900061192
3.64125e-06;0.0024662214877786016
3.64150e-06;0.0024661298855510843
3.64175e-06;0.0024660382833235667
3.64200e-06;0.0024659466810960495
3.64225e-06;0.002465855078868532
3.64250e-06;0.002465763476641014
3.64275e-06;0.0024656718744134965
3.64300e-06;0.0024655802721859793
3.64325e-06;0.0024654886699584616
3.64350e-06;0.002465397067730944
3.64375e-06;0.0024653054655034267
3.64400e-06;0.002465213863275909
3.64425e-06;0.002465122261048392
3.64450e-06;0.002465030658820874
3.64475e-06;0.0024649390565933565
3.64500e-06;0.0024648474543658393
3.64525e-06;0.0024647558521383216
3.64550e-06;0.002464664249910804
3.64575e-06;0.0024645726476832867
3.64600e-06;0.0024665471221791053
3.64625e-06;0.0024710347665279245
3.64650e-06;0.0024755224108767506
3.64675e-06;0.002480010055225577
3.64700e-06;0.0024844976995744036
3.64725e-06;0.0024889853439232223
3.64750e-06;0.002493472988272049
3.64775e-06;0.0024979606326208754
3.64800e-06;0.002502448276969694
3.64825e-06;0.0025069359213185207
3.64850e-06;0.002511423565667347
3.64875e-06;0.0025159112100161737
