Time(s);Current(A)
1.20000e-05;0.008606847012654262
1.20003e-05;0.008601435956855542
1.20005e-05;0.008596024901056824
1.20008e-05;0.00859061384525814
1.20010e-05;0.008590127191151542
1.20013e-05;0.008593126981164382
1.20015e-05;0.008596126771177201
1.20018e-05;0.008599126561190041
1.20020e-05;0.00860212635120288
1.20023e-05;0.008605126141215698
1.20025e-05;0.008608125931228538
1.20028e-05;0.008611125721241378
1.20030e-05;0.008614125511254197
1.20033e-05;0.008617125301267037
1.20035e-05;0.008620125091279877
1.20038e-05;0.008623124881292696
1.20040e-05;0.008626124671305536
1.20043e-05;0.008629732258867448
1.20045e-05;0.008633770163110096
1.20048e-05;0.00863780806735277
1.20050e-05;0.008644345139149176
1.20052e-05;0.008652651605192116
1.20055e-05;0.008660958071235111
1.20058e-05;0.008675822534696665
1.20060e-05;0.008695330017344427
1.20063e-05;0.008714837499992323
1.20065e-05;0.008734344982640219
1.20068e-05;0.008753852465288115
1.20070e-05;0.008774713852324655
1.20073e-05;0.008810059745339216
1.20075e-05;0.008845405638353777
1.20078e-05;0.008880751531368098
1.20080e-05;0.00891609742438266
1.20083e-05;0.008951443317397221
1.20085e-05;0.008996984320725931
1.20088e-05;0.009049743395331933
1.20090e-05;0.009102502469937934
1.20093e-05;0.009155261544543578
1.20095e-05;0.00920802061914958
1.20098e-05;0.009260779693755581
1.20100e-05;0.009313538768361225
1.20103e-05;0.009366297842967226
1.20105e-05;0.009425420116240386
1.20108e-05;0.009489047492461074
1.20110e-05;0.009552674868682194
1.20113e-05;0.009616302244903315
1.20115e-05;0.009679929621124003
1.20118e-05;0.009743556997345124
1.20120e-05;0.009807184373566244
1.20123e-05;0.009870811749786934
1.20125e-05;0.009933544673940677
1.20128e-05;0.009995644331893462
1.20130e-05;0.010057743989845828
1.20133e-05;0.010116981510237622
1.20135e-05;0.01017419265599625
1.20137e-05;0.010231403801754493
1.20140e-05;0.010276195244386553
1.20143e-05;0.010312193618610282
1.20145e-05;0.010348191992833766
1.20148e-05;0.010384190367057495
1.20150e-05;0.010420188741281224
1.20153e-05;0.010456187115504952
1.20155e-05;0.010492185489728436
1.20158e-05;0.010528183863952165
1.20160e-05;0.010564182238175894
1.20163e-05;0.010600180612399378
1.20165e-05;0.010636178986623107
1.20168e-05;0.010672177360846836
1.20170e-05;0.0107058449102498
1.20173e-05;0.010714576543674564
1.20175e-05;0.010723308177099327
1.20178e-05;0.010732039810524032
1.20180e-05;0.010740771443948796
1.20183e-05;0.01074950307737356
1.20185e-05;0.010758234710798262
1.20188e-05;0.010766966344223026
1.20190e-05;0.01077569797764779
1.20193e-05;0.010784429611072495
1.20195e-05;0.010793161244497258
1.20198e-05;0.010801892877922022
1.20200e-05;0.010810624511346727
1.20203e-05;0.010812342669978098
1.20205e-05;0.010809095334424925
1.20208e-05;0.010805847998871772
1.20210e-05;0.010802600663318599
1.20213e-05;0.010799353327765425
1.20215e-05;0.01079483267088787
1.20218e-05;0.01078873942860388
1.20220e-05;0.010782171064482184
1.20222e-05;0.01077560270036053
1.20225e-05;0.010769034336238834
1.20228e-05;0.010762465972117137
1.20230e-05;0.010755931073831186
1.20233e-05;0.010749754203853582
1.20235e-05;0.010743577333875978
1.20238e-05;0.010737400463898374
1.20240e-05;0.01073122359392081
1.20243e-05;0.010725046723943206
1.20245e-05;0.010719866629388019
1.20248e-05;0.010715392245298739
1.20250e-05;0.010710917861209427
1.20253e-05;0.01070396866509084
1.20255e-05;0.010695267318276266
1.20258e-05;0.010686565971461634
1.20260e-05;0.010673705064699016
1.20263e-05;0.010657899216756294
1.20265e-05;0.010642093368813466
1.20268e-05;0.010626287520870636
1.20270e-05;0.010610481672927915
1.20273e-05;0.010588456442052148
1.20275e-05;0.010562027928823254
1.20278e-05;0.010535599415594541
1.20280e-05;0.010509170902365647
1.20283e-05;0.010482742389136754
1.20285e-05;0.01044960030433766
1.20288e-05;0.010411705054868721
1.20290e-05;0.010373809805399781
1.20293e-05;0.010335914555931098
1.20295e-05;0.010298019306462158
1.20298e-05;0.010260124056993218
1.20300e-05;0.010222228807524535
1.20303e-05;0.010179578388707089
1.20305e-05;0.010133561341157091
1.20307e-05;0.010087544293607406
1.20310e-05;0.010041527246057409
1.20313e-05;0.009995510198507413
1.20315e-05;0.009949493150957727
1.20318e-05;0.00990347610340773
1.20320e-05;0.00985711504057558
1.20323e-05;0.009810510417178389
1.20325e-05;0.009763905793781514
1.20328e-05;0.009719018780084231
1.20330e-05;0.00967534782279708
1.20333e-05;0.009631676865510223
1.20335e-05;0.009590792798120255
1.20338e-05;0.009551881830511963
1.20340e-05;0.009512970862903933
1.20343e-05;0.009483483224013187
1.20345e-05;0.009460667240093288
1.20348e-05;0.009437851256173543
1.20350e-05;0.009415035272253642
1.20353e-05;0.009392219288333743
1.20355e-05;0.009369403304413998
1.20358e-05;0.009346587320494098
1.20360e-05;0.009323771336574199
1.20363e-05;0.009300955352654454
1.20365e-05;0.009278139368734553
1.20368e-05;0.009257123600976672
1.20370e-05;0.009255367126600956
1.20373e-05;0.00925361065222523
1.20375e-05;0.009251854177849503
1.20378e-05;0.009250097703473787
1.20380e-05;0.00924834122909806
1.20383e-05;0.009246584754722332
1.20385e-05;0.009244828280346618
1.20388e-05;0.009243071805970891
1.20390e-05;0.009241315331595163
1.20392e-05;0.009239558857219448
1.20395e-05;0.009245585504650494
1.20398e-05;0.009257122551310054
1.20400e-05;0.009268659597969537
1.20403e-05;0.009280196644629098
1.20405e-05;0.009291733691288658
1.20408e-05;0.009303270737948219
1.20410e-05;0.009314807784607701
1.20413e-05;0.009326344831267262
1.20415e-05;0.00933788187792682
1.20418e-05;0.009349418924586303
1.20420e-05;0.009361193691582743
1.20423e-05;0.009375511667450105
1.20425e-05;0.00938982964331737
1.20428e-05;0.009404147619184733
1.20430e-05;0.009418465595052094
1.20433e-05;0.009432783570919359
1.20435e-05;0.009447101546786721
1.20438e-05;0.009461419522654084
1.20440e-05;0.009475737498521349
1.20443e-05;0.009490055474388711
1.20445e-05;0.009504373450256074
1.20448e-05;0.00951715204277255
1.20450e-05;0.00952884076196569
1.20453e-05;0.009540529481158832
1.20455e-05;0.009552218200351893
1.20458e-05;0.009563906919545034
1.20460e-05;0.009575595638738174
1.20463e-05;0.009587284357931236
1.20465e-05;0.009598973077124377
1.20468e-05;0.009610661796317517
1.20470e-05;0.009622350515510579
1.20473e-05;0.009634188570963488
1.20475e-05;0.009647624273911833
1.20477e-05;0.009661059976860084
1.20480e-05;0.009674495679808427
1.20483e-05;0.009687931382756771
1.20485e-05;0.009701367085705022
1.20488e-05;0.009714802788653366
1.20490e-05;0.00972823849160171
1.20493e-05;0.009741674194550052
1.20495e-05;0.009755109897498304
1.20498e-05;0.009768545600446647
1.20500e-05;0.009782801593390835
1.20503e-05;0.009797638346276002
1.20505e-05;0.009812475099161269
1.20508e-05;0.009827311852046534
1.20510e-05;0.0098421486049317
1.20513e-05;0.009856985357816967
1.20515e-05;0.009871822110702233
1.20518e-05;0.009886658863587399
1.20520e-05;0.009901495616472666
1.20523e-05;0.009916177319417211
1.20525e-05;0.009929200248062861
1.20528e-05;0.009942223176708597
1.20530e-05;0.009955246105354332
1.20533e-05;0.009968269033999982
1.20535e-05;0.009981291962645716
1.20538e-05;0.009994314891291453
1.20540e-05;0.010007337819937102
1.20543e-05;0.010020360748582837
1.20545e-05;0.010033383677228573
1.20548e-05;0.010041910687152255
1.20550e-05;0.010047254616085403
1.20553e-05;0.010052598545018552
1.20555e-05;0.010057942473951665
1.20558e-05;0.010063286402884813
1.20560e-05;0.010068630331817962
1.20562e-05;0.010073974260751075
1.20565e-05;0.010071846392751528
1.20568e-05;0.010064428541490783
1.20570e-05;0.010057010690230088
1.20573e-05;0.010049592838969345
1.20575e-05;0.0100421749877086
1.20578e-05;0.010034757136447855
1.20580e-05;0.010027339285187162
1.20583e-05;0.010012341065523532
1.20585e-05;0.009991975994709346
1.20588e-05;0.0099716109238953
1.20590e-05;0.009951245853081114
1.20593e-05;0.009930880782266928
1.20595e-05;0.009910515711452881
1.20598e-05;0.009890150640638697
1.20600e-05;0.009869785569824511
1.20603e-05;0.009843776449862932
1.20605e-05;0.009817151067825738
1.20608e-05;0.009790525685788545
1.20610e-05;0.009763900303751532
1.20613e-05;0.009737274921714337
1.20615e-05;0.009710649539677145
1.20618e-05;0.009684024157640131
1.20620e-05;0.00966037530598167
1.20623e-05;0.009629473043136758
1.20625e-05;0.009608028415083092
1.20628e-05;0.009578251150897981
1.20630e-05;0.009549251939010463
1.20633e-05;0.009520252727123141
1.20635e-05;0.009493397789087733
1.20638e-05;0.009469143623969056
1.20640e-05;0.009445642630121367
1.20643e-05;0.00942214163627352
1.20645e-05;0.00940092061385892
1.20647e-05;0.00938320712474045
1.20650e-05;0.009366649140686323
1.20653e-05;0.009350091156632198
1.20655e-05;0.009340968916891719
1.20658e-05;0.009335400073556786
1.20660e-05;0.009337626174015002
1.20663e-05;0.009343577325266804
1.20665e-05;0.009349528476518565
1.20668e-05;0.009355479627770369
1.20670e-05;0.00936456365945475
1.20673e-05;0.009388250296935678
1.20675e-05;0.009411936934416769
1.20678e-05;0.009435623571897858
1.20680e-05;0.009459310209378787
1.20683e-05;0.009497137291025692
1.20685e-05;0.00954172181367037
1.20688e-05;0.009586306336314748
1.20690e-05;0.009630890858959426
1.20693e-05;0.009675475381604105
1.20695e-05;0.009720059904248481
1.20698e-05;0.00976464442689316
1.20700e-05;0.009812173495214998
1.20703e-05;0.009873427326005102
1.20705e-05;0.009934681156795622
1.20708e-05;0.009995934987586141
1.20710e-05;0.010057188818376247
1.20713e-05;0.010118442649166766
1.20715e-05;0.010179696479957286
1.20718e-05;0.01024095031074739
1.20720e-05;0.010304433194869362
1.20723e-05;0.010368981299870812
1.20725e-05;0.010433529404871824
1.20728e-05;0.010496043306505113
1.20730e-05;0.010557585102235704
1.20732e-05;0.010619126897965878
1.20735e-05;0.010673786347645898
1.20738e-05;0.010725156859098254
1.20740e-05;0.010776527370550263
1.20743e-05;0.01082789788200262
1.20745e-05;0.010879268393454976
1.20748e-05;0.010930638904907334
1.20750e-05;0.010968543952128968
1.20753e-05;0.011000014118027372
1.20755e-05;0.011031484283925773
1.20758e-05;0.011062954449823963
1.20760e-05;0.011094424615722366
1.20763e-05;0.011125894781620767
1.20765e-05;0.011139988690203488
1.20768e-05;0.011145778826130168
1.20770e-05;0.011151568962056846
1.20773e-05;0.011157359097983486
1.20775e-05;0.011163149233910166
1.20778e-05;0.011168939369836846
1.20780e-05;0.011174729505763486
1.20783e-05;0.011180519641690164
1.20785e-05;0.011186309777616844
1.20788e-05;0.01117596100390882
1.20790e-05;0.011157899761739002
1.20793e-05;0.011139838519569184
1.20795e-05;0.01112177727739949
1.20798e-05;0.011103716035229671
1.20800e-05;0.011085654793059854
1.20803e-05;0.011067593550890159
1.20805e-05;0.011049532308720342
1.20808e-05;0.011031471066550523
1.20810e-05;0.011006229505807935
1.20813e-05;0.010977556611611084
1.20815e-05;0.010948883717414233
1.20817e-05;0.010920210823217577
1.20820e-05;0.010891537929020726
1.20823e-05;0.010862865034823876
1.20825e-05;0.010834192140627218
1.20828e-05;0.010806926426145561
1.20830e-05;0.010780333175257827
1.20833e-05;0.010753739924370093
1.20835e-05;0.010727146673482539
1.20838e-05;0.010700553422594804
1.20840e-05;0.010673960171707068
1.20843e-05;0.010647366920819515
1.20845e-05;0.01062567765807995
1.20848e-05;0.01060633191511918
1.20850e-05;0.01058698617215854
1.20853e-05;0.010567155194813233
1.20855e-05;0.01054709233347001
1.20858e-05;0.01052702947212692
1.20860e-05;0.010505025424995004
1.20863e-05;0.010482093723237312
1.20865e-05;0.010459162021479777
1.20868e-05;0.010436230319722085
1.20870e-05;0.010413298617964395
1.20873e-05;0.010389311429183068
1.20875e-05;0.010360404531118021
1.20878e-05;0.010331497633052975
1.20880e-05;0.010302590734988125
1.20883e-05;0.010273683836923076
1.20885e-05;0.01024477693885803
1.20888e-05;0.01021113977557029
1.20890e-05;0.010175242111282777
1.20893e-05;0.010139344446995267
1.20895e-05;0.010103446782708
1.20898e-05;0.010067549118420489
1.20900e-05;0.010031651454132977
1.20902e-05;0.00999575378984571
1.20905e-05;0.009959856125558199
1.20908e-05;0.009923487372774997
1.20910e-05;0.009884922838903496
1.20913e-05;0.009846358305031732
1.20915e-05;0.00980779377115997
1.20918e-05;0.009769229237288207
1.20920e-05;0.009730664703416705
1.20923e-05;0.009692100169544943
1.20925e-05;0.00965353563567318
1.20928e-05;0.009614971101801678
1.20930e-05;0.009580127340741837
1.20933e-05;0.009547061664052644
1.20935e-05;0.009513995987363676
1.20938e-05;0.009480930310674483
1.20940e-05;0.00944786463398529
1.20943e-05;0.009422335214444424
1.20945e-05;0.009400407224425103
1.20948e-05;0.009378479234405782
1.20950e-05;0.00935655124438661
1.20953e-05;0.009334623254367288
1.20955e-05;0.009328605509742453
1.20958e-05;0.009330190959427194
1.20960e-05;0.009331776409111947
1.20963e-05;0.009333361858796699
1.20965e-05;0.00933494730848144
1.20968e-05;0.009341490020610523
1.20970e-05;0.009371138928770546
1.20973e-05;0.009400787836930368
1.20975e-05;0.00943043674509039
1.20978e-05;0.009460085653250414
1.20980e-05;0.009489734561410234
1.20983e-05;0.009540500918677733
1.20985e-05;0.009601358890807913
1.20987e-05;0.00966221686293768
1.20990e-05;0.009723074835067859
1.20993e-05;0.009783932807198038
1.20995e-05;0.009844790779327806
1.20998e-05;0.009905648751457986
1.21000e-05;0.009966506723588165
1.21003e-05;0.010042255562206977
1.21005e-05;0.010125120453944115
1.21008e-05;0.010207985345681814
1.21010e-05;0.010290850237419514
1.21013e-05;0.010373715129156651
1.21015e-05;0.01045658002089435
1.21018e-05;0.01053944491263205
1.21020e-05;0.01062230980436919
1.21023e-05;0.010706693101625494
1.21025e-05;0.01079180201510673
1.21028e-05;0.010876910928587388
1.21030e-05;0.010958611858236069
1.21033e-05;0.011038684179233784
1.21035e-05;0.011118756500230958
1.21038e-05;0.011184933065187053
1.21040e-05;0.011244469120794007
1.21043e-05;0.011304005176400558
1.21045e-05;0.011363541232007512
1.21048e-05;0.011423077287614465
1.21050e-05;0.011482613343221017
1.21053e-05;0.01154214939882797
1.21055e-05;0.011601685454434924
1.21058e-05;0.011656050723492241
1.21060e-05;0.011686314543607497
1.21063e-05;0.011716578363722755
1.21065e-05;0.011746842183837808
1.21068e-05;0.011777106003953066
1.21070e-05;0.011807369824068324
1.21072e-05;0.011837633644183377
1.21075e-05;0.011867897464298635
1.21078e-05;0.011898161284413893
1.21080e-05;0.011911336983688629
1.21083e-05;0.011916346605070394
1.21085e-05;0.011921356226452158
1.21088e-05;0.011926365847833924
1.21090e-05;0.011931375469215655
1.21093e-05;0.011936385090597421
1.21095e-05;0.011941394711979185
1.21098e-05;0.011946404333360916
1.21100e-05;0.011951413954742682
1.21103e-05;0.011956423576124448
1.21105e-05;0.011961433197506179
1.21108e-05;0.011966442818887943
1.21110e-05;0.011969166693342432
1.21113e-05;0.011961236518872528
1.21115e-05;0.011953306344402573
1.21118e-05;0.011945376169932615
1.21120e-05;0.011937445995462714
1.21123e-05;0.011929515820992756
1.21125e-05;0.0119215856465228
1.21128e-05;0.011913655472052897
1.21130e-05;0.011905725297582942
1.21133e-05;0.011897795123112984
1.21135e-05;0.011889864948643082
1.21138e-05;0.011881934774173125
1.21140e-05;0.01187400459970317
1.21143e-05;0.011867174894805432
1.21145e-05;0.011860871082738719
1.21148e-05;0.011854567270672004
1.21150e-05;0.011845928451931387
1.21153e-05;0.011836173779284864
1.21155e-05;0.011826419106638342
1.21158e-05;0.011808260197369866
1.21160e-05;0.011786085068205518
1.21163e-05;0.011763909939041169
1.21165e-05;0.01174173480987697
1.21168e-05;0.011719559680712621
1.21170e-05;0.011694220782515346
1.21173e-05;0.011654135304252878
1.21175e-05;0.011614049825990682
1.21178e-05;0.011573964347728213
1.21180e-05;0.011533878869465747
1.21183e-05;0.011493793391203551
1.21185e-05;0.01144125784129067
1.21188e-05;0.011382772646249968
1.21190e-05;0.01132428745120966
1.21193e-05;0.011265802256168958
1.21195e-05;0.011207317061128255
1.21198e-05;0.01114883186608795
1.21200e-05;0.011088075679692796
1.21203e-05;0.011016734221271309
1.21205e-05;0.010945392762850305
1.21208e-05;0.010874051304428818
1.21210e-05;0.01080270984600733
1.21213e-05;0.010731368387586327
1.21215e-05;0.01066002692916484
1.21218e-05;0.010586763947428841
1.21220e-05;0.010512582707377358
1.21223e-05;0.010439291903929365
1.21225e-05;0.010366426622675312
1.21228e-05;0.010295581365861999
1.21230e-05;0.010225701439120875
1.21233e-05;0.010158523070568904
1.21235e-05;0.010092635723705605
1.21238e-05;0.010035829716894063
1.21240e-05;0.009983363504432671
1.21243e-05;0.009930897291971634
1.21245e-05;0.009878431079510242
1.21248e-05;0.00982596486704885
1.21250e-05;0.009773498654587813
1.21253e-05;0.009731424755248812
1.21255e-05;0.009694317138585833
1.21258e-05;0.009657209521922854
1.21260e-05;0.009620101905260126
1.21263e-05;0.009582994288597147
1.21265e-05;0.009553064989949426
1.21268e-05;0.00952656606873407
1.21270e-05;0.009500067147518537
1.21273e-05;0.009473568226303002
1.21275e-05;0.009447069305087648
1.21278e-05;0.00942833578216978
1.21280e-05;0.009413313190840242
1.21283e-05;0.009398290599510806
1.21285e-05;0.009383268008181268
1.21288e-05;0.009368245416851731
1.21290e-05;0.009353222825522294
1.21293e-05;0.009338200234192757
1.21295e-05;0.00932317764286322
1.21298e-05;0.009308155051533783
1.21300e-05;0.009293132460204245
1.21303e-05;0.009278109868874706
1.21305e-05;0.009263087277545271
1.21308e-05;0.009248064686215732
1.21310e-05;0.009239658345699642
1.21313e-05;0.009234413781721226
1.21315e-05;0.009229169217742774
1.21318e-05;0.009223924653764322
1.21320e-05;0.009218680089785906
1.21323e-05;0.009213435525807454
1.21325e-05;0.009208190961829002
1.21328e-05;0.009202946397850586
1.21330e-05;0.009197701833872134
1.21333e-05;0.009192457269893681
1.21335e-05;0.009187212705915266
1.21338e-05;0.009181968141936813
1.21340e-05;0.009176723577958361
1.21343e-05;0.009173772412976317
1.21345e-05;0.009171917218407688
1.21348e-05;0.009170062023839045
1.21350e-05;0.009174556079984903
1.21353e-05;0.009182084318556468
1.21355e-05;0.009189612557128083
1.21358e-05;0.009197140795699697
1.21360e-05;0.009204669034271262
1.21363e-05;0.009212197272842877
1.21365e-05;0.009222899731061893
1.21368e-05;0.00924839748050957
1.21370e-05;0.009273895229957418
1.21373e-05;0.009299392979405267
1.21375e-05;0.009324890728852944
1.21378e-05;0.009350388478300792
1.21380e-05;0.009375886227748643
1.21383e-05;0.009415141037174241
1.21385e-05;0.00946097007582735
1.21388e-05;0.009506799114480458
1.21390e-05;0.009552628153133257
1.21393e-05;0.009598457191786366
1.21395e-05;0.009644286230439475
1.21398e-05;0.009690115269092272
1.21400e-05;0.009735944307745381
1.21403e-05;0.00978177334639849
1.21405e-05;0.009835726244930523
1.21408e-05;0.009893561376814144
1.21410e-05;0.009951396508697766
1.21413e-05;0.010009231640580995
1.21415e-05;0.010067066772464616
1.21418e-05;0.010124901904348237
1.21420e-05;0.010182737036231466
1.21423e-05;0.010240572168115088
1.21425e-05;0.010298407299998709
1.21427e-05;0.010354305432935803
1.21430e-05;0.0104092779120557
1.21433e-05;0.010464250391175597
1.21435e-05;0.010519222870295494
1.21438e-05;0.010568591837539016
1.21440e-05;0.010615282996325432
1.21443e-05;0.010661974155111848
1.21445e-05;0.010708665313897948
1.21448e-05;0.010749538543926301
1.21450e-05;0.010787631499873223
1.21453e-05;0.010825724455819887
1.21455e-05;0.010863506263095114
1.21458e-05;0.01090113937852082
1.21460e-05;0.01093877249394627
1.21463e-05;0.010976405609371976
1.21465e-05;0.011014038724797682
1.21468e-05;0.011051671840223133
1.21470e-05;0.011089304955648839
1.21473e-05;0.011126938071074545
1.21475e-05;0.011166193019411732
1.21478e-05;0.011206223009898533
1.21480e-05;0.011246253000385334
1.21483e-05;0.011286282990871862
1.21485e-05;0.011326312981358663
1.21488e-05;0.011366342971845463
1.21490e-05;0.011406372962331993
1.21493e-05;0.011446402952818794
1.21495e-05;0.011488755593306465
1.21498e-05;0.011532218182689295
1.21500e-05;0.01157568077207242
1.21503e-05;0.011619143361455544
1.21505e-05;0.011662605950838376
1.21508e-05;0.011706068540221501
1.21510e-05;0.011749531129604626
1.21512e-05;0.011792993718987458
1.21515e-05;0.011836456308370583
1.21518e-05;0.011879918897753708
