Time(s);Current(A)
2.25000e-06;0.006424478744404076
2.25025e-06;0.006486964803191366
2.25050e-06;0.006549450861978656
2.25075e-06;0.006611936920765841
2.25100e-06;0.006674422979553131
2.25125e-06;0.00673690903834042
2.25150e-06;0.006798869391289448
2.25175e-06;0.006859583886012996
2.25200e-06;0.006920298380736544
2.25225e-06;0.006981012875460092
2.25250e-06;0.007041727370183538
2.25275e-06;0.007102441864907085
2.25300e-06;0.007163156359630633
2.25325e-06;0.007210432723409326
2.25350e-06;0.007254280966306574
2.25375e-06;0.007298129209203822
2.25400e-06;0.007341977452100996
2.25425e-06;0.007385825694998243
2.25450e-06;0.007429673937895492
2.25475e-06;0.007468904174493695
2.25500e-06;0.007497190303729869
2.25525e-06;0.007525476432966092
2.25550e-06;0.007553762562202315
2.25575e-06;0.00758204869143849
2.25600e-06;0.007610334820674713
2.25625e-06;0.007638620949910936
2.25650e-06;0.007666907079147159
2.25675e-06;0.0076951932083833335
2.25700e-06;0.0077234793376195566
2.25725e-06;0.00775176546685578
2.25750e-06;0.007780051596091954
2.25775e-06;0.007808337725328177
2.25800e-06;0.0078366238545644
2.25825e-06;0.007864909983800576
2.25850e-06;0.007893196113036799
2.25875e-06;0.007913763569051716
2.25900e-06;0.007932361960696131
2.25925e-06;0.007950960352340514
2.25950e-06;0.00796955874398493
2.25975e-06;0.007988157135629345
2.26000e-06;0.008006755527273729
2.26025e-06;0.008025353918918144
2.26050e-06;0.00804395231056256
2.26075e-06;0.008062550702206975
2.26100e-06;0.008081149093851358
2.26125e-06;0.008099747485495775
2.26150e-06;0.00811834587714019
2.26175e-06;0.008136944268784573
2.26200e-06;0.00815554266042899
2.26225e-06;0.008174141052073404
2.26250e-06;0.00819013181111859
2.26275e-06;0.008199942801389042
2.26300e-06;0.008209753791659493
2.26325e-06;0.008219564781929945
2.26350e-06;0.008229375772200379
2.26375e-06;0.00823918676247083
2.26400e-06;0.008248997752741282
2.26425e-06;0.008258808743011716
2.26450e-06;0.008268619733282167
2.26475e-06;0.008259354924135185
2.26500e-06;0.008245223802359498
2.26525e-06;0.008231092680583835
2.26550e-06;0.008216961558808147
2.26575e-06;0.00820283043703246
2.26600e-06;0.008188699315256795
2.26625e-06;0.008174568193481108
2.26650e-06;0.00816043707170542
2.26675e-06;0.008136222046666837
2.26700e-06;0.008088109410234787
2.26725e-06;0.008039996773802734
2.26750e-06;0.007991884137370684
2.26775e-06;0.007943771500938713
2.26800e-06;0.00789565886450666
2.26825e-06;0.00784754622807461
2.26850e-06;0.007799433591642639
2.26875e-06;0.007751320955210588
2.26900e-06;0.007703208318778536
2.26925e-06;0.007649030257419958
2.26950e-06;0.007580477884442936
2.26975e-06;0.0075119255114657986
2.27000e-06;0.007443373138488661
2.27025e-06;0.00737482076551164
2.27050e-06;0.007306268392534502
2.27075e-06;0.007237716019557364
2.27100e-06;0.007169163646580343
2.27125e-06;0.007100611273603206
2.27150e-06;0.0070320589006260675
2.27175e-06;0.006964871701959746
2.27200e-06;0.006900919798626588
2.27225e-06;0.006836967895293321
2.27250e-06;0.006773015991960054
2.27275e-06;0.0067090640886268964
2.27300e-06;0.006645112185293629
2.27325e-06;0.006586206028082422
2.27350e-06;0.006539257669044983
2.27375e-06;0.006492309310007624
2.27400e-06;0.006445360950970184
2.27425e-06;0.006398412591932745
2.27450e-06;0.0063514642328953855
2.27475e-06;0.006309727362407387
2.27500e-06;0.006280341079276071
2.27525e-06;0.006250954796144804
2.27550e-06;0.006221568513013488
2.27575e-06;0.0061921822298821715
2.27600e-06;0.006162795946750855
2.27625e-06;0.006133409663619589
2.27650e-06;0.006104023380488273
2.27675e-06;0.006074637097356957
2.27700e-06;0.00604525081422569
2.27725e-06;0.0060158645310943734
2.27750e-06;0.005986478247963057
2.27775e-06;0.005957091964831741
2.27800e-06;0.005927705681700475
2.27825e-06;0.0058983193985691585
2.27850e-06;0.005868933115437842
2.27875e-06;0.005843210024092625
2.27900e-06;0.005826168247064854
2.27925e-06;0.0058091264700370834
2.27950e-06;0.005792084693009341
2.27975e-06;0.00577504291598157
2.28000e-06;0.005758001138953799
2.28025e-06;0.0057409593619260285
2.28050e-06;0.005723917584898286
2.28075e-06;0.005706875807870515
2.28100e-06;0.0056898340308427445
2.28125e-06;0.005672792253815003
2.28150e-06;0.005655750476787232
2.28175e-06;0.005638708699759461
2.28200e-06;0.0056216669227316905
2.28225e-06;0.005604625145703948
2.28250e-06;0.005587583368676177
2.28275e-06;0.005573318118688197
2.28300e-06;0.005565632896542623
2.28325e-06;0.005557947674397037
2.28350e-06;0.00555026245225145
2.28375e-06;0.005542577230105876
2.28400e-06;0.005534892007960289
2.28425e-06;0.005527206785814703
2.28450e-06;0.005519521563669116
2.28475e-06;0.005511836341523542
2.28500e-06;0.005511288955452983
2.28525e-06;0.005527657363623
2.28550e-06;0.00554402577179299
2.28575e-06;0.005560394179963007
2.28600e-06;0.005576762588133025
2.28625e-06;0.005593130996303043
2.28650e-06;0.005609499404473032
2.28675e-06;0.00562586781264305
2.28700e-06;0.005642236220813067
2.28725e-06;0.005666929303427768
2.28750e-06;0.005711350841354095
2.28775e-06;0.0057557723792804215
2.28800e-06;0.005800193917206673
2.28825e-06;0.005844615455132999
2.28850e-06;0.005889036993059326
2.28875e-06;0.005933458530985652
2.28900e-06;0.005977880068911904
2.28925e-06;0.00602230160683823
2.28950e-06;0.006066723144764557
2.28975e-06;0.006122050115125918
2.29000e-06;0.006180159104863449
2.29025e-06;0.006238268094600979
2.29050e-06;0.00629637708433851
2.29075e-06;0.006354486074075942
2.29100e-06;0.006412595063813472
2.29125e-06;0.006470704053551003
2.29150e-06;0.006528813043288435
2.29175e-06;0.006586922033025966
2.29200e-06;0.0066415725961423274
2.29225e-06;0.006688027113214997
2.29250e-06;0.006734481630287746
2.29275e-06;0.006780936147360495
2.29300e-06;0.006827390664433244
2.29325e-06;0.0068738451815059136
2.29350e-06;0.006920299698578662
2.29375e-06;0.006966754215651411
2.29400e-06;0.007013208732724081
2.29425e-06;0.00705966324979683
2.29450e-06;0.007084304285373822
2.29475e-06;0.00710338061468665
2.29500e-06;0.007122456943999446
2.29525e-06;0.007141533273312274
2.29550e-06;0.007160609602625103
2.29575e-06;0.007179685931937898
2.29600e-06;0.007198762261250727
2.29625e-06;0.0072178385905635545
2.29650e-06;0.00723691491987635
2.29675e-06;0.007249970903588124
2.29700e-06;0.007248759408138978
2.29725e-06;0.007247547912689831
2.29750e-06;0.007246336417240686
2.29775e-06;0.007245124921791539
2.29800e-06;0.007243913426342393
2.29825e-06;0.00723824885664871
2.29850e-06;0.007222031048288073
2.29875e-06;0.007205813239927435
2.29900e-06;0.007189595431566797
2.29925e-06;0.007173377623206187
2.29950e-06;0.007157159814845549
2.29975e-06;0.0071409420064849115
2.30000e-06;0.0071247241981243015
2.30025e-06;0.007108506389763664
2.30050e-06;0.007092288581403026
2.30075e-06;0.007076070773042416
2.30100e-06;0.007059852964681778
2.30125e-06;0.007040662784871111
2.30150e-06;0.007020714341230277
2.30175e-06;0.007000765897589476
2.30200e-06;0.006980817453948641
2.30225e-06;0.006960869010307806
2.30250e-06;0.006940920566667006
2.30275e-06;0.00692097212302617
2.30300e-06;0.006901023679385335
2.30325e-06;0.006881075235744501
2.30350e-06;0.0068611267921037
2.30375e-06;0.006841178348462865
2.30400e-06;0.006826239528384162
2.30425e-06;0.006823172900454559
2.30450e-06;0.00682010627252495
2.30475e-06;0.006817039644595341
2.30500e-06;0.0068139730166657374
2.30525e-06;0.006810906388736129
2.30550e-06;0.00680783976080652
2.30575e-06;0.006804773132876912
2.30600e-06;0.006801706504947308
2.30625e-06;0.006798639877017699
2.30650e-06;0.0067955732490880905
2.30675e-06;0.006792506621158487
2.30700e-06;0.006789439993228878
2.30725e-06;0.006786373365299269
2.30750e-06;0.00678330673736966
2.30775e-06;0.0067856734832055085
2.30800e-06;0.006800916657092844
2.30825e-06;0.00681615983098018
2.30850e-06;0.00683140300486749
2.30875e-06;0.006846646178754826
2.30900e-06;0.0068618893526421615
2.30925e-06;0.006877132526529471
2.30950e-06;0.006892375700416807
2.30975e-06;0.006907618874304143
2.31000e-06;0.006922862048191479
2.31025e-06;0.0069381052220787885
2.31050e-06;0.006953348395966124
2.31075e-06;0.006968591569853459
2.31100e-06;0.00698383474374077
2.31125e-06;0.006999077917628105
2.31150e-06;0.007014152408659091
2.31175e-06;0.007028827142051985
2.31200e-06;0.007043501875444854
2.31225e-06;0.007058176608837749
2.31250e-06;0.007072851342230643
2.31275e-06;0.007087526075623513
2.31300e-06;0.007102200809016407
2.31325e-06;0.0071168755424093014
2.31350e-06;0.0071315502758021706
2.31375e-06;0.007146225009195065
2.31400e-06;0.007160899742587959
2.31425e-06;0.007175574475980853
2.31450e-06;0.0071902492093737225
2.31475e-06;0.007204923942766617
2.31500e-06;0.007219598676159511
2.31525e-06;0.007234273409552381
2.31550e-06;0.007248586465003801
2.31575e-06;0.007262042388184828
2.31600e-06;0.0072754983113658325
2.31625e-06;0.00728895423454686
2.31650e-06;0.007302410157727887
2.31675e-06;0.007315866080908914
2.31700e-06;0.007329322004089918
2.31725e-06;0.007342777927270945
2.31750e-06;0.007356233850451972
2.31775e-06;0.007369689773632977
2.31800e-06;0.007383145696814004
2.31825e-06;0.007396601619995031
2.31850e-06;0.007410057543176058
2.31875e-06;0.007423513466357063
2.31900e-06;0.00743696938953809
2.31925e-06;0.007450425312719117
2.31950e-06;0.007464392622336873
2.31975e-06;0.007479571854959446
2.32000e-06;0.007494751087582018
2.32025e-06;0.007509930320204565
2.32050e-06;0.007525109552827138
2.32075e-06;0.00754028878544971
2.32100e-06;0.0075554680180722825
2.32125e-06;0.007570647250694828
2.32150e-06;0.007585826483317401
2.32175e-06;0.007601005715939973
2.32200e-06;0.00761618494856252
2.32225e-06;0.007631364181185093
2.32250e-06;0.007646543413807665
2.32275e-06;0.007658516566869263
2.32300e-06;0.007662891705404206
2.32325e-06;0.007667266843939157
2.32350e-06;0.007671641982474107
2.32375e-06;0.00767601712100905
2.32400e-06;0.007680392259544001
2.32425e-06;0.007684767398078951
2.32450e-06;0.007689142536613894
2.32475e-06;0.007693517675148845
2.32500e-06;0.007697892813683795
2.32525e-06;0.007702267952218746
2.32550e-06;0.007706643090753689
2.32575e-06;0.007711018229288639
2.32600e-06;0.007707831369224835
2.32625e-06;0.007686723501864757
2.32650e-06;0.007665615634504643
2.32675e-06;0.007644507767144529
2.32700e-06;0.007623399899784416
2.32725e-06;0.0076022920324243385
2.32750e-06;0.007581184165064225
2.32775e-06;0.007560076297704111
2.32800e-06;0.007538968430344033
2.32825e-06;0.007517860562983919
2.32850e-06;0.007496752695623806
2.32875e-06;0.007475644828263728
2.32900e-06;0.007454536960903614
2.32925e-06;0.007421467123847178
2.32950e-06;0.007385345740537811
2.32975e-06;0.007349224357228506
2.33000e-06;0.00731310297391914
2.33025e-06;0.007276981590609773
2.33050e-06;0.007240860207300467
2.33075e-06;0.007204738823991101
2.33100e-06;0.007168617440681734
2.33125e-06;0.007132496057372367
2.33150e-06;0.007096374674063061
2.33175e-06;0.007060253290753694
2.33200e-06;0.0070241319074443274
2.33225e-06;0.00699146738294837
2.33250e-06;0.006966995188986575
2.33275e-06;0.00694252299502478
2.33300e-06;0.006918050801063027
2.33325e-06;0.006893578607101231
2.33350e-06;0.0068691064131394365
2.33375e-06;0.006844634219177642
2.33400e-06;0.006820162025215888
2.33425e-06;0.006795689831254093
2.33450e-06;0.006771217637292298
2.33475e-06;0.006746745443330544
2.33500e-06;0.00672227324936875
2.33525e-06;0.006697801055406955
2.33550e-06;0.00667332886144516
2.33575e-06;0.006648856667483406
2.33600e-06;0.006624384473521611
2.33625e-06;0.006599912279559817
2.33650e-06;0.006586676393974715
2.33675e-06;0.006576306935541362
2.33700e-06;0.006565937477108009
2.33725e-06;0.006555568018674674
2.33750e-06;0.006545198560241321
2.33775e-06;0.006534829101807968
2.33800e-06;0.006524459643374615
2.33825e-06;0.0065140901849412795
2.33850e-06;0.006503720726507926
2.33875e-06;0.0064933512680745735
2.33900e-06;0.006482981809641238
2.33925e-06;0.006472612351207885
2.33950e-06;0.006462242892774532
2.33975e-06;0.006451873434341179
2.34000e-06;0.006441503975907844
2.34025e-06;0.00643113451747449
2.34050e-06;0.006422045718692566
2.34075e-06;0.006415991925889663
2.34100e-06;0.00640993813308675
2.34125e-06;0.006403884340283838
2.34150e-06;0.006397830547480936
2.34175e-06;0.006391776754678023
2.34200e-06;0.00638572296187511
2.34225e-06;0.006379669169072197
2.34250e-06;0.006373615376269295
2.34275e-06;0.006367561583466383
2.34300e-06;0.006365709623056401
2.34325e-06;0.006364929566874696
2.34350e-06;0.006364149510692988
2.34375e-06;0.006363369454511282
2.34400e-06;0.006362589398329574
2.34425e-06;0.006361809342147869
2.34450e-06;0.006361029285966161
2.34475e-06;0.006360249229784455
2.34500e-06;0.006359469173602749
2.34525e-06;0.006365461072177826
2.34550e-06;0.006387501671244106
2.34575e-06;0.006409542270310349
2.34600e-06;0.006431582869376629
2.34625e-06;0.006453623468442908
2.34650e-06;0.006475664067509188
2.34675e-06;0.00649770466657543
2.34700e-06;0.00651974526564171
2.34725e-06;0.006541785864707991
2.34750e-06;0.006563826463774233
2.34775e-06;0.006585867062840513
2.34800e-06;0.006607907661906792
2.34825e-06;0.006648219963696469
2.34850e-06;0.0066931934498400064
2.34875e-06;0.00673816693598362
2.34900e-06;0.0067831404221272325
2.34925e-06;0.00682811390827077
2.34950e-06;0.006873087394414382
2.34975e-06;0.006918060880557996
2.35000e-06;0.006963034366701533
2.35025e-06;0.007008007852845145
2.35050e-06;0.007052981338988759
2.35075e-06;0.007097954825132371
2.35100e-06;0.007143379544097483
2.35125e-06;0.007189873629392732
2.35150e-06;0.00723636771468798
2.35175e-06;0.007282861799983151
2.35200e-06;0.007329355885278399
2.35225e-06;0.007375849970573649
2.35250e-06;0.007422344055868897
2.35275e-06;0.007468838141164067
2.35300e-06;0.007515332226459316
2.35325e-06;0.00755540853423301
2.35350e-06;0.007577815094937556
2.35375e-06;0.00760022165564214
2.35400e-06;0.007622628216346725
2.35425e-06;0.007645034777051271
2.35450e-06;0.007667441337755855
2.35475e-06;0.007689847898460439
2.35500e-06;0.007712254459165024
2.35525e-06;0.00773466101986957
2.35550e-06;0.007751853529838789
2.35575e-06;0.007748542619835257
2.35600e-06;0.007740531022470089
2.35625e-06;0.007732519425104908
2.35650e-06;0.007698053959696329
2.35675e-06;0.007662038929082416
2.35700e-06;0.007626023898468564
2.35725e-06;0.0075900088678546515
2.35750e-06;0.007553993837240739
2.35775e-06;0.007517978806626887
2.35800e-06;0.007481963776012974
2.35825e-06;0.00744594874539906
2.35850e-06;0.007409544008817057
2.35875e-06;0.007342758110911248
2.35900e-06;0.007275972213005438
2.35925e-06;0.007209186315099629
2.35950e-06;0.007142400417193932
2.35975e-06;0.007075614519288124
2.36000e-06;0.0070088286213823145
2.36025e-06;0.006942042723476618
2.36050e-06;0.0068752568255708085
2.36075e-06;0.0068079476074784885
2.36100e-06;0.006734674084555872
2.36125e-06;0.00666140056163338
2.36150e-06;0.006588127038710764
2.36175e-06;0.006514853515788147
2.36200e-06;0.0064415799928656545
2.36225e-06;0.006368306469943038
2.36250e-06;0.006302873218476191
2.36275e-06;0.006243101938600236
2.36300e-06;0.006183330658724179
2.36325e-06;0.006123559378848123
2.36350e-06;0.006063788098972066
2.36375e-06;0.00600401681909611
2.36400e-06;0.005946245963843722
2.36425e-06;0.005911274042311482
2.36450e-06;0.0058763021207793005
2.36475e-06;0.00584133019924706
2.36500e-06;0.00580635827771482
2.36525e-06;0.00577138635618258
2.36550e-06;0.0057364144346503994
2.36575e-06;0.005701442513118159
2.36600e-06;0.005666470591585919
2.36625e-06;0.005631498670053738
2.36650e-06;0.0055965267485214975
2.36675e-06;0.005561554826989257
2.36700e-06;0.005526582905457076
2.36725e-06;0.005491610983924836
2.36750e-06;0.005466511328154248
2.36775e-06;0.005448541079649326
2.36800e-06;0.005430570831144434
2.36825e-06;0.005412600582639511
2.36850e-06;0.005394630334134589
2.36875e-06;0.005376660085629697
2.36900e-06;0.005358689837124775
2.36925e-06;0.005340719588619852
2.36950e-06;0.00532274934011493
2.36975e-06;0.005304779091610038
2.37000e-06;0.005286808843105116
2.37025e-06;0.005268838594600193
2.37050e-06;0.005250868346095301
2.37075e-06;0.005233766471627464
2.37100e-06;0.00522656149699038
2.37125e-06;0.005219356522353307
2.37150e-06;0.005212151547716223
2.37175e-06;0.005204946573079138
2.37200e-06;0.005197741598442054
2.37225e-06;0.0051905366238049816
2.37250e-06;0.005183331649167897
2.37275e-06;0.005176126674530813
2.37300e-06;0.00516892169989374
2.37325e-06;0.005161716725256656
2.37350e-06;0.005154511750619571
2.37375e-06;0.005147306775982487
2.37400e-06;0.005140101801345415
2.37425e-06;0.005132896826708331
2.37450e-06;0.005125691852071246
2.37475e-06;0.005118486877434174
2.37500e-06;0.005111281902797089
2.37525e-06;0.0051040769281600045
2.37550e-06;0.005096871953522933
2.37575e-06;0.005089666978885848
2.37600e-06;0.005082462004248764
2.37625e-06;0.005075257029611679
2.37650e-06;0.005068895546877875
2.37675e-06;0.005072147381124003
2.37700e-06;0.005075399215370131
2.37725e-06;0.005078651049616254
2.37750e-06;0.005081902883862382
2.37775e-06;0.00508515471810851
2.37800e-06;0.005088406552354638
2.37825e-06;0.00509165838660076
2.37850e-06;0.005094910220846888
2.37875e-06;0.005098162055093016
2.37900e-06;0.005101413889339139
2.37925e-06;0.005104665723585267
2.37950e-06;0.005107917557831395
2.37975e-06;0.005111169392077517
2.38000e-06;0.005114421226323645
2.38025e-06;0.005117673060569773
2.38050e-06;0.005120924894815901
2.38075e-06;0.005124176729062024
2.38100e-06;0.005127428563308151
2.38125e-06;0.005130680397554279
2.38150e-06;0.005133932231800402
2.38175e-06;0.00513718406604653
2.38200e-06;0.005140435900292658
2.38225e-06;0.005143797523561073
2.38250e-06;0.005148410417491569
2.38275e-06;0.005153023311422073
2.38300e-06;0.005157636205352576
2.38325e-06;0.005162249099283072
2.38350e-06;0.005166861993213576
2.38375e-06;0.005171474887144079
2.38400e-06;0.005176087781074575
2.38425e-06;0.005180700675005079
2.38450e-06;0.005185313568935581
2.38475e-06;0.005189926462866085
2.38500e-06;0.005194539356796581
2.38525e-06;0.005199152250727084
2.38550e-06;0.005203765144657588
2.38575e-06;0.005208378038588084
2.38600e-06;0.005212990932518587
2.38625e-06;0.005217603826449091
2.38650e-06;0.0052222167203795945
2.38675e-06;0.00522942486098934
2.38700e-06;0.005238507198564639
2.38725e-06;0.0052475895361399376
2.38750e-06;0.005256671873715221
2.38775e-06;0.00526575421129052
2.38800e-06;0.005274836548865819
2.38825e-06;0.005283918886441102
2.38850e-06;0.005293001224016401
2.38875e-06;0.0053020835615917
2.38900e-06;0.005311165899166999
2.38925e-06;0.0053202482367422825
2.38950e-06;0.0053293305743175815
2.38975e-06;0.0053384129118928805
2.39000e-06;0.005347495249468165
2.39025e-06;0.005356577587043464
2.39050e-06;0.005365659924618763
2.39075e-06;0.005374742262194046
2.39100e-06;0.005383844242573234
2.39125e-06;0.005393170092914288
2.39150e-06;0.005402495943255344
2.39175e-06;0.005411821793596383
2.39200e-06;0.005421147643937438
2.39225e-06;0.005430473494278493
2.39250e-06;0.005439799344619533
2.39275e-06;0.005449125194960588
2.39300e-06;0.005458451045301643
2.39325e-06;0.005467856005966321
2.39350e-06;0.005478162590718572
2.39375e-06;0.00548846917547084
2.39400e-06;0.0054987757602231084
2.39425e-06;0.005509082344975359
2.39450e-06;0.005519388929727627
2.39475e-06;0.0055296955144798965
2.39500e-06;0.005540002099232147
2.39525e-06;0.0055503086839844154
2.39550e-06;0.005562025661192044
2.39575e-06;0.0055898169477002855
2.39600e-06;0.005617608234208481
2.39625e-06;0.005645399520716724
2.39650e-06;0.0056731908072249655
2.39675e-06;0.005700982093733161
2.39700e-06;0.005728773380241403
2.39725e-06;0.0057565646667496456
2.39750e-06;0.005784355953257888
2.39775e-06;0.005812147239766083
2.39800e-06;0.005839938526274326
2.39825e-06;0.005867729812782567
2.39850e-06;0.005896853066933902
2.39875e-06;0.0059411568191053985
2.39900e-06;0.0059854605712768945
2.39925e-06;0.006029764323448317
2.39950e-06;0.006074068075619813
2.39975e-06;0.0061183718277913095
2.40000e-06;0.006162675579962806
2.40025e-06;0.006206979332134228
2.40050e-06;0.006251283084305724
2.40075e-06;0.0062955868364772205
2.40100e-06;0.006339890588648642
