Time(s);Current(A)
1.50000e-06;0.007008919148056496
1.50025e-06;0.006992132058649037
1.50050e-06;0.006975344969241593
1.50075e-06;0.006958557879834148
1.50100e-06;0.006941770790426689
1.50125e-06;0.006924983701019245
1.50150e-06;0.0069081966116117865
1.50175e-06;0.006891409522204342
1.50200e-06;0.006874622432796883
1.50225e-06;0.006857835343389438
1.50250e-06;0.006841048253981994
1.50275e-06;0.006824261164574535
1.50300e-06;0.00680747407516709
1.50325e-06;0.006794614092386621
1.50350e-06;0.0067822141531873326
1.50375e-06;0.006769814213988044
1.50400e-06;0.006757414274788745
1.50425e-06;0.006745014335589457
1.50450e-06;0.006732614396390158
1.50475e-06;0.00672021445719087
1.50500e-06;0.006707814517991582
1.50525e-06;0.006695414578792283
1.50550e-06;0.006683014639592995
1.50575e-06;0.006670614700393696
1.50600e-06;0.006658214761194408
1.50625e-06;0.006645814821995109
1.50650e-06;0.006640174605874018
1.50675e-06;0.006644881895540983
1.50700e-06;0.006649589185207952
1.50725e-06;0.006654296474874918
1.50750e-06;0.0066590037645418865
1.50775e-06;0.006663711054208852
1.50800e-06;0.006668418343875817
1.50825e-06;0.006673125633542786
1.50850e-06;0.006677832923209752
1.50875e-06;0.00668254021287672
1.50900e-06;0.006687247502543686
1.50925e-06;0.006691954792210651
1.50950e-06;0.00669666208187762
1.50975e-06;0.0067013693715445855
1.51000e-06;0.006706076661211555
1.51025e-06;0.006719862852823152
1.51050e-06;0.006734712598587979
1.51075e-06;0.006749562344352793
1.51100e-06;0.006764412090117607
1.51125e-06;0.006779261835882434
1.51150e-06;0.006794111581647248
1.51175e-06;0.0068089613274120745
1.51200e-06;0.006823811073176889
1.51225e-06;0.006838660818941703
1.51250e-06;0.00685351056470653
1.51275e-06;0.006868360310471344
1.51300e-06;0.006883210056236171
1.51325e-06;0.006898059802000985
1.51350e-06;0.006912909547765799
1.51375e-06;0.006924233881468039
1.51400e-06;0.006930161659527476
1.51425e-06;0.0069360894375869175
1.51450e-06;0.006942017215646354
1.51475e-06;0.006947944993705796
1.51500e-06;0.006953872771765232
1.51525e-06;0.006959800549824669
1.51550e-06;0.0069657283278841105
1.51575e-06;0.006971656105943547
1.51600e-06;0.006977583884002989
1.51625e-06;0.006983511662062425
1.51650e-06;0.006989439440121862
1.51675e-06;0.0069953672181813035
1.51700e-06;0.00700129499624074
1.51725e-06;0.007007222774300182
1.51750e-06;0.007013150552359618
1.51775e-06;0.007003938022563243
1.51800e-06;0.006992951871089097
1.51825e-06;0.00698196571961496
1.51850e-06;0.0069709795681408135
1.51875e-06;0.006959993416666676
1.51900e-06;0.0069490072651925295
1.51925e-06;0.006938021113718393
1.51950e-06;0.006927034962244256
1.51975e-06;0.006916048810770109
1.52000e-06;0.006905062659295972
1.52025e-06;0.006894076507821825
1.52050e-06;0.006883090356347688
1.52075e-06;0.006872104204873551
1.52100e-06;0.006861118053399405
1.52125e-06;0.006850131901925268
1.52150e-06;0.006837175192730016
1.52175e-06;0.006821202034904092
1.52200e-06;0.006805228877078167
1.52225e-06;0.006789255719252228
1.52250e-06;0.006773282561426304
1.52275e-06;0.006757309403600365
1.52300e-06;0.006741336245774441
1.52325e-06;0.0067253630879485025
1.52350e-06;0.0067093899301225775
1.52375e-06;0.0066934167722966535
1.52400e-06;0.006677443614470715
1.52425e-06;0.006663933334158299
1.52450e-06;0.006650711569309942
1.52475e-06;0.006637489804461597
1.52500e-06;0.006624268039613251
1.52525e-06;0.006611046274764895
1.52550e-06;0.0065978245099165495
1.52575e-06;0.006584602745068193
1.52600e-06;0.006571380980219848
1.52625e-06;0.006558159215371503
1.52650e-06;0.006544937450523146
1.52675e-06;0.006529513916963388
1.52700e-06;0.006510720006508127
1.52725e-06;0.006491926096052881
1.52750e-06;0.00647313218559762
1.52775e-06;0.006454338275142375
1.52800e-06;0.00643554436468713
1.52825e-06;0.006416750454231869
1.52850e-06;0.006397956543776623
1.52875e-06;0.006379162633321362
1.52900e-06;0.006360368722866117
1.52925e-06;0.006341574812410872
1.52950e-06;0.006322780901955611
1.52975e-06;0.0063039869915003655
1.53000e-06;0.006283388883833816
1.53025e-06;0.006259702544190434
1.53050e-06;0.006235516501850527
1.53075e-06;0.006211330459510601
1.53100e-06;0.006187144417170694
1.53125e-06;0.006162958374830768
1.53150e-06;0.006138772332490861
1.53175e-06;0.0061145862901509345
1.53200e-06;0.006090400247811028
1.53225e-06;0.006066214205471121
1.53250e-06;0.006042028163131195
1.53275e-06;0.006017842120791288
1.53300e-06;0.005993656078451362
1.53325e-06;0.005976342206903538
1.53350e-06;0.005959833380484475
1.53375e-06;0.005943324554065398
1.53400e-06;0.005926815727646336
1.53425e-06;0.005910306901227259
1.53450e-06;0.0058937980748081965
1.53475e-06;0.005877289248389134
1.53500e-06;0.005860780421970057
1.53525e-06;0.005844271595550995
1.53550e-06;0.005827762769131918
1.53575e-06;0.005811253942712855
1.53600e-06;0.0058050473636391525
1.53625e-06;0.005814611040652074
1.53650e-06;0.005824174717664994
1.53675e-06;0.005833738394677923
1.53700e-06;0.005843302071690843
1.53725e-06;0.005852865748703772
1.53750e-06;0.005862429425716693
1.53775e-06;0.005871993102729614
1.53800e-06;0.005881556779742543
1.53825e-06;0.005891120456755463
1.53850e-06;0.005900684133768392
1.53875e-06;0.005910247810781312
1.53900e-06;0.0059198114877942335
1.53925e-06;0.005950389164612205
1.53950e-06;0.005983428540751845
1.53975e-06;0.0060164679168915125
1.54000e-06;0.006049507293031152
1.54025e-06;0.006082546669170792
1.54050e-06;0.0061155860453104595
1.54075e-06;0.006148625421450099
1.54100e-06;0.006181664797589767
1.54125e-06;0.0062147041737294064
1.54150e-06;0.006247743549869074
1.54175e-06;0.006280782926008714
1.54200e-06;0.006313822302148353
1.54225e-06;0.006346719734828466
1.54250e-06;0.006379399886304567
1.54275e-06;0.006412080037780697
1.54300e-06;0.006444760189256798
1.54325e-06;0.0064774403407328995
1.54350e-06;0.006510120492209028
1.54375e-06;0.00654280064368513
1.54400e-06;0.006575480795161259
1.54425e-06;0.006608160946637361
1.54450e-06;0.0066408410981134616
1.54475e-06;0.006673521249589591
1.54500e-06;0.0066979494232371605
1.54525e-06;0.006709745808964316
1.54550e-06;0.006721542194691461
1.54575e-06;0.006733338580418617
1.54600e-06;0.006745134966145762
1.54625e-06;0.006756931351872908
1.54650e-06;0.006768727737600063
1.54675e-06;0.006780524123327209
1.54700e-06;0.006792320509054364
1.54725e-06;0.00680411689478151
1.54750e-06;0.006815913280508655
1.54775e-06;0.0068187669131406685
1.54800e-06;0.006807931347514048
1.54825e-06;0.006797095781887418
1.54850e-06;0.006786260216260797
1.54875e-06;0.006775424650634176
1.54900e-06;0.006764589085007546
1.54925e-06;0.006753753519380925
1.54950e-06;0.006742917953754295
1.54975e-06;0.0067320823881276744
1.55000e-06;0.006721246822501044
1.55025e-06;0.006710411256874423
1.55050e-06;0.006699575691247802
1.55075e-06;0.006688740125621173
1.55100e-06;0.006668910040802916
1.55125e-06;0.006648026286907138
1.55150e-06;0.006627142533011378
1.55175e-06;0.006606258779115618
1.55200e-06;0.006585375025219839
1.55225e-06;0.006564491271324079
1.55250e-06;0.0065436075174283015
1.55275e-06;0.006522723763532541
1.55300e-06;0.006501840009636781
1.55325e-06;0.0064809562557410026
1.55350e-06;0.006460072501845242
1.55375e-06;0.006439188747949465
1.55400e-06;0.006422964696086289
1.55425e-06;0.006413873524251132
1.55450e-06;0.006404782352415981
1.55475e-06;0.006395691180580832
1.55500e-06;0.006386600008745674
1.55525e-06;0.006377508836910524
1.55550e-06;0.006368417665075367
1.55575e-06;0.006359326493240217
1.55600e-06;0.006350235321405068
1.55625e-06;0.006341144149569909
1.55650e-06;0.00633205297773476
1.55675e-06;0.0063229618058996025
1.55700e-06;0.006313870634064453
1.55725e-06;0.0063047794622293025
1.55750e-06;0.006295688290394145
1.55775e-06;0.006286597118558996
1.55800e-06;0.006277505946723838
1.55825e-06;0.006268414774888688
1.55850e-06;0.006273401782496815
1.55875e-06;0.006280037988025279
1.55900e-06;0.006286674193553742
1.55925e-06;0.0062933103990822125
1.55950e-06;0.006299946604610676
1.55975e-06;0.006306582810139146
1.56000e-06;0.006313219015667609
1.56025e-06;0.006319855221196073
1.56050e-06;0.006326491426724542
1.56075e-06;0.006333127632253006
1.56100e-06;0.006339763837781475
1.56125e-06;0.006346400043309939
1.56150e-06;0.006353036248838403
1.56175e-06;0.0063596724543668725
1.56200e-06;0.0063663086598953365
1.56225e-06;0.006372944865423806
1.56250e-06;0.00637958107095227
1.56275e-06;0.006386223852138505
1.56300e-06;0.006392876699070915
1.56325e-06;0.006399529546003326
1.56350e-06;0.006406182392935743
1.56375e-06;0.0064128352398681535
1.56400e-06;0.00641948808680057
1.56425e-06;0.006426140933732981
1.56450e-06;0.006432793780665393
1.56475e-06;0.006439446627597809
1.56500e-06;0.00644609947453022
1.56525e-06;0.006452752321462637
1.56550e-06;0.006459405168395048
1.56575e-06;0.006466058015327458
1.56600e-06;0.00645802692927894
1.56625e-06;0.0064482756838994916
1.56650e-06;0.006438524438520035
1.56675e-06;0.0064287731931405865
1.56700e-06;0.0064190219477611304
1.56725e-06;0.006409270702381682
1.56750e-06;0.006399519457002234
1.56775e-06;0.006389768211622777
1.56800e-06;0.006380016966243329
1.56825e-06;0.006370265720863872
1.56850e-06;0.006360514475484424
1.56875e-06;0.006350763230104976
1.56900e-06;0.006334552391420042
1.56925e-06;0.006308453473250305
1.56950e-06;0.006282354555080545
1.56975e-06;0.0062562556369108084
1.57000e-06;0.006230156718741072
1.57025e-06;0.006204057800571313
1.57050e-06;0.006177958882401576
1.57075e-06;0.006151859964231817
1.57100e-06;0.00612576104606208
1.57125e-06;0.006099662127892321
1.57150e-06;0.0060735632097225845
1.57175e-06;0.006046774908000328
1.57200e-06;0.006018931326318403
1.57225e-06;0.005991087744636502
1.57250e-06;0.005963244162954576
1.57275e-06;0.0059354005812726745
1.57300e-06;0.005907556999590773
1.57325e-06;0.005879713417908847
1.57350e-06;0.005851869836226945
1.57375e-06;0.00582402625454502
1.57400e-06;0.005796182672863118
1.57425e-06;0.005768339091181217
1.57450e-06;0.0057475010448683845
1.57475e-06;0.005737386783674105
1.57500e-06;0.005727272522479818
1.57525e-06;0.005717158261285539
1.57550e-06;0.00570704400009126
1.57575e-06;0.005696929738896973
1.57600e-06;0.005686815477702694
1.57625e-06;0.005676701216508407
1.57650e-06;0.005666586955314128
1.57675e-06;0.005656472694119841
1.57700e-06;0.005674010451011672
1.57725e-06;0.00569478752239668
1.57750e-06;0.0057155645937817055
1.57775e-06;0.005736341665166714
1.57800e-06;0.005757118736551739
1.57825e-06;0.005777895807936748
1.57850e-06;0.0057986728793217555
1.57875e-06;0.0058194499507067815
1.57900e-06;0.005840227022091789
1.57925e-06;0.005870761861372179
1.57950e-06;0.005916233490009871
1.57975e-06;0.005961705118647563
1.58000e-06;0.006007176747285295
1.58025e-06;0.006052648375922987
1.58050e-06;0.0060981200045607175
1.58075e-06;0.00614359163319841
1.58100e-06;0.006189063261836141
1.58125e-06;0.0062345348904738335
1.58150e-06;0.006280006519111526
1.58175e-06;0.006329856368223673
1.58200e-06;0.006380219106955331
1.58225e-06;0.006430581845687032
1.58250e-06;0.00648094458441869
1.58275e-06;0.006531307323150348
1.58300e-06;0.0065816700618820485
1.58325e-06;0.006632032800613707
1.58350e-06;0.006682395539345408
1.58375e-06;0.006732758278077066
1.58400e-06;0.006773477341191581
1.58425e-06;0.006799434262711374
1.58450e-06;0.006825391184231145
1.58475e-06;0.0068513481057509385
1.58500e-06;0.006877305027270709
1.58525e-06;0.006903261948790502
1.58550e-06;0.0069292188703102735
1.58575e-06;0.006955175791830044
1.58600e-06;0.006981132713349837
1.58625e-06;0.0070070896348696085
1.58650e-06;0.007033046556389401
1.58675e-06;0.007059003477909172
1.58700e-06;0.0070849603994289434
1.58725e-06;0.007110917320948736
1.58750e-06;0.007136874242468507
1.58775e-06;0.0071628311639883
1.58800e-06;0.0071664595353165056
1.58825e-06;0.007167472213424414
1.58850e-06;0.007168484891532322
1.58875e-06;0.00716949756964023
1.58900e-06;0.007170510247748139
1.58925e-06;0.007171522925856046
1.58950e-06;0.007172535603963955
1.58975e-06;0.0071735482820718625
1.59000e-06;0.007174560960179771
1.59025e-06;0.007175573638287679
1.59050e-06;0.007176586316395586
1.59075e-06;0.0071775989945034955
1.59100e-06;0.007178611672611403
1.59125e-06;0.00717962435071931
1.59150e-06;0.007180637028827219
1.59175e-06;0.007178958487887503
1.59200e-06;0.007173160339630106
1.59225e-06;0.007167362191372714
1.59250e-06;0.0071615640431153225
1.59275e-06;0.007155765894857925
1.59300e-06;0.007149967746600533
1.59325e-06;0.007144169598343137
1.59350e-06;0.007138371450085745
1.59375e-06;0.007132573301828348
1.59400e-06;0.0071267751535709556
1.59425e-06;0.0071209770053135635
1.59450e-06;0.007115178857056167
1.59475e-06;0.007109380708798775
1.59500e-06;0.007103582560541378
1.59525e-06;0.007097784412283987
1.59550e-06;0.007091986264026595
1.59575e-06;0.007086188115769197
1.59600e-06;0.007080389967511805
1.59625e-06;0.007081011307112196
1.59650e-06;0.00708238466198994
1.59675e-06;0.007083758016867684
1.59700e-06;0.007085131371745429
1.59725e-06;0.007086504726623174
1.59750e-06;0.0070878780815009194
1.59775e-06;0.007089251436378664
1.59800e-06;0.00709062479125641
1.59825e-06;0.007091998146134154
1.59850e-06;0.007093371501011898
1.59875e-06;0.007094744855889644
1.59900e-06;0.007096118210767388
1.59925e-06;0.007097491565645133
1.59950e-06;0.007098864920522878
1.59975e-06;0.0071002382754006225
1.60000e-06;0.0071016116302783676
1.60025e-06;0.007102984985156113
1.60050e-06;0.007105855911810757
1.60075e-06;0.007111019259684688
1.60100e-06;0.007116182607558621
1.60125e-06;0.007121345955432557
1.60150e-06;0.00712650930330649
1.60175e-06;0.007131672651180426
1.60200e-06;0.0071368359990543586
1.60225e-06;0.007141999346928295
1.60250e-06;0.007147162694802227
1.60275e-06;0.007152326042676159
1.60300e-06;0.007157489390550095
1.60325e-06;0.007162652738424028
1.60350e-06;0.007167816086297964
1.60375e-06;0.007172979434171897
1.60400e-06;0.0071781427820458285
1.60425e-06;0.0071833061299197655
1.60450e-06;0.007188469477793697
1.60475e-06;0.007193632825667634
1.60500e-06;0.007198796173541566
1.60525e-06;0.007203959521415499
1.60550e-06;0.00720048913874999
1.60575e-06;0.007196007351840214
1.60600e-06;0.007191525564930435
1.60625e-06;0.007187043778020658
1.60650e-06;0.007182561991110879
1.60675e-06;0.007178080204201103
1.60700e-06;0.007173598417291327
1.60725e-06;0.007169116630381547
1.60750e-06;0.007164634843471771
1.60775e-06;0.007160153056561991
1.60800e-06;0.007155671269652215
1.60825e-06;0.007151189482742439
1.60850e-06;0.007146707695832659
1.60875e-06;0.0071422259089228834
1.60900e-06;0.007137744122013104
1.60925e-06;0.007133262335103328
1.60950e-06;0.007128780548193552
1.60975e-06;0.007124298761283772
1.61000e-06;0.007119816974373997
1.61025e-06;0.0071125035901478
1.61050e-06;0.0071008557133300666
1.61075e-06;0.007089207836512324
1.61100e-06;0.007077559959694591
1.61125e-06;0.007065912082876858
1.61150e-06;0.007054264206059115
1.61175e-06;0.007042616329241382
1.61200e-06;0.007030968452423639
1.61225e-06;0.007019320575605906
1.61250e-06;0.007007672698788173
1.61275e-06;0.00699602482197043
1.61300e-06;0.006984376945152697
1.61325e-06;0.0069727290683349544
1.61350e-06;0.006961081191517221
1.61375e-06;0.006949433314699488
1.61400e-06;0.006937785437881745
1.61425e-06;0.006927330184322739
1.61450e-06;0.006918700549346345
1.61475e-06;0.006910070914369958
1.61500e-06;0.006901441279393571
1.61525e-06;0.006892811644417176
1.61550e-06;0.006884182009440789
1.61575e-06;0.006875552374464395
1.61600e-06;0.006866922739488008
1.61625e-06;0.006858293104511614
1.61650e-06;0.006849663469535227
1.61675e-06;0.00684103383455884
1.61700e-06;0.0068324041995824454
1.61725e-06;0.006823774564606058
1.61750e-06;0.0068151449296296645
1.61775e-06;0.006806515294653277
1.61800e-06;0.00679788565967689
1.61825e-06;0.006789303079801859
1.61850e-06;0.006780792529938679
1.61875e-06;0.006772281980075492
1.61900e-06;0.006763771430212313
1.61925e-06;0.006755260880349133
1.61950e-06;0.006746750330485947
1.61975e-06;0.006738239780622767
1.62000e-06;0.00672972923075958
1.62025e-06;0.006721218680896401
1.62050e-06;0.006712708131033214
1.62075e-06;0.006704197581170034
1.62100e-06;0.006695687031306855
1.62125e-06;0.006687176481443668
1.62150e-06;0.006678665931580488
1.62175e-06;0.0066701553817173015
1.62200e-06;0.006662118290078137
1.62225e-06;0.006654805948795372
1.62250e-06;0.0066474936075126
1.62275e-06;0.006640181266229835
1.62300e-06;0.0066328689249470635
1.62325e-06;0.006625556583664299
1.62350e-06;0.006618244242381534
1.62375e-06;0.006610931901098763
1.62400e-06;0.006603619559815997
1.62425e-06;0.006596307218533226
1.62450e-06;0.0065889948772504614
1.62475e-06;0.00658168253596769
1.62500e-06;0.006574370194684925
1.62525e-06;0.00656705785340216
1.62550e-06;0.006559745512119388
1.62575e-06;0.0065489652334689485
1.62600e-06;0.006532876379075881
1.62625e-06;0.006516787524682826
1.62650e-06;0.0065006986702897725
1.62675e-06;0.006484609815896704
1.62700e-06;0.00646852096150365
1.62725e-06;0.006452432107110582
1.62750e-06;0.006436343252717528
1.62775e-06;0.0064202543983244735
1.62800e-06;0.006404165543931406
1.62825e-06;0.006388076689538351
1.62850e-06;0.006371987835145284
1.62875e-06;0.00635589898075223
1.62900e-06;0.006339810126359161
1.62925e-06;0.006323721271966108
1.62950e-06;0.006297514369567567
1.62975e-06;0.006270122181544667
1.63000e-06;0.00624272999352179
1.63025e-06;0.0062153378054988885
1.63050e-06;0.0061879456174760115
1.63075e-06;0.0061605534294531345
1.63100e-06;0.006133161241430233
1.63125e-06;0.006105769053407356
1.63150e-06;0.006078376865384456
1.63175e-06;0.006050984677361578
1.63200e-06;0.006023592489338701
1.63225e-06;0.0059962003013158
1.63250e-06;0.005968808113292923
1.63275e-06;0.005941415925270022
1.63300e-06;0.005916730437671278
1.63325e-06;0.005896188255642967
1.63350e-06;0.005875646073614674
1.63375e-06;0.0058551038915863815
1.63400e-06;0.005834561709558071
1.63425e-06;0.005814019527529779
1.63450e-06;0.005793477345501469
1.63475e-06;0.005772935163473176
1.63500e-06;0.005752392981444882
1.63525e-06;0.005731850799416572
1.63550e-06;0.005711308617388279
1.63575e-06;0.005690766435359969
1.63600e-06;0.005693071719325019
1.63625e-06;0.005698053485253495
1.63650e-06;0.005703035251181975
1.63675e-06;0.005708017017110451
1.63700e-06;0.005712998783038931
1.63725e-06;0.005717980548967407
1.63750e-06;0.005722962314895887
1.63775e-06;0.005727944080824363
1.63800e-06;0.0057329258467528395
1.63825e-06;0.005737907612681319
1.63850e-06;0.005742889378609796
1.63875e-06;0.005757440725377711
1.63900e-06;0.005786640792500487
1.63925e-06;0.005815840859623263
1.63950e-06;0.005845040926746065
1.63975e-06;0.005874240993868841
1.64000e-06;0.005903441060991641
1.64025e-06;0.005932641128114417
1.64050e-06;0.0059618411952371934
1.64075e-06;0.005991041262359995
1.64100e-06;0.006020241329482771
1.64125e-06;0.006049441396605571
1.64150e-06;0.006084364914771176
1.64175e-06;0.006119958910506966
1.64200e-06;0.006155552906242727
1.64225e-06;0.0061911469019784865
1.64250e-06;0.006226740897714277
1.64275e-06;0.0062623348934500375
1.64300e-06;0.006297928889185828
1.64325e-06;0.006333522884921588
1.64350e-06;0.0063691168806573484
1.64375e-06;0.006404710876393139
1.64400e-06;0.006432588979049184
1.64425e-06;0.006448655910254161
1.64450e-06;0.006464722841459125
1.64475e-06;0.006480789772664088
1.64500e-06;0.006496856703869065
1.64525e-06;0.006512923635074028
1.64550e-06;0.006528990566279006
1.64575e-06;0.006545057497483969
1.64600e-06;0.006561124428688945
1.64625e-06;0.0065771913598939085
1.64650e-06;0.006593258291098872
1.64675e-06;0.006609325222303849
1.64700e-06;0.006625392153508812
1.64725e-06;0.0066414590847137895
1.64750e-06;0.006657526015918753
1.64775e-06;0.006664900807749941
1.64800e-06;0.006656852955441079
1.64825e-06;0.006648805103132224
1.64850e-06;0.006640757250823362
1.64875e-06;0.006632709398514506
1.64900e-06;0.006624661546205651
1.64925e-06;0.0066166136938967885
1.64950e-06;0.006608565841587932
1.64975e-06;0.00660051798927907
1.65000e-06;0.006592470136970215
1.65025e-06;0.00658442228466136
1.65050e-06;0.006576374432352497
1.65075e-06;0.006568326580043642
