Time(s);Current(A)
1.17500e-05;0.002704190372104214
1.17503e-05;0.0026797505790642864
1.17505e-05;0.002659876218099934
1.17508e-05;0.0026441343054518524
1.17510e-05;0.0026316497881612097
1.17513e-05;0.0026263220797629193
1.17515e-05;0.002620994371364593
1.17518e-05;0.002619629035136412
1.17520e-05;0.00262696940922864
1.17523e-05;0.0026343097833209173
1.17525e-05;0.0026453463274647058
1.17528e-05;0.002664503710434674
1.17530e-05;0.0026836610934047726
1.17533e-05;0.0027056753669307855
1.17535e-05;0.0027339665020256537
1.17538e-05;0.002764340888389738
1.17540e-05;0.0027992923768771607
1.17543e-05;0.002836053255681183
1.17545e-05;0.0028767895379255078
1.17548e-05;0.0029190562153244143
1.17550e-05;0.002964685317129494
1.17553e-05;0.0030115676395690667
1.17555e-05;0.0030612034075057732
1.17558e-05;0.0031117858728087772
1.17560e-05;0.0031644483226976623
1.17563e-05;0.0032176922127784935
1.17565e-05;0.0032722135825259415
1.17568e-05;0.003326947930961298
1.17570e-05;0.003382150213926481
1.17572e-05;0.003437198324936594
1.17575e-05;0.003491907705429162
1.17578e-05;0.0035460772656032663
1.17580e-05;0.003599060788949391
1.17583e-05;0.0036510821394732927
1.17585e-05;0.0037009895043558214
1.17588e-05;0.003749510559682593
1.17590e-05;0.0037949857604322183
1.17593e-05;0.003838654811608103
1.17595e-05;0.0038783555795647772
1.17598e-05;0.003915946624119534
1.17600e-05;0.003948902404744877
1.17603e-05;0.003978520839559444
1.17605e-05;0.0040008068066932695
1.17608e-05;0.004023092773827247
1.17610e-05;0.0040453787409612234
1.17613e-05;0.004062970146585954
1.17615e-05;0.004070247151938046
1.17618e-05;0.004077524157290139
1.17620e-05;0.004084801162642182
1.17623e-05;0.004088615562021974
1.17625e-05;0.0040848222851755525
1.17628e-05;0.004078882908502717
1.17630e-05;0.004068228345418436
1.17633e-05;0.0040560363595021475
1.17635e-05;0.0040394826338260624
1.17638e-05;0.004019829246329569
1.17640e-05;0.0039972406497830555
1.17643e-05;0.00397192266859087
1.17645e-05;0.0039440817321239425
1.17648e-05;0.003913914495097032
1.17650e-05;0.0038816174952808467
1.17653e-05;0.003847386456066962
1.17655e-05;0.0038114190230224064
1.17657e-05;0.0037739253922072988
1.17660e-05;0.0037351466697997052
1.17663e-05;0.0036953498848985005
1.17665e-05;0.0036548028193362247
1.17668e-05;0.0036137669562787663
1.17670e-05;0.003572503153226584
1.17673e-05;0.0035312720204956024
1.17675e-05;0.003490335420792118
1.17678e-05;0.0034499632244731236
1.17680e-05;0.0034104446135438367
1.17683e-05;0.0033720849315688394
1.17685e-05;0.0033351897528274103
1.17688e-05;0.0033000608545412234
1.17690e-05;0.003266999345204794
1.17693e-05;0.003236306754854827
1.17695e-05;0.003208670728611251
1.17698e-05;0.0031838611101309153
1.17700e-05;0.0031609950164568964
1.17703e-05;0.003142399032517385
1.17705e-05;0.0031238030485779998
1.17708e-05;0.003105207064638488
1.17710e-05;0.003093335245878468
1.17713e-05;0.003083012266892377
1.17715e-05;0.003072689287906216
1.17718e-05;0.003064798311943652
1.17720e-05;0.0030622506790407974
1.17723e-05;0.003059703046137925
1.17725e-05;0.003059032373640314
1.17728e-05;0.0030624855625265433
1.17730e-05;0.0030659387514127964
1.17733e-05;0.003071251009863405
1.17735e-05;0.003080647821810589
1.17738e-05;0.0030900446337578367
1.17740e-05;0.0031009437180108098
1.17742e-05;0.0031151434380854467
1.17745e-05;0.00312934315816018
1.17748e-05;0.003144731538907465
1.17750e-05;0.003162731520747795
1.17753e-05;0.003180731502588246
1.17755e-05;0.0031996890692334427
1.17758e-05;0.003220750541207299
1.17760e-05;0.003241812013181013
1.17763e-05;0.003263373554792036
1.17765e-05;0.003286033797185649
1.17768e-05;0.0033086940395791083
1.17770e-05;0.0033315281654101455
1.17773e-05;0.0033547443297705895
1.17775e-05;0.0033779604941308757
1.17778e-05;0.0034009686683626273
1.17780e-05;0.0034235198684047954
1.17783e-05;0.003446071068446811
1.17785e-05;0.0034680273215620503
1.17788e-05;0.0034886764194219095
1.17790e-05;0.003509325517281629
1.17793e-05;0.003527907270792374
1.17795e-05;0.0035460128335687013
1.17798e-05;0.003563684551949395
1.17800e-05;0.003580403072732283
1.17803e-05;0.003597384894744246
1.17805e-05;0.0036149452147191453
1.17808e-05;0.003632505534694164
1.17810e-05;0.003650166596853356
1.17813e-05;0.003668048999218641
1.17815e-05;0.0036859314015840476
1.17818e-05;0.0037043319586292454
1.17820e-05;0.003723870951024117
1.17823e-05;0.0037434099434191202
1.17825e-05;0.003762948935814124
1.17827e-05;0.003782487928208995
1.17830e-05;0.003802026920603999
1.17833e-05;0.0038224015147974104
1.17835e-05;0.003844612005997548
1.17838e-05;0.003866822497197836
1.17840e-05;0.0038890329883981244
1.17843e-05;0.003911243479598412
1.17845e-05;0.00393345397079855
1.17848e-05;0.003956238067361518
1.17850e-05;0.003980282429723992
1.17853e-05;0.0040043267920863036
1.17855e-05;0.004028371154448778
1.17858e-05;0.004052415516811252
1.17860e-05;0.004076459879173563
1.17863e-05;0.004100504241536037
1.17865e-05;0.0041245486038985115
1.17868e-05;0.004148114683638333
1.17870e-05;0.0041706299307486105
1.17873e-05;0.004193145177858888
1.17875e-05;0.004215660424969013
1.17878e-05;0.00423817567207929
1.17880e-05;0.0042606909191895675
1.17883e-05;0.004283206166299692
1.17885e-05;0.00430572141340997
1.17888e-05;0.004327230919738069
1.17890e-05;0.004346530717451695
1.17893e-05;0.004365185498159419
1.17895e-05;0.004382423114862333
1.17898e-05;0.0043993796972841975
1.17900e-05;0.004416075666342159
1.17903e-05;0.004433555659745117
1.17905e-05;0.004451695696518295
1.17908e-05;0.004471285911654902
1.17910e-05;0.004490876126791509
1.17912e-05;0.004510957381181199
1.17915e-05;0.00453211749573775
1.17918e-05;0.004553277610294301
1.17920e-05;0.004575726108147355
1.17923e-05;0.004601005307231001
1.17925e-05;0.004626284506314648
1.17928e-05;0.004651563705398294
1.17930e-05;0.004676842904481769
1.17933e-05;0.004705586559526244
1.17935e-05;0.004735128215073333
1.17938e-05;0.004764669870620223
1.17940e-05;0.004794211526167312
1.17943e-05;0.004824820433893876
1.17945e-05;0.004857774196653418
1.17948e-05;0.004890727959413183
1.17950e-05;0.004924183636726962
1.17953e-05;0.004958742068282555
1.17955e-05;0.0049933004998383825
1.17958e-05;0.005028083671428112
1.17960e-05;0.005063360618350016
1.17963e-05;0.005098637565272159
1.17965e-05;0.005133942088850007
1.17968e-05;0.005169307200975641
1.17970e-05;0.005204672313101515
1.17973e-05;0.0052395543482480775
1.17975e-05;0.005273375017104151
1.17978e-05;0.005307195685960454
1.17980e-05;0.005339838957849419
1.17983e-05;0.005369895376079352
1.17985e-05;0.005399951794309488
1.17988e-05;0.005424890664632096
1.17990e-05;0.0054531360485216614
1.17993e-05;0.005478938944965548
1.17995e-05;0.005506625833733634
1.17997e-05;0.005529486503269027
1.18000e-05;0.005552072845155951
1.18003e-05;0.005570756279865428
1.18005e-05;0.005587955041124972
1.18008e-05;0.0056033430823163475
1.18010e-05;0.005616044121253836
1.18013e-05;0.005627089771934714
1.18015e-05;0.005636024192814343
1.18018e-05;0.005642167648534616
1.18020e-05;0.005645199470071471
1.18023e-05;0.005646705947743815
1.18025e-05;0.005648212425416169
1.18028e-05;0.005645273741151795
1.18030e-05;0.005640605487164633
1.18033e-05;0.005635937233177441
1.18035e-05;0.0056286135132057255
1.18038e-05;0.00561777154267113
1.18040e-05;0.005606092912805881
1.18043e-05;0.005594414282940632
1.18045e-05;0.005579581236520295
1.18048e-05;0.005563768310525899
1.18050e-05;0.005546333823747821
1.18053e-05;0.005528395619638274
1.18055e-05;0.005509325804859022
1.18058e-05;0.005488957078701415
1.18060e-05;0.005468294057569205
1.18063e-05;0.005446849567781368
1.18065e-05;0.0054247007980354105
1.18068e-05;0.005402231369296438
1.18070e-05;0.005379762648290562
1.18073e-05;0.005357364904344151
1.18075e-05;0.00533515863042914
1.18078e-05;0.0053132880499994735
1.18080e-05;0.005291881847334506
1.18082e-05;0.005271100104110498
1.18085e-05;0.005251470255321609
1.18088e-05;0.00523214927001928
1.18090e-05;0.005214268823322928
1.18093e-05;0.005197924837126666
1.18095e-05;0.005183128547365318
1.18098e-05;0.005169584103066148
1.18100e-05;0.005156253912170265
1.18103e-05;0.0051421930120593646
1.18105e-05;0.00512712444959495
1.18108e-05;0.005111050959853547
1.18110e-05;0.0050947411732655936
1.18113e-05;0.005077900222485828
1.18115e-05;0.005060894272273465
1.18118e-05;0.005043142560429812
1.18120e-05;0.005025159187175275
1.18123e-05;0.005004573405459171
1.18125e-05;0.004983179218495533
1.18128e-05;0.004961785031531895
1.18130e-05;0.004938099791883824
1.18133e-05;0.004913702865719197
1.18135e-05;0.00488930593955457
1.18138e-05;0.004863123662176889
1.18140e-05;0.004836386788043541
1.18143e-05;0.004809649913910192
1.18145e-05;0.004780936007572873
1.18148e-05;0.004751607961206301
1.18150e-05;0.004721519053223196
1.18153e-05;0.004690893214677452
1.18155e-05;0.004660033664174409
1.18158e-05;0.004629039563297434
1.18160e-05;0.004597827126168238
1.18163e-05;0.0045663364261606726
1.18165e-05;0.004534671041265123
1.18167e-05;0.004503049644864632
1.18170e-05;0.004471708365025248
1.18173e-05;0.004440858800940695
1.18175e-05;0.004410714970848194
1.18178e-05;0.004381423880033789
1.18180e-05;0.004353018059709022
1.18183e-05;0.0043255452915921385
1.18185e-05;0.004299154800535357
1.18188e-05;0.004274069260356794
1.18190e-05;0.004250521429126589
1.18193e-05;0.004228728173459952
1.18195e-05;0.004208921731354925
1.18198e-05;0.004191621914059579
1.18200e-05;0.004177769564746137
1.18203e-05;0.0041681444678205205
1.18205e-05;0.004164669769763736
1.18208e-05;0.004162782211735641
1.18210e-05;0.004169146410818604
1.18213e-05;0.004178073913798479
1.18215e-05;0.004187001416778293
1.18218e-05;0.004207189922079829
1.18220e-05;0.004230876515212189
1.18223e-05;0.0042545631083443875
1.18225e-05;0.004282560578603556
1.18228e-05;0.0043226391142795586
1.18230e-05;0.00436271764995529
1.18233e-05;0.004402796185631292
1.18235e-05;0.004452766455262257
1.18238e-05;0.004505809466837834
1.18240e-05;0.004558852478413772
1.18243e-05;0.00462017336119297
1.18245e-05;0.004684065659881028
1.18248e-05;0.004747957958569519
1.18250e-05;0.00481721424579147
1.18252e-05;0.004888136788154395
1.18255e-05;0.004962053746442882
1.18258e-05;0.0050369008821357164
1.18260e-05;0.005113982282724189
1.18263e-05;0.005191757729422259
1.18265e-05;0.005270769953746706
1.18268e-05;0.005350166367385894
1.18270e-05;0.005429450863485818
1.18273e-05;0.005508700593819504
1.18275e-05;0.005586495929090411
1.18278e-05;0.005663839474943978
1.18280e-05;0.005738603232707012
1.18283e-05;0.005812565611953962
1.18285e-05;0.005882674119636788
1.18288e-05;0.0059515854709003115
1.18290e-05;0.006010288379339587
1.18293e-05;0.006065820164231293
1.18295e-05;0.006121351949123375
1.18298e-05;0.006176883734015457
1.18300e-05;0.006232415518907163
1.18303e-05;0.006277127447763107
1.18305e-05;0.006318478325296464
1.18308e-05;0.0063598292028295405
1.18310e-05;0.006391153413728972
1.18313e-05;0.006419362967553502
1.18315e-05;0.006447572521377842
1.18318e-05;0.006475782075202373
1.18320e-05;0.006500255061216511
1.18323e-05;0.0065142564613228995
1.18325e-05;0.006528257861429383
1.18328e-05;0.006542259261535866
1.18330e-05;0.0065562606616422535
1.18333e-05;0.0065622846111705845
1.18335e-05;0.00656583046665302
1.18337e-05;0.006569376322135431
1.18340e-05;0.0065682844687739595
1.18343e-05;0.006565751969862928
1.18345e-05;0.0065604277501249645
1.18348e-05;0.006554236317648899
1.18350e-05;0.006545408072431226
1.18352e-05;0.006535760734711493
1.18355e-05;0.006523656540546478
1.18358e-05;0.006510789155024947
1.18360e-05;0.006496215826448939
1.18363e-05;0.006481112568256502
1.18365e-05;0.006465021415726167
1.18368e-05;0.006448623386324268
1.18370e-05;0.006431578366960564
1.18373e-05;0.006414332368354478
1.18375e-05;0.006396796094735275
1.18378e-05;0.0063791696508575775
1.18380e-05;0.006361966894804901
1.18383e-05;0.0063448957520122
1.18385e-05;0.0063293170799316656
1.18388e-05;0.006314202024986515
1.18390e-05;0.006299086970041364
1.18393e-05;0.006285620596637522
1.18395e-05;0.00627365479256433
1.18398e-05;0.006262514404529829
1.18400e-05;0.0062508461280705715
1.18403e-05;0.006237421874024513
1.18405e-05;0.0062219183818126534
1.18408e-05;0.006203877342177281
1.18410e-05;0.006185202461911092
1.18413e-05;0.006164398661352954
1.18415e-05;0.006142933538653361
1.18418e-05;0.0061190794206193565
1.18420e-05;0.006094483191423762
1.18422e-05;0.0060648736486504035
1.18425e-05;0.006033706783470468
1.18428e-05;0.006002539918290532
1.18430e-05;0.0059671117780205445
1.18433e-05;0.0059303599265810684
1.18435e-05;0.005891111603440829
1.18437e-05;0.005851087782966356
1.18440e-05;0.005808971459811542
1.18443e-05;0.005764556208781564
1.18445e-05;0.005718135797683835
1.18448e-05;0.0056700091599676105
1.18450e-05;0.005620502810370924
1.18453e-05;0.005569944488264079
1.18455e-05;0.0055186553789795005
1.18458e-05;0.005466818738276758
1.18460e-05;0.005414392685232809
1.18463e-05;0.005361366967804751
1.18465e-05;0.0053079535164474645
1.18468e-05;0.005254483366487037
1.18470e-05;0.005201305763889309
1.18473e-05;0.005148769599325264
1.18475e-05;0.005097220455455494
1.18478e-05;0.005046917295833492
1.18480e-05;0.0049979784361395925
1.18483e-05;0.004950541124030654
1.18485e-05;0.0049048824250387665
1.18488e-05;0.004861353831819726
1.18490e-05;0.004821439934606987
1.18493e-05;0.004782485738109453
1.18495e-05;0.004748403329836012
1.18498e-05;0.0047158342809097776
1.18500e-05;0.004687762220806252
1.18503e-05;0.0046610870933596
1.18505e-05;0.004635929626990386
1.18507e-05;0.004615025346745224
1.18510e-05;0.00459412106649992
1.18513e-05;0.004578867710038246
1.18515e-05;0.004565369741523577
1.18518e-05;0.004551871773008816
1.18520e-05;0.004543806246293084
1.18522e-05;0.004537428238861287
1.18525e-05;0.0045310502314294485
1.18528e-05;0.004532874373213025
1.18530e-05;0.004537246408831903
1.18533e-05;0.004541618444450753
1.18535e-05;0.004545990480069631
1.18538e-05;0.004550362515688511
1.18540e-05;0.0045547345513073595
1.18543e-05;0.004559106586926239
1.18545e-05;0.004563478622545117
1.18548e-05;0.004576260506197806
1.18550e-05;0.004591654802694926
1.18553e-05;0.004607049099192045
1.18555e-05;0.00462244339568906
1.18558e-05;0.00463783769218618
1.18560e-05;0.004653231988683299
1.18563e-05;0.004668626285180315
1.18565e-05;0.004684020581677434
1.18568e-05;0.004702041091318027
1.18570e-05;0.004720877400830355
1.18573e-05;0.004739713710342812
1.18575e-05;0.004758828688605056
1.18578e-05;0.004778030231787061
1.18580e-05;0.0047972317749691955
1.18583e-05;0.0048153289762794356
1.18585e-05;0.004833083127765176
1.18588e-05;0.0048508372792510366
1.18590e-05;0.004868591430736897
1.18592e-05;0.0048849198771325165
1.18595e-05;0.004900099477559537
1.18598e-05;0.004914952123723464
1.18600e-05;0.004931116826051357
1.18603e-05;0.0049512854702108535
1.18605e-05;0.004972568053685966
1.18607e-05;0.004999282723665815
1.18610e-05;0.005027684802562576
1.18613e-05;0.0050560868814593365
1.18615e-05;0.00508897632071692
1.18618e-05;0.0051232597016721455
1.18620e-05;0.00516419666912613
1.18623e-05;0.0052072004890089995
1.18625e-05;0.005250204308891578
1.18628e-05;0.005301337960902281
1.18630e-05;0.0053549970423613265
1.18633e-05;0.0054086561238200085
1.18635e-05;0.005469107305592917
1.18638e-05;0.005531668367358383
1.18640e-05;0.005594229429123426
1.18643e-05;0.005659278661773826
1.18645e-05;0.005731300896528729
1.18648e-05;0.005803323131283144
1.18650e-05;0.005875345366038047
1.18653e-05;0.0059514667773277845
1.18655e-05;0.006028861545922955
1.18658e-05;0.006106256314518651
1.18660e-05;0.006185726709339725
1.18663e-05;0.00626584187117533
1.18665e-05;0.006345957033011477
1.18668e-05;0.0064264472074256574
1.18670e-05;0.006507053874750012
1.18673e-05;0.006586316465729402
1.18675e-05;0.006665161536404418
1.18678e-05;0.0067415161753729075
1.18680e-05;0.006817097193254539
1.18683e-05;0.006889434201336391
1.18685e-05;0.006960763498833776
1.18688e-05;0.007027505598420841
1.18690e-05;0.00709282274303828
1.18692e-05;0.007150299797600451
1.18695e-05;0.007205341427421513
1.18698e-05;0.007260383057242575
1.18700e-05;0.007302861696615084
1.18703e-05;0.007341437802017398
1.18705e-05;0.007380013907419974
1.18708e-05;0.0074185900128225495
1.18710e-05;0.007451760867810256
1.18713e-05;0.007469783718793956
1.18715e-05;0.007487806569777655
1.18718e-05;0.007505829420761233
1.18720e-05;0.007523852271744933
1.18723e-05;0.007529255166845253
1.18725e-05;0.007530737832384035
1.18728e-05;0.007532220497922825
1.18730e-05;0.007524535636653172
1.18733e-05;0.007514002999216012
1.18735e-05;0.007503470361778779
1.18738e-05;0.007485802418702358
1.18740e-05;0.007465917983242521
1.18743e-05;0.007441327504104606
1.18745e-05;0.0074152751520636
1.18748e-05;0.00738611682185417
1.18750e-05;0.007354106693608056
1.18753e-05;0.0073197612922492
1.18755e-05;0.00728326271553242
1.18758e-05;0.0072448482179229825
1.18760e-05;0.007204855544520785
1.18763e-05;0.00716364588973508
1.18765e-05;0.007121524249573009
1.18768e-05;0.007078758861552856
1.18770e-05;0.007035611892979669
1.18773e-05;0.006992345511157616
1.18775e-05;0.006949223304566836
1.18777e-05;0.006906542700772237
1.18780e-05;0.006864664085362634
1.18783e-05;0.006823963467732203
1.18785e-05;0.0067847803965749
1.18788e-05;0.006747431793697771
1.18790e-05;0.0067131983364451765
1.18793e-05;0.006679792028524363
1.18795e-05;0.006651671366857356
1.18798e-05;0.006625192624297605
1.18800e-05;0.006598713881737854
1.18803e-05;0.006579547558763035
1.18805e-05;0.006562652746377768
1.18808e-05;0.0065457579339925015
1.18810e-05;0.006528863121607349
1.18813e-05;0.006515157657335118
1.18815e-05;0.006510390217075655
1.18818e-05;0.006505622776816223
1.18820e-05;0.00650085533655676
1.18823e-05;0.006496087896297295
1.18825e-05;0.006502077756678428
1.18828e-05;0.006511409236347054
1.18830e-05;0.00652074071601568
1.18833e-05;0.006530072195684242
1.18835e-05;0.0065394036753528674
1.18838e-05;0.006548735155021493
1.18840e-05;0.006558066634690055
1.18843e-05;0.006570800874885913
1.18845e-05;0.0065930712190836824
1.18848e-05;0.006615341563281302
1.18850e-05;0.006637611907479073
1.18853e-05;0.006659882251676842
1.18855e-05;0.006682152595874462
1.18858e-05;0.006704422940072232
1.18860e-05;0.006726693284270002
1.18862e-05;0.006752662284022675
1.18865e-05;0.0067797802243094694
1.18868e-05;0.006806898164596265
1.18870e-05;0.006834527609485702
1.18873e-05;0.0068623159468056034
1.18875e-05;0.006890104284125693
1.18878e-05;0.006917335757671389
1.18880e-05;0.006944394248533655
1.18883e-05;0.006971452739396105
1.18885e-05;0.006997043985405111
1.18888e-05;0.0070221794503712385
1.18890e-05;0.0070455382688229895
1.18893e-05;0.007068345194522104
1.18895e-05;0.00708868282849504
1.18898e-05;0.007108253408247366
1.18900e-05;0.007122972451522192
1.18903e-05;0.007136184426396286
1.18905e-05;0.0071431503367318135
1.18908e-05;0.0071481759861751
1.18910e-05;0.00714502421950492
1.18913e-05;0.007139332242021023
1.18915e-05;0.007133640264537127
1.18918e-05;0.007124072818845242
1.18920e-05;0.007103644524263176
1.18923e-05;0.00708321622968111
1.18925e-05;0.007062787935099183
1.18928e-05;0.007033112206448502
1.18930e-05;0.007000563879449553
1.18933e-05;0.006962243094512355
1.18935e-05;0.006922129168578517
1.18938e-05;0.00687805478295119
1.18940e-05;0.006830042081506252
1.18943e-05;0.006778500716768012
1.18945e-05;0.006723662346304989
1.18947e-05;0.006665879756965043
1.18950e-05;0.00660552397042587
1.18953e-05;0.006542966118733831
1.18955e-05;0.006478574491584721
1.18958e-05;0.006412633712285445
1.18960e-05;0.00634530498272314
1.18963e-05;0.006276787370124494
1.18965e-05;0.006207429038037339
1.18968e-05;0.006137655188159283
1.18970e-05;0.0060679019001907385
1.18973e-05;0.005998605033097094
1.18975e-05;0.00593019866937346
1.18978e-05;0.005863065177375404
1.18980e-05;0.005797508500832343
1.18983e-05;0.005733857570511615
1.18985e-05;0.005672533633045074
1.18988e-05;0.005614006130967891
1.18990e-05;0.005560225660009956
1.18993e-05;0.005507705586059665
1.18995e-05;0.005461577780035661
1.18998e-05;0.005417435651135968
1.19000e-05;0.00537967347331139
1.19003e-05;0.00534389314653791
