Time(s);Current(A)
1.50000e-06;0.010964252967446462
1.50025e-06;0.01098393243432982
1.50050e-06;0.011003611901213161
1.50075e-06;0.011023291368096504
1.50100e-06;0.011042970834979862
1.50125e-06;0.011062650301863203
1.50150e-06;0.011060954423177016
1.50175e-06;0.011052905002164614
1.50200e-06;0.011044855581152205
1.50225e-06;0.011036806160139804
1.50250e-06;0.011028756739127402
1.50275e-06;0.011020707318114994
1.50300e-06;0.010984139073343205
1.50325e-06;0.010939093980641253
1.50350e-06;0.010894048887939338
1.50375e-06;0.010849003795237424
1.50400e-06;0.010803958702535471
1.50425e-06;0.010758913609833557
1.50450e-06;0.010713868517131605
1.50475e-06;0.01065978622579669
1.50500e-06;0.010581377433181757
1.50525e-06;0.010502968640566757
1.50550e-06;0.010424559847951825
1.50575e-06;0.010346151055336827
1.50600e-06;0.010267742262721894
1.50625e-06;0.010189333470106896
1.50650e-06;0.010110924677491964
1.50675e-06;0.01002199594397727
1.50700e-06;0.0099299402954119
1.50725e-06;0.009837884646846607
1.50750e-06;0.009743796065817255
1.50775e-06;0.00964910322216151
1.50800e-06;0.009554410378505764
1.50825e-06;0.009461384563401336
1.50850e-06;0.009368854250763848
1.50875e-06;0.009276323938126281
1.50900e-06;0.009188769583666975
1.50925e-06;0.009102694267794148
1.50950e-06;0.009016618951921246
1.50975e-06;0.008948577984545904
1.51000e-06;0.008885897491747364
1.51025e-06;0.008823216998948877
1.51050e-06;0.008760536506150336
1.51075e-06;0.008697856013351848
1.51100e-06;0.008635175520553361
1.51125e-06;0.00857249502775482
1.51150e-06;0.008509814534956334
1.51175e-06;0.008447134042157793
1.51200e-06;0.008403587284759708
1.51225e-06;0.008365727780338155
1.51250e-06;0.008327868275916571
1.51275e-06;0.00829000877149502
1.51300e-06;0.008252149267073435
1.51325e-06;0.008214289762651884
1.51350e-06;0.008176430258230331
1.51375e-06;0.008138570753808748
1.51400e-06;0.008100711249387195
1.51425e-06;0.008075166601304369
1.51450e-06;0.008053282383446055
1.51475e-06;0.008031398165587721
1.51500e-06;0.008009513947729406
1.51525e-06;0.007987629729871092
1.51550e-06;0.00796574551201276
1.51575e-06;0.007943861294154446
1.51600e-06;0.007921977076296112
1.51625e-06;0.007900092858437797
1.51650e-06;0.007878208640579483
1.51675e-06;0.00785632442272115
1.51700e-06;0.007834440204862835
1.51725e-06;0.007820113793342992
1.51750e-06;0.007808033841058298
1.51775e-06;0.007795953888773605
1.51800e-06;0.0077838739364889005
1.51825e-06;0.007771793984204207
1.51850e-06;0.0077597140319195035
1.51875e-06;0.00774763407963481
1.51900e-06;0.007735554127350106
1.51925e-06;0.007723474175065412
1.51950e-06;0.007711394222780718
1.51975e-06;0.007699314270496014
1.52000e-06;0.00768723431821132
1.52025e-06;0.007678534908860104
1.52050e-06;0.007670840321748631
1.52075e-06;0.007663145734637158
1.52100e-06;0.007670656441361192
1.52125e-06;0.007682686723108573
1.52150e-06;0.007694717004855964
1.52175e-06;0.007706747286603345
1.52200e-06;0.007718777568350726
1.52225e-06;0.007730807850098117
1.52250e-06;0.007769128172414533
1.52275e-06;0.007815262865962656
1.52300e-06;0.007861397559510739
1.52325e-06;0.007907532253058862
1.52350e-06;0.007953666946606945
1.52375e-06;0.007999801640155029
1.52400e-06;0.008075741146822928
1.52425e-06;0.008160539744962841
1.52450e-06;0.008245338343102825
1.52475e-06;0.008330136941242738
1.52500e-06;0.008414935539382652
1.52525e-06;0.008499734137522637
1.52550e-06;0.00858453273566255
1.52575e-06;0.008672542696360636
1.52600e-06;0.008782538143839004
1.52625e-06;0.008892533591317371
1.52650e-06;0.00900252903879583
1.52675e-06;0.009112524486274198
1.52700e-06;0.009222519933752657
1.52725e-06;0.009332515381231024
1.52750e-06;0.009442510828709484
1.52775e-06;0.009523124475896585
1.52800e-06;0.009657848867570474
1.52825e-06;0.009760553152202879
1.52850e-06;0.00989324141322359
1.52875e-06;0.010001575888906843
1.52900e-06;0.010118815517030548
1.52925e-06;0.010224856658055054
1.52950e-06;0.010327979098965965
1.52975e-06;0.010419279754905612
1.53000e-06;0.010505633393923571
1.53025e-06;0.01059198703294146
1.53050e-06;0.01067895867115542
1.53075e-06;0.010758969065474116
1.53100e-06;0.010821256621491446
1.53125e-06;0.010881506566049203
1.53150e-06;0.010902754816170304
1.53175e-06;0.010924744956502681
1.53200e-06;0.010946735096835039
1.53225e-06;0.010968725237167397
1.53250e-06;0.010990715377499774
1.53275e-06;0.011012705517832132
1.53300e-06;0.01103469565816451
1.53325e-06;0.011056685798496868
1.53350e-06;0.011054935682183725
1.53375e-06;0.011017918904747633
1.53400e-06;0.010980902127311572
1.53425e-06;0.01094388534987548
1.53450e-06;0.010906868572439417
1.53475e-06;0.010869851795003356
1.53500e-06;0.010832835017567264
1.53525e-06;0.010795818240131204
1.53550e-06;0.010754344457698545
1.53575e-06;0.010678857695139835
1.53600e-06;0.010603370932581062
1.53625e-06;0.010527884170022353
1.53650e-06;0.010452397407463645
1.53675e-06;0.010376910644904872
1.53700e-06;0.010301423882346162
1.53725e-06;0.01022593711978739
1.53750e-06;0.01015045035722868
1.53775e-06;0.010070795491438952
1.53800e-06;0.009988540752946754
1.53825e-06;0.009906286014454625
1.53850e-06;0.009824031275962429
1.53875e-06;0.0097417765374703
1.53900e-06;0.00965952179897817
1.53925e-06;0.009577267060485973
1.53950e-06;0.009495012321993845
1.53975e-06;0.009416283133105297
1.54000e-06;0.009364458659084291
1.54025e-06;0.009312634185063286
1.54050e-06;0.009260809711042236
1.54075e-06;0.00920898523702123
1.54100e-06;0.00915716076300018
1.54125e-06;0.009105336288979174
1.54150e-06;0.009053511814958125
1.54175e-06;0.009001687340937118
1.54200e-06;0.008949862866916113
1.54225e-06;0.008921870647067825
1.54250e-06;0.008908743900463508
1.54275e-06;0.008895617153859179
1.54300e-06;0.008882490407254862
1.54325e-06;0.008869363660650543
1.54350e-06;0.008856236914046215
1.54375e-06;0.008843110167441897
1.54400e-06;0.008829983420837568
1.54425e-06;0.00881685667423325
1.54450e-06;0.008807317145574775
1.54475e-06;0.008825152944693538
1.54500e-06;0.008842988743812286
1.54525e-06;0.008860824542931049
1.54550e-06;0.008878660342049795
1.54575e-06;0.008896496141168558
1.54600e-06;0.008914331940287306
1.54625e-06;0.008932167739406053
1.54650e-06;0.008950003538524817
1.54675e-06;0.008967839337643564
1.54700e-06;0.008985675136762326
1.54725e-06;0.009003510935881073
1.54750e-06;0.009027028083466053
1.54775e-06;0.00905408899711696
1.54800e-06;0.009081149910767845
1.54825e-06;0.009108210824418754
1.54850e-06;0.009135271738069639
1.54875e-06;0.009162332651720523
1.54900e-06;0.00918939356537143
1.54925e-06;0.009216454479022316
1.54950e-06;0.009243515392673225
1.54975e-06;0.00927057630632411
1.55000e-06;0.009297637219975017
1.55025e-06;0.009322681928241155
1.55050e-06;0.009332340260741348
1.55075e-06;0.009341998593241549
1.55100e-06;0.009351656925741742
1.55125e-06;0.009361315258241942
1.55150e-06;0.009370973590742135
1.55175e-06;0.009380631923242328
1.55200e-06;0.009390290255742529
1.55225e-06;0.009399948588242722
1.55250e-06;0.009406480831479389
1.55275e-06;0.009389156782867536
1.55300e-06;0.009371832734255682
1.55325e-06;0.009354508685643815
1.55350e-06;0.009337184637031962
1.55375e-06;0.009319860588420095
1.55400e-06;0.009302536539808242
1.55425e-06;0.009285212491196375
1.55450e-06;0.009267888442584521
1.55475e-06;0.00924788132554442
1.55500e-06;0.009207398765202377
1.55525e-06;0.009166916204860369
1.55550e-06;0.009126433644518327
1.55575e-06;0.009085951084176319
1.55600e-06;0.00904546852383431
1.55625e-06;0.009004985963492267
1.55650e-06;0.008964503403150258
1.55675e-06;0.008924020842808215
1.55700e-06;0.008883538282466208
1.55725e-06;0.0088430557221242
1.55750e-06;0.008802225204070101
1.55775e-06;0.008758739297756335
1.55800e-06;0.008715253391442532
1.55825e-06;0.008671767485128766
1.55850e-06;0.008628281578814963
1.55875e-06;0.008584795672501196
1.55900e-06;0.008541309766187432
1.55925e-06;0.008497823859873629
1.55950e-06;0.008454337953559862
1.55975e-06;0.00841085204724606
1.56000e-06;0.008367366140932293
1.56025e-06;0.008326492676101003
1.56050e-06;0.008305555675389228
1.56075e-06;0.008284618674677469
1.56100e-06;0.008263681673965694
1.56125e-06;0.008242744673253937
1.56150e-06;0.00822180767254218
1.56175e-06;0.008200870671830403
1.56200e-06;0.008179933671118645
1.56225e-06;0.008179304026531966
1.56250e-06;0.008191341184544357
1.56275e-06;0.008203378342556758
1.56300e-06;0.008215415500569149
1.56325e-06;0.00822745265858154
1.56350e-06;0.008239489816593941
1.56375e-06;0.008251526974606332
1.56400e-06;0.008267557865740573
1.56425e-06;0.008314066345603978
1.56450e-06;0.008360574825467383
1.56475e-06;0.008407083305330828
1.56500e-06;0.008453591785194232
1.56525e-06;0.008500100265057677
1.56550e-06;0.008546608744921082
1.56575e-06;0.008593117224784489
1.56600e-06;0.008639625704647933
1.56625e-06;0.008686134184511338
1.56650e-06;0.008734632641524121
1.56675e-06;0.008798317317366645
1.56700e-06;0.008862001993209223
1.56725e-06;0.008925686669051747
1.56750e-06;0.00898937134489427
1.56775e-06;0.009053056020736847
1.56800e-06;0.00911674069657937
1.56825e-06;0.009180425372421948
1.56850e-06;0.009244110048264472
1.56875e-06;0.009307794724106996
1.56900e-06;0.009369866778588622
1.56925e-06;0.009419632349609165
1.56950e-06;0.009469397920629752
1.56975e-06;0.009519163491650296
1.57000e-06;0.00956892906267084
1.57025e-06;0.009618694633691425
1.57050e-06;0.009668460204711968
1.57075e-06;0.009718225775732553
1.57100e-06;0.009764289447921102
1.57125e-06;0.009782102621975142
1.57150e-06;0.009799915796029169
1.57175e-06;0.009817728970083196
1.57200e-06;0.009835542144137238
1.57225e-06;0.009853355318191264
1.57250e-06;0.009871168492245307
1.57275e-06;0.009888981666299333
1.57300e-06;0.009902309329188678
1.57325e-06;0.009881406471326926
1.57350e-06;0.00986050361346519
1.57375e-06;0.009839600755603436
1.57400e-06;0.0098186978977417
1.57425e-06;0.009797795039879965
1.57450e-06;0.009776892182018212
1.57475e-06;0.009755989324156476
1.57500e-06;0.009735086466294724
1.57525e-06;0.009714183608432988
1.57550e-06;0.009693280750571251
1.57575e-06;0.009669361628153152
1.57600e-06;0.00962242432504355
1.57625e-06;0.009575487021933908
1.57650e-06;0.009528549718824306
1.57675e-06;0.009481612415714664
1.57700e-06;0.00943467511260506
1.57725e-06;0.009387737809495459
1.57750e-06;0.009340800506385817
1.57775e-06;0.009293863203276215
1.57800e-06;0.009246925900166571
1.57825e-06;0.009199988597056969
1.57850e-06;0.00915321111112398
1.57875e-06;0.009107653246540488
1.57900e-06;0.009062095381957036
1.57925e-06;0.009016537517373545
1.57950e-06;0.008970979652790092
1.57975e-06;0.00892542178820664
1.58000e-06;0.008879863923623148
1.58025e-06;0.008843104576620086
1.58050e-06;0.008811833343611599
1.58075e-06;0.008780562110603138
1.58100e-06;0.008749290877594653
1.58125e-06;0.008718019644586192
1.58150e-06;0.008686748411577731
1.58175e-06;0.00865803029373727
1.58200e-06;0.008648795899940658
1.58225e-06;0.008639561506144037
1.58250e-06;0.008630327112347423
1.58275e-06;0.008621092718550811
1.58300e-06;0.00861185832475419
1.58325e-06;0.008602623930957577
1.58350e-06;0.008593389537160956
1.58375e-06;0.008584155143364344
1.58400e-06;0.00857492074956773
1.58425e-06;0.00856568635577111
1.58450e-06;0.008556451961974496
1.58475e-06;0.008547217568177876
1.58500e-06;0.008537983174381264
1.58525e-06;0.008528748780584643
1.58550e-06;0.00851951438678803
1.58575e-06;0.0085206110149548
1.58600e-06;0.008528151663457495
1.58625e-06;0.008535692311960184
1.58650e-06;0.008543232960462879
1.58675e-06;0.008550773608965567
1.58700e-06;0.008558314257468256
1.58725e-06;0.00856585490597095
1.58750e-06;0.008573395554473638
1.58775e-06;0.008580936202976333
1.58800e-06;0.008588476851479022
1.58825e-06;0.00859601749998171
1.58850e-06;0.008603558148484406
1.58875e-06;0.008611098796987094
1.58900e-06;0.008618639445489788
1.58925e-06;0.008626180093992478
1.58950e-06;0.008633095639290714
1.58975e-06;0.008635240801142955
1.59000e-06;0.008637385962995195
1.59025e-06;0.008639531124847439
1.59050e-06;0.008641676286699679
1.59075e-06;0.00864382144855192
1.59100e-06;0.008645966610404161
1.59125e-06;0.008648111772256401
1.59150e-06;0.008650256934108645
1.59175e-06;0.008652402095960885
1.59200e-06;0.008654547257813127
1.59225e-06;0.008656692419665367
1.59250e-06;0.00865883758151761
1.59275e-06;0.008660982743369851
1.59300e-06;0.008663127905222091
1.59325e-06;0.008665273067074333
1.59350e-06;0.008667418228926574
1.59375e-06;0.008669563390778817
1.59400e-06;0.008671708552631057
1.59425e-06;0.008673853714483298
1.59450e-06;0.00867496040947673
1.59475e-06;0.00866814219690797
1.59500e-06;0.008661323984339204
1.59525e-06;0.008654505771770444
1.59550e-06;0.008647687559201684
1.59575e-06;0.008640869346632917
1.59600e-06;0.008634051134064158
1.59625e-06;0.008627232921495392
1.59650e-06;0.008620414708926633
1.59675e-06;0.008613596496357873
1.59700e-06;0.008606778283789107
1.59725e-06;0.008599960071220348
1.59750e-06;0.00859314185865158
1.59775e-06;0.00858632364608282
1.59800e-06;0.008579505433514056
1.59825e-06;0.008572687220945296
1.59850e-06;0.008565869008376536
1.59875e-06;0.00855905079580777
1.59900e-06;0.00855223258323901
1.59925e-06;0.008545414370670244
1.59950e-06;0.008538484276646014
1.59975e-06;0.008530700375699635
1.60000e-06;0.008522916474753249
1.60025e-06;0.00851513257380687
1.60050e-06;0.008507348672860486
1.60075e-06;0.008499564771914107
1.60100e-06;0.008491780870967728
1.60125e-06;0.008483996970021343
1.60150e-06;0.008476213069074964
1.60175e-06;0.008468429168128578
1.60200e-06;0.008459539422201134
1.60225e-06;0.008442210582452023
1.60250e-06;0.008424881742702924
1.60275e-06;0.008407552902953827
1.60300e-06;0.008390224063204714
1.60325e-06;0.008372895223455615
1.60350e-06;0.008355566383706504
1.60375e-06;0.008338237543957405
1.60400e-06;0.008320908704208308
1.60425e-06;0.008303579864459195
1.60450e-06;0.00828491159576483
1.60475e-06;0.00825602167147701
1.60500e-06;0.008227131747189215
1.60525e-06;0.00819824182290142
1.60550e-06;0.008169351898613602
1.60575e-06;0.008140461974325806
1.60600e-06;0.008111572050037987
1.60625e-06;0.008082682125750192
1.60650e-06;0.008053792201462372
1.60675e-06;0.008024902277174577
1.60700e-06;0.007996012352886783
1.60725e-06;0.007967122428598962
1.60750e-06;0.007938232504311167
1.60775e-06;0.007910277530720855
1.60800e-06;0.007882905736735488
1.60825e-06;0.00785553394275012
1.60850e-06;0.00782816214876473
1.60875e-06;0.007800790354779361
1.60900e-06;0.00777341856079397
1.60925e-06;0.007746046766808603
1.60950e-06;0.007718674972823235
1.60975e-06;0.007691303178837844
1.61000e-06;0.007663931384852476
1.61025e-06;0.0076365595908670855
1.61050e-06;0.007609187796881718
1.61075e-06;0.007584306365257867
1.61100e-06;0.0075784297688290215
1.61125e-06;0.007572553172400175
1.61150e-06;0.007566676575971325
1.61175e-06;0.007560799979542478
1.61200e-06;0.007554923383113628
1.61225e-06;0.007549046786684782
1.61250e-06;0.007543170190255936
1.61275e-06;0.007537293593827085
1.61300e-06;0.0075314169973982395
1.61325e-06;0.007541489478598593
1.61350e-06;0.007561510267036036
1.61375e-06;0.007581531055473479
1.61400e-06;0.007601551843910938
1.61425e-06;0.007621572632348381
1.61450e-06;0.0076415934207858405
1.61475e-06;0.007661614209223283
1.61500e-06;0.007681634997660726
1.61525e-06;0.007701655786098186
1.61550e-06;0.007723706844014421
1.61575e-06;0.007761251605754477
1.61600e-06;0.007798796367494502
1.61625e-06;0.007836341129234557
1.61650e-06;0.007873885890974583
1.61675e-06;0.007911430652714607
1.61700e-06;0.007948975414454664
1.61725e-06;0.007986520176194688
1.61750e-06;0.008024064937934745
1.61775e-06;0.008061609699674769
1.61800e-06;0.008099154461414793
1.61825e-06;0.008134728985688627
1.61850e-06;0.008169074565687462
1.61875e-06;0.008203420145686327
1.61900e-06;0.008237765725685162
1.61925e-06;0.008272111305683998
1.61950e-06;0.008306456885682862
1.61975e-06;0.008340802465681698
1.62000e-06;0.00837514804568056
1.62025e-06;0.008409493625679396
1.62050e-06;0.00844383920567826
1.62075e-06;0.008476163684015908
1.62100e-06;0.008493064421386672
1.62125e-06;0.00850996515875745
1.62150e-06;0.008526865896128213
1.62175e-06;0.00854376663349899
1.62200e-06;0.008560667370869753
1.62225e-06;0.008577568108240516
1.62250e-06;0.008594468845611294
1.62275e-06;0.008611369582982057
1.62300e-06;0.008628270320352835
1.62325e-06;0.008645171057723597
1.62350e-06;0.00866207179509436
1.62375e-06;0.008678972532465138
1.62400e-06;0.008695873269835902
1.62425e-06;0.008712774007206677
1.62450e-06;0.008729674744577441
1.62475e-06;0.008746575481948219
1.62500e-06;0.008763476219318982
1.62525e-06;0.008774853267024733
1.62550e-06;0.00878278488903606
1.62575e-06;0.008790716511047382
1.62600e-06;0.008798648133058709
1.62625e-06;0.008806579755070031
1.62650e-06;0.008814511377081351
1.62675e-06;0.00882244299909268
1.62700e-06;0.008830374621104
1.62725e-06;0.008838306243115329
1.62750e-06;0.008846237865126649
1.62775e-06;0.00885416948713797
1.62800e-06;0.008862101109149298
1.62825e-06;0.00887003273116062
1.62850e-06;0.008877964353171947
1.62875e-06;0.008885895975183269
1.62900e-06;0.008893827597194596
1.62925e-06;0.008901759219205918
1.62950e-06;0.008908819133983684
1.62975e-06;0.008909226742830508
1.63000e-06;0.008909634351677331
1.63025e-06;0.008910041960524155
1.63050e-06;0.008910449569370978
1.63075e-06;0.008910857178217801
1.63100e-06;0.008911264787064626
1.63125e-06;0.008911672395911448
1.63150e-06;0.008912080004758273
1.63175e-06;0.008912487613605096
1.63200e-06;0.008912895222451919
1.63225e-06;0.008913302831298743
1.63250e-06;0.008913710440145566
1.63275e-06;0.00891411804899239
1.63300e-06;0.008914525657839213
1.63325e-06;0.008914933266686038
1.63350e-06;0.00891534087553286
1.63375e-06;0.008915748484379683
1.63400e-06;0.008915158630145569
1.63425e-06;0.008906956782671789
1.63450e-06;0.008898754935198
1.63475e-06;0.008890553087724221
1.63500e-06;0.008882351240250441
1.63525e-06;0.008874149392776653
1.63550e-06;0.008865947545302873
1.63575e-06;0.008857745697829086
1.63600e-06;0.008849543850355305
1.63625e-06;0.008841342002881525
1.63650e-06;0.008833140155407739
1.63675e-06;0.008824938307933957
1.63700e-06;0.00881673646046017
1.63725e-06;0.00880853461298639
1.63750e-06;0.008800332765512602
1.63775e-06;0.008792130918038822
1.63800e-06;0.008783929070565043
1.63825e-06;0.008775727223091254
1.63850e-06;0.008767530362992824
1.63875e-06;0.008759371563318042
1.63900e-06;0.008751212763643264
1.63925e-06;0.008743053963968489
1.63950e-06;0.008734895164293707
1.63975e-06;0.008726736364618931
1.64000e-06;0.008718577564944149
1.64025e-06;0.008710418765269371
1.64050e-06;0.008702259965594596
1.64075e-06;0.008694101165919814
1.64100e-06;0.008685942366245038
1.64125e-06;0.008677783566570254
1.64150e-06;0.008669624766895478
1.64175e-06;0.008661465967220696
1.64200e-06;0.00865330716754592
1.64225e-06;0.008645148367871145
1.64250e-06;0.008636989568196361
1.64275e-06;0.008628830768521585
1.64300e-06;0.008620466155691448
1.64325e-06;0.008610530909945737
1.64350e-06;0.008600595664200024
1.64375e-06;0.008590660418454304
1.64400e-06;0.008580725172708593
1.64425e-06;0.008570789926962872
1.64450e-06;0.00856085468121716
1.64475e-06;0.008550919435471448
1.64500e-06;0.008540984189725728
1.64525e-06;0.008531048943980017
1.64550e-06;0.008521113698234295
1.64575e-06;0.008511178452488584
1.64600e-06;0.008501243206742864
1.64625e-06;0.008491307960997152
1.64650e-06;0.00848137271525144
1.64675e-06;0.00847143746950572
1.64700e-06;0.008461502223760008
1.64725e-06;0.008451566978014288
1.64750e-06;0.008441596011744134
1.64775e-06;0.00843135244952962
1.64800e-06;0.008421108887315098
1.64825e-06;0.008410865325100584
1.64850e-06;0.00840062176288606
1.64875e-06;0.008390378200671546
1.64900e-06;0.008380134638457031
1.64925e-06;0.00836989107624251
1.64950e-06;0.008359647514027995
1.64975e-06;0.008349909697866966
1.65000e-06;0.008340487343028538
1.65025e-06;0.00833106498819011
1.65050e-06;0.008321642633351676
1.65075e-06;0.008312220278513248
1.65100e-06;0.008302797923674811
1.65125e-06;0.008293375568836383
1.65150e-06;0.008283953213997948
1.65175e-06;0.008273272009513444
