Time(s);Current(A)
1.45000e-05;-0.0002710518257918949
1.45003e-05;-0.0002561224484344195
1.45005e-05;-0.00023994734335660957
1.45008e-05;-0.0002236262353786083
1.45010e-05;-0.0002061865875007003
1.45013e-05;-0.00018861584350373986
1.45015e-05;-0.00017104509950677943
1.45018e-05;-0.0001527749136754286
1.45020e-05;-0.00013442275123325852
1.45023e-05;-0.00011607058879108841
1.45025e-05;-9.730721510936692e-05
1.45028e-05;-7.84956462781181e-05
1.45030e-05;-5.9684077446869264e-05
1.45033e-05;-4.097825677411965e-05
1.45035e-05;-2.2508419324551155e-05
1.45038e-05;-4.38691614798076e-06
1.45040e-05;1.3313026418461595e-05
1.45043e-05;3.0558263847167e-05
1.45045e-05;4.728844433413357e-05
1.45048e-05;6.339762869506343e-05
1.45050e-05;7.876718705777679e-05
1.45053e-05;9.327762140879924e-05
1.45055e-05;0.000106809425670831
1.45058e-05;0.00011926727373015003
1.45060e-05;0.0001307943145150593
1.45063e-05;0.00014180454289594853
1.45065e-05;0.0001525687937006529
1.45068e-05;0.00016293761175887545
1.45070e-05;0.00017326278496589852
1.45073e-05;0.00018284317740175794
1.45075e-05;0.00019233627937205057
1.45078e-05;0.00020076202657285945
1.45080e-05;0.00020906267670040197
1.45083e-05;0.00021736332682794447
1.45085e-05;0.00022527567506697133
1.45088e-05;0.0002331425131990026
1.45090e-05;0.00024100935133103385
1.45093e-05;0.000247872201095037
1.45095e-05;0.0002546173805116031
1.45098e-05;0.0002613625599282149
1.45100e-05;0.0002681077393448267
1.45103e-05;0.0002748529187613928
1.45105e-05;0.00028159809817800455
1.45108e-05;0.00028834327759461633
1.45110e-05;0.0002950884570111824
1.45113e-05;0.0003018336364277942
1.45115e-05;0.00030857881584440603
1.45118e-05;0.00031415045381442594
1.45120e-05;0.00031958454932470756
1.45123e-05;0.00032501864483498917
1.45125e-05;0.00033045274034523397
1.45128e-05;0.0003358868358555156
1.45130e-05;0.00034132093136579725
1.45133e-05;0.00034675502687604205
1.45135e-05;0.00035218912238632366
1.45138e-05;0.0003576232178966053
1.45140e-05;0.0003630573134068501
1.45143e-05;0.00036750280009209985
1.45145e-05;0.00037183241895692563
1.45148e-05;0.0003761620378217221
1.45150e-05;0.0003801937021959085
1.45153e-05;0.0003837691826059394
1.45155e-05;0.0003873446630159461
1.45158e-05;0.000390920143425977
1.45160e-05;0.00039450241684582855
1.45163e-05;0.00039808548642610096
1.45165e-05;0.00040166855600639765
1.45168e-05;0.0004066130658281151
1.45170e-05;0.0004117171403931534
1.45173e-05;0.00041682121495822624
1.45175e-05;0.000423005539350526
1.45178e-05;0.00042931647215442505
1.45180e-05;0.0004356274049582814
1.45183e-05;0.00044353154170423224
1.45185e-05;0.0004516224065712042
1.45188e-05;0.0004597132714381214
1.45190e-05;0.0004694942485610804
1.45193e-05;0.00047947331174042434
1.45195e-05;0.0004894523749197007
1.45198e-05;0.0005010566206268693
1.45200e-05;0.0005128513424380513
1.45203e-05;0.0005246460642491533
1.45205e-05;0.0005364407860603352
1.45208e-05;0.0005489875079646333
1.45210e-05;0.0005626855814824856
1.45213e-05;0.0005763836550004306
1.45215e-05;0.0005900817285183757
1.45218e-05;0.0006037798020362279
1.45220e-05;0.0006180697919988673
1.45223e-05;0.0006324291562849324
1.45225e-05;0.0006470000516217663
1.45228e-05;0.0006616602403512811
1.45230e-05;0.0006763119937429407
1.45233e-05;0.0006908653288592911
1.45235e-05;0.0007052303087580027
1.45238e-05;0.0007193201286775083
1.45240e-05;0.0007330776311404172
1.45243e-05;0.0007464773814514171
1.45245e-05;0.0007594724605070952
1.45248e-05;0.0007719798540571622
1.45250e-05;0.0007839064059147607
1.45253e-05;0.0007951582271227493
1.45255e-05;0.0008056415850277364
1.45258e-05;0.0008152439567466946
1.45260e-05;0.0008236797228993901
1.45263e-05;0.0008304993314222888
1.45265e-05;0.00083542517923694
1.45268e-05;0.0008384213996632925
1.45270e-05;0.0008395166799951633
1.45273e-05;0.0008387444652118971
1.45275e-05;0.0008361381726172745
1.45278e-05;0.0008317194906287619
1.45280e-05;0.0008244576432224898
1.45283e-05;0.000816884826537622
1.45285e-05;0.0008054829591741001
1.45288e-05;0.0007936323159696553
1.45290e-05;0.0007782400385993066
1.45293e-05;0.0007624326714365276
1.45295e-05;0.0007427567782193253
1.45298e-05;0.0007226274825324445
1.45300e-05;0.0007024981868455638
1.45303e-05;0.0006780462246105273
1.45305e-05;0.0006530876333231925
1.45308e-05;0.0006281290420358577
1.45310e-05;0.0005997073852589809
1.45313e-05;0.0005708798471660497
1.45315e-05;0.0005420523090731187
1.45318e-05;0.0005109868315104309
1.45320e-05;0.0004796590609531763
1.45323e-05;0.0004483312903959218
1.45325e-05;0.00041574622998449416
1.45328e-05;0.0003830138115566295
1.45330e-05;0.00035028139312876476
1.45333e-05;0.00031756087549361737
1.45335e-05;0.000284841752665633
1.45338e-05;0.00025292444844563866
1.45340e-05;0.00022110111969145537
1.45343e-05;0.00019022835859680708
1.45345e-05;0.00016029304596171392
1.45348e-05;0.000131465884761042
1.45350e-05;0.00010395984962080391
1.45353e-05;7.798860707521844e-05
1.45355e-05;5.376578707617294e-05
1.45358e-05;3.148877118635144e-05
1.45360e-05;1.118623496886431e-05
1.45363e-05;-7.327971168989564e-06
1.45365e-05;-2.418738010824534e-05
1.45368e-05;-3.9365729560816375e-05
1.45370e-05;-5.278839722565956e-05
1.45373e-05;-6.437719131782146e-05
1.45375e-05;-7.405393742225854e-05
1.45378e-05;-8.175066798145255e-05
1.45380e-05;-8.750508755197137e-05
1.45383e-05;-9.148944674069788e-05
1.45385e-05;-9.384304181295478e-05
1.45388e-05;-9.460507596495331e-05
1.45390e-05;-9.378443238851091e-05
1.45393e-05;-9.138778506958581e-05
1.45395e-05;-8.742180031200384e-05
1.45398e-05;-8.189956437118768e-05
1.45400e-05;-7.49003292304945e-05
1.45403e-05;-6.658764138431154e-05
1.45405e-05;-5.710437621895555e-05
1.45408e-05;-4.653070120457603e-05
1.45410e-05;-3.492780619130598e-05
1.45413e-05;-2.23554737030791e-05
1.45415e-05;-8.873499671015765e-06
1.45418e-05;5.454325015892362e-06
1.45420e-05;2.0522750984089962e-05
1.45423e-05;3.617374049082258e-05
1.45425e-05;5.226222306802318e-05
1.45428e-05;6.878447303692168e-05
1.45430e-05;8.53523669452808e-05
1.45433e-05;0.00010216201713868095
1.45435e-05;0.00011900000186952205
1.45438e-05;0.00013572891264606235
1.45440e-05;0.00015244503963889522
1.45443e-05;0.00016856499163394212
1.45445e-05;0.00018461507019081503
1.45448e-05;0.0001995927748920737
1.45450e-05;0.00021444479426809454
1.45453e-05;0.0002278148002699425
1.45455e-05;0.000241011110007338
1.45458e-05;0.0002523015106488152
1.45460e-05;0.0002633685332182927
1.45463e-05;0.000272699281829903
1.45465e-05;0.0002805612032864608
1.45468e-05;0.0002869923000796006
1.45470e-05;0.0002919806057540816
1.45473e-05;0.00029551495054542284
1.45475e-05;0.00029758426278522423
1.45478e-05;0.000298175555271878
1.45480e-05;0.00029726227694787524
1.45483e-05;0.00029481662612045116
1.45485e-05;0.0002908482464285924
1.45488e-05;0.0002854016711969708
1.45490e-05;0.00027852954186554973
1.45493e-05;0.00027028508323382965
1.45495e-05;0.0002601567747729341
1.45498e-05;0.0002498244784033368
1.45500e-05;0.00023730980419904706
1.45503e-05;0.00022453934898493863
1.45505e-05;0.00020979588478526757
1.45508e-05;0.00019482117821185575
1.45510e-05;0.00017819282374111878
1.45513e-05;0.0001613706569420168
1.45515e-05;0.00014322905870073127
1.45518e-05;0.0001249328192687838
1.45520e-05;0.00010563870424772429
1.45523e-05;8.622763531417402e-05
1.45525e-05;6.61650647462935e-05
1.45528e-05;4.602613629799785e-05
1.45530e-05;2.565089614454386e-05
1.45533e-05;5.247959574081089e-06
1.45535e-05;-1.5066781441970297e-05
1.45538e-05;-3.5171301554235446e-05
1.45540e-05;-5.495011032929019e-05
1.45543e-05;-7.428874517881032e-05
1.45545e-05;-9.306354123032214e-05
1.45548e-05;-0.0001111422760435274
1.45550e-05;-0.00012839074988689312
1.45553e-05;-0.000144674653569152
1.45555e-05;-0.00015985968670123726
1.45558e-05;-0.00017380872316492333
1.45560e-05;-0.0001863658356781463
1.45563e-05;-0.0001973796142183117
1.45565e-05;-0.0002067641156053082
1.45568e-05;-0.00021449053908416355
1.45570e-05;-0.00022054305654979931
1.45573e-05;-0.00022490670558014932
1.45575e-05;-0.0002275665789076118
1.45578e-05;-0.00022850595182744704
1.45580e-05;-0.0002276963454847629
1.45583e-05;-0.00022511214865410565
1.45585e-05;-0.00022076871437111677
1.45588e-05;-0.00021471721722280215
1.45590e-05;-0.00020701692893017754
1.45593e-05;-0.00019772770843948465
1.45595e-05;-0.00018690939627942087
1.45598e-05;-0.00017462072277383048
1.45600e-05;-0.00016091305943779125
1.45603e-05;-0.00014583953558317816
1.45605e-05;-0.0001294789851992926
1.45608e-05;-0.00011193262035408337
1.45610e-05;-9.330677953591148e-05
1.45613e-05;-7.370811602152543e-05
1.45615e-05;-5.3243287310028245e-05
1.45618e-05;-3.2018246669254755e-05
1.45620e-05;-1.0134320534229501e-05
1.45623e-05;1.230605352766615e-05
1.45625e-05;3.518436213919863e-05
1.45628e-05;5.843760940812948e-05
1.45630e-05;8.172957226967859e-05
1.45633e-05;0.00010505640063247472
1.45635e-05;0.00012838731533295326
1.45638e-05;0.00015144068345025513
1.45640e-05;0.00017411774526973265
1.45643e-05;0.00019629136141502879
1.45645e-05;0.00021781819922045697
1.45648e-05;0.0002385462034872602
1.45650e-05;0.00025832130038419717
1.45653e-05;0.0002769892832658671
1.45655e-05;0.00029439601061301014
1.45658e-05;0.0003103706761413273
1.45660e-05;0.00032459242172726944
1.45663e-05;0.00033661143089224816
1.45665e-05;0.00034615429943735945
1.45668e-05;0.00035317524135674265
1.45670e-05;0.0003576881303423819
1.45673e-05;0.0003597110107692077
1.45675e-05;0.00035926187491086775
1.45678e-05;0.00035634834078699735
1.45680e-05;0.0003508840449753428
1.45683e-05;0.0003427018577593596
1.45685e-05;0.0003317451703490184
1.45688e-05;0.0003180999253966484
1.45690e-05;0.00030188949373128064
1.45693e-05;0.0002832397876831726
1.45695e-05;0.00026227673647350206
1.45698e-05;0.0002391197336706868
1.45700e-05;0.00021382931360026142
1.45703e-05;0.00018641538478715548
1.45705e-05;0.0001569571078109424
1.45708e-05;0.0001256229883624479
1.45710e-05;9.260489284534545e-05
1.45713e-05;5.809628225705622e-05
1.45715e-05;2.2290626421454827e-05
1.45718e-05;-1.462271279591742e-05
1.45720e-05;-5.2491251148406674e-05
1.45723e-05;-9.119422420324405e-05
1.45725e-05;-0.0001307583665969959
1.45728e-05;-0.00017041333240022
1.45730e-05;-0.0002103194327126313
1.45733e-05;-0.00025025496671768463
1.45735e-05;-0.00029019050072246735
1.45738e-05;-0.0003287845101871898
1.45740e-05;-0.0003672212890858511
1.45743e-05;-0.000405658067984252
1.45745e-05;-0.00044170661269165624
1.45748e-05;-0.0004774752494268124
1.45750e-05;-0.0005102946691924026
1.45753e-05;-0.0005427684321777215
1.45755e-05;-0.0005713535667131116
1.45758e-05;-0.0005994829427183023
1.45760e-05;-0.000622776593859691
1.45763e-05;-0.0006455034840250498
1.45765e-05;-0.0006627782916093529
1.45768e-05;-0.0006794140993060828
1.45770e-05;-0.0006904174499150898
1.45773e-05;-0.0007007606602210734
1.45775e-05;-0.0007053397796462962
1.45778e-05;-0.0007092433309063189
1.45780e-05;-0.0007072463902285794
1.45783e-05;-0.0007045578947863173
1.45785e-05;-0.0006974579870114848
1.45788e-05;-0.0006856330658944126
1.45790e-05;-0.0006733149569651332
1.45793e-05;-0.00065569856832726
1.45795e-05;-0.0006374612059443265
1.45798e-05;-0.0006142966028624113
1.45800e-05;-0.0005905545128830608
1.45803e-05;-0.0005622930046922966
1.45805e-05;-0.0005335018075825243
1.45808e-05;-0.0005016915517856704
1.45810e-05;-0.00046774428847929305
1.45813e-05;-0.00043197763570361795
1.45815e-05;-0.0003945847663654898
1.45818e-05;-0.00035575819437553945
1.45820e-05;-0.0003156879576037936
1.45823e-05;-0.0002745732433494627
1.45825e-05;-0.00023263937882177276
1.45828e-05;-0.0001901306464958251
1.45830e-05;-0.00014729526456818732
1.45833e-05;-0.00010438167941444226
1.45835e-05;-6.16383098329513e-05
1.45838e-05;-1.9313141732732602e-05
1.45840e-05;2.2347365380228496e-05
1.45843e-05;6.309107144793e-05
1.45845e-05;0.00010264948621243258
1.45848e-05;0.00014074221434466996
1.45850e-05;0.00017708646751309602
1.45853e-05;0.00021139929980511856
1.45855e-05;0.00024339785495795723
1.45858e-05;0.00027280301263406926
1.45860e-05;0.0002993894277539092
1.45863e-05;0.00032303895284189723
1.45865e-05;0.0003436975552037619
1.45868e-05;0.0003613137088979939
1.45870e-05;0.00037583087867800846
1.45873e-05;0.00038719199193214216
1.45875e-05;0.0003953399499982418
1.45878e-05;0.0004002201520206813
1.45880e-05;0.0004018115568961342
1.45883e-05;0.0004001603515305657
1.45885e-05;0.0003953528908115431
1.45888e-05;0.0003874770229537006
1.45890e-05;0.0003766175339663322
1.45893e-05;0.0003628588310641519
1.45895e-05;0.00034628534140613
1.45898e-05;0.0003269829800900012
1.45900e-05;0.00030505878094611
1.45903e-05;0.00028066177742896954
1.45905e-05;0.00025396621775496673
1.45908e-05;0.00022514730333979017
1.45910e-05;0.00019437824107643268
1.45913e-05;0.00016183202413335085
1.45915e-05;0.00012768161962772466
1.45918e-05;9.210096852249396e-05
1.45920e-05;5.527717763758554e-05
1.45923e-05;1.742369015442534e-05
1.45925e-05;-2.1230302189422504e-05
1.45928e-05;-6.0597440515279984e-05
1.45930e-05;-0.00010003861685619525
1.45933e-05;-0.00013951038783367823
1.45935e-05;-0.00017898574662319745
1.45938e-05;-0.00021846110541298415
1.45940e-05;-0.00025674843861107715
1.45943e-05;-0.00029489653176454126
1.45945e-05;-0.00033103006519128613
1.45948e-05;-0.00036692748637621336
1.45950e-05;-0.00039986713296286455
1.45953e-05;-0.0004324601197894286
1.45955e-05;-0.00046224647772689
1.45958e-05;-0.000488693584942296
1.45960e-05;-0.0005147878756028134
1.45963e-05;-0.0005390084492244826
1.45965e-05;-0.0005630094177757458
1.45968e-05;-0.0005858832193299848
1.45970e-05;-0.0006086249136437692
1.45973e-05;-0.0006313666079575536
1.45975e-05;-0.0006516181059457609
1.45978e-05;-0.0006715777457036325
1.45980e-05;-0.0006915373854615042
1.45983e-05;-0.0007102978861427983
1.45985e-05;-0.000728917844247157
1.45988e-05;-0.0007475378023515158
1.45990e-05;-0.0007661577604557485
1.45993e-05;-0.0007842522225494742
1.45995e-05;-0.0008015421226669245
1.45998e-05;-0.0008188320227842577
1.46000e-05;-0.000836121922901708
1.46003e-05;-0.0008534118230191582
1.46005e-05;-0.0008696323856260288
1.46008e-05;-0.0008857276187758553
1.46010e-05;-0.0009018228519256818
1.46013e-05;-0.0009179180850753993
1.46015e-05;-0.0009340133182252258
1.46018e-05;-0.0009501085513750524
1.46020e-05;-0.0009662037845247698
1.46023e-05;-0.0009822990176745962
1.46025e-05;-0.0009983942508244228
1.46028e-05;-0.0010132938000270806
1.46030e-05;-0.0010263626943435719
1.46033e-05;-0.0010394315886600634
1.46035e-05;-0.0010525004829765546
1.46038e-05;-0.0010655693772929574
1.46040e-05;-0.0010786382716094487
1.46043e-05;-0.00109170716592594
1.46045e-05;-0.0011047760602423428
1.46048e-05;-0.001117844954558834
1.46050e-05;-0.0011309138488753254
1.46053e-05;-0.0011413070892891891
1.46055e-05;-0.0011513867353065916
1.46058e-05;-0.0011591733882073921
1.46060e-05;-0.0011666912956653883
1.46063e-05;-0.0011742092031234354
1.46065e-05;-0.0011768120181569028
1.46068e-05;-0.0011788387701047978
1.46070e-05;-0.0011808655220527067
1.46073e-05;-0.0011777566196429375
1.46075e-05;-0.0011740458036495062
1.46078e-05;-0.0011703349876560497
1.46080e-05;-0.0011612379103211803
1.46083e-05;-0.0011515095475374566
1.46085e-05;-0.001141781184753667
1.46088e-05;-0.0011263005667563092
1.46090e-05;-0.0011101457677669241
1.46093e-05;-0.0010939909687774296
1.46095e-05;-0.0010729476142636737
1.46098e-05;-0.0010513313068661366
1.46100e-05;-0.0010297149994684532
1.46103e-05;-0.001004318607880224
1.46105e-05;-0.0009784791794630143
1.46108e-05;-0.0009499374939737564
1.46110e-05;-0.0009210790961192643
1.46113e-05;-0.0008901319333414808
1.46115e-05;-0.0008589399612571373
1.46118e-05;-0.0008262466136744174
1.46120e-05;-0.000793377300529361
1.46123e-05;-0.0007596127577591162
1.46125e-05;-0.0007252783920800043
1.46128e-05;-0.0006905977197752031
1.46130e-05;-0.000655774995854504
1.46133e-05;-0.0006210158557706078
1.46135e-05;-0.0005865258950885129
1.46138e-05;-0.0005525072645846906
1.46140e-05;-0.0005191315453911133
1.46143e-05;-0.00048654039374497487
1.46145e-05;-0.000454904962311429
1.46148e-05;-0.00042507286340436853
1.46150e-05;-0.0003954401435886598
1.46153e-05;-0.0003679121186519192
1.46155e-05;-0.0003423028292321174
1.46158e-05;-0.0003187008618460701
1.46160e-05;-0.00029665751234598283
1.46163e-05;-0.00027504408050898485
1.46165e-05;-0.000252991006691071
1.46168e-05;-0.00023088266751051655
1.46170e-05;-0.00020868225891897385
1.46173e-05;-0.00018647105952547793
1.46175e-05;-0.0001642598601321325
1.46178e-05;-0.0001427400702973963
1.46180e-05;-0.00012130131566805257
1.46183e-05;-9.9493990326008e-05
1.46185e-05;-7.686628619568397e-05
1.46188e-05;-5.345920091805319e-05
1.46190e-05;-2.9449921991601124e-05
1.46193e-05;-5.024740440172518e-06
1.46195e-05;1.9630081170162795e-05
1.46198e-05;4.435281831880168e-05
1.46200e-05;6.922172862141495e-05
1.46203e-05;9.45818351866356e-05
1.46205e-05;0.0001208794690230634
1.46208e-05;0.00014728046312488942
1.46210e-05;0.00017444083502933956
1.46213e-05;0.00020169020821447745
1.46215e-05;0.0002289395813994307
1.46218e-05;0.0002561298630903122
1.46220e-05;0.0002833132190866974
1.46223e-05;0.0003105057188512234
1.46225e-05;0.00033779711037774094
1.46228e-05;0.0003650752446616954
1.46230e-05;0.00039217271200606287
1.46233e-05;0.0004189185274072795
1.46235e-05;0.0004451417840130931
1.46238e-05;0.00047068122286103234
1.46240e-05;0.0004954696632956002
1.46243e-05;0.0005195446788996114
1.46245e-05;0.0005428826055911119
1.46248e-05;0.0005653494548095472
1.46250e-05;0.0005867801787922905
1.46253e-05;0.0006070076971267165
1.46255e-05;0.0006258647454213092
1.46258e-05;0.0006432055526722373
1.46260e-05;0.000659098505079077
1.46263e-05;0.0006734688186964683
1.46265e-05;0.0006876783564633422
1.46268e-05;0.0007002108593877751
1.46270e-05;0.0007125468089651662
1.46273e-05;0.0007229267996903799
1.46275e-05;0.0007330775463655194
1.46278e-05;0.000740615806412741
1.46280e-05;0.0007478478754505956
1.46283e-05;0.0007550799444884013
1.46285e-05;0.0007600063077065835
1.46288e-05;0.0007646624355158201
1.46290e-05;0.0007693185633250565
1.46293e-05;0.0007708426185350899
1.46295e-05;0.000771999585753042
1.46298e-05;0.0007731565529709942
1.46300e-05;0.0007743135201889385
1.46303e-05;0.0007754704874068907
1.46305e-05;0.0007752839373621341
1.46308e-05;0.0007730403918631062
1.46310e-05;0.0007707968463640631
1.46313e-05;0.0007685533008650199
1.46315e-05;0.0007663097553659919
1.46318e-05;0.0007640662098669488
1.46320e-05;0.0007601490587347428
1.46323e-05;0.0007560357561686595
1.46325e-05;0.0007519224536025485
1.46328e-05;0.0007472606986077885
1.46330e-05;0.000742534663397827
1.46333e-05;0.0007378086281878335
1.46335e-05;0.0007327564218232366
1.46338e-05;0.0007276659872534056
1.46340e-05;0.0007225755526835401
1.46343e-05;0.0007176242110681073
1.46345e-05;0.0007126891715503606
1.46348e-05;0.0007077541320325804
1.46350e-05;0.0007032756470325396
1.46353e-05;0.0006988506715460974
1.46355e-05;0.0006949274831407039
1.46358e-05;0.0006910631056364893
1.46360e-05;0.0006872833145019536
1.46363e-05;0.0006835134371352319
1.46365e-05;0.0006788952212628926
1.46368e-05;0.0006741775776573794
1.46370e-05;0.000668467222999068
1.46373e-05;0.000662640519726308
1.46375e-05;0.0006568138164535481
1.46378e-05;0.0006499715209984077
1.46380e-05;0.0006430101951940152
1.46383e-05;0.0006360488693896226
1.46385e-05;0.0006266881857796534
1.46388e-05;0.0006170462904761507
1.46390e-05;0.000607404395172648
1.46393e-05;0.0005977624998692107
1.46395e-05;0.0005881206045657081
1.46398e-05;0.0005784787092622054
1.46400e-05;0.0005662857460141653
1.46403e-05;0.0005537937902042493
1.46405e-05;0.0005413018343943332
1.46408e-05;0.0005288098785845018
1.46410e-05;0.0005163179227745858
1.46413e-05;0.0005038259669646696
1.46415e-05;0.0004899081224653003
1.46418e-05;0.00047582315967599243
1.46420e-05;0.0004617381968866845
1.46423e-05;0.000447653234097472
1.46425e-05;0.00043356827130816404
1.46428e-05;0.00041950814572549186
1.46430e-05;0.0004054860472100655
1.46433e-05;0.00039146394869454414
1.46435e-05;0.00037744185017902273
1.46438e-05;0.0003634197516635963
1.46440e-05;0.00034939765314807495
