Time(s);Current(A)
7.50000e-07;-0.014147336872959842
7.50250e-07;-0.014155491533423175
7.50500e-07;-0.014163646193886508
7.50750e-07;-0.014171800854349841
7.51000e-07;-0.014178871022477836
7.51250e-07;-0.014182551376462071
7.51500e-07;-0.014186231730446308
7.51750e-07;-0.014189912084430545
7.52000e-07;-0.014193592438414782
7.52250e-07;-0.014197272792399018
7.52500e-07;-0.014200953146383253
7.52750e-07;-0.01420463350036749
7.53000e-07;-0.014208313854351727
7.53250e-07;-0.014211994208335963
7.53500e-07;-0.0142156745623202
7.53750e-07;-0.014219354916304437
7.54000e-07;-0.014221661564948182
7.54250e-07;-0.014219674401970724
7.54500e-07;-0.014217687238993268
7.54750e-07;-0.01421570007601581
7.55000e-07;-0.014213712913038353
7.55250e-07;-0.014211725750060897
7.55500e-07;-0.01420973858708344
7.55750e-07;-0.014207751424105982
7.56000e-07;-0.014205764261128526
7.56250e-07;-0.014203777098151068
7.56500e-07;-0.014201789935173612
7.56750e-07;-0.014199802772196155
7.57000e-07;-0.014197815609218699
7.57250e-07;-0.01419582844624124
7.57500e-07;-0.014193841283263784
7.57750e-07;-0.014191854120286328
7.58000e-07;-0.01418986695730887
7.58250e-07;-0.014187879794331414
7.58500e-07;-0.014185892631353957
7.58750e-07;-0.0141839054683765
7.59000e-07;-0.014181918305399043
7.59250e-07;-0.014179931142421586
7.59500e-07;-0.014177943979444128
7.59750e-07;-0.014175956816466672
7.60000e-07;-0.014173969653489216
7.60250e-07;-0.014171982490511758
7.60500e-07;-0.014169995327534301
7.60750e-07;-0.014168008164556845
7.61000e-07;-0.014166021001579389
7.61250e-07;-0.01416403383860193
7.61500e-07;-0.01416174953928457
7.61750e-07;-0.014158378536424567
7.62000e-07;-0.014154513858180772
7.62250e-07;-0.014150649179936976
7.62500e-07;-0.014145105788812326
7.62750e-07;-0.014134315219370667
7.63000e-07;-0.014123524649929008
7.63250e-07;-0.01411273408048735
7.63500e-07;-0.01410194351104569
7.63750e-07;-0.01409115294160403
7.64000e-07;-0.014080362372162376
7.64250e-07;-0.014066887865787378
7.64500e-07;-0.014045024137025705
7.64750e-07;-0.014023160408264032
7.65000e-07;-0.014001296679502359
7.65250e-07;-0.013979432950740694
7.65500e-07;-0.013957569221979022
7.65750e-07;-0.013935705493217349
7.66000e-07;-0.013911523316484898
7.66250e-07;-0.013880094331760339
7.66500e-07;-0.01384866534703578
7.66750e-07;-0.013817236362311233
7.67000e-07;-0.013785807377586674
7.67250e-07;-0.013754378392862114
7.67500e-07;-0.013722949408137555
7.67750e-07;-0.013687788898892262
7.68000e-07;-0.013651333494592306
7.68250e-07;-0.013614878090292368
7.68500e-07;-0.013578422685992412
7.68750e-07;-0.013541967281692458
7.69000e-07;-0.013505511877392502
7.69250e-07;-0.01346902705795105
7.69500e-07;-0.013432450295155617
7.69750e-07;-0.013395873532360169
7.70000e-07;-0.013359807459716133
7.70250e-07;-0.013325337659025322
7.70500e-07;-0.013290867858334512
7.70750e-07;-0.013257068644151642
7.71000e-07;-0.01322536549238917
7.71250e-07;-0.01319444112993965
7.71500e-07;-0.013165951041059588
7.71750e-07;-0.013138488276864544
7.72000e-07;-0.013114236637021557
7.72250e-07;-0.01309145984354851
7.72500e-07;-0.013073292999746773
7.72750e-07;-0.013056806760708813
7.73000e-07;-0.013045573613475088
7.73250e-07;-0.013036425778089175
7.73500e-07;-0.01303379603357932
7.73750e-07;-0.013031166289069465
7.74000e-07;-0.013032462884245127
7.74250e-07;-0.013046032098936846
7.74500e-07;-0.013059601313628563
7.74750e-07;-0.013073170528320282
7.75000e-07;-0.013086739743012001
7.75250e-07;-0.013100308957703713
7.75500e-07;-0.013118573895725873
7.75750e-07;-0.013151516327394315
7.76000e-07;-0.013184458759062755
7.76250e-07;-0.013217401190731195
7.76500e-07;-0.013250343622399623
7.76750e-07;-0.013283286054068063
7.77000e-07;-0.0133195831720715
7.77250e-07;-0.013366366084041568
7.77500e-07;-0.013413148996011634
7.77750e-07;-0.013459931907981702
7.78000e-07;-0.013506714819951748
7.78250e-07;-0.013553497731921814
7.78500e-07;-0.013600280643891882
7.78750e-07;-0.013650234091234057
7.79000e-07;-0.013701287761970516
7.79250e-07;-0.013752341432706974
7.79500e-07;-0.01380339510344341
7.79750e-07;-0.013854448774179868
7.80000e-07;-0.013905502444916326
7.80250e-07;-0.013955534631164111
7.80500e-07;-0.014002373947850106
7.80750e-07;-0.01404921326453608
7.81000e-07;-0.014092244113368355
7.81250e-07;-0.014123370776457152
7.81500e-07;-0.01415449743954595
7.81750e-07;-0.014185624102634747
7.82000e-07;-0.014216750765723546
7.82250e-07;-0.01424787742881233
7.82500e-07;-0.014279004091901129
7.82750e-07;-0.014310130754989926
7.83000e-07;-0.014341257418078724
7.83250e-07;-0.014372384081167523
7.83500e-07;-0.014386257469974503
7.83750e-07;-0.014394143713468434
7.84000e-07;-0.014402029956962367
7.84250e-07;-0.014409916200456301
7.84500e-07;-0.014417802443950235
7.84750e-07;-0.014425688687444168
7.85000e-07;-0.014433574930938099
7.85250e-07;-0.014441461174432032
7.85500e-07;-0.014449347417925966
7.85750e-07;-0.01445310196200891
7.86000e-07;-0.014443941990566422
7.86250e-07;-0.014434782019123935
7.86500e-07;-0.014425622047681452
7.86750e-07;-0.014416462076238963
7.87000e-07;-0.014407302104796476
7.87250e-07;-0.014398142133353989
7.87500e-07;-0.014388982161911501
7.87750e-07;-0.014379822190469018
7.88000e-07;-0.014368748454022749
7.88250e-07;-0.014351692833272957
7.88500e-07;-0.014334637212523165
7.88750e-07;-0.014317581591773374
7.89000e-07;-0.014300525971023582
7.89250e-07;-0.014283470350273797
7.89500e-07;-0.014266414729524007
7.89750e-07;-0.014249359108774215
7.90000e-07;-0.014232303488024423
7.90250e-07;-0.014215659406193298
7.90500e-07;-0.014200301677803166
7.90750e-07;-0.014184943949413041
7.91000e-07;-0.014169586221022908
7.91250e-07;-0.014154228492632776
7.91500e-07;-0.014138870764242644
7.91750e-07;-0.014123513035852511
7.92000e-07;-0.014108155307462386
7.92250e-07;-0.014092797579072253
7.92500e-07;-0.014081773285061583
7.92750e-07;-0.014072252757867054
7.93000e-07;-0.014062732230672526
7.93250e-07;-0.014053211703477998
7.93500e-07;-0.014043691176283474
7.93750e-07;-0.014034170649088946
7.94000e-07;-0.014024650121894418
7.94250e-07;-0.01401512959469989
7.94500e-07;-0.014006960988275308
7.94750e-07;-0.01400301810110959
7.95000e-07;-0.013999075213943874
7.95250e-07;-0.013995132326778159
7.95500e-07;-0.013991189439612441
7.95750e-07;-0.013987246552446726
7.96000e-07;-0.013983303665281008
7.96250e-07;-0.013979360778115292
7.96500e-07;-0.013975417890949577
7.96750e-07;-0.01397147500378386
7.97000e-07;-0.013967532116618143
7.97250e-07;-0.013963589229452426
7.97500e-07;-0.01395964634228671
7.97750e-07;-0.013955703455120995
7.98000e-07;-0.01395250530337528
7.98250e-07;-0.013951634982429302
7.98500e-07;-0.013950764661483324
7.98750e-07;-0.013949894340537346
7.99000e-07;-0.013949024019591368
7.99250e-07;-0.01394815369864539
7.99500e-07;-0.013947283377699411
7.99750e-07;-0.013946413056753433
8.00000e-07;-0.013945542735807455
8.00250e-07;-0.013944672414861477
8.00500e-07;-0.013943802093915499
8.00750e-07;-0.01394293177296952
8.01000e-07;-0.013942061452023542
8.01250e-07;-0.013941191131077564
8.01500e-07;-0.013940196166218844
8.01750e-07;-0.01393881159999125
8.02000e-07;-0.013937427033763656
8.02250e-07;-0.013935093999971851
8.02500e-07;-0.01392979632672658
8.02750e-07;-0.013924498653481308
8.03000e-07;-0.013917077261428167
8.03250e-07;-0.01390301772928098
8.03500e-07;-0.013888958197133797
8.03750e-07;-0.01387489866498661
8.04000e-07;-0.013860839132839422
8.04250e-07;-0.013846779600692234
8.04500e-07;-0.013832720068545046
8.04750e-07;-0.013809171586839966
8.05000e-07;-0.013782330297117965
8.05250e-07;-0.013755489007395963
8.05500e-07;-0.013728647717673962
8.05750e-07;-0.013701806427951959
8.06000e-07;-0.013674965138229958
8.06250e-07;-0.013645604585183777
8.06500e-07;-0.013608369532548504
8.06750e-07;-0.013571134479913233
8.07000e-07;-0.01353389942727796
8.07250e-07;-0.013496664374642687
8.07500e-07;-0.013459429322007431
8.07750e-07;-0.013420931502005046
8.08000e-07;-0.013378486630887376
8.08250e-07;-0.013336041759769704
8.08500e-07;-0.013293596888652032
8.08750e-07;-0.013251152017534362
8.09000e-07;-0.013208707146416707
8.09250e-07;-0.013166235901805878
8.09500e-07;-0.013123682221167407
8.09750e-07;-0.013081128540528933
8.10000e-07;-0.013039036414832056
8.10250e-07;-0.012998386978417814
8.10500e-07;-0.01295829296551213
8.10750e-07;-0.01291993504829273
8.11000e-07;-0.012884466481227264
8.11250e-07;-0.012858029199768797
8.11500e-07;-0.012831591918310332
8.11750e-07;-0.012805154636851876
8.12000e-07;-0.012778717355393411
8.12250e-07;-0.012752280073934946
8.12500e-07;-0.01272584279247648
8.12750e-07;-0.012699405511018013
8.13000e-07;-0.012672968229559548
8.13250e-07;-0.012646530948101094
8.13500e-07;-0.012620093666642627
8.13750e-07;-0.012593656385184162
8.14000e-07;-0.012567219103725696
8.14250e-07;-0.01254078182226723
8.14500e-07;-0.012522329462850593
8.14750e-07;-0.01250664799131294
8.15000e-07;-0.01249096651977528
8.15250e-07;-0.012475285048237618
8.15500e-07;-0.012459603576699957
8.15750e-07;-0.012443922105162297
8.16000e-07;-0.012428240633624642
8.16250e-07;-0.012412559162086981
8.16500e-07;-0.01239687769054932
8.16750e-07;-0.012381196219011658
8.17000e-07;-0.012365514747473999
8.17250e-07;-0.012349833275936337
8.17500e-07;-0.012334151804398683
8.17750e-07;-0.012319686798683034
8.18000e-07;-0.012309024118640833
8.18250e-07;-0.012298361438598634
8.18500e-07;-0.012287698758556433
8.18750e-07;-0.012277036078514231
8.19000e-07;-0.012266373398472035
8.19250e-07;-0.012255710718429834
8.19500e-07;-0.012245048038387633
8.19750e-07;-0.012234385358345432
8.20000e-07;-0.01222372267830323
8.20250e-07;-0.012213059998261035
8.20500e-07;-0.012202397318218833
8.20750e-07;-0.012191734638176632
8.21000e-07;-0.012181071958134433
8.21250e-07;-0.012170409278092232
8.21500e-07;-0.01216308452126345
8.21750e-07;-0.012156918073924066
8.22000e-07;-0.01215075162658468
8.22250e-07;-0.012144585179245293
8.22500e-07;-0.012138418731905905
8.22750e-07;-0.01213225228456652
8.23000e-07;-0.012126085837227131
8.23250e-07;-0.012119919389887747
8.23500e-07;-0.01211375294254836
8.23750e-07;-0.012107586495208975
8.24000e-07;-0.012101420047869587
8.24250e-07;-0.0120952536005302
8.24500e-07;-0.012089087153190816
8.24750e-07;-0.01208292070585143
8.25000e-07;-0.012077444932309462
8.25250e-07;-0.012074128008333516
8.25500e-07;-0.012070811084357572
8.25750e-07;-0.012067494160381628
8.26000e-07;-0.012064177236405684
8.26250e-07;-0.01206086031242974
8.26500e-07;-0.012057543388453796
8.26750e-07;-0.012054226464477851
8.27000e-07;-0.012050909540501906
8.27250e-07;-0.012047592616525963
8.27500e-07;-0.01204427569255002
8.27750e-07;-0.012040958768574073
8.28000e-07;-0.01203764184459813
8.28250e-07;-0.01203515996264943
8.28500e-07;-0.012032967852826204
8.28750e-07;-0.012030775743002979
8.29000e-07;-0.012028583633179752
8.29250e-07;-0.012026391523356526
8.29500e-07;-0.012024199413533299
8.29750e-07;-0.01202200730371007
8.30000e-07;-0.012019815193886844
8.30250e-07;-0.012017623084063619
8.30500e-07;-0.012015430974240392
8.30750e-07;-0.012013238864417165
8.31000e-07;-0.012011046754593937
8.31250e-07;-0.012008873439552795
8.31500e-07;-0.012006758871647132
8.31750e-07;-0.012005324174976363
8.32000e-07;-0.012006014562138087
8.32250e-07;-0.01200670494929981
8.32500e-07;-0.012007395336461535
8.32750e-07;-0.012008085723623258
8.33000e-07;-0.01200877611078498
8.33250e-07;-0.01201299728534319
8.33500e-07;-0.012022637064930728
8.33750e-07;-0.012032276844518266
8.34000e-07;-0.012041916624105803
8.34250e-07;-0.012051556403693342
8.34500e-07;-0.012061196183280876
8.34750e-07;-0.012076634394909608
8.35000e-07;-0.012096880917840436
8.35250e-07;-0.012117127440771265
8.35500e-07;-0.012137373963702094
8.35750e-07;-0.012157620486632914
8.36000e-07;-0.01217786700956374
8.36250e-07;-0.012200445563902465
8.36500e-07;-0.012230207926008348
8.36750e-07;-0.012259970288114232
8.37000e-07;-0.012289732650220117
8.37250e-07;-0.012319495012325987
8.37500e-07;-0.012349257374431872
8.37750e-07;-0.012379019736537756
8.38000e-07;-0.012412937121152007
8.38250e-07;-0.012447103496948008
8.38500e-07;-0.012481269872744009
8.38750e-07;-0.012515436248539995
8.39000e-07;-0.012549602624335998
8.39250e-07;-0.012583769000131998
8.39500e-07;-0.012617935375927999
8.39750e-07;-0.01265047951610391
8.40000e-07;-0.01268098778100315
8.40250e-07;-0.012711496045902404
8.40500e-07;-0.012742004310801656
8.40750e-07;-0.01277251257570091
8.41000e-07;-0.012803020840600162
8.41250e-07;-0.012833529105499416
8.41500e-07;-0.012864037370398656
8.41750e-07;-0.012886194188072443
8.42000e-07;-0.012907850542340836
8.42250e-07;-0.012929506896609228
8.42500e-07;-0.012939881110869593
8.42750e-07;-0.01294957923893123
8.43000e-07;-0.01295927736699286
8.43250e-07;-0.012968975495054496
8.43500e-07;-0.012978673623116131
8.43750e-07;-0.012988371751177766
8.44000e-07;-0.012998069879239401
8.44250e-07;-0.012991948216113377
8.44500e-07;-0.01298487854644947
8.44750e-07;-0.012977808876785565
8.45000e-07;-0.012970739207121659
8.45250e-07;-0.012963669537457752
8.45500e-07;-0.012956599867793846
8.45750e-07;-0.012949530198129944
8.46000e-07;-0.012929542282741728
8.46250e-07;-0.012908780236945628
8.46500e-07;-0.012888018191149528
8.46750e-07;-0.012867256145353428
8.47000e-07;-0.012846494099557336
8.47250e-07;-0.012825732053761236
8.47500e-07;-0.012801456400318038
8.47750e-07;-0.012772771235178691
8.48000e-07;-0.012744086070039346
8.48250e-07;-0.0127154009049
8.48500e-07;-0.012686715739760665
8.48750e-07;-0.01265803057462132
8.49000e-07;-0.012629345409481975
8.49250e-07;-0.01259883829228068
8.49500e-07;-0.01256822199396277
8.49750e-07;-0.012537605695644861
8.50000e-07;-0.0125076943820177
8.50250e-07;-0.012477825314845491
8.50500e-07;-0.012447956247673283
8.50750e-07;-0.012420507911065647
8.51000e-07;-0.012393204637586504
8.51250e-07;-0.012365901364107371
8.51500e-07;-0.012342576699701327
8.51750e-07;-0.012319490454840043
8.52000e-07;-0.012296404209978759
8.52250e-07;-0.01227527680916053
8.52500e-07;-0.012254266792758923
8.52750e-07;-0.012233256776357322
8.53000e-07;-0.012210971519680074
8.53250e-07;-0.01218860984378184
8.53500e-07;-0.012166248167883607
8.53750e-07;-0.012142565560969496
8.54000e-07;-0.012118803796800756
8.54250e-07;-0.012095042032632028
8.54500e-07;-0.012071280268463288
8.54750e-07;-0.012047518504294549
8.55000e-07;-0.01202375674012581
8.55250e-07;-0.01199617130535568
8.55500e-07;-0.011968356735783085
8.55750e-07;-0.011940542166210478
8.56000e-07;-0.011912727596637869
8.56250e-07;-0.011884913027065262
8.56500e-07;-0.011857098457492655
8.56750e-07;-0.011826091953042963
8.57000e-07;-0.011794894170775753
8.57250e-07;-0.011763696388508531
8.57500e-07;-0.011732498606241308
8.57750e-07;-0.011701300823974086
8.58000e-07;-0.011669707756658735
8.58250e-07;-0.011637618614021916
8.58500e-07;-0.011605529471385108
8.58750e-07;-0.011573440328748288
8.59000e-07;-0.011541351186111467
8.59250e-07;-0.011509262043474647
8.59500e-07;-0.011477919289433614
8.59750e-07;-0.0114466212629911
8.60000e-07;-0.011416650025351655
8.60250e-07;-0.011386758295996797
8.60500e-07;-0.011358357666376266
8.60750e-07;-0.01133004639143053
8.61000e-07;-0.01130310935336428
8.61250e-07;-0.011277403086107791
8.61500e-07;-0.011253095063081104
8.61750e-07;-0.011230361320709134
8.62000e-07;-0.011209531593218256
8.62250e-07;-0.011191532710972162
8.62500e-07;-0.011177563970572436
8.62750e-07;-0.011168161432242961
8.63000e-07;-0.011163285450731784
8.63250e-07;-0.0111628291674774
8.63500e-07;-0.011166688889747072
8.63750e-07;-0.01117672638189932
8.64000e-07;-0.011187119476170737
8.64250e-07;-0.011206196886425776
8.64500e-07;-0.01122579470736341
8.64750e-07;-0.011257237852707899
8.65000e-07;-0.011289390833273924
8.65250e-07;-0.011321543813839948
8.65500e-07;-0.01136970911432257
8.65750e-07;-0.011418833958694842
8.66000e-07;-0.011467958803067115
8.66250e-07;-0.011517083647439388
8.66500e-07;-0.011566208491811659
8.66750e-07;-0.011631659164871997
8.67000e-07;-0.01169808816894514
8.67250e-07;-0.011764517173018282
8.67500e-07;-0.011830946177091425
8.67750e-07;-0.011897375181164568
8.68000e-07;-0.011971817696718961
8.68250e-07;-0.012046740424760737
8.68500e-07;-0.012121663152802544
8.68750e-07;-0.012199414020509374
8.69000e-07;-0.01227733436547801
8.69250e-07;-0.012355254710446647
8.69500e-07;-0.012432206470300099
8.69750e-07;-0.01250910018735062
8.70000e-07;-0.012585993904401172
8.70250e-07;-0.012659355375764054
8.70500e-07;-0.012732505176064652
8.70750e-07;-0.012801106990375354
8.71000e-07;-0.012869436265029715
8.71250e-07;-0.01292926559755294
8.71500e-07;-0.012988585568061357
8.71750e-07;-0.013047905538569774
8.72000e-07;-0.01309386067466907
8.72250e-07;-0.013139014918376726
8.72500e-07;-0.013184169162084364
8.72750e-07;-0.013215636100196994
8.73000e-07;-0.013246282821719007
8.73250e-07;-0.01327692954324102
8.73500e-07;-0.013292964893235618
8.73750e-07;-0.01330812465166435
8.74000e-07;-0.013323284410093077
8.74250e-07;-0.01331701213601169
8.74500e-07;-0.013309455539861688
8.74750e-07;-0.013301898943711688
8.75000e-07;-0.013294342347561687
8.75250e-07;-0.013286785751411689
8.75500e-07;-0.013279229155261689
8.75750e-07;-0.013247353662619782
8.76000e-07;-0.013214020851572148
8.76250e-07;-0.013180688040524514
8.76500e-07;-0.013147355229476881
8.76750e-07;-0.013114022418429261
8.77000e-07;-0.013080689607381629
8.77250e-07;-0.013031541503090252
8.77500e-07;-0.012981445661801686
8.77750e-07;-0.01293134982051312
8.78000e-07;-0.012881253979224553
8.78250e-07;-0.012831158137936009
8.78500e-07;-0.01277397882604156
8.78750e-07;-0.012716375034685473
8.79000e-07;-0.012658771243329387
8.79250e-07;-0.0126011674519733
8.79500e-07;-0.012543563660617239
8.79750e-07;-0.012485399366891957
8.80000e-07;-0.012427201484865523
8.80250e-07;-0.012370039113173146
8.80500e-07;-0.012314157507429946
8.80750e-07;-0.01225995250271744
8.81000e-07;-0.012207803022276637
8.81250e-07;-0.012158081858409808
8.81500e-07;-0.012111165054819146
8.81750e-07;-0.01206742535115247
8.82000e-07;-0.01202724318445236
8.82250e-07;-0.011992976029501197
8.82500e-07;-0.011959051207736967
8.82750e-07;-0.01193327822909891
8.83000e-07;-0.011907993752520675
8.83250e-07;-0.011891106706797397
8.83500e-07;-0.011874722880064761
8.83750e-07;-0.011869144913398492
8.84000e-07;-0.011864214491688478
8.84250e-07;-0.011859284069978463
8.84500e-07;-0.011872478493938089
8.84750e-07;-0.011886759055634489
8.85000e-07;-0.011901039617330888
8.85250e-07;-0.011915320179027283
8.85500e-07;-0.011929600740723682
8.85750e-07;-0.011953360934729092
8.86000e-07;-0.011989017889483573
8.86250e-07;-0.012024674844238054
8.86500e-07;-0.01206033179899252
8.86750e-07;-0.012095988753747003
8.87000e-07;-0.012131645708501483
8.87250e-07;-0.012181845618491333
8.87500e-07;-0.01223291702017681
8.87750e-07;-0.012283988421862286
8.88000e-07;-0.01233505982354774
8.88250e-07;-0.012386131225233216
8.88500e-07;-0.012437202626918692
8.88750e-07;-0.012493827796657999
8.89000e-07;-0.012550785777896763
8.89250e-07;-0.012607743759135525
8.89500e-07;-0.012664701740374264
8.89750e-07;-0.012721659721613026
8.90000e-07;-0.012778617702851788
8.90250e-07;-0.012832571957253928
8.90500e-07;-0.012886346212271367
8.90750e-07;-0.012940120467288785
8.91000e-07;-0.012987674338067896
8.91250e-07;-0.013034855450138775
8.91500e-07;-0.013082036562209654
8.91750e-07;-0.013119807432016985
8.92000e-07;-0.01315701438975459
8.92250e-07;-0.013194221347492178
8.92500e-07;-0.013213988291941413
8.92750e-07;-0.01323271013747458
8.93000e-07;-0.013251431983007747
8.93250e-07;-0.013270153828540913
8.93500e-07;-0.01328887567407408
8.93750e-07;-0.013307597519607238
8.94000e-07;-0.013326319365140405
8.94250e-07;-0.013320498379345036
8.94500e-07;-0.013313206655770125
8.94750e-07;-0.013305914932195215
8.95000e-07;-0.013298623208620308
8.95250e-07;-0.013291331485045396
8.95500e-07;-0.013284039761470485
8.95750e-07;-0.013276748037895575
8.96000e-07;-0.013249769186268695
8.96250e-07;-0.013221610576584998
8.96500e-07;-0.013193451966901314
8.96750e-07;-0.013165293357217618
8.97000e-07;-0.013137134747533922
8.97250e-07;-0.013108976137850226
8.97500e-07;-0.01307540440696379
