Time(s);Current(A)
1.30000e-05;-0.01071868920925016
1.30003e-05;-0.010700026690174506
1.30005e-05;-0.01068090059848058
1.30008e-05;-0.010659166746885222
1.30010e-05;-0.010637432895289862
1.30013e-05;-0.010615699043694651
1.30015e-05;-0.010593965192099293
1.30018e-05;-0.010572231340503934
1.30020e-05;-0.010550100435305843
1.30023e-05;-0.010527756609756956
1.30025e-05;-0.010505674069672883
1.30028e-05;-0.010483731644153805
1.30030e-05;-0.010462324217295123
1.30033e-05;-0.010441203683947993
1.30035e-05;-0.010420899440341993
1.30038e-05;-0.010401032932841583
1.30040e-05;-0.010381990596082257
1.30043e-05;-0.01036405404432277
1.30045e-05;-0.010347223981783447
1.30048e-05;-0.010331670567669968
1.30050e-05;-0.010317682001173488
1.30053e-05;-0.010305593084048353
1.30055e-05;-0.010296285218445791
1.30058e-05;-0.010288091442434324
1.30060e-05;-0.010282641466918697
1.30063e-05;-0.010278662856879926
1.30065e-05;-0.010277405616798244
1.30068e-05;-0.010277607713796936
1.30070e-05;-0.010281454672302725
1.30073e-05;-0.01028725619106089
1.30075e-05;-0.010293057709819014
1.30078e-05;-0.010304725962622554
1.30080e-05;-0.010319540256819896
1.30083e-05;-0.010334354551017139
1.30085e-05;-0.01034916884521448
1.30088e-05;-0.010363983139411823
1.30090e-05;-0.010380223856114158
1.30093e-05;-0.010404488703804567
1.30095e-05;-0.010428753551494975
1.30098e-05;-0.01045301839918522
1.30100e-05;-0.010477283246875628
1.30103e-05;-0.010501548094566038
1.30105e-05;-0.01052960682631056
1.30108e-05;-0.010559700031782394
1.30110e-05;-0.010589793237254227
1.30113e-05;-0.010619886442725858
1.30115e-05;-0.01064997964819769
1.30118e-05;-0.010680072853669524
1.30120e-05;-0.010710432497567547
1.30123e-05;-0.010740935019310923
1.30125e-05;-0.0107714375410543
1.30128e-05;-0.01080194006279747
1.30130e-05;-0.010832442584540847
1.30133e-05;-0.010862945106284225
1.30135e-05;-0.010890355345873598
1.30138e-05;-0.01091610734638429
1.30140e-05;-0.010941859346894983
1.30143e-05;-0.010967611347405676
1.30145e-05;-0.010989495444002803
1.30148e-05;-0.011009305373656806
1.30150e-05;-0.011029115303310808
1.30153e-05;-0.011048925232964675
1.30155e-05;-0.011067938802714571
1.30158e-05;-0.011086525323751494
1.30160e-05;-0.01110511184478829
1.30163e-05;-0.011123698365825213
1.30165e-05;-0.011142284886862136
1.30168e-05;-0.011160871407898934
1.30170e-05;-0.011179457928935857
1.30173e-05;-0.01119804444997278
1.30175e-05;-0.011217377468432273
1.30178e-05;-0.011237110796804513
1.30180e-05;-0.011256844125176753
1.30183e-05;-0.01127657745354886
1.30185e-05;-0.0112963107819211
1.30188e-05;-0.01131604411029334
1.30190e-05;-0.011335777438665446
1.30193e-05;-0.011355510767037686
1.30195e-05;-0.01137654683185814
1.30198e-05;-0.011398281490267559
1.30200e-05;-0.011420016148677128
1.30203e-05;-0.011441750807086695
1.30205e-05;-0.011463485465496115
1.30208e-05;-0.011485220123905682
1.30210e-05;-0.011506954782315249
1.30213e-05;-0.01152868944072467
1.30215e-05;-0.01155015160931345
1.30218e-05;-0.011570080926303966
1.30220e-05;-0.011590010243294348
1.30223e-05;-0.011609939560284863
1.30225e-05;-0.011629868877275379
1.30228e-05;-0.011649798194265894
1.30230e-05;-0.011669727511256275
1.30233e-05;-0.01168965682824679
1.30235e-05;-0.011709586145237306
1.30238e-05;-0.011724332247200705
1.30240e-05;-0.011736298845455368
1.30243e-05;-0.011748265443710031
1.30245e-05;-0.011760232041964613
1.30248e-05;-0.011772198640219276
1.30250e-05;-0.01178416523847394
1.30253e-05;-0.011796131836728521
1.30255e-05;-0.011808098434983184
1.30258e-05;-0.011820065033237846
1.30260e-05;-0.01183203163149243
1.30263e-05;-0.01184399822974709
1.30265e-05;-0.011855964828001754
1.30268e-05;-0.011867931426256336
1.30270e-05;-0.011879315525372258
1.30273e-05;-0.011887422860851428
1.30275e-05;-0.011895530196330545
1.30278e-05;-0.011903637531809716
1.30280e-05;-0.011911744867288888
1.30283e-05;-0.011919852202768004
1.30285e-05;-0.011927959538247174
1.30288e-05;-0.011936066873726347
1.30290e-05;-0.011944174209205462
1.30293e-05;-0.011952281544684635
1.30295e-05;-0.011960388880163805
1.30298e-05;-0.01196849621564292
1.30300e-05;-0.011976603551122093
1.30303e-05;-0.011984710886601264
1.30305e-05;-0.011992151996909863
1.30308e-05;-0.01199923584337296
1.30310e-05;-0.012006319689836058
1.30313e-05;-0.012013403536299155
1.30315e-05;-0.012020487382762205
1.30318e-05;-0.012027571229225303
1.30320e-05;-0.0120346550756884
1.30323e-05;-0.01204173892215145
1.30325e-05;-0.012048822768614548
1.30328e-05;-0.01205442303364933
1.30330e-05;-0.012059227726811738
1.30333e-05;-0.01206403241997418
1.30335e-05;-0.01206883711313662
1.30338e-05;-0.01207364180629903
1.30340e-05;-0.012078446499461472
1.30343e-05;-0.012083251192623913
1.30345e-05;-0.012088055885786321
1.30348e-05;-0.012092860578948763
1.30350e-05;-0.01209319506108257
1.30353e-05;-0.012091132388540383
1.30355e-05;-0.01208906971599818
1.30358e-05;-0.012087007043455977
1.30360e-05;-0.012084944370913788
1.30363e-05;-0.012082881698371586
1.30365e-05;-0.012080819025829383
1.30368e-05;-0.012078756353287194
1.30370e-05;-0.012076693680744991
1.30373e-05;-0.012068237159561183
1.30375e-05;-0.01205635193130486
1.30378e-05;-0.012044466703048458
1.30380e-05;-0.012032581474792055
1.30383e-05;-0.012020696246535734
1.30385e-05;-0.01200881101827933
1.30388e-05;-0.01199692579002293
1.30390e-05;-0.011985040561766606
1.30393e-05;-0.011973155333510205
1.30395e-05;-0.011957108294231387
1.30398e-05;-0.011938829480056475
1.30400e-05;-0.011920550665881687
1.30403e-05;-0.011902271851706775
1.30405e-05;-0.011883993037531862
1.30408e-05;-0.01186536855020396
1.30410e-05;-0.01184479952915238
1.30413e-05;-0.011824230508100799
1.30415e-05;-0.01180366148704936
1.30418e-05;-0.011783092465997779
1.30420e-05;-0.011762523444946198
1.30423e-05;-0.011741791843822865
1.30425e-05;-0.01172262704798962
1.30428e-05;-0.01170434920524207
1.30430e-05;-0.011686071362494643
1.30433e-05;-0.011667793519747092
1.30435e-05;-0.01164951567699954
1.30438e-05;-0.011631237834252114
1.30440e-05;-0.011612959991504563
1.30443e-05;-0.011594682148757012
1.30445e-05;-0.011576404306009586
1.30448e-05;-0.011559962833475712
1.30450e-05;-0.011553851592775036
1.30453e-05;-0.011547740352074402
1.30455e-05;-0.011541629111373726
1.30458e-05;-0.011535517870673051
1.30460e-05;-0.011529406629972415
1.30463e-05;-0.011523295389271741
1.30465e-05;-0.011517184148571065
1.30468e-05;-0.01151107290787043
1.30470e-05;-0.011504961667169755
1.30473e-05;-0.0115089660910539
1.30475e-05;-0.011518395049151937
1.30478e-05;-0.01152782400725004
1.30480e-05;-0.011537252965348141
1.30482e-05;-0.01154668192344618
1.30485e-05;-0.011556110881544282
1.30488e-05;-0.011565539839642385
1.30490e-05;-0.011576587970830172
1.30493e-05;-0.011596744523224284
1.30495e-05;-0.011616901075618535
1.30498e-05;-0.011637057628012783
1.30500e-05;-0.011657214180406897
1.30503e-05;-0.011677370732801146
1.30505e-05;-0.011697527285195394
1.30508e-05;-0.011717683837589508
1.30510e-05;-0.011740866810214278
1.30513e-05;-0.011765672703404484
1.30515e-05;-0.01179047859659452
1.30518e-05;-0.011815284489784725
1.30520e-05;-0.01184009038297493
1.30523e-05;-0.011864896276164967
1.30525e-05;-0.011889702169355173
1.30528e-05;-0.011914508062545378
1.30530e-05;-0.011936421249806576
1.30533e-05;-0.011956783220916681
1.30535e-05;-0.011977145192026787
1.30538e-05;-0.011997507163136755
1.30540e-05;-0.01201786913424686
1.30543e-05;-0.012038231105356966
1.30545e-05;-0.012058593076466933
1.30548e-05;-0.012078955047577038
1.30550e-05;-0.012092948371488705
1.30553e-05;-0.012103526502622494
1.30555e-05;-0.012114104633756353
1.30558e-05;-0.012124682764890213
1.30560e-05;-0.012135260896024002
1.30563e-05;-0.012145839027157861
1.30565e-05;-0.012156417158291721
1.30567e-05;-0.01216699528942551
1.30570e-05;-0.01217757342055937
1.30573e-05;-0.012188151551693229
1.30575e-05;-0.012198729682827088
1.30578e-05;-0.012209307813960877
1.30580e-05;-0.012219885945094737
1.30583e-05;-0.012230464076228596
1.30585e-05;-0.012241042207362385
1.30588e-05;-0.012251620338496244
1.30590e-05;-0.012261429912337798
1.30593e-05;-0.012266916079627755
1.30595e-05;-0.01227240224691775
1.30598e-05;-0.012277888414207743
1.30600e-05;-0.0122833745814977
1.30603e-05;-0.012288860748787694
1.30605e-05;-0.012294346916077689
1.30608e-05;-0.012299833083367646
1.30610e-05;-0.012305319250657639
1.30613e-05;-0.012310805417947632
1.30615e-05;-0.01231629158523759
1.30618e-05;-0.012321777752527584
1.30620e-05;-0.012327263919817578
1.30623e-05;-0.012332750087107535
1.30625e-05;-0.012338236254397528
1.30628e-05;-0.012343722421687523
1.30630e-05;-0.012349208588977478
1.30633e-05;-0.012353250879893755
1.30635e-05;-0.012356518890808086
1.30638e-05;-0.012359786901722394
1.30640e-05;-0.012363054912636727
1.30643e-05;-0.012365100459190441
1.30645e-05;-0.012366490458133048
1.30648e-05;-0.012367880457075663
1.30650e-05;-0.01236927045601828
1.30652e-05;-0.012365321279474699
1.30655e-05;-0.01235850896528223
1.30658e-05;-0.01235169665108976
1.30660e-05;-0.012338727861286017
1.30663e-05;-0.012322457655907594
1.30665e-05;-0.012306187450529062
1.30668e-05;-0.012280724251433494
1.30670e-05;-0.012250331301202321
1.30673e-05;-0.012219938350970943
1.30675e-05;-0.012189545400739564
1.30678e-05;-0.01215915245050839
1.30680e-05;-0.012125978780202221
1.30683e-05;-0.012077162576131176
1.30685e-05;-0.012028346372060463
1.30688e-05;-0.011979530167989418
1.30690e-05;-0.011930713963918373
1.30693e-05;-0.011881897759847658
1.30695e-05;-0.011824339573263407
1.30698e-05;-0.011762093490705835
1.30700e-05;-0.011699847408148684
1.30703e-05;-0.011637601325591112
1.30705e-05;-0.011574351920495987
1.30708e-05;-0.01150545847132242
1.30710e-05;-0.011436565022148387
1.30713e-05;-0.011367671572974353
1.30715e-05;-0.011298778123800786
1.30718e-05;-0.011228659650625186
1.30720e-05;-0.01115788425722857
1.30723e-05;-0.011087442593874812
1.30725e-05;-0.01101775884394693
1.30728e-05;-0.010949202755772911
1.30730e-05;-0.010882064560277984
1.30733e-05;-0.010816575664987945
1.30735e-05;-0.010753045628138579
1.30737e-05;-0.010691884494584691
1.30740e-05;-0.010639893875071088
1.30743e-05;-0.010592348864226222
1.30745e-05;-0.010544803853381355
1.30748e-05;-0.01049725884253681
1.30750e-05;-0.010449713831691944
1.30753e-05;-0.010402168820847078
1.30755e-05;-0.010354623810002532
1.30758e-05;-0.010309070537618774
1.30760e-05;-0.010274721498421806
1.30763e-05;-0.01024037245922507
1.30765e-05;-0.010206023420028102
1.30768e-05;-0.010171674380831134
1.30770e-05;-0.0101373253416344
1.30773e-05;-0.010102976302437432
1.30775e-05;-0.010068627263240464
1.30778e-05;-0.010037985651672764
1.30780e-05;-0.010009332151500955
1.30783e-05;-0.009980678651329147
1.30785e-05;-0.009952025151157532
1.30788e-05;-0.009923371650985724
1.30790e-05;-0.009894718150813917
1.30793e-05;-0.009866605021384018
1.30795e-05;-0.009841531668469428
1.30798e-05;-0.009816458315554838
1.30800e-05;-0.009791384962640417
1.30803e-05;-0.009766311609725827
1.30805e-05;-0.009741238256811238
1.30808e-05;-0.009716164903896818
1.30810e-05;-0.009692640252994307
1.30813e-05;-0.009669946094936935
1.30815e-05;-0.009647251936879717
1.30818e-05;-0.00962526929167676
1.30820e-05;-0.009603668195881128
1.30822e-05;-0.009582067100085643
1.30825e-05;-0.009561589349918426
1.30828e-05;-0.009541713994853557
1.30830e-05;-0.009522748289068472
1.30833e-05;-0.009504270383526938
1.30835e-05;-0.009486538748070851
1.30838e-05;-0.009469207300618544
1.30840e-05;-0.009452591508597718
1.30843e-05;-0.009436935406682183
1.30845e-05;-0.009422238627598011
1.30848e-05;-0.00940864785425311
1.30850e-05;-0.009396403990729009
1.30853e-05;-0.009385786196612032
1.30855e-05;-0.009376953791028103
1.30858e-05;-0.009370521027515953
1.30860e-05;-0.009365034606228874
1.30863e-05;-0.009361879445391862
1.30865e-05;-0.00935997442506548
1.30868e-05;-0.009361076814581589
1.30870e-05;-0.009363791930327438
1.30873e-05;-0.009366507046073306
1.30875e-05;-0.00937410769481415
1.30878e-05;-0.009384328215012425
1.30880e-05;-0.009394548735210772
1.30883e-05;-0.009404769255409116
1.30885e-05;-0.009414989775607393
1.30888e-05;-0.009430359862511372
1.30890e-05;-0.009448491409187555
1.30893e-05;-0.009466622955863617
1.30895e-05;-0.0094847545025398
1.30898e-05;-0.009502886049215982
1.30900e-05;-0.009524919640698584
1.30903e-05;-0.009549045707214427
1.30905e-05;-0.009573171773730271
1.30907e-05;-0.00959729784024595
1.30910e-05;-0.009621423906761793
1.30913e-05;-0.009645549973277635
1.30915e-05;-0.00967105268884781
1.30918e-05;-0.009697293633709997
1.30920e-05;-0.009723534578572363
1.30923e-05;-0.009749775523434728
1.30925e-05;-0.009776016468296917
1.30928e-05;-0.009802257413159283
1.30930e-05;-0.00982731075193106
1.30933e-05;-0.009851727235869589
1.30935e-05;-0.009876143719808283
1.30938e-05;-0.009898929139843611
1.30940e-05;-0.009920839900395155
1.30943e-05;-0.00994088347015617
1.30945e-05;-0.009959925757178046
1.30948e-05;-0.009975931737357259
1.30950e-05;-0.009990309495264173
1.30953e-05;-0.010004687253171086
1.30955e-05;-0.010014840997106412
1.30958e-05;-0.010022729609754281
1.30960e-05;-0.01003061822240215
1.30963e-05;-0.010034085391922345
1.30965e-05;-0.01003518155859267
1.30968e-05;-0.010036277725262995
1.30970e-05;-0.010031379603264584
1.30973e-05;-0.010023267038581612
1.30975e-05;-0.010015154473898641
1.30978e-05;-0.010007041909215725
1.30980e-05;-0.009998929344532753
1.30983e-05;-0.009984109927526729
1.30985e-05;-0.009965693954936383
1.30988e-05;-0.009947277982345912
1.30990e-05;-0.00992886200975544
1.30992e-05;-0.009910446037165094
1.30995e-05;-0.009887018422106979
1.30998e-05;-0.009860903309272473
1.31000e-05;-0.009834788196437967
1.31003e-05;-0.009808673083603637
1.31005e-05;-0.009781874115824657
1.31008e-05;-0.009751228222144932
1.31010e-05;-0.009720582328465415
1.31013e-05;-0.00968993643478569
1.31015e-05;-0.009659290541105965
1.31018e-05;-0.009627728498005727
1.31020e-05;-0.009595584840569538
1.31023e-05;-0.00956341638745565
1.31025e-05;-0.009531398227308306
1.31028e-05;-0.009499705448771096
1.31030e-05;-0.009468513746719046
1.31033e-05;-0.009438002778503615
1.31035e-05;-0.009408364457949635
1.31038e-05;-0.009379797437904687
1.31040e-05;-0.00935250102139992
1.31043e-05;-0.009326675117696701
1.31045e-05;-0.00930251935491799
1.31048e-05;-0.00928025971024905
1.31050e-05;-0.0092601904194529
1.31053e-05;-0.009242609796001269
1.31055e-05;-0.00922768642829307
1.31058e-05;-0.009215464045331656
1.31060e-05;-0.009205952285434651
1.31063e-05;-0.009199159855597135
1.31065e-05;-0.00919599660288626
1.31068e-05;-0.009194269930832917
1.31070e-05;-0.009196249450629431
1.31073e-05;-0.00920021641913602
1.31075e-05;-0.009208766795425549
1.31077e-05;-0.009219775028257453
1.31080e-05;-0.009230783261089432
1.31083e-05;-0.009248249306641046
1.31085e-05;-0.009269178360066835
1.31088e-05;-0.009290107413492482
1.31090e-05;-0.009311036466918271
1.31093e-05;-0.00933196552034406
1.31095e-05;-0.009359328500996644
1.31098e-05;-0.009390141680906827
1.31100e-05;-0.009420954860817008
1.31103e-05;-0.009451768040726984
1.31105e-05;-0.009482581220637167
1.31108e-05;-0.009516678918476936
1.31110e-05;-0.00955253794200797
1.31113e-05;-0.009588396965539248
1.31115e-05;-0.009625400956929663
1.31118e-05;-0.009663018938363277
1.31120e-05;-0.009700636919797145
1.31123e-05;-0.009738072829921259
1.31125e-05;-0.00977541110414163
1.31128e-05;-0.009812749378362257
1.31130e-05;-0.009848960568531663
1.31133e-05;-0.009884567358865408
1.31135e-05;-0.009915080220816084
1.31138e-05;-0.009942861459093011
1.31140e-05;-0.009970356565026551
1.31143e-05;-0.009997011043338604
1.31145e-05;-0.010023665521650656
1.31148e-05;-0.010049468717685583
1.31150e-05;-0.010075129809643453
1.31153e-05;-0.01010098563999629
1.31155e-05;-0.010127132155698992
1.31158e-05;-0.010153278671401872
1.31160e-05;-0.010181952539620228
1.31162e-05;-0.01021077238760921
1.31165e-05;-0.01023959223559839
1.31168e-05;-0.010268412083587568
1.31170e-05;-0.010297231931576747
1.31173e-05;-0.010326051779565729
1.31175e-05;-0.010360792626285453
1.31178e-05;-0.01039739714153083
1.31180e-05;-0.010434001656775958
1.31183e-05;-0.010470606172021335
1.31185e-05;-0.010507210687266712
1.31188e-05;-0.01054381520251184
1.31190e-05;-0.010584482964169237
1.31193e-05;-0.010628144164743702
1.31195e-05;-0.010671805365317873
1.31198e-05;-0.01071546656589234
1.31200e-05;-0.010759127766466805
1.31203e-05;-0.010802788967040976
1.31205e-05;-0.010846450167615443
1.31208e-05;-0.010891755530503106
1.31210e-05;-0.010938272166091029
1.31213e-05;-0.010984788801679265
1.31215e-05;-0.011031305437267503
1.31218e-05;-0.011077822072855424
1.31220e-05;-0.011124338708443662
1.31223e-05;-0.011170855344031899
1.31225e-05;-0.011215767398140796
1.31228e-05;-0.011259497339191009
1.31230e-05;-0.01130322728024122
1.31233e-05;-0.011344495804129613
1.31235e-05;-0.011383950974562341
1.31238e-05;-0.011423406144995067
1.31240e-05;-0.011459321486520553
1.31243e-05;-0.011492628996638242
1.31245e-05;-0.011525936506755931
1.31247e-05;-0.011553977442158204
1.31250e-05;-0.011578138433270595
1.31253e-05;-0.011602299424382987
1.31255e-05;-0.011619771152386006
1.31258e-05;-0.011632314825702586
1.31260e-05;-0.011644858499019252
1.31263e-05;-0.011646946601340379
1.31265e-05;-0.011641331967978912
1.31268e-05;-0.011635717334617407
1.31270e-05;-0.011630102701255902
1.31273e-05;-0.011624488067894435
1.31275e-05;-0.01161887343453293
1.31278e-05;-0.011599838268196567
1.31280e-05;-0.011570916045642015
1.31283e-05;-0.011541993823087265
1.31285e-05;-0.011513071600532516
1.31288e-05;-0.011484149377977964
1.31290e-05;-0.011455227155423214
1.31293e-05;-0.01141643566893843
1.31295e-05;-0.011370373385720835
1.31298e-05;-0.011324311102502928
1.31300e-05;-0.011278248819285021
1.31303e-05;-0.011232186536067426
1.31305e-05;-0.01118067256240377
1.31308e-05;-0.011125142267627808
1.31310e-05;-0.01106961197285222
1.31313e-05;-0.011014081678076259
1.31315e-05;-0.010958551383300295
1.31318e-05;-0.010901359336999764
1.31320e-05;-0.010842943059829583
1.31323e-05;-0.010784686587085127
1.31325e-05;-0.010726547844042575
1.31328e-05;-0.010669002736903233
1.31330e-05;-0.010612520242985259
1.31332e-05;-0.01055730117207863
1.31335e-05;-0.010503695083702377
1.31338e-05;-0.01045207873992855
1.31340e-05;-0.010402822242380448
1.31343e-05;-0.010356295749691548
1.31345e-05;-0.010312870718378137
1.31348e-05;-0.01027292371364632
1.31350e-05;-0.010236807224836858
1.31353e-05;-0.010206015674923956
1.31355e-05;-0.010177906031315624
1.31358e-05;-0.01015480207365323
1.31360e-05;-0.010135385860617647
1.31363e-05;-0.010121104839463393
1.31365e-05;-0.010110606971402362
1.31368e-05;-0.010106691293909613
1.31370e-05;-0.010107624789570242
1.31373e-05;-0.010108558285230862
1.31375e-05;-0.010120090759864031
1.31378e-05;-0.010139431620436758
1.31380e-05;-0.010158772481009356
1.31383e-05;-0.010178113341582085
1.31385e-05;-0.010197454202154812
1.31388e-05;-0.010218302000164506
1.31390e-05;-0.010257523041746403
1.31393e-05;-0.010296744083328297
1.31395e-05;-0.010335965124909929
1.31398e-05;-0.010375186166491824
1.31400e-05;-0.01041440720807372
1.31403e-05;-0.010461307742821457
1.31405e-05;-0.010513865845776876
1.31408e-05;-0.010566423948732298
1.31410e-05;-0.010618982051687362
1.31413e-05;-0.010671540154642783
1.31415e-05;-0.010724098257598205
1.31418e-05;-0.010778641135095593
1.31420e-05;-0.010834646218120095
1.31423e-05;-0.010890651301144597
1.31425e-05;-0.010946656384169098
1.31428e-05;-0.01100266146719322
1.31430e-05;-0.011058666550217722
1.31433e-05;-0.011111736701625163
1.31435e-05;-0.011162644656198449
1.31438e-05;-0.01121355261077208
1.31440e-05;-0.011253884872904664
1.31443e-05;-0.011286425904543245
1.31445e-05;-0.011318966936182048
1.31448e-05;-0.01135150796782085
1.31450e-05;-0.011384048999459433
1.31453e-05;-0.011416590031098234
1.31455e-05;-0.011449131062737036
1.31458e-05;-0.011481672094375618
1.31460e-05;-0.01151421312601442
1.31463e-05;-0.011546754157653223
1.31465e-05;-0.011577477538348709
1.31468e-05;-0.011586039319823237
1.31470e-05;-0.011594601101297765
1.31473e-05;-0.011603162882772234
1.31475e-05;-0.011611724664246762
