Time(s);Current(A)
3.55000e-06;-0.001881869590164639
3.55025e-06;-0.0019091990997774778
3.55050e-06;-0.0019375906244465094
3.55075e-06;-0.0019668947721945946
3.55100e-06;-0.0019969850437923935
3.55125e-06;-0.00202775370744337
3.55150e-06;-0.0020590697512125823
3.55175e-06;-0.0020907603541086427
3.55200e-06;-0.002122635611149903
3.55225e-06;-0.0021545056805382665
3.55250e-06;-0.002186180657292085
3.55275e-06;-0.0022174745166763862
3.55300e-06;-0.002248215380391327
3.55325e-06;-0.00227824316394339
3.55350e-06;-0.0023073834978756557
3.55375e-06;-0.0023354356284688103
3.55400e-06;-0.0023621881454985116
3.55425e-06;-0.0023874296387402733
3.55450e-06;-0.0024109486979696196
3.55475e-06;-0.0024325487570969863
3.55500e-06;-0.0024517306293516316
3.55525e-06;-0.002468941936191813
3.55550e-06;-0.002483853313992869
3.55575e-06;-0.002494751592553363
3.55600e-06;-0.0025056498711138572
3.55625e-06;-0.002516548149674333
3.55650e-06;-0.0025241996554549295
3.55675e-06;-0.0025261859336759415
3.55700e-06;-0.0025281722118969535
3.55725e-06;-0.002530158490117962
3.55750e-06;-0.002529436604387128
3.55775e-06;-0.002523989298648196
3.55800e-06;-0.002518541992909273
3.55825e-06;-0.002510968696047845
3.55850e-06;-0.0024996858006665927
3.55875e-06;-0.00248840290528536
3.55900e-06;-0.0024752463407985772
3.55925e-06;-0.002458820449329655
3.55950e-06;-0.002442394557860733
3.55975e-06;-0.002424479276592957
3.56000e-06;-0.002403965189462331
3.56025e-06;-0.0023834511023317047
3.56050e-06;-0.0023618092850749063
3.56075e-06;-0.002338199714536902
3.56100e-06;-0.0023145901439988975
3.56125e-06;-0.00229031083437353
3.56150e-06;-0.002264862910683493
3.56175e-06;-0.0022394149869934122
3.56200e-06;-0.0022137757436117445
3.56225e-06;-0.0021878026704049464
3.56250e-06;-0.0021619255327206864
3.56275e-06;-0.002136215790971817
3.56300e-06;-0.002110838091312422
3.56325e-06;-0.0020860397651181356
3.56350e-06;-0.0020620314579148464
3.56375e-06;-0.0020394016387253375
3.56400e-06;-0.0020167718195358672
3.56425e-06;-0.0019952943151872174
3.56450e-06;-0.001975827461486639
3.56475e-06;-0.0019571354716223233
3.56500e-06;-0.001940012886396716
3.56525e-06;-0.0019230609242328006
3.56550e-06;-0.001905744901810636
3.56575e-06;-0.0018881376728070284
3.56600e-06;-0.0018700223233826464
3.56625e-06;-0.0018519069739582643
3.56650e-06;-0.0018338173331616482
3.56675e-06;-0.0018157725508248469
3.56700e-06;-0.0017973908956930437
3.56725e-06;-0.0017784214380965418
3.56750e-06;-0.0017594519805000078
3.56775e-06;-0.0017387694159765599
3.56800e-06;-0.0017178179176767158
3.56825e-06;-0.0016963599693066195
3.56850e-06;-0.0016740183265450165
3.56875e-06;-0.0016516766837834135
3.56900e-06;-0.0016293350410218484
3.56925e-06;-0.0016062577229398888
3.56950e-06;-0.0015818967400058758
3.56975e-06;-0.0015575357570718627
3.57000e-06;-0.001533174774137891
3.57025e-06;-0.0015084427832606276
3.57050e-06;-0.001483063428195103
3.57075e-06;-0.0014576840731296214
3.57100e-06;-0.0014322595706884188
3.57125e-06;-0.0014067562915128094
3.57150e-06;-0.0013812042811633082
3.57175e-06;-0.0013555672407829197
3.57200e-06;-0.0013300235700103799
3.57225e-06;-0.0013047817166508431
3.57250e-06;-0.0012799783794188188
3.57275e-06;-0.0012557552386866905
3.57300e-06;-0.0012321890049732441
3.57325e-06;-0.0012092837090618002
3.57350e-06;-0.00118706958283382
3.57375e-06;-0.001165664299823498
3.57400e-06;-0.0011452243438636075
3.57425e-06;-0.0011259065155725617
3.57450e-06;-0.0011078674359699665
3.57475e-06;-0.0010913303018029066
3.57500e-06;-0.0010767818131954216
3.57525e-06;-0.0010649607638161676
3.57550e-06;-0.0010564097663921862
3.57575e-06;-0.0010512435127059529
3.57600e-06;-0.0010493988831441153
3.57625e-06;-0.0010508113727982745
3.57650e-06;-0.0010554165092203777
3.57675e-06;-0.0010638301253569117
3.57700e-06;-0.00107539296078206
3.57725e-06;-0.0010896656142195683
3.57750e-06;-0.0011086665738021628
3.57775e-06;-0.0011296555023280687
3.57800e-06;-0.0011553399590017886
3.57825e-06;-0.0011843178474798975
3.57850e-06;-0.0012163862874480882
3.57875e-06;-0.0012513682914388129
3.57900e-06;-0.0012891902870876737
3.57925e-06;-0.0013298777866470012
3.57950e-06;-0.00137337921893612
3.57975e-06;-0.0014194749715931907
3.58000e-06;-0.001467875656899642
3.58025e-06;-0.00151829160194324
3.58050e-06;-0.0015704331121712653
3.58075e-06;-0.0016240266952125737
3.58100e-06;-0.0016788638657494854
3.58125e-06;-0.0017347979802825083
3.58150e-06;-0.0017916340952053823
3.58175e-06;-0.0018490721829660809
3.58200e-06;-0.0019067685747146473
3.58225e-06;-0.00196437929476668
3.58250e-06;-0.002021560431489927
3.58275e-06;-0.0020779783252221733
3.58300e-06;-0.002133339715969161
3.58325e-06;-0.0021873907317682562
3.58350e-06;-0.002239846714892075
3.58375e-06;-0.0022903572906082586
3.58400e-06;-0.002338545145169893
3.58425e-06;-0.002384032268075477
3.58450e-06;-0.0024264410712045454
3.58475e-06;-0.002465463565091335
3.58500e-06;-0.0025010936289652495
3.58525e-06;-0.0025327249207048245
3.58550e-06;-0.0025609246697722503
3.58575e-06;-0.002589124418839676
3.58600e-06;-0.0026146999369348594
3.58625e-06;-0.0026356964879642435
3.58650e-06;-0.0026543538154094434
3.58675e-06;-0.002668929479363463
3.58700e-06;-0.00268133895993315
3.58725e-06;-0.0026899687113248662
3.58750e-06;-0.002696765678599693
3.58775e-06;-0.00270036465827397
3.58800e-06;-0.002702139548253171
3.58825e-06;-0.0027007316213509946
3.58850e-06;-0.0026974928612753615
3.58875e-06;-0.0026910595177605558
3.58900e-06;-0.002683024110395342
3.58925e-06;-0.0026721932945138515
3.58950e-06;-0.002660089445632599
3.58975e-06;-0.002645764307451151
3.59000e-06;-0.002630291717650265
3.59025e-06;-0.002612816962936819
3.59050e-06;-0.002594310752914358
3.59075e-06;-0.002574004777574051
3.59100e-06;-0.002552930766699599
3.59125e-06;-0.0025305166262963663
3.59150e-06;-0.002507660639618056
3.59175e-06;-0.0024840336843919924
3.59200e-06;-0.0024601636670617028
3.59225e-06;-0.002435869535626249
3.59250e-06;-0.0024115250189561295
3.59275e-06;-0.002387092586118387
3.59300e-06;-0.0023628947754339422
3.59325e-06;-0.0023391063521565046
3.59350e-06;-0.002315876874171704
3.59375e-06;-0.002293622688420661
3.59400e-06;-0.0022721718672445166
3.59425e-06;-0.002252122820519482
3.59450e-06;-0.0022334254382968084
3.59475e-06;-0.002217086547878398
3.59500e-06;-0.002200747657459988
3.59525e-06;-0.0021864044125229866
3.59550e-06;-0.0021755433286578395
3.59575e-06;-0.0021646822447926738
3.59600e-06;-0.002155955719236015
3.59625e-06;-0.00215095374090819
3.59650e-06;-0.0021459517625803566
3.59675e-06;-0.002143525990914265
3.59700e-06;-0.0021455953896750584
3.59725e-06;-0.002147664788435856
3.59750e-06;-0.0021497341871966535
3.59775e-06;-0.002154593413856129
3.59800e-06;-0.0021643205542790267
3.59825e-06;-0.0021740476947019415
3.59850e-06;-0.002183774835124856
3.59875e-06;-0.002195370915735752
3.59900e-06;-0.002210228071937949
3.59925e-06;-0.0022259297321743543
3.59950e-06;-0.0022436173697977795
3.59975e-06;-0.0022626681924658924
3.60000e-06;-0.0022829634781907334
3.60025e-06;-0.0023043848641816672
3.60050e-06;-0.0023268139244646624
3.60075e-06;-0.0023501327203673287
3.60100e-06;-0.0023742231418325812
3.60125e-06;-0.0023989609966170496
3.60150e-06;-0.0024242083753724265
3.60175e-06;-0.0024498158605341805
3.60200e-06;-0.0024756308216639404
3.60225e-06;-0.00250150079623322
3.60250e-06;-0.0025272727513258367
3.60275e-06;-0.00255279428933402
3.60300e-06;-0.0025779132653835565
3.60325e-06;-0.002602473719274453
3.60350e-06;-0.0026263105887712485
3.60375e-06;-0.002649251810290919
3.60400e-06;-0.0026711236073497483
3.60425e-06;-0.0026917519706332604
3.60450e-06;-0.0027109628276436298
3.60475e-06;-0.0027285233014689905
3.60500e-06;-0.002743969057702147
3.60525e-06;-0.002756620120132761
3.60550e-06;-0.002765981065233439
3.60575e-06;-0.0027713389205947362
3.60600e-06;-0.002773502266520248
3.60625e-06;-0.002772695272799473
3.60650e-06;-0.002766705394050626
3.60675e-06;-0.0027607155153017687
3.60700e-06;-0.0027508784043840523
3.60725e-06;-0.0027343283365718666
3.60750e-06;-0.002717778268759653
3.60775e-06;-0.0026973525811379564
3.60800e-06;-0.0026701644036070385
3.60825e-06;-0.002642976226076074
3.60850e-06;-0.0026124765058577093
3.60875e-06;-0.002576198542388283
3.60900e-06;-0.002539920578918919
3.60925e-06;-0.0025006111038306253
3.60950e-06;-0.002456012005987654
3.60975e-06;-0.002411412908144758
3.61000e-06;-0.0023647948948720262
3.61025e-06;-0.0023146541172692344
3.61050e-06;-0.0022633685175795387
3.61075e-06;-0.0022100853411947626
3.61100e-06;-0.0021561369355121898
3.61125e-06;-0.0021006613467341975
3.61150e-06;-0.00204428010627965
3.61175e-06;-0.001987290241281628
3.61200e-06;-0.0019300275575804278
3.61225e-06;-0.0018728282518054628
3.61250e-06;-0.0018160283833989588
3.61275e-06;-0.0017599549988586924
3.61300e-06;-0.00170489943843122
3.61325e-06;-0.001651119903086314
3.61350e-06;-0.0015989028971641374
3.61375e-06;-0.0015485944330611496
3.61400e-06;-0.0015016610917935175
3.61425e-06;-0.0014582387976337873
3.61450e-06;-0.0014148165034740569
3.61475e-06;-0.001373720780040532
3.61500e-06;-0.0013375371622521537
3.61525e-06;-0.001303661050712115
3.61550e-06;-0.0012712156736627682
3.61575e-06;-0.0012387702966134766
3.61600e-06;-0.0012078862397986788
3.61625e-06;-0.0011797264987968542
3.61650e-06;-0.0011515667577950775
3.61675e-06;-0.0011250197825577973
3.61700e-06;-0.001101286889388871
3.61725e-06;-0.0010782452663712341
3.61750e-06;-0.0010564098265328022
3.61775e-06;-0.0010345743866943331
3.61800e-06;-0.0010136509280855778
3.61825e-06;-0.0009943187669123861
3.61850e-06;-0.0009749866057391617
3.61875e-06;-0.0009566882749363693
3.61900e-06;-0.0009401938536479982
3.61925e-06;-0.000923699432359655
3.61950e-06;-0.0009076813452194349
3.61975e-06;-0.0008924944038130558
3.62000e-06;-0.0008773074624067024
3.62025e-06;-0.0008628988502349858
3.62050e-06;-0.0008498483288603057
3.62075e-06;-0.0008367978074856477
3.62100e-06;-0.0008237472861109676
3.62125e-06;-0.0008113378033957259
3.62150e-06;-0.0008000468559547142
3.62175e-06;-0.0007887559085137218
3.62200e-06;-0.0007774649610727101
3.62225e-06;-0.0007666255722120145
3.62250e-06;-0.0007565740987025112
3.62275e-06;-0.0007469149980873062
3.62300e-06;-0.0007379405409276678
3.62325e-06;-0.000729210344006
3.62350e-06;-0.0007209063517886075
3.62375e-06;-0.0007127772764937942
3.62400e-06;-0.0007050981828934485
3.62425e-06;-0.0006978376789010137
3.62450e-06;-0.0006910539085596583
3.62475e-06;-0.0006848177132750586
3.62500e-06;-0.0006792492150140359
3.62525e-06;-0.0006745111807601515
3.62550e-06;-0.0006707198156806333
3.62575e-06;-0.0006679030216658684
3.62600e-06;-0.0006660531414862548
3.62625e-06;-0.0006651622376939973
3.62650e-06;-0.0006653971997473794
3.62675e-06;-0.0006665385937702306
3.62700e-06;-0.0006684220566941866
3.62725e-06;-0.0006716003404992169
3.62750e-06;-0.0006757218241631208
3.62775e-06;-0.0006814890780115246
3.62800e-06;-0.0006872563318599382
3.62825e-06;-0.0006940211469094135
3.62850e-06;-0.0007025265861399504
3.62875e-06;-0.0007110320253705017
3.62900e-06;-0.0007204295193469322
3.62925e-06;-0.0007313835414440045
3.62950e-06;-0.0007423375635410953
3.62975e-06;-0.0007539311310483333
3.63000e-06;-0.0007666406282896366
3.63025e-06;-0.0007797360200206843
3.63050e-06;-0.0007935047511714604
3.63075e-06;-0.0008075592955346594
3.63100e-06;-0.0008221125495392025
3.63125e-06;-0.0008368708010452156
3.63150e-06;-0.0008519867485078339
3.63175e-06;-0.0008671892584821828
3.63200e-06;-0.0008825428096166239
3.63225e-06;-0.0008978497077560381
3.63250e-06;-0.0009130752020364956
3.63275e-06;-0.0009281268078808214
3.63300e-06;-0.0009428749993417885
3.63325e-06;-0.0009573340906747763
3.63350e-06;-0.0009712887370944864
3.63375e-06;-0.0009846778714591915
3.63400e-06;-0.0009970802553802385
3.63425e-06;-0.0010094826393012854
3.63450e-06;-0.001021284613313259
3.63475e-06;-0.00103173697221488
3.63500e-06;-0.0010415270052174296
3.63525e-06;-0.0010511900614682324
3.63550e-06;-0.0010610438617612906
3.63575e-06;-0.0010710397628360963
3.63600e-06;-0.0010812836126649357
3.63625e-06;-0.001091512660770782
3.63650e-06;-0.0011017158816523038
3.63675e-06;-0.0011119191025338255
3.63700e-06;-0.0011223244298448022
3.63725e-06;-0.0011330824085399366
3.63750e-06;-0.0011438403872350707
3.63775e-06;-0.0011550411028532254
3.63800e-06;-0.0011670143410929111
3.63825e-06;-0.0011789875793325967
3.63850e-06;-0.0011911982308268412
3.63875e-06;-0.0012038231398637488
3.63900e-06;-0.0012164480489006777
3.63925e-06;-0.0012290729579376065
3.63950e-06;-0.0012426073520311741
3.63975e-06;-0.0012562845225313301
3.64000e-06;-0.0012699616930314862
3.64025e-06;-0.0012838073515301337
3.64050e-06;-0.0012979470012987801
3.64075e-06;-0.0013120866510674505
3.64100e-06;-0.0013262551974185099
3.64125e-06;-0.0013404741648264276
3.64150e-06;-0.0013546931322343694
3.64175e-06;-0.001368894371504192
3.64200e-06;-0.0013830646773075861
3.64225e-06;-0.0013970728215413905
3.64250e-06;-0.0014107980133618034
3.64275e-06;-0.0014242588311416285
3.64300e-06;-0.0014372583480534112
3.64325e-06;-0.0014499728999890866
3.64350e-06;-0.0014621902223535361
3.64375e-06;-0.001474029167722203
3.64400e-06;-0.0014852078907929736
3.64425e-06;-0.001495727004131458
3.64450e-06;-0.0015050951779095152
3.64475e-06;-0.0015144633516875564
3.64500e-06;-0.0015227164919034556
3.64525e-06;-0.001529024032812543
3.64550e-06;-0.00153533157372162
3.64575e-06;-0.0015416391146307073
3.64600e-06;-0.0015479466555397949
3.64625e-06;-0.0015515795989819972
3.64650e-06;-0.0015540829299578334
3.64675e-06;-0.0015565862609336694
3.64700e-06;-0.0015590895919095056
3.64725e-06;-0.0015614971563072328
3.64750e-06;-0.0015616921106675343
3.64775e-06;-0.0015610030728442066
3.64800e-06;-0.0015593883113338954
3.64825e-06;-0.0015552385707720507
3.64850e-06;-0.001551088830210206
3.64875e-06;-0.0015469390896483612
3.64900e-06;-0.001542546625375409
3.64925e-06;-0.0015351299604422438
3.64950e-06;-0.001527713295509079
3.64975e-06;-0.0015202041056396301
3.65000e-06;-0.0015115421072037752
3.65025e-06;-0.0015027397298838286
3.65050e-06;-0.0014921883107747403
3.65075e-06;-0.0014816368916656343
3.65100e-06;-0.0014709911312575932
3.65125e-06;-0.0014591699314282136
3.65150e-06;-0.0014473487315988538
3.65175e-06;-0.0014354974435781757
3.65200e-06;-0.0014232712736492673
3.65225e-06;-0.0014110451037203798
3.65250e-06;-0.0013987765231653706
3.65275e-06;-0.0013859795301084375
3.65300e-06;-0.0013731825370515045
3.65325e-06;-0.0013604290242564701
3.65350e-06;-0.001348217251022361
3.65375e-06;-0.001336005477788252
3.65400e-06;-0.0013238581623629803
3.65425e-06;-0.0013125139549122328
3.65450e-06;-0.0013012232220425573
3.65475e-06;-0.0012905987523190228
3.65500e-06;-0.001280129374016931
3.65525e-06;-0.001271592347429057
3.65550e-06;-0.0012632639171164255
3.65575e-06;-0.0012575344788450617
3.65600e-06;-0.0012520023191798062
3.65625e-06;-0.0012489281397763197
3.65650e-06;-0.0012460838023247386
3.65675e-06;-0.0012461031660732692
3.65700e-06;-0.0012461225298217996
3.65725e-06;-0.0012464833063182072
3.65750e-06;-0.0012510978932601024
3.65775e-06;-0.0012557124802020055
3.65800e-06;-0.0012606319219897577
3.65825e-06;-0.001269349683364753
3.65850e-06;-0.001278067444739763
3.65875e-06;-0.0012869998007114015
3.65900e-06;-0.001298605884428579
3.65925e-06;-0.0013103882547893782
3.65950e-06;-0.001324367057388391
3.65975e-06;-0.0013384602648857148
3.66000e-06;-0.0013540422580546189
3.66025e-06;-0.0013704655889425056
3.66050e-06;-0.0013875751404445998
3.66075e-06;-0.0014052220337396081
3.66100e-06;-0.0014233469082405926
3.66125e-06;-0.0014419325211476725
3.66150e-06;-0.0014609019518476286
3.66175e-06;-0.001480122185313481
3.66200e-06;-0.0014994432739352615
3.66225e-06;-0.001518712559120159
3.66250e-06;-0.0015377624719994788
3.66275e-06;-0.001556430526713231
3.66300e-06;-0.0015746092230663948
3.66325e-06;-0.001592218118300555
3.66350e-06;-0.0016091392107551639
3.66375e-06;-0.0016252194075013807
3.66400e-06;-0.001640295239453148
3.66425e-06;-0.001654200838619791
3.66450e-06;-0.0016667617755763541
3.66475e-06;-0.0016778004615524728
3.66500e-06;-0.0016870459962076438
3.66525e-06;-0.0016935654288529405
3.66550e-06;-0.0016996954895689249
3.66575e-06;-0.0017009741954638728
3.66600e-06;-0.0017022529013588183
3.66625e-06;-0.00170305283712673
3.66650e-06;-0.0016978875669074775
3.66675e-06;-0.001692722296688234
3.66700e-06;-0.001687062338662353
3.66725e-06;-0.001675238849331644
3.66750e-06;-0.001663415360000955
3.66775e-06;-0.001651123822849018
3.66800e-06;-0.0016330006735980737
3.66825e-06;-0.001614877524347129
3.66850e-06;-0.0015963366030396318
3.66875e-06;-0.0015725904773291244
3.66900e-06;-0.0015488443516186172
3.66925e-06;-0.0015247347400295934
3.66950e-06;-0.0014960962992244164
3.66975e-06;-0.0014674578584192395
3.67000e-06;-0.0014385792065380217
3.67025e-06;-0.0014067076600125675
3.67050e-06;-0.0013747224740558845
3.67075e-06;-0.0013412588008588917
3.67100e-06;-0.0013069618635054982
3.67125e-06;-0.0012719589168018641
3.67150e-06;-0.001236396589121694
3.67175e-06;-0.0012004445249403806
3.67200e-06;-0.0011642784767963764
3.67225e-06;-0.0011280736796709543
3.67250e-06;-0.0010920042476388384
3.67275e-06;-0.001056243574308668
3.67300e-06;-0.001020962539372377
3.67325e-06;-0.0009863297319706585
3.67350e-06;-0.0009525253083225739
3.67375e-06;-0.0009197442584821804
3.67400e-06;-0.0008882446838521358
3.67425e-06;-0.000858788406008571
3.67450e-06;-0.0008295838284555402
3.67475e-06;-0.0008035152946848002
3.67500e-06;-0.0007775792537569567
3.67525e-06;-0.0007532939989898332
3.67550e-06;-0.0007290522612442479
3.67575e-06;-0.0007053527210650251
3.67600e-06;-0.0006817623817609929
3.67625e-06;-0.0006595326238249423
3.67650e-06;-0.0006373028658888919
3.67675e-06;-0.0006151948986717335
3.67700e-06;-0.0005946043751810862
3.67725e-06;-0.0005740204607173902
3.67750e-06;-0.0005535188910056589
3.67775e-06;-0.0005330173212939624
3.67800e-06;-0.0005125157515822311
3.67825e-06;-0.0004924380839467152
3.67850e-06;-0.0004726746372676377
3.67875e-06;-0.0004529111905885937
3.67900e-06;-0.0004331930343559073
3.67925e-06;-0.0004140391715634409
3.67950e-06;-0.00039488530877100696
3.67975e-06;-0.0003757314459785406
3.68000e-06;-0.00035657758318607426
3.68025e-06;-0.0003374237203936403
3.68050e-06;-0.0003182698576011739
3.68075e-06;-0.000299195917236091
3.68100e-06;-0.00028111776527882604
3.68125e-06;-0.00026303961332159166
3.68150e-06;-0.0002449614613643267
3.68175e-06;-0.00022688330940706173
3.68200e-06;-0.00020880515744982738
3.68225e-06;-0.00019072700549256242
3.68250e-06;-0.00017274435328019482
3.68275e-06;-0.00015595157407392496
3.68300e-06;-0.0001392132403377445
3.68325e-06;-0.00012315326647851631
3.68350e-06;-0.00010713236874232185
3.68375e-06;-9.163079360917434e-05
3.68400e-06;-7.657136606890934e-05
3.68425e-06;-6.202550043448457e-05
3.68450e-06;-4.806437964169502e-05
3.68475e-06;-3.475219973705028e-05
3.68500e-06;-2.2081669054460835e-05
3.68525e-06;-9.949638750461162e-06
3.68550e-06;1.7230320774055548e-06
3.68575e-06;1.2932483162986175e-05
3.68600e-06;2.364696470163621e-05
3.68625e-06;3.383475183681901e-05
3.68650e-06;4.346428615634738e-05
3.68675e-06;5.2508369445768546e-05
3.68700e-06;6.098459538071024e-05
3.68725e-06;6.897059995421981e-05
3.68750e-06;7.652896441592288e-05
3.68775e-06;8.365430701857701e-05
3.68800e-06;9.018854987558071e-05
3.68825e-06;9.665787398576721e-05
3.68850e-06;0.00010231834709289469
3.68875e-06;0.00010791762472630403
3.68900e-06;0.0001127544412416119
3.68925e-06;0.00011754463751222235
3.68950e-06;0.00012175397180490423
3.68975e-06;0.00012591258678370455
3.69000e-06;0.00012943926769249132
3.69025e-06;0.00013296594860127807
3.69050e-06;0.00013642656085890775
3.69075e-06;0.00013906399495354442
3.69100e-06;0.00014170142904818112
3.69125e-06;0.00014433886314281334
3.69150e-06;0.00014697629723745
3.69175e-06;0.0001496137313320867
3.69200e-06;0.00015201616000881763
3.69225e-06;0.0001542443889556226
3.69250e-06;0.00015647261790243132
3.69275e-06;0.00015870084684924002
3.69300e-06;0.00016092907579604498
3.69325e-06;0.00016317549353097688
3.69350e-06;0.0001656485333163769
