Time(s);Current(A)
3.05000e-06;0.00402185257729706
3.05025e-06;0.004016597922284997
3.05050e-06;0.004011343267272933
3.05075e-06;0.004006088612260868
3.05100e-06;0.004000833957248814
3.05125e-06;0.0039955793022367495
3.05150e-06;0.003990324647224686
3.05175e-06;0.003985069992212631
3.05200e-06;0.003979815337200567
3.05225e-06;0.003974560682188503
3.05250e-06;0.003969306027176448
3.05275e-06;0.003978632119191219
3.05300e-06;0.003994869639582253
3.05325e-06;0.004011107159973287
3.05350e-06;0.004027344680364294
3.05375e-06;0.004043582200755328
3.05400e-06;0.004059819721146362
3.05425e-06;0.004076057241537368
3.05450e-06;0.004092294761928403
3.05475e-06;0.004108532282319437
3.05500e-06;0.004124769802710471
3.05525e-06;0.004143178232547316
3.05550e-06;0.0041715830832374555
3.05575e-06;0.0041999879339275955
3.05600e-06;0.004228392784617688
3.05625e-06;0.004256797635307828
3.05650e-06;0.004285202485997968
3.05675e-06;0.00431360733668806
3.05700e-06;0.0043420121873782
3.05725e-06;0.00437041703806834
3.05750e-06;0.00439882188875848
3.05775e-06;0.004427226739448572
3.05800e-06;0.004451108329947889
3.05825e-06;0.004472845847253991
3.05850e-06;0.004494583364560057
3.05875e-06;0.004516320881866159
3.05900e-06;0.004538058399172261
3.05925e-06;0.004559795916478364
3.05950e-06;0.00458153343378443
3.05975e-06;0.0046032709510905314
3.06000e-06;0.004625008468396634
3.06025e-06;0.0046467459857027
3.06050e-06;0.004668483503008802
3.06075e-06;0.004690221020314904
3.06100e-06;0.00471195853762097
3.06125e-06;0.004730650183000079
3.06150e-06;0.004735316454033189
3.06175e-06;0.004739982725066301
3.06200e-06;0.004744648996099403
3.06225e-06;0.004749315267132514
3.06250e-06;0.004753981538165625
3.06275e-06;0.0047586478091987275
3.06300e-06;0.004763314080231838
3.06325e-06;0.004767980351264949
3.06350e-06;0.00477264662229806
3.06375e-06;0.004777312893331162
3.06400e-06;0.0047819791643642735
3.06425e-06;0.004786645435397384
3.06450e-06;0.0047913117064304865
3.06475e-06;0.004791225126006159
3.06500e-06;0.004786647376966823
3.06525e-06;0.004781008665812372
3.06550e-06;0.0047753699546579115
3.06575e-06;0.004769731243503451
3.06600e-06;0.0047640925323489906
3.06625e-06;0.00475845382119454
3.06650e-06;0.004752815110040079
3.06675e-06;0.004747176398885619
3.06700e-06;0.004741537687731168
3.06725e-06;0.004735898976576707
3.06750e-06;0.004730260265422247
3.06775e-06;0.004724621554267786
3.06800e-06;0.004718788526635404
3.06825e-06;0.004712060726862187
3.06850e-06;0.004705332927088971
3.06875e-06;0.004698605127315765
3.06900e-06;0.004691877327542548
3.06925e-06;0.004685149527769332
3.06950e-06;0.004678421727996126
3.06975e-06;0.00467169392822291
3.07000e-06;0.004664966128449693
3.07025e-06;0.004658238328676477
3.07050e-06;0.004651510528903271
3.07075e-06;0.004644782729130055
3.07100e-06;0.004638054929356838
3.07125e-06;0.004626283526919348
3.07150e-06;0.0046121214034499786
3.07175e-06;0.0045979592799806086
3.07200e-06;0.0045837971565112386
3.07225e-06;0.004569635033041893
3.07250e-06;0.004555472909572523
3.07275e-06;0.004541310786103154
3.07300e-06;0.004527148662633808
3.07325e-06;0.004512986539164438
3.07350e-06;0.004498824415695068
3.07375e-06;0.004484662292225722
3.07400e-06;0.004470500168756352
3.07425e-06;0.004456338045286983
3.07450e-06;0.004442175921817613
3.07475e-06;0.004422485204675985
3.07500e-06;0.004400173875632647
3.07525e-06;0.00437786254658931
3.07550e-06;0.004355551217546011
3.07575e-06;0.004333239888502673
3.07600e-06;0.004310928559459336
3.07625e-06;0.004288617230416037
3.07650e-06;0.004266305901372699
3.07675e-06;0.004243994572329362
3.07700e-06;0.0042216832432860245
3.07725e-06;0.004199371914242725
3.07750e-06;0.004177060585199388
3.07775e-06;0.0041547492561560505
3.07800e-06;0.004132437927112751
3.07825e-06;0.004115068418781342
3.07850e-06;0.004100041385759521
3.07875e-06;0.0040850143527377
3.07900e-06;0.0040699873197159045
3.07925e-06;0.004054960286694084
3.07950e-06;0.004039933253672263
3.07975e-06;0.0040249062206504675
3.08000e-06;0.004009879187628647
3.08025e-06;0.003994852154606827
3.08050e-06;0.003979825121585031
3.08075e-06;0.00396479808856321
3.08100e-06;0.0039497710555413896
3.08125e-06;0.003934744022519569
3.08150e-06;0.003934919985059985
3.08175e-06;0.003942302328368271
3.08200e-06;0.003949684671676557
3.08225e-06;0.003957067014984829
3.08250e-06;0.003964449358293115
3.08275e-06;0.0039718317016014006
3.08300e-06;0.003979214044909686
3.08325e-06;0.00398659638821796
3.08350e-06;0.003993978731526245
3.08375e-06;0.004001361074834531
3.08400e-06;0.004008743418142804
3.08425e-06;0.004016125761451089
3.08450e-06;0.004023508104759375
3.08475e-06;0.004041975362288628
3.08500e-06;0.004065696986454401
3.08525e-06;0.004089418610620174
3.08550e-06;0.004113140234785948
3.08575e-06;0.004136861858951681
3.08600e-06;0.004160583483117455
3.08625e-06;0.0041843051072832285
3.08650e-06;0.004208026731448961
3.08675e-06;0.004231748355614734
3.08700e-06;0.004255469979780508
3.08725e-06;0.004279615087307554
3.08750e-06;0.004303960930428922
3.08775e-06;0.004328306773550331
3.08800e-06;0.004352652616671741
3.08825e-06;0.004376998459793109
3.08850e-06;0.004401344302914518
3.08875e-06;0.004425690146035928
3.08900e-06;0.004450035989157296
3.08925e-06;0.0044743818322787055
3.08950e-06;0.004498727675400114
3.08975e-06;0.004513302820690613
3.09000e-06;0.004523246551819767
3.09025e-06;0.004533190282948938
3.09050e-06;0.004543134014078109
3.09075e-06;0.004553077745207263
3.09100e-06;0.004563021476336434
3.09125e-06;0.004572965207465605
3.09150e-06;0.004582908938594776
3.09175e-06;0.0045928526697239305
3.09200e-06;0.004602796400853101
3.09225e-06;0.004612740131982272
3.09250e-06;0.004622683863111426
3.09275e-06;0.004632627594240597
3.09300e-06;0.004642571325369768
3.09325e-06;0.004652515056498922
3.09350e-06;0.004662458787628093
3.09375e-06;0.004670264414119968
3.09400e-06;0.004668224676572078
3.09425e-06;0.004666184939024193
3.09450e-06;0.004664145201476303
3.09475e-06;0.0046621054639284145
3.09500e-06;0.004660065726380528
3.09525e-06;0.00465802598883264
3.09550e-06;0.00465598625128475
3.09575e-06;0.004653946513736861
3.09600e-06;0.004651906776188975
3.09625e-06;0.004649867038641086
3.09650e-06;0.004647827301093197
3.09675e-06;0.004645787563545311
3.09700e-06;0.004643747825997422
3.09725e-06;0.004641708088449533
3.09750e-06;0.004639668350901647
3.09775e-06;0.004637628613353758
3.09800e-06;0.004634878719965635
3.09825e-06;0.0046317922051946495
3.09850e-06;0.004628705690423669
3.09875e-06;0.0046256191756526835
3.09900e-06;0.004622532660881698
3.09925e-06;0.004619446146110717
3.09950e-06;0.004616359631339732
3.09975e-06;0.004613273116568746
3.10000e-06;0.0046101866017977606
3.10025e-06;0.00460710008702678
3.10050e-06;0.004604013572255794
3.10075e-06;0.004600927057484808
3.10100e-06;0.004600028605410417
3.10125e-06;0.0046092055600374555
3.10150e-06;0.004618382514664495
3.10175e-06;0.004627559469291518
3.10200e-06;0.004636736423918557
3.10225e-06;0.004645913378545596
3.10250e-06;0.004655090333172635
3.10275e-06;0.004664267287799658
3.10300e-06;0.004673444242426697
3.10325e-06;0.004682621197053736
3.10350e-06;0.00469179815168076
3.10375e-06;0.004700975106307798
3.10400e-06;0.0047101520609348375
3.10425e-06;0.004728246082522736
3.10450e-06;0.004750566888207079
3.10475e-06;0.004772887693891462
3.10500e-06;0.004795208499575843
3.10525e-06;0.004817529305260187
3.10550e-06;0.004839850110944568
3.10575e-06;0.00486217091662895
3.10600e-06;0.004884491722313294
3.10625e-06;0.004906812527997675
3.10650e-06;0.004929133333682056
3.10675e-06;0.004951454139366438
3.10700e-06;0.004973752685807159
3.10725e-06;0.004995948734758825
3.10750e-06;0.00501814478371049
3.10775e-06;0.005040340832662119
3.10800e-06;0.005062536881613784
3.10825e-06;0.00508473293056545
3.10850e-06;0.005106928979517115
3.10875e-06;0.005129125028468744
3.10900e-06;0.005151321077420409
3.10925e-06;0.005173517126372075
3.10950e-06;0.005195713175323703
3.10975e-06;0.005217909224275369
3.11000e-06;0.0052292848637548635
3.11025e-06;0.005235531514646773
3.11050e-06;0.005241778165538694
3.11075e-06;0.005248024816430614
3.11100e-06;0.005254271467322534
3.11125e-06;0.005260518118214444
3.11150e-06;0.005266764769106364
3.11175e-06;0.005273011419998285
3.11200e-06;0.005279258070890194
3.11225e-06;0.005285504721782115
3.11250e-06;0.005291751372674035
3.11275e-06;0.005297998023565955
3.11300e-06;0.005304244674457865
3.11325e-06;0.005310491325349785
3.11350e-06;0.005316737976241706
3.11375e-06;0.005320363337438139
3.11400e-06;0.005311918404758161
3.11425e-06;0.005303473472078182
3.11450e-06;0.005295028539398218
3.11475e-06;0.005286583606718239
3.11500e-06;0.005278138674038261
3.11525e-06;0.005269693741358283
3.11550e-06;0.005261248808678318
3.11575e-06;0.005252803875998339
3.11600e-06;0.005244358943318361
3.11625e-06;0.005235914010638397
3.11650e-06;0.005227469077958419
3.11675e-06;0.00521902414527844
3.11700e-06;0.005210579212598461
3.11725e-06;0.005202134279918497
3.11750e-06;0.005193689347238519
3.11775e-06;0.0051840424720585405
3.11800e-06;0.005173825863415025
3.11825e-06;0.0051636092547714925
3.11850e-06;0.00515339264612796
3.11875e-06;0.0051431760374844445
3.11900e-06;0.005132959428840912
3.11925e-06;0.005122742820197379
3.11950e-06;0.0051125262115538465
3.11975e-06;0.005102309602910331
3.12000e-06;0.005091073433148141
3.12025e-06;0.005075142474271659
3.12050e-06;0.005059211515395202
3.12075e-06;0.00504328055651872
3.12100e-06;0.0050273495976422364
3.12125e-06;0.005011418638765754
3.12150e-06;0.004995487679889298
3.12175e-06;0.004979556721012815
3.12200e-06;0.0049636257621363325
3.12225e-06;0.004947694803259876
3.12250e-06;0.004918537981565342
3.12275e-06;0.004883111960943088
3.12300e-06;0.004847685940320895
3.12325e-06;0.004812259919698641
3.12350e-06;0.004776833899076388
3.12375e-06;0.0047414078784541345
3.12400e-06;0.004705981857831941
3.12425e-06;0.004670555837209688
3.12450e-06;0.004635129816587434
3.12475e-06;0.004599703795965241
3.12500e-06;0.004554966290801822
3.12525e-06;0.00450581504343456
3.12550e-06;0.004456663796067297
3.12575e-06;0.004407512548700117
3.12600e-06;0.004358361301332854
3.12625e-06;0.0043092100539655915
3.12650e-06;0.004260058806598412
3.12675e-06;0.004210907559231149
3.12700e-06;0.004161756311863886
3.12725e-06;0.004112605064496707
3.12750e-06;0.004064675097380771
3.12775e-06;0.0040173240300271995
3.12800e-06;0.003969972962673627
3.12825e-06;0.003922621895320135
3.12850e-06;0.003875270827966563
3.12875e-06;0.003827919760612991
3.12900e-06;0.003780568693259499
3.12925e-06;0.0037442913310634105
3.12950e-06;0.0037132630222907956
3.12975e-06;0.0036822347135181807
3.13000e-06;0.0036512064047456183
3.13025e-06;0.003620178095973003
3.13050e-06;0.003589149787200388
3.13075e-06;0.0035581214784278256
3.13100e-06;0.0035416872452617497
3.13125e-06;0.003532170758363674
3.13150e-06;0.0035226542714656152
3.13175e-06;0.0035228444675933085
3.13200e-06;0.003527635734188635
3.13225e-06;0.0035324270007839617
3.13250e-06;0.003547483171292247
3.13275e-06;0.0035674050148756433
3.13300e-06;0.0035873268584590396
3.13325e-06;0.0036235727469697827
3.13350e-06;0.0036675564055126393
3.13375e-06;0.003711540064055496
3.13400e-06;0.0037555237225983524
3.13425e-06;0.003799507381141135
3.13450e-06;0.0038434910396839914
3.13475e-06;0.003887474698226848
3.13500e-06;0.00393145835676963
3.13525e-06;0.003990979933381058
3.13550e-06;0.004057866647575028
3.13575e-06;0.004124753361768884
3.13600e-06;0.004191640075962854
3.13625e-06;0.004258526790156824
3.13650e-06;0.004325413504350794
3.13675e-06;0.00439230021854465
3.13700e-06;0.00445918693273862
3.13725e-06;0.004527546445882413
3.13750e-06;0.004596604081313075
3.13775e-06;0.004665661716743853
3.13800e-06;0.004734719352174632
3.13825e-06;0.004803776987605412
3.13850e-06;0.004872834623036073
3.13875e-06;0.004941892258466852
3.13900e-06;0.004997643485714129
3.13925e-06;0.00504708733467734
3.13950e-06;0.0050965311836406344
3.13975e-06;0.005145975032603929
3.14000e-06;0.00519541888156714
3.14025e-06;0.005244862730530435
3.14050e-06;0.005294306579493729
3.14075e-06;0.005311718008914473
3.14100e-06;0.005313945732512951
3.14125e-06;0.005316173456111431
3.14150e-06;0.005318401179709912
3.14175e-06;0.00532062890330839
3.14200e-06;0.005322856626906871
3.14225e-06;0.005325084350505352
3.14250e-06;0.005327312074103832
3.14275e-06;0.00532953979770231
3.14300e-06;0.005331767521300791
3.14325e-06;0.005297329325722345
3.14350e-06;0.005245511096464355
3.14375e-06;0.005193692867206277
3.14400e-06;0.005141874637948199
3.14425e-06;0.005090056408690208
3.14450e-06;0.00503823817943213
3.14475e-06;0.004986419950174053
3.14500e-06;0.004934601720915975
3.14525e-06;0.004882783491657984
3.14550e-06;0.004830965262399906
3.14575e-06;0.004761186527005595
3.14600e-06;0.004682894321649104
3.14625e-06;0.004604602116292479
3.14650e-06;0.0045263099109358555
3.14675e-06;0.004448017705579231
3.14700e-06;0.004369725500222739
3.14725e-06;0.004291341097371381
3.14750e-06;0.004212532151266221
3.14775e-06;0.004133723205161194
3.14800e-06;0.004054914259056033
3.14825e-06;0.003976105312950873
3.14850e-06;0.0038972963668458464
3.14875e-06;0.003818487420740686
3.14900e-06;0.0037562942717278376
3.14925e-06;0.003701977186361342
3.14950e-06;0.003647660100994939
3.14975e-06;0.0035933430156284436
3.15000e-06;0.0035390259302619485
3.15025e-06;0.0034847088448955454
3.15050e-06;0.0034303917595290504
3.15075e-06;0.003376074674162555
3.15100e-06;0.003321757588796152
3.15125e-06;0.0032727314833151657
3.15150e-06;0.0032480688361149054
3.15175e-06;0.003223406188914645
3.15200e-06;0.0031987435417144263
3.15225e-06;0.003174080894514166
3.15250e-06;0.0031494182473139056
3.15275e-06;0.003124755600113687
3.15300e-06;0.0031000929529134266
3.15325e-06;0.0030754303057131662
3.15350e-06;0.003050767658512906
3.15375e-06;0.0030399473695996654
3.15400e-06;0.0030356885049914136
3.15425e-06;0.0030314296403831614
3.15450e-06;0.0030271707757749166
3.15475e-06;0.0030229119111666643
3.15500e-06;0.0030186530465584126
3.15525e-06;0.0030143941819501677
3.15550e-06;0.0030101353173419155
3.15575e-06;0.0030058764527336633
3.15600e-06;0.0030034350295667037
3.15625e-06;0.0030093624075843467
3.15650e-06;0.0030152897856019997
3.15675e-06;0.0030212171636196526
3.15700e-06;0.0030271445416372956
3.15725e-06;0.0030330719196549486
3.15750e-06;0.0030389992976726015
3.15775e-06;0.0030449266756902545
3.15800e-06;0.0030508540537078975
3.15825e-06;0.0030567814317255504
3.15850e-06;0.003063111040445698
3.15875e-06;0.003069631310775141
3.15900e-06;0.003076151581104595
3.15925e-06;0.0030826718514340495
3.15950e-06;0.0030891921217634927
3.15975e-06;0.0030957123920929467
3.16000e-06;0.0031022326624224007
3.16025e-06;0.003108752932751855
3.16050e-06;0.0031152732030812983
3.16075e-06;0.0031217934734107523
3.16100e-06;0.0031283137437402068
3.16125e-06;0.0031354670189860856
3.16150e-06;0.00314553510192511
3.16175e-06;0.003155603184864134
3.16200e-06;0.0031656712678031582
3.16225e-06;0.0031757393507421657
3.16250e-06;0.00318580743368119
3.16275e-06;0.003195875516620214
3.16300e-06;0.0032059435995592214
3.16325e-06;0.003216011682498246
3.16350e-06;0.00322607976543727
3.16375e-06;0.003236147848376277
3.16400e-06;0.0032462159313153016
3.16425e-06;0.0032601191364974823
3.16450e-06;0.0032758402302055104
3.16475e-06;0.0032915613239135125
3.16500e-06;0.0033072824176215406
3.16525e-06;0.003323003511329569
3.16550e-06;0.0033387246050375708
3.16575e-06;0.0033544456987455993
3.16600e-06;0.003370166792453628
3.16625e-06;0.003385887886161656
3.16650e-06;0.003401608979869658
3.16675e-06;0.003417330073577686
3.16700e-06;0.0034330511672857147
3.16725e-06;0.003447677051305118
3.16750e-06;0.0034617837943428185
3.16775e-06;0.003475890537380519
3.16800e-06;0.0034899972804181955
3.16825e-06;0.003504104023455896
3.16850e-06;0.003518210766493597
3.16875e-06;0.0035323175095312975
3.16900e-06;0.0035464242525689743
3.16925e-06;0.003560530995606675
3.16950e-06;0.0035746377386443756
3.16975e-06;0.0035887444816820524
3.17000e-06;0.003602851224719753
3.17025e-06;0.0036070931168826078
3.17050e-06;0.003606658965342408
3.17075e-06;0.0036062248138022087
3.17100e-06;0.0036057906622620085
3.17125e-06;0.0036053565107218087
3.17150e-06;0.0036049223591816094
3.17175e-06;0.0036044882076414096
3.17200e-06;0.0036040540561012094
3.17225e-06;0.00360361990456101
3.17250e-06;0.0036031857530208103
3.17275e-06;0.00360275160148061
3.17300e-06;0.0036023174499404103
3.17325e-06;0.003601883298400211
3.17350e-06;0.0035984661755548634
3.17375e-06;0.0035813133178295934
3.17400e-06;0.003564160460104352
3.17425e-06;0.0035470076023790815
3.17450e-06;0.0035298547446538115
3.17475e-06;0.003512701886928541
3.17500e-06;0.0034955490292033
3.17525e-06;0.0034783961714780296
3.17550e-06;0.003461243313752759
3.17575e-06;0.003444090456027518
3.17600e-06;0.0034269375983022477
3.17625e-06;0.0034097847405769777
3.17650e-06;0.0033926318828517363
3.17675e-06;0.0033754790251264663
3.17700e-06;0.0033570183399543696
3.17725e-06;0.003337937730733219
3.17750e-06;0.003318857121512101
3.17775e-06;0.0032997765122909505
3.17800e-06;0.0032806959030697996
3.17825e-06;0.0032616152938486813
3.17850e-06;0.003242534684627531
3.17875e-06;0.0032234540754063805
3.17900e-06;0.0032043734661852297
3.17925e-06;0.0031852928569641114
3.17950e-06;0.003166212247742961
3.17975e-06;0.0031471316385218106
3.18000e-06;0.0031280510293006923
3.18025e-06;0.0031107003609597054
3.18050e-06;0.0031013155785957346
3.18075e-06;0.0030919307962317803
3.18100e-06;0.0030825460138678095
3.18125e-06;0.003073161231503839
3.18150e-06;0.003063776449139869
3.18175e-06;0.003054391666775914
3.18200e-06;0.0030450068844119437
3.18225e-06;0.0030356221020479733
3.18250e-06;0.0030262373196840186
3.18275e-06;0.0030168525373200483
3.18300e-06;0.0030074677549560775
3.18325e-06;0.002998082972592107
3.18350e-06;0.0029886981902281524
3.18375e-06;0.0029835733867642706
3.18400e-06;0.002980467858377695
3.18425e-06;0.002977362329991124
3.18450e-06;0.0029742568016045486
3.18475e-06;0.0029711512732179726
3.18500e-06;0.002968045744831402
3.18525e-06;0.002964940216444826
3.18550e-06;0.00296183468805825
3.18575e-06;0.0029587291596716745
3.18600e-06;0.0029556236312851037
3.18625e-06;0.002952518102898528
3.18650e-06;0.002949412574511952
3.18675e-06;0.0029463070461253817
3.18700e-06;0.0029432015177388057
3.18725e-06;0.0029414658396705274
3.18750e-06;0.0029403794851487587
3.18775e-06;0.0029392931306269922
3.18800e-06;0.002938206776105224
3.18825e-06;0.0029371204215834553
3.18850e-06;0.002936034067061689
3.18875e-06;0.0029349477125399205
3.18900e-06;0.002933861358018152
3.18925e-06;0.0029327750034963854
3.18950e-06;0.002931688648974617
3.18975e-06;0.0029306022944528484
3.19000e-06;0.00292951593993108
3.19025e-06;0.0029284295854093137
3.19050e-06;0.002927343230887545
3.19075e-06;0.002920800543168011
3.19100e-06;0.002911671495774227
3.19125e-06;0.0029025424483804275
3.19150e-06;0.002893413400986628
3.19175e-06;0.0028842843535928286
3.19200e-06;0.0028751553061990448
3.19225e-06;0.0028660262588052453
3.19250e-06;0.002856897211411446
3.19275e-06;0.002847768164017662
3.19300e-06;0.0028386391166238625
3.19325e-06;0.002829510069230063
3.19350e-06;0.0028203810218362787
3.19375e-06;0.0028093027046649974
3.19400e-06;0.002789248554292255
3.19425e-06;0.002769194403919513
3.19450e-06;0.002749140253546805
3.19475e-06;0.0027290861031740625
3.19500e-06;0.0027090319528013202
3.19525e-06;0.002688977802428612
3.19550e-06;0.0026689236520558695
3.19575e-06;0.002648869501683127
3.19600e-06;0.002628815351310385
3.19625e-06;0.002608761200937677
3.19650e-06;0.0025887070505649346
3.19675e-06;0.0025686529001921923
3.19700e-06;0.0025479547079054602
3.19725e-06;0.0025269512329362223
3.19750e-06;0.0025059477579669844
3.19775e-06;0.002484944282997782
3.19800e-06;0.0024639408080285446
3.19825e-06;0.0024429373330593068
3.19850e-06;0.002421933858090069
3.19875e-06;0.002400930383120867
3.19900e-06;0.002379926908151629
3.19925e-06;0.002358923433182391
3.19950e-06;0.0023397774121215117
3.19975e-06;0.0023291844382860995
3.20000e-06;0.002318591464450687
