Time(s);Current(A)
5.80000e-06;-0.0010284669076666502
5.80025e-06;-0.0010118077792417776
5.80050e-06;-0.0009951486508168487
5.80075e-06;-0.0009835413838257783
5.80100e-06;-0.0009722541308592425
5.80125e-06;-0.0009609668778926683
5.80150e-06;-0.0009496796249261324
5.80175e-06;-0.0009383923719595964
5.80200e-06;-0.0009271051189930223
5.80225e-06;-0.0009158178660264863
5.80250e-06;-0.0009045306130599121
5.80275e-06;-0.000894695944698088
5.80300e-06;-0.000886706813126471
5.80325e-06;-0.0008787176815548269
5.80350e-06;-0.0008707285499832099
5.80375e-06;-0.0008627394184115929
5.80400e-06;-0.0008547502868399488
5.80425e-06;-0.0008467611552683317
5.80450e-06;-0.0008387720236967147
5.80475e-06;-0.0008307828921250706
5.80500e-06;-0.0008250830497879044
5.80525e-06;-0.0008195282242273323
5.80550e-06;-0.0008139733986667413
5.80575e-06;-0.0008084185731061691
5.80600e-06;-0.0008028637475455969
5.80625e-06;-0.000797308921985006
5.80650e-06;-0.0007917540964244338
5.80675e-06;-0.0007861992708638429
5.80700e-06;-0.0007811584828081037
5.80725e-06;-0.0007767707893284465
5.80750e-06;-0.0007723830958487745
5.80775e-06;-0.0007665120275908657
5.80800e-06;-0.0007587563030328798
5.80825e-06;-0.0007510005784748677
5.80850e-06;-0.0007414499043790443
5.80875e-06;-0.0007296187122345411
5.80900e-06;-0.0007177875200899979
5.80925e-06;-0.000704590102405558
5.80950e-06;-0.0006896568687905471
5.80975e-06;-0.0006731013844144976
5.81000e-06;-0.0006544847991207128
5.81025e-06;-0.0006342987737956019
5.81050e-06;-0.00061211874460445
5.81075e-06;-0.0005886678098222858
5.81100e-06;-0.0005636021649451694
5.81125e-06;-0.0005374269692015537
5.81150e-06;-0.0005098420676563569
5.81175e-06;-0.0004809891702373464
5.81200e-06;-0.0004505252595757086
5.81225e-06;-0.0004189940081767936
5.81250e-06;-0.0003861066797605731
5.81275e-06;-0.0003523926882440081
5.81300e-06;-0.00031762840529536013
5.81325e-06;-0.0002828641223465944
5.81350e-06;-0.00024748427608026224
5.81375e-06;-0.00021132234473222902
5.81400e-06;-0.00017516041338407325
5.81425e-06;-0.00013882439729795466
5.81450e-06;-0.00010226720319050971
5.81475e-06;-6.589115821748058e-05
5.81500e-06;-2.9995822866734793e-05
5.81525e-06;5.251030487417157e-06
5.81550e-06;3.970536842157141e-05
5.81575e-06;7.326958991592795e-05
5.81600e-06;0.00010580647490628178
5.81625e-06;0.00013710843224098307
5.81650e-06;0.0001669420590765038
5.81675e-06;0.00019507396018610327
5.81700e-06;0.000221270793875127
5.81725e-06;0.00024531746212751903
5.81750e-06;0.00026810085737978675
5.81775e-06;0.00029102461124601753
5.81800e-06;0.0003141266934417093
5.81825e-06;0.0003376092628447758
5.81850e-06;0.00036157524859183
5.81875e-06;0.0003855412343388842
5.81900e-06;0.0004094253506368974
5.81925e-06;0.00043320545021882444
5.81950e-06;0.00045698554980083206
5.81975e-06;0.00048180408094561773
5.82000e-06;0.0005079419594430593
5.82025e-06;0.0005340798379405895
5.82050e-06;0.0005611745050055503
5.82075e-06;0.0005894847904210507
5.82100e-06;0.0006177950758366469
5.82125e-06;0.0006470939217117259
5.82150e-06;0.0006776487527397011
5.82175e-06;0.0007082035837677798
5.82200e-06;0.000738758414795755
5.82225e-06;0.0007693132458237302
5.82250e-06;0.0007998680768518089
5.82275e-06;0.0008323971745314326
5.82300e-06;0.0008650513336411435
5.82325e-06;0.000897705492750965
5.82350e-06;0.0009303596518606759
5.82375e-06;0.0009630138109704974
5.82400e-06;0.0009957582563850324
5.82425e-06;0.0010286174122932593
5.82450e-06;0.0010611982351472135
5.82475e-06;0.001093425430480903
5.82500e-06;0.0011250263315787446
5.82525e-06;0.0011558315137564223
5.82550e-06;0.0011858742987059965
5.82575e-06;0.0012149484432556644
5.82600e-06;0.0012431344446409997
5.82625e-06;0.0012701920429859814
5.82650e-06;0.001295636094085573
5.82675e-06;0.0013190301022527402
5.82700e-06;0.0013424241104198283
5.82725e-06;0.0013622318997404445
5.82750e-06;0.0013774833287676495
5.82775e-06;0.001392734757794803
5.82800e-06;0.001407986186822008
5.82825e-06;0.0014232376158491613
5.82850e-06;0.0014384890448763147
5.82875e-06;0.0014537404739035197
5.82900e-06;0.0014689919029306732
5.82925e-06;0.0014842433319578264
5.82950e-06;0.0014955084851945612
5.82975e-06;0.0015017089980657074
5.83000e-06;0.0015079095109368536
5.83025e-06;0.0015141100238080208
5.83050e-06;0.001520310536679167
5.83075e-06;0.0015265110495503132
5.83100e-06;0.0015327115624214805
5.83125e-06;0.0015389120752926267
5.83150e-06;0.0015451125881637729
5.83175e-06;0.0015486686732342958
5.83200e-06;0.0015488649617211405
5.83225e-06;0.0015490612502079856
5.83250e-06;0.0015492575386948303
5.83275e-06;0.0015494538271816748
5.83300e-06;0.00154965011566852
5.83325e-06;0.0015498464041553647
5.83350e-06;0.0015500426926422092
5.83375e-06;0.0015502389811290545
5.83400e-06;0.001550435269615899
5.83425e-06;0.0015481489732459275
5.83450e-06;0.0015457054156407714
5.83475e-06;0.0015432618580356237
5.83500e-06;0.0015408183004304759
5.83525e-06;0.0015383747428253198
5.83550e-06;0.001535931185220172
5.83575e-06;0.0015334876276150242
5.83600e-06;0.0015310440700098682
5.83625e-06;0.0015286005124047204
5.83650e-06;0.0015261686962142209
5.83675e-06;0.0015238108124263725
5.83700e-06;0.001521594357194144
5.83725e-06;0.0015193893661471583
5.83750e-06;0.00151657664414452
5.83775e-06;0.0015116305805998537
5.83800e-06;0.0015048054413194219
5.83825e-06;0.0014959973104121547
5.83850e-06;0.0014846697503524285
5.83875e-06;0.0014716177148784491
5.83900e-06;0.0014563747000920567
5.83925e-06;0.0014387946908814343
5.83950e-06;0.001418245485128654
5.83975e-06;0.0013976962793759437
5.84000e-06;0.0013735744875784351
5.84025e-06;0.001344913656226263
5.84050e-06;0.0013162528248741882
5.84075e-06;0.0012846929237346346
5.84100e-06;0.0012494496984505944
5.84125e-06;0.0012142064731666736
5.84150e-06;0.0011762916573223082
5.84175e-06;0.0011349825340843805
5.84200e-06;0.0010936734108464526
5.84225e-06;0.0010500242424671565
5.84250e-06;0.001003402001551262
5.84275e-06;0.0009567797606353675
5.84300e-06;0.0009086566246818312
5.84325e-06;0.0008586265726020121
5.84350e-06;0.0008085965205221929
5.84375e-06;0.0007585664684422043
5.84400e-06;0.0007079040783742118
5.84425e-06;0.0006564382906822163
5.84450e-06;0.0006049725029900464
5.84475e-06;0.0005535067152980509
5.84500e-06;0.0005027506551040524
5.84525e-06;0.0004528963174004469
5.84550e-06;0.00040407763399686415
5.84575e-06;0.00035657476937884884
5.84600e-06;0.0003100703992780044
5.84625e-06;0.0002656856191230087
5.84650e-06;0.00022337851185559674
5.84675e-06;0.00018347940941929326
5.84700e-06;0.00014631859836766674
5.84725e-06;0.0001121203301469777
5.84750e-06;8.073727804849358e-05
5.84775e-06;5.167704054643633e-05
5.84800e-06;2.458964772951278e-05
5.84825e-06;-5.108990414117502e-07
5.84850e-06;-2.3468495012696286e-05
5.84875e-06;-4.41269653032932e-05
5.84900e-06;-6.233018596365318e-05
5.84925e-06;-7.798847257812129e-05
5.84950e-06;-9.124489412868039e-05
5.84975e-06;-0.00010245865684814903
5.85000e-06;-0.00011189972115273827
5.85025e-06;-0.00011961003533614719
5.85050e-06;-0.00012554254604353878
5.85075e-06;-0.000129650166481779
5.85100e-06;-0.00013188583636086123
5.85125e-06;-0.00013224412515854954
5.85150e-06;-0.000130865395478115
5.85175e-06;-0.00012802537459348574
5.85200e-06;-0.00012394387123087247
5.85225e-06;-0.00011869786663034053
5.85250e-06;-0.0001123085696045022
5.85275e-06;-0.0001047971732840946
5.85300e-06;-9.618489669913552e-05
5.85325e-06;-8.651903357364651e-05
5.85350e-06;-7.593819127202497e-05
5.85375e-06;-6.466575367085582e-05
5.85400e-06;-5.289006740432817e-05
5.85425e-06;-4.0709992581072665e-05
5.85450e-06;-2.8189457065103133e-05
5.85475e-06;-1.539237570490701e-05
5.85500e-06;-2.382669541315045e-06
5.85525e-06;1.0759410074702891e-05
5.85550e-06;2.3896419863941516e-05
5.85575e-06;3.683781965377539e-05
5.85600e-06;4.9415040385425324e-05
5.85625e-06;6.151557056579957e-05
5.85650e-06;7.304878714445321e-05
5.85675e-06;8.392409033054048e-05
5.85700e-06;9.405087465964347e-05
5.85725e-06;0.00010333547550564416
5.85750e-06;0.00011167953015296593
5.85775e-06;0.00011899763594713489
5.85800e-06;0.00012524042957607527
5.85825e-06;0.00013038821344692382
5.85850e-06;0.00013442953173487625
5.85875e-06;0.00013735294836831306
5.85900e-06;0.0001391470302171723
5.85925e-06;0.00013979843304103554
5.85950e-06;0.00013929085355256807
5.85975e-06;0.00013761612733809676
5.86000e-06;0.0001347886713195724
5.86025e-06;0.00013084146696996042
5.86050e-06;0.00012581267061871995
5.86075e-06;0.0001197404507317342
5.86100e-06;0.00011266295082037366
5.86125e-06;0.00010461715020518071
5.86150e-06;9.563816728455892e-05
5.86175e-06;8.576620008175148e-05
5.86200e-06;7.505559531661826e-05
5.86225e-06;6.357233572862573e-05
5.86250e-06;5.1385629793234115e-05
5.86275e-06;3.8564690057165955e-05
5.86300e-06;2.5178725862778956e-05
5.86325e-06;1.1296189815821044e-05
5.86350e-06;-3.0156252413994522e-06
5.86375e-06;-1.768624493393146e-05
5.86400e-06;-3.266789331839878e-05
5.86425e-06;-4.781939383845547e-05
5.86450e-06;-6.299853974466321e-05
5.86475e-06;-7.821280964784123e-05
5.86500e-06;-9.34270795510708e-05
5.86525e-06;-0.00010844234678934933
5.86550e-06;-0.00012320477729936734
5.86575e-06;-0.0001376227299568925
5.86600e-06;-0.00015160301685125863
5.86625e-06;-0.00016506473314356236
5.86650e-06;-0.00017786759547301428
5.86675e-06;-0.00018997442968953827
5.86700e-06;-0.00020119694674922657
5.86725e-06;-0.0002119784493524419
5.86750e-06;-0.00022219963457331302
5.86775e-06;-0.00023297195808111667
5.86800e-06;-0.00024530149889939924
5.86825e-06;-0.0002587198563112644
5.86850e-06;-0.0002730535089094183
5.86875e-06;-0.00028855006171483457
5.86900e-06;-0.0003047334231871967
5.86925e-06;-0.00032178938833237304
5.86950e-06;-0.00033994458574346383
5.86975e-06;-0.00035949637897323
5.87000e-06;-0.00038055206027627235
5.87025e-06;-0.0004035184604143748
5.87050e-06;-0.0004277063265850562
5.87075e-06;-0.00045344608893512894
5.87100e-06;-0.00048034028059087616
5.87125e-06;-0.0005087011969701906
5.87150e-06;-0.0005370621133494088
5.87175e-06;-0.0005670335903485931
5.87200e-06;-0.0005990513157133171
5.87225e-06;-0.0006310690410779327
5.87250e-06;-0.0006644286529024615
5.87275e-06;-0.0006994931573844323
5.87300e-06;-0.0007345576618662844
5.87325e-06;-0.0007696221663481364
5.87350e-06;-0.0008046866708301073
5.87375e-06;-0.0008402666080338156
5.87400e-06;-0.0008765014124629295
5.87425e-06;-0.000912736216892166
5.87450e-06;-0.00094897102132128
5.87475e-06;-0.0009852058257503937
5.87500e-06;-0.001020117916702486
5.87525e-06;-0.0010533494746420365
5.87550e-06;-0.0010865810325816996
5.87575e-06;-0.00111981259052125
5.87600e-06;-0.0011530441484608005
5.87625e-06;-0.0011862757064004636
5.87650e-06;-0.0012115264553203067
5.87675e-06;-0.0012362716537949881
5.87700e-06;-0.0012610168522697533
5.87725e-06;-0.0012857620507444347
5.87750e-06;-0.001310507249219116
5.87775e-06;-0.0013304418959519588
5.87800e-06;-0.0013442646438120627
5.87825e-06;-0.0013548461972274699
5.87850e-06;-0.001361309750518306
5.87875e-06;-0.0013645692819654017
5.87900e-06;-0.0013637580417952507
5.87925e-06;-0.001359672331293383
5.87950e-06;-0.0013514263430100767
5.87975e-06;-0.0013396595966861454
5.88000e-06;-0.001323419659291288
5.88025e-06;-0.0013038289580056656
5.88050e-06;-0.0012799810464986935
5.88075e-06;-0.0012530987996625248
5.88100e-06;-0.0012223613712022546
5.88125e-06;-0.0011888385612942032
5.88150e-06;-0.0011517768704756848
5.88175e-06;-0.00111206856737448
5.88200e-06;-0.001068997692266092
5.88225e-06;-0.0010232203441693875
5.88250e-06;-0.000974004369883189
5.88275e-06;-0.0009247883955968236
5.88300e-06;-0.0008735749964591048
5.88325e-06;-0.0008198238304804943
5.88350e-06;-0.0007649474370511331
5.88375e-06;-0.0007086414204197087
5.88400e-06;-0.0006516604775352149
5.88425e-06;-0.0005938220278149216
5.88450e-06;-0.0005358997923337756
5.88475e-06;-0.00047787110542550523
5.88500e-06;-0.0004203544646872182
5.88525e-06;-0.0003634883884943996
5.88550e-06;-0.00030734567188976067
5.88575e-06;-0.0002527761200236555
5.88600e-06;-0.0001998472625650381
5.88625e-06;-0.00014892380976870554
5.88650e-06;-0.00010038527878869358
5.88675e-06;-5.46111620091287e-05
5.88700e-06;-1.1980900967684279e-05
5.88725e-06;2.732382991681109e-05
5.88750e-06;6.380025065304969e-05
5.88775e-06;9.85351254258312e-05
5.88800e-06;0.0001322740526534878
5.88825e-06;0.00016503834538236946
5.88850e-06;0.00019657440376235415
5.88875e-06;0.00022662845694388704
5.88900e-06;0.00025494678534994613
5.88925e-06;0.0002811321649882057
5.88950e-06;0.00030594251106447066
5.88975e-06;0.0003301757973736565
5.89000e-06;0.0003536759181065898
5.89025e-06;0.0003765004588615508
5.89050e-06;0.00039846666221033636
5.89075e-06;0.0004204328655590475
5.89100e-06;0.00044113106021481733
5.89125e-06;0.00046021822534332167
5.89150e-06;0.00047930539047176134
5.89175e-06;0.0004977993321606594
5.89200e-06;0.0005155395720156216
5.89225e-06;0.0005332798118705236
5.89250e-06;0.0005494437326252039
5.89275e-06;0.0005636049095271355
5.89300e-06;0.000577766086429067
5.89325e-06;0.0005919272633310465
5.89350e-06;0.0006060884402329782
5.89375e-06;0.0006202496171349097
5.89400e-06;0.0006344107940368893
5.89425e-06;0.0006485719709388208
5.89450e-06;0.0006627331478407524
5.89475e-06;0.0006768943247427319
5.89500e-06;0.0006910555016446635
5.89525e-06;0.000705216678546595
5.89550e-06;0.0007168344249059173
5.89575e-06;0.0007252206936520251
5.89600e-06;0.0007336069623981329
5.89625e-06;0.0007419932311442691
5.89650e-06;0.0007503794998903769
5.89675e-06;0.0007587657686365132
5.89700e-06;0.000767152037382621
5.89725e-06;0.0007755383061287288
5.89750e-06;0.000783924574874865
5.89775e-06;0.0007923108436209728
5.89800e-06;0.0008006971123670807
5.89825e-06;0.0008090833811132169
5.89850e-06;0.0008153267866125777
5.89875e-06;0.0008188476429825547
5.89900e-06;0.0008223684993525438
5.89925e-06;0.0008258893557225209
5.89950e-06;0.0008294102120924979
5.89975e-06;0.000832931068462487
5.90000e-06;0.0008364519248324641
5.90025e-06;0.0008399727812024411
5.90050e-06;0.0008434936375724301
5.90075e-06;0.0008470144939424073
5.90100e-06;0.0008505353503123962
5.90125e-06;0.0008540562066823733
5.90150e-06;0.0008575770630523504
5.90175e-06;0.0008610979194223394
5.90200e-06;0.0008621297309617695
5.90225e-06;0.0008630038720549749
5.90250e-06;0.0008638780131481833
5.90275e-06;0.0008647521542413887
5.90300e-06;0.0008656262953345941
5.90325e-06;0.0008665004364278025
5.90350e-06;0.0008673745775210079
5.90375e-06;0.0008682487186142133
5.90400e-06;0.0008691228597074217
5.90425e-06;0.0008699970008006271
5.90450e-06;0.0008708711418938326
5.90475e-06;0.0008717452829870409
5.90500e-06;0.0008726194240802463
5.90525e-06;0.0008731593459854143
5.90550e-06;0.0008732746359591302
5.90575e-06;0.0008733899259328463
5.90600e-06;0.0008734806563536165
5.90625e-06;0.0008735401833881773
5.90650e-06;0.0008735997104227381
5.90675e-06;0.0008736486838567812
5.90700e-06;0.0008736773525792042
5.90725e-06;0.0008734227463498119
5.90750e-06;0.0008717309776153378
5.90775e-06;0.0008667701504376193
5.90800e-06;0.0008573325884881252
5.90825e-06;0.000843286495166475
5.90850e-06;0.0008248924640665215
5.90875e-06;0.0008024113562881611
5.90900e-06;0.0007761040259961278
5.90925e-06;0.0007460642114036288
5.90950e-06;0.000711831041005405
5.90975e-06;0.0006725189672810697
5.91000e-06;0.000627633629875058
5.91025e-06;0.0005773546149407731
5.91050e-06;0.0005221072319866385
5.91075e-06;0.00046231692080610817
5.91100e-06;0.00039840910837443634
5.91125e-06;0.00033070453246463816
5.91150e-06;0.0002591765457058824
5.91175e-06;0.0001835324832637568
5.91200e-06;0.00010372473213168901
5.91225e-06;2.0127834235531315e-05
5.91250e-06;-6.672975000669067e-05
5.91275e-06;-0.00015631951426049848
5.91300e-06;-0.00024811299584804084
5.91325e-06;-0.00034196754402790236
5.91350e-06;-0.00043708421706531214
5.91375e-06;-0.0005334557858408449
5.91400e-06;-0.0006314217238799689
5.91425e-06;-0.000729387661919093
5.91450e-06;-0.0008270416577453175
5.91475e-06;-0.0009242993249664464
5.91500e-06;-0.0010215569921875754
5.91525e-06;-0.0011164013628783816
5.91550e-06;-0.0012081795937317604
5.91575e-06;-0.0012999578245851391
5.91600e-06;-0.0013884952199006576
5.91625e-06;-0.0014729150710919995
5.91650e-06;-0.001553516757796939
5.91675e-06;-0.0016292673928027291
5.91700e-06;-0.0017001942291010295
5.91725e-06;-0.0017649923360061024
5.91750e-06;-0.0018256275474139662
5.91775e-06;-0.0018809737197169275
5.91800e-06;-0.0019332027002437037
5.91825e-06;-0.0019814712284332136
5.91850e-06;-0.002025181515558928
5.91875e-06;-0.002063100469404955
5.91900e-06;-0.002101019423250853
5.91925e-06;-0.0021332405608124683
5.91950e-06;-0.002158222512774468
5.91975e-06;-0.0021832044647363824
5.92000e-06;-0.0022039954665687843
5.92025e-06;-0.0022194617853450466
5.92050e-06;-0.002234928104121257
5.92075e-06;-0.002246058952531496
5.92100e-06;-0.0022516815021348976
5.92125e-06;-0.0022573040517382802
5.92150e-06;-0.002257214428742371
5.92175e-06;-0.002249867380171632
5.92200e-06;-0.0022425203316009177
5.92225e-06;-0.0022351732830301787
5.92250e-06;-0.002227826234459465
5.92275e-06;-0.0022204791858887506
5.92300e-06;-0.0022131321373180116
5.92325e-06;-0.0022057850887472977
5.92350e-06;-0.0021883600215395617
5.92375e-06;-0.00217029655454355
5.92400e-06;-0.0021522330875475993
5.92425e-06;-0.002134169620551649
5.92450e-06;-0.0021161061535556374
5.92475e-06;-0.002098042686559687
5.92500e-06;-0.0020799792195637366
5.92525e-06;-0.002061008912011293
5.92550e-06;-0.0020408864460232925
5.92575e-06;-0.002020763980035292
5.92600e-06;-0.002001709414511195
5.92625e-06;-0.001984011637144929
5.92650e-06;-0.0019663138597786033
5.92675e-06;-0.0019486160824123378
5.92700e-06;-0.0019323539621701235
5.92725e-06;-0.0019179158720226239
5.92750e-06;-0.0019034777818751733
5.92775e-06;-0.0018890396917277228
5.92800e-06;-0.0018737038100190059
5.92825e-06;-0.0018572272667979153
5.92850e-06;-0.001840750723576825
5.92875e-06;-0.0018242741803556786
5.92900e-06;-0.001807797637134588
5.92925e-06;-0.0017913210939134974
5.92950e-06;-0.0017748445506923511
5.92975e-06;-0.0017563433129451082
5.93000e-06;-0.001735269661711154
5.93025e-06;-0.0017141960104771286
5.93050e-06;-0.0016931223592431745
5.93075e-06;-0.001672048708009149
5.93100e-06;-0.0016509750567751948
5.93125e-06;-0.0016299014055412408
5.93150e-06;-0.0016066717260517355
5.93175e-06;-0.0015807027710369032
5.93200e-06;-0.0015547338160220709
5.93225e-06;-0.0015287648610071507
5.93250e-06;-0.0015027959059923184
5.93275e-06;-0.001476826950977486
5.93300e-06;-0.0014508579959625657
5.93325e-06;-0.0014248890409477334
5.93350e-06;-0.0013983927989964261
5.93375e-06;-0.0013712266288118337
5.93400e-06;-0.0013440604586273332
5.93425e-06;-0.0013168942884428326
5.93450e-06;-0.00128972811825824
5.93475e-06;-0.0012625619480737395
5.93500e-06;-0.001235395777889147
5.93525e-06;-0.0012082296077046465
5.93550e-06;-0.0011822606324087468
5.93575e-06;-0.0011578127163330767
5.93600e-06;-0.0011333648002574894
5.93625e-06;-0.00111025044910737
5.93650e-06;-0.001088830417942214
5.93675e-06;-0.001067410386777131
5.93700e-06;-0.001047452093374951
5.93725e-06;-0.001029350966022324
5.93750e-06;-0.0010105339712828077
5.93775e-06;-0.0009908074532068946
5.93800e-06;-0.0009685100011350358
5.93825e-06;-0.0009429461277844155
5.93850e-06;-0.0009151909167850967
5.93875e-06;-0.0008846515689948116
5.93900e-06;-0.0008523743636521748
5.93925e-06;-0.0008178891767362134
5.93950e-06;-0.0007816822831221399
5.93975e-06;-0.0007415751682693021
5.94000e-06;-0.0006975480771509217
5.94025e-06;-0.0006497352307893062
5.94050e-06;-0.0005985312119825368
5.94075e-06;-0.000544330617398865
5.94100e-06;-0.0004875280939275763
5.94125e-06;-0.00042840545595778707
5.94150e-06;-0.00036686603213114554
5.94175e-06;-0.0003025110871956835
5.94200e-06;-0.00023518421018349522
5.94225e-06;-0.00016517090391443025
5.94250e-06;-9.291971609792603e-05
5.94275e-06;-1.887923568297862e-05
5.94300e-06;5.6502018369925666e-05
5.94325e-06;0.00013303299188429242
5.94350e-06;0.00021024990697232843
5.94375e-06;0.0002880496811682894
5.94400e-06;0.0003668540721014237
5.94425e-06;0.0004460456601309421
