Time(s);Current(A)
1.25000e-06;-0.012598597432540215
1.25025e-06;-0.012605284204933604
1.25050e-06;-0.012614500573132008
1.25075e-06;-0.012623716941330403
1.25100e-06;-0.012632933309528804
1.25125e-06;-0.012642149677727199
1.25150e-06;-0.012651366045925594
1.25175e-06;-0.012661491061365444
1.25200e-06;-0.012675425509726841
1.25225e-06;-0.012689359958088248
1.25250e-06;-0.012703294406449645
1.25275e-06;-0.012717228854811042
1.25300e-06;-0.012731163303172451
1.25325e-06;-0.012745836070219795
1.25350e-06;-0.01276360418096108
1.25375e-06;-0.012781372291702349
1.25400e-06;-0.012799140402443619
1.25425e-06;-0.012816908513184904
1.25450e-06;-0.012834676623926174
1.25475e-06;-0.012853849946938348
1.25500e-06;-0.01287364698624126
1.25525e-06;-0.012893444025544187
1.25550e-06;-0.012913241064847099
1.25575e-06;-0.012933038104150009
1.25600e-06;-0.012952903048226959
1.25625e-06;-0.012973052677790052
1.25650e-06;-0.012993122670682176
1.25675e-06;-0.01301285879302214
1.25700e-06;-0.013032451246502959
1.25725e-06;-0.013051441379460673
1.25750e-06;-0.013070296721971868
1.25775e-06;-0.013088403927224797
1.25800e-06;-0.013105743756580275
1.25825e-06;-0.013122672159695967
1.25850e-06;-0.01313787569028572
1.25875e-06;-0.013153079220875458
1.25900e-06;-0.013167755436103766
1.25925e-06;-0.01318022092267283
1.25950e-06;-0.013192686409241905
1.25975e-06;-0.013205151895810969
1.26000e-06;-0.013217617382380033
1.26025e-06;-0.013230082868949108
1.26050e-06;-0.01324254835551817
1.26075e-06;-0.013254670850942505
1.26100e-06;-0.01326535538265674
1.26125e-06;-0.013276039914370975
1.26150e-06;-0.013286724446085219
1.26175e-06;-0.013297408977799454
1.26200e-06;-0.013308093509513699
1.26225e-06;-0.013318778041227932
1.26250e-06;-0.013329300776887112
1.26275e-06;-0.013339145195163559
1.26300e-06;-0.013348989613439999
1.26325e-06;-0.013358834031716445
1.26350e-06;-0.013368678449992885
1.26375e-06;-0.013378522868269333
1.26400e-06;-0.013388069403123296
1.26425e-06;-0.013397483719701642
1.26450e-06;-0.013406898036279995
1.26475e-06;-0.013416312352858341
1.26500e-06;-0.013425726669436694
1.26525e-06;-0.013435061968957787
1.26550e-06;-0.01344406599560917
1.26575e-06;-0.013453043925108241
1.26600e-06;-0.013461912444325017
1.26625e-06;-0.013470723836785695
1.26650e-06;-0.013479295729762456
1.26675e-06;-0.013487783771064242
1.26700e-06;-0.013495920270737377
1.26725e-06;-0.013503983949490634
1.26750e-06;-0.013511742332198474
1.26775e-06;-0.01351944663730202
1.26800e-06;-0.01352687920642384
1.26825e-06;-0.013534071018466435
1.26850e-06;-0.013540985572487525
1.26875e-06;-0.013547583463241674
1.26900e-06;-0.013553798684491575
1.26925e-06;-0.013559475215920725
1.26950e-06;-0.013564408159232643
1.26975e-06;-0.01356849789689079
1.27000e-06;-0.013571746153487451
1.27025e-06;-0.013574169872190836
1.27050e-06;-0.013575786927491739
1.27075e-06;-0.013576614690308549
1.27100e-06;-0.013576653429951211
1.27125e-06;-0.013575844638867815
1.27150e-06;-0.01357410311803226
1.27175e-06;-0.013571323043138883
1.27200e-06;-0.013567445481599471
1.27225e-06;-0.013563111488937279
1.27250e-06;-0.01355686394427611
1.27275e-06;-0.013550616399614945
1.27300e-06;-0.013544368854953776
1.27325e-06;-0.013537583852444326
1.27350e-06;-0.013528545599688318
1.27375e-06;-0.013519507346932318
1.27400e-06;-0.013510469094176318
1.27425e-06;-0.013501079606035225
1.27450e-06;-0.013490217590847484
1.27475e-06;-0.013479355575659734
1.27500e-06;-0.01346833706723901
1.27525e-06;-0.013456662473104918
1.27550e-06;-0.013444905820914552
1.27575e-06;-0.013432805146702573
1.27600e-06;-0.013420684563322835
1.27625e-06;-0.013408480512305074
1.27650e-06;-0.01339632399218329
1.27675e-06;-0.013384366741647792
1.27700e-06;-0.013372516301106852
1.27725e-06;-0.013361113653164537
1.27750e-06;-0.01334987198250201
1.27775e-06;-0.013339305196570414
1.27800e-06;-0.013328970146176957
1.27825e-06;-0.013319606629011773
1.27850e-06;-0.013310462830139314
1.27875e-06;-0.01330240376115495
1.27900e-06;-0.01329512966744672
1.27925e-06;-0.013288174462915641
1.27950e-06;-0.013280812823624593
1.27975e-06;-0.013273237474663503
1.28000e-06;-0.0132647661645248
1.28025e-06;-0.013256158808406466
1.28050e-06;-0.013246981090094917
1.28075e-06;-0.013237663379842569
1.28100e-06;-0.013227758764261525
1.28125e-06;-0.01321785414868049
1.28150e-06;-0.013207390605635094
1.28175e-06;-0.01319458380264704
1.28200e-06;-0.013181776999658978
1.28225e-06;-0.013168970196670925
1.28250e-06;-0.013156163393682873
1.28275e-06;-0.013142816352737476
1.28300e-06;-0.013127204406154681
1.28325e-06;-0.013111592459571874
1.28350e-06;-0.01309598051298908
1.28375e-06;-0.013080368566406287
1.28400e-06;-0.013064316172832784
1.28425e-06;-0.013046417239491678
1.28450e-06;-0.013028518306150557
1.28475e-06;-0.013010619372809451
1.28500e-06;-0.012992720439468346
1.28525e-06;-0.012974821506127224
1.28550e-06;-0.01295688406977101
1.28575e-06;-0.012938785212517205
1.28600e-06;-0.012920686355263415
1.28625e-06;-0.01290258749800961
1.28650e-06;-0.01288448864075582
1.28675e-06;-0.01286638978350203
1.28700e-06;-0.012848574587048207
1.28725e-06;-0.012831948616446171
1.28750e-06;-0.012815552049677938
1.28775e-06;-0.012800117240648836
1.28800e-06;-0.012785002144155917
1.28825e-06;-0.012771227417616054
1.28850e-06;-0.012757994334034886
1.28875e-06;-0.012747032046449936
1.28900e-06;-0.012736069758864996
1.28925e-06;-0.012725819298761274
1.28950e-06;-0.012718553120034119
1.28975e-06;-0.012711286941306969
1.29000e-06;-0.01270475267859066
1.29025e-06;-0.012701286916849658
1.29050e-06;-0.012697821155108653
1.29075e-06;-0.012695133764103255
1.29100e-06;-0.012695709631895227
1.29125e-06;-0.012696285499687198
1.29150e-06;-0.012697807190458136
1.29175e-06;-0.012703294170538745
1.29200e-06;-0.01270878115061935
1.29225e-06;-0.012714268130699953
1.29250e-06;-0.012719755110780563
1.29275e-06;-0.012726272345451851
1.29300e-06;-0.012737108842401057
1.29325e-06;-0.012747945339350253
1.29350e-06;-0.012758781836299448
1.29375e-06;-0.012769618333248654
1.29400e-06;-0.012781080575938165
1.29425e-06;-0.012795166208997519
1.29450e-06;-0.012809251842056862
1.29475e-06;-0.012823627802199113
1.29500e-06;-0.0128392209360659
1.29525e-06;-0.012854971639336923
1.29550e-06;-0.012871382940085524
1.29575e-06;-0.012887867510158675
1.29600e-06;-0.012904687057269111
1.29625e-06;-0.012921635175533894
1.29650e-06;-0.012938630087928343
1.29675e-06;-0.012955590590026609
1.29700e-06;-0.012972432214375895
1.29725e-06;-0.012989057634369286
1.29750e-06;-0.013005359927272546
1.29775e-06;-0.013021234357207156
1.29800e-06;-0.013036515571044903
1.29825e-06;-0.013051027905063848
1.29850e-06;-0.01306531989302349
1.29875e-06;-0.013078522725613865
1.29900e-06;-0.01309091458904831
1.29925e-06;-0.0131028036600824
1.29950e-06;-0.013114703995332651
1.29975e-06;-0.013126864556022402
1.30000e-06;-0.013139245957827821
1.30025e-06;-0.013151753164537316
1.30050e-06;-0.013164289697714215
1.30075e-06;-0.013176803272571543
1.30100e-06;-0.013189220596458901
1.30125e-06;-0.013201797133900984
1.30150e-06;-0.013215041161793742
1.30175e-06;-0.013228285189686492
1.30200e-06;-0.013241782291744927
1.30225e-06;-0.013256340387568575
1.30250e-06;-0.013270898483392208
1.30275e-06;-0.013285456579215853
1.30300e-06;-0.013300014675039487
1.30325e-06;-0.013314572770863134
1.30350e-06;-0.013330060403697297
1.30375e-06;-0.013345960620016643
1.30400e-06;-0.013361860836336002
1.30425e-06;-0.013377761052655347
1.30450e-06;-0.013393661268974707
1.30475e-06;-0.01340964673109996
1.30500e-06;-0.013425989579639312
1.30525e-06;-0.013442332428178678
1.30550e-06;-0.013458675276718029
1.30575e-06;-0.013475018125257393
1.30600e-06;-0.013491360973796745
1.30625e-06;-0.013507703822336096
1.30650e-06;-0.01352319236251
1.30675e-06;-0.013538301710119374
1.30700e-06;-0.01355341105772876
1.30725e-06;-0.013568520405338135
1.30750e-06;-0.013583629752947522
1.30775e-06;-0.013598739100556896
1.30800e-06;-0.01361353554448263
1.30825e-06;-0.013626899274139003
1.30850e-06;-0.013639619149811624
1.30875e-06;-0.01365160615097452
1.30900e-06;-0.013662708735096426
1.30925e-06;-0.013672569689001563
1.30950e-06;-0.013680541946722549
1.30975e-06;-0.013686175982637685
1.31000e-06;-0.013691080105416104
1.31025e-06;-0.013692924124113843
1.31050e-06;-0.013694067645021813
1.31075e-06;-0.013692274383404389
1.31100e-06;-0.013689739191404841
1.31125e-06;-0.013684093513957519
1.31150e-06;-0.013677616673596918
1.31175e-06;-0.01366765524733883
1.31200e-06;-0.013656753785511353
1.31225e-06;-0.013641911297639706
1.31250e-06;-0.013627068809768045
1.31275e-06;-0.013611092396143743
1.31300e-06;-0.01359036208695536
1.31325e-06;-0.013569631777766994
1.31350e-06;-0.013548901468578628
1.31375e-06;-0.013527416225272407
1.31400e-06;-0.013502515231470898
1.31425e-06;-0.013476344892570694
1.31450e-06;-0.013449074350556681
1.31475e-06;-0.01342087052604478
1.31500e-06;-0.013391886749457668
1.31525e-06;-0.013362223734890532
1.31550e-06;-0.013331958188596543
1.31575e-06;-0.013301224096565216
1.31600e-06;-0.013270211738299056
1.31625e-06;-0.013239120416829004
1.31650e-06;-0.013208149255824211
1.31675e-06;-0.013177496268269273
1.31700e-06;-0.013147351685561979
1.31725e-06;-0.01311787332217177
1.31750e-06;-0.01308920131782665
1.31775e-06;-0.013061515714276594
1.31800e-06;-0.013035027100758882
1.31825e-06;-0.01300995433807859
1.31850e-06;-0.012986516466402588
1.31875e-06;-0.01296493614764847
1.31900e-06;-0.012945476952366357
1.31925e-06;-0.012928541811690461
1.31950e-06;-0.012914568027345027
1.31975e-06;-0.012903771494669787
1.32000e-06;-0.012896177242243045
1.32025e-06;-0.012891782117373322
1.32050e-06;-0.012890581642809621
1.32075e-06;-0.012892574066242229
1.32100e-06;-0.012897783663754473
1.32125e-06;-0.012906320993422777
1.32150e-06;-0.012918319338449245
1.32175e-06;-0.012934081682878382
1.32200e-06;-0.012953852729814894
1.32225e-06;-0.012976113524515281
1.32250e-06;-0.013008812393156113
1.32275e-06;-0.013041511261796972
1.32300e-06;-0.013074210130437804
1.32325e-06;-0.013106908999078635
1.32350e-06;-0.013139607867719495
1.32375e-06;-0.013172306736360325
1.32400e-06;-0.013207237199785482
1.32425e-06;-0.013251523450853597
1.32450e-06;-0.013295809701921712
1.32475e-06;-0.013340918267384223
1.32500e-06;-0.013389474322016093
1.32525e-06;-0.013438030376648003
1.32550e-06;-0.013487010412850877
1.32575e-06;-0.013537767958828752
1.32600e-06;-0.013588626754583145
1.32625e-06;-0.013639910032154347
1.32650e-06;-0.013691074572166539
1.32675e-06;-0.013741741314193345
1.32700e-06;-0.013792081169209052
1.32725e-06;-0.013841050575843622
1.32750e-06;-0.01388948611186713
1.32775e-06;-0.013935683436858394
1.32800e-06;-0.013979588559332304
1.32825e-06;-0.0140138838009547
1.32850e-06;-0.014048179042577064
1.32875e-06;-0.01408247428419943
1.32900e-06;-0.014116769525821825
1.32925e-06;-0.01415106476744419
1.32950e-06;-0.014185360009066585
1.32975e-06;-0.01421965525068895
1.33000e-06;-0.014253950492311346
1.33025e-06;-0.014276424432441358
1.33050e-06;-0.014293651380022424
1.33075e-06;-0.014310878327603504
1.33100e-06;-0.01432810527518457
1.33125e-06;-0.014345332222765652
1.33150e-06;-0.014362559170346716
1.33175e-06;-0.014379786117927782
1.33200e-06;-0.014397013065508864
1.33225e-06;-0.014411791575831605
1.33250e-06;-0.014416305203297642
1.33275e-06;-0.014420818830763675
1.33300e-06;-0.014425332458229708
1.33325e-06;-0.014429846085695745
1.33350e-06;-0.014434359713161779
1.33375e-06;-0.014438873340627816
1.33400e-06;-0.014443386968093849
1.33425e-06;-0.014447900595559886
1.33450e-06;-0.014447216095215161
1.33475e-06;-0.014444224358403411
1.33500e-06;-0.014441232621591658
1.33525e-06;-0.014438240884779909
1.33550e-06;-0.014435249147968156
1.33575e-06;-0.014432257411156404
1.33600e-06;-0.014429265674344655
1.33625e-06;-0.014426273937532902
1.33650e-06;-0.014422873274117412
1.33675e-06;-0.014417758217706975
1.33700e-06;-0.014412643161296543
1.33725e-06;-0.014407528104886111
1.33750e-06;-0.014402525104805018
1.33775e-06;-0.014397991892173077
1.33800e-06;-0.014393458679541131
1.33825e-06;-0.01438892546690919
1.33850e-06;-0.01438464368972772
1.33875e-06;-0.014381416036124962
1.33900e-06;-0.014378188382522203
1.33925e-06;-0.014374713269323788
1.33950e-06;-0.014370200701008917
1.33975e-06;-0.014365688132694043
1.34000e-06;-0.01436043746728202
1.34025e-06;-0.014352092387172277
1.34050e-06;-0.014343747307062527
1.34075e-06;-0.014335402226952784
1.34100e-06;-0.014327057146843033
1.34125e-06;-0.01431871206673329
1.34150e-06;-0.014310366986623546
1.34175e-06;-0.014297831439135543
1.34200e-06;-0.014283435914459514
1.34225e-06;-0.014269040389783473
1.34250e-06;-0.014254644865107444
1.34275e-06;-0.014240249340431405
1.34300e-06;-0.014225853815755377
1.34325e-06;-0.014210468705642939
1.34350e-06;-0.01419093483552208
1.34375e-06;-0.014171400965401237
1.34400e-06;-0.014151867095280376
1.34425e-06;-0.014132333225159534
1.34450e-06;-0.01411279935503869
1.34475e-06;-0.014092800549052726
1.34500e-06;-0.01407085253559805
1.34525e-06;-0.014048904522143356
1.34550e-06;-0.01402695650868868
1.34575e-06;-0.014005008495234004
1.34600e-06;-0.01398306048177931
1.34625e-06;-0.01396112251258945
1.34650e-06;-0.013939226653198933
1.34675e-06;-0.013917507554933005
1.34700e-06;-0.013896529513939791
1.34725e-06;-0.013875786795722241
1.34750e-06;-0.013856030649946923
1.34775e-06;-0.013836829494643123
1.34800e-06;-0.01381995509374431
1.34825e-06;-0.013803080692845481
1.34850e-06;-0.013786206291946667
1.34875e-06;-0.013770160139330941
1.34900e-06;-0.013757586353251047
1.34925e-06;-0.013745012567171163
1.34950e-06;-0.01373243878109127
1.34975e-06;-0.013720503602415415
1.35000e-06;-0.013711245735633284
1.35025e-06;-0.013701987868851146
1.35050e-06;-0.013692730002069015
1.35075e-06;-0.013683472135286878
1.35100e-06;-0.013674214268504747
1.35125e-06;-0.013664956401722616
1.35150e-06;-0.013655698534940478
1.35175e-06;-0.013646440668158347
1.35200e-06;-0.01363718280137621
1.35225e-06;-0.013629012400476209
1.35250e-06;-0.013621937483499925
1.35275e-06;-0.013614862566523646
1.35300e-06;-0.013607787649547367
1.35325e-06;-0.013600712732571083
1.35350e-06;-0.013593637815594806
1.35375e-06;-0.01358656289861852
1.35400e-06;-0.013579487981642243
1.35425e-06;-0.013572413064665964
1.35450e-06;-0.01356533814768968
1.35475e-06;-0.013559588416264362
1.35500e-06;-0.013554162276027217
1.35525e-06;-0.013548736135790076
1.35550e-06;-0.013543309995552935
1.35575e-06;-0.01353788385531579
1.35600e-06;-0.013532457715078649
1.35625e-06;-0.013527031574841504
1.35650e-06;-0.013521605434604364
1.35675e-06;-0.013516179294367218
1.35700e-06;-0.013510753154130077
1.35725e-06;-0.013506745203856741
1.35750e-06;-0.013503768350381444
1.35775e-06;-0.01350079149690615
1.35800e-06;-0.013497814643430852
1.35825e-06;-0.013494837789955558
1.35850e-06;-0.013491860936480264
1.35875e-06;-0.013488884083004967
1.35900e-06;-0.013485907229529671
1.35925e-06;-0.013482930376054374
1.35950e-06;-0.01347995352257908
1.35975e-06;-0.013478383015256962
1.36000e-06;-0.013479375475695209
1.36025e-06;-0.013480367936133454
1.36050e-06;-0.0134813603965717
1.36075e-06;-0.013482352857009945
1.36100e-06;-0.01348334531744819
1.36125e-06;-0.013484337777886437
1.36150e-06;-0.013485330238324681
1.36175e-06;-0.013486322698762928
1.36200e-06;-0.013487315159201173
1.36225e-06;-0.01348830761963942
1.36250e-06;-0.013489300080077664
1.36275e-06;-0.013490292540515909
1.36300e-06;-0.013491285000954156
1.36325e-06;-0.0134922774613924
1.36350e-06;-0.013493269921830647
1.36375e-06;-0.013494262382268892
1.36400e-06;-0.013495254842707137
1.36425e-06;-0.013496247303145383
1.36450e-06;-0.013497239763583628
1.36475e-06;-0.013498232224021875
1.36500e-06;-0.01349922468446012
1.36525e-06;-0.013500217144898364
1.36550e-06;-0.01350120960533661
1.36575e-06;-0.013502202065774856
1.36600e-06;-0.013503194526213102
1.36625e-06;-0.013504186986651347
1.36650e-06;-0.013505476256449222
1.36675e-06;-0.013507004796277113
1.36700e-06;-0.013508533336105005
1.36725e-06;-0.013510061875932898
1.36750e-06;-0.013511590415760789
1.36775e-06;-0.013513118955588682
1.36800e-06;-0.013514647495416575
1.36825e-06;-0.013516176035244467
1.36850e-06;-0.01351770457507236
1.36875e-06;-0.013518243761861214
1.36900e-06;-0.013518541252900763
1.36925e-06;-0.013518838743940312
1.36950e-06;-0.013519136234979861
1.36975e-06;-0.013519433726019409
1.37000e-06;-0.013519731217058958
1.37025e-06;-0.013520028708098507
1.37050e-06;-0.013520326199138056
1.37075e-06;-0.013520664326111204
1.37100e-06;-0.013521719006594112
1.37125e-06;-0.01352277368707702
1.37150e-06;-0.013523828367559929
1.37175e-06;-0.013524883048042837
1.37200e-06;-0.013525937728525745
1.37225e-06;-0.013526992409008653
1.37250e-06;-0.01352804708949156
1.37275e-06;-0.01352910176997447
1.37300e-06;-0.013530156450457376
1.37325e-06;-0.013531211130940286
1.37350e-06;-0.013532311853105003
1.37375e-06;-0.013534224451010511
1.37400e-06;-0.013536137048916016
1.37425e-06;-0.013538049646821522
1.37450e-06;-0.01353996224472703
1.37475e-06;-0.013541874842632536
1.37500e-06;-0.013543787440538043
1.37525e-06;-0.013545700038443548
1.37550e-06;-0.013547612636349054
1.37575e-06;-0.013549525234254562
1.37600e-06;-0.013551437832160068
1.37625e-06;-0.013553344317225421
1.37650e-06;-0.013555143011557863
1.37675e-06;-0.013556941705890304
1.37700e-06;-0.013558740400222745
1.37725e-06;-0.013560539094555187
1.37750e-06;-0.013561969620222127
1.37775e-06;-0.013563103350236293
1.37800e-06;-0.013564237080250459
1.37825e-06;-0.013565370810264625
1.37850e-06;-0.013566470186601795
1.37875e-06;-0.013566963787566342
1.37900e-06;-0.013567457388530888
1.37925e-06;-0.013568038323139863
1.37950e-06;-0.01357015925508312
1.37975e-06;-0.013572280187026378
1.38000e-06;-0.013574617631974428
1.38025e-06;-0.013580772957790655
1.38050e-06;-0.01358692828360689
1.38075e-06;-0.013593083609423118
1.38100e-06;-0.013599238935239346
1.38125e-06;-0.01360539426105558
1.38150e-06;-0.013611549586871807
1.38175e-06;-0.013621118623960184
1.38200e-06;-0.013633439591781158
1.38225e-06;-0.01364576055960214
1.38250e-06;-0.013658081527423115
1.38275e-06;-0.013670402495244089
1.38300e-06;-0.013682723463065073
1.38325e-06;-0.013695339589025681
1.38350e-06;-0.013713160384402793
1.38375e-06;-0.013730981179779889
1.38400e-06;-0.013748801975156986
1.38425e-06;-0.013766622770534098
1.38450e-06;-0.013784443565911193
1.38475e-06;-0.013802264361288305
1.38500e-06;-0.013820085156665402
1.38525e-06;-0.013839013276884079
1.38550e-06;-0.013858834056446091
1.38575e-06;-0.013878654836008086
1.38600e-06;-0.013898475615570099
1.38625e-06;-0.013918296395132094
1.38650e-06;-0.013938117174694089
1.38675e-06;-0.013957937954256101
1.38700e-06;-0.013977667148447963
1.38725e-06;-0.01399578137252425
1.38750e-06;-0.014013895596600521
1.38775e-06;-0.01403170062019905
1.38800e-06;-0.014044053358890463
1.38825e-06;-0.014056406097581875
1.38850e-06;-0.0140687588362733
1.38875e-06;-0.014081111574964713
1.38900e-06;-0.014093464313656138
1.38925e-06;-0.01410581705234755
1.38950e-06;-0.014118169791038963
1.38975e-06;-0.014130522529730388
1.39000e-06;-0.014142875268421801
1.39025e-06;-0.014155228007113224
1.39050e-06;-0.014167580745804638
1.39075e-06;-0.014178124566158115
1.39100e-06;-0.014187210144273212
1.39125e-06;-0.014196295722388301
1.39150e-06;-0.0142053813005034
1.39175e-06;-0.014214466878618489
1.39200e-06;-0.014223552456733587
1.39225e-06;-0.014232638034848677
1.39250e-06;-0.014241723612963766
1.39275e-06;-0.014250809191078864
1.39300e-06;-0.014259894769193954
1.39325e-06;-0.01426898034730905
1.39350e-06;-0.014278049628325457
1.39375e-06;-0.014286831534542794
1.39400e-06;-0.014295613440760137
1.39425e-06;-0.014304395346977474
1.39450e-06;-0.014313177253194819
1.39475e-06;-0.014321959159412156
1.39500e-06;-0.014330741065629492
1.39525e-06;-0.014339522971846836
1.39550e-06;-0.014348304878064173
1.39575e-06;-0.014357086784281516
1.39600e-06;-0.014365868690498853
1.39625e-06;-0.014374650596716198
1.39650e-06;-0.014383432502933535
1.39675e-06;-0.014392214409150872
1.39700e-06;-0.014400775666656042
1.39725e-06;-0.014405446116321656
