Time(s);Current(A)
8.75000e-06;0.0072479827875778485
8.75025e-06;0.00722503179910071
8.75050e-06;0.00720154465074387
8.75075e-06;0.0071775665449778335
8.75100e-06;0.007153173050442369
8.75125e-06;0.007129221199372789
8.75150e-06;0.007106398208359262
8.75175e-06;0.007089559416496965
8.75200e-06;0.007062500934944812
8.75225e-06;0.00703951799235473
8.75250e-06;0.007014692297202504
8.75275e-06;0.006991356499798279
8.75300e-06;0.006968370002423574
8.75325e-06;0.006947715385884436
8.75350e-06;0.006928621562753445
8.75375e-06;0.006908900053303513
8.75400e-06;0.006892039949878493
8.75425e-06;0.006878748337388154
8.75450e-06;0.006865697130746491
8.75475e-06;0.0068518307850762485
8.75500e-06;0.006839829987233997
8.75525e-06;0.006831150726068992
8.75550e-06;0.006822471464903986
8.75575e-06;0.006813792203739039
8.75600e-06;0.006805112942574033
8.75625e-06;0.0067964336814090275
8.75650e-06;0.00678775442024408
8.75675e-06;0.006779387816439879
8.75700e-06;0.006775233186434519
8.75725e-06;0.006771078556429188
8.75750e-06;0.0067669239264238285
8.75775e-06;0.006762769296418469
8.75800e-06;0.006758614666413137
8.75825e-06;0.006754460036407777
8.75850e-06;0.006750544606985325
8.75875e-06;0.006749851575991282
8.75900e-06;0.006749158544997235
8.75925e-06;0.006748465514003187
8.75950e-06;0.006747772483009144
8.75975e-06;0.006747079452015096
8.76000e-06;0.006746386421021049
8.76025e-06;0.006745693390027001
8.76050e-06;0.006745000359032958
8.76075e-06;0.00674430732803891
8.76100e-06;0.006743614297044863
8.76125e-06;0.006743105951682632
8.76150e-06;0.006745085604813514
8.76175e-06;0.006747065257944395
8.76200e-06;0.006749044911075264
8.76225e-06;0.006751024564206146
8.76250e-06;0.006753004217337027
8.76275e-06;0.006754983870467896
8.76300e-06;0.0067569635235987776
8.76325e-06;0.0067589431767296594
8.76350e-06;0.0067609228298605275
8.76375e-06;0.006762902482991409
8.76400e-06;0.0067650458155369166
8.76425e-06;0.006769394160637767
8.76450e-06;0.006773742505738646
8.76475e-06;0.006778090850839526
8.76500e-06;0.006782439195940376
8.76525e-06;0.006786787541041256
8.76550e-06;0.006791135886142136
8.76575e-06;0.006795484231242986
8.76600e-06;0.0067998325763438654
8.76625e-06;0.006805996135376687
8.76650e-06;0.006813534095944531
8.76675e-06;0.006821072056512426
8.76700e-06;0.006828610017080321
8.76725e-06;0.006836147977648165
8.76750e-06;0.006843685938216061
8.76775e-06;0.006851223898783955
8.76800e-06;0.0068587618593517995
8.76825e-06;0.006866511501435471
8.76850e-06;0.006877112817942517
8.76875e-06;0.006887714134449563
8.76900e-06;0.006898315450956537
8.76925e-06;0.006908916767463583
8.76950e-06;0.006919518083970629
8.76975e-06;0.0069301194004776035
8.77000e-06;0.00694072071698465
8.77025e-06;0.006951322033491695
8.77050e-06;0.00696192334999867
8.77075e-06;0.006972524666505716
8.77100e-06;0.006983125983012761
8.77125e-06;0.006993727299519736
8.77150e-06;0.0070043216458321135
8.77175e-06;0.007014822092940309
8.77200e-06;0.007025322540048433
8.77225e-06;0.007035822987156628
8.77250e-06;0.007046323434264823
8.77275e-06;0.007056823881372948
8.77300e-06;0.007067324328481143
8.77325e-06;0.007077824775589338
8.77350e-06;0.007088325222697462
8.77375e-06;0.007098825669805658
8.77400e-06;0.007109326116913854
8.77425e-06;0.007119826564021978
8.77450e-06;0.007130327011130173
8.77475e-06;0.007140581679245309
8.77500e-06;0.007147525327660215
8.77525e-06;0.0071544689760751675
8.77550e-06;0.00716141262449012
8.77575e-06;0.007168356272905025
8.77600e-06;0.007175299921319977
8.77625e-06;0.00718224356973493
8.77650e-06;0.0071891872181498355
8.77675e-06;0.007196130866564788
8.77700e-06;0.0072030745149797406
8.77725e-06;0.007210018163394692
8.77750e-06;0.007216961811809598
8.77775e-06;0.00722390546022455
8.77800e-06;0.007230849108639503
8.77825e-06;0.007237792757054409
8.77850e-06;0.00724473640546936
8.77875e-06;0.007251680053884313
8.77900e-06;0.007258623702299218
8.77925e-06;0.0072642802125409646
8.77950e-06;0.007268962157388072
8.77975e-06;0.007273644102235147
8.78000e-06;0.007278326047082254
8.78025e-06;0.007283007991929361
8.78050e-06;0.007287689936776436
8.78075e-06;0.007292371881623543
8.78100e-06;0.007297053826470649
8.78125e-06;0.007301735771317725
8.78150e-06;0.007306417716164831
8.78175e-06;0.0073110996610119385
8.78200e-06;0.0073157816058590135
8.78225e-06;0.007320463550706121
8.78250e-06;0.007325145495553228
8.78275e-06;0.007329827440400303
8.78300e-06;0.00733450938524741
8.78325e-06;0.007339191330094517
8.78350e-06;0.007343870269540188
8.78375e-06;0.00734850872162306
8.78400e-06;0.007353167300885571
8.78425e-06;0.007358097024103621
8.78450e-06;0.007363209329211048
8.78475e-06;0.00737078129218353
8.78500e-06;0.00737835325515596
8.78525e-06;0.007386302583708081
8.78550e-06;0.007399335604949508
8.78575e-06;0.007412368626190934
8.78600e-06;0.007425401647432273
8.78625e-06;0.007438434668673699
8.78650e-06;0.007451984014014847
8.78675e-06;0.007472489036272275
8.78700e-06;0.007492994058529841
8.78725e-06;0.007513499080787407
8.78750e-06;0.007534004103044835
8.78775e-06;0.007555083238793688
8.78800e-06;0.007583896563130183
8.78825e-06;0.007612709887466483
8.78850e-06;0.007641523211802977
8.78875e-06;0.007670336536139472
8.78900e-06;0.007699149860475771
8.78925e-06;0.007727963184812266
8.78950e-06;0.007757205116714858
8.78975e-06;0.0077922210493980544
8.79000e-06;0.007827236982081489
8.79025e-06;0.007862252914764922
8.79050e-06;0.007897268847448118
8.79075e-06;0.007932284780131553
8.79100e-06;0.007967300712814986
8.79125e-06;0.008002397385589966
8.79150e-06;0.008038581751140642
8.79175e-06;0.00807476611669132
8.79200e-06;0.00811085521466416
8.79225e-06;0.008145660912363548
8.79250e-06;0.008180466610062935
8.79275e-06;0.008215092605781136
8.79300e-06;0.008247297740411339
8.79325e-06;0.008279502875041542
8.79350e-06;0.008311415449612317
8.79375e-06;0.008339386791818318
8.79400e-06;0.00836735813402432
8.79425e-06;0.00839474334787589
8.79450e-06;0.00841423251451304
8.79475e-06;0.008433721681150325
8.79500e-06;0.008453210847787608
8.79525e-06;0.00847270001442476
8.79550e-06;0.008492189181062045
8.79575e-06;0.008510844204011015
8.79600e-06;0.008518262033097348
8.79625e-06;0.008525679862183732
8.79650e-06;0.008533097691270114
8.79675e-06;0.008540515520356447
8.79700e-06;0.008547933349442831
8.79725e-06;0.008554520488585715
8.79750e-06;0.008549916961099411
8.79775e-06;0.008545313433613078
8.79800e-06;0.008540709906126745
8.79825e-06;0.008536106378640444
8.79850e-06;0.00853150285115411
8.79875e-06;0.008526899323667778
8.79900e-06;0.008521655863572798
8.79925e-06;0.008507791530496649
8.79950e-06;0.008493927197420498
8.79975e-06;0.008480062864344443
8.80000e-06;0.008466198531268293
8.80025e-06;0.008452334198192144
8.80050e-06;0.008438469865116087
8.80075e-06;0.008424375764552157
8.80100e-06;0.00840718634379248
8.80125e-06;0.008389962943334025
8.80150e-06;0.00837228178425495
8.80175e-06;0.008354603006329016
8.80200e-06;0.008336956306185321
8.80225e-06;0.008319350729199825
8.80250e-06;0.00830229914418119
8.80275e-06;0.008285333377209008
8.80300e-06;0.008269523710843623
8.80325e-06;0.008253843205947303
8.80350e-06;0.008239902703989171
8.80375e-06;0.008226133999012517
8.80400e-06;0.008214679662667321
8.80425e-06;0.008203508983871581
8.80450e-06;0.008196159606994467
8.80475e-06;0.008188810230117301
8.80500e-06;0.008182066513485362
8.80525e-06;0.008183481968578342
8.80550e-06;0.00818489742367133
8.80575e-06;0.008186312878764321
8.80600e-06;0.008187728333857301
8.80625e-06;0.00818914378895029
8.80650e-06;0.00819138742412217
8.80675e-06;0.008204787914207378
8.80700e-06;0.008218188404292677
8.80725e-06;0.008231588894377976
8.80750e-06;0.008244989384463183
8.80775e-06;0.008258389874548484
8.80800e-06;0.008272619235587704
8.80825e-06;0.00829801475868687
8.80850e-06;0.008323410281786209
8.80875e-06;0.008348805804885546
8.80900e-06;0.008374201327984714
8.80925e-06;0.008399596851084051
8.80950e-06;0.00842499237418339
8.80975e-06;0.008450387897282556
8.81000e-06;0.008475783420381895
8.81025e-06;0.008505125198987528
8.81050e-06;0.008537454911707787
8.81075e-06;0.008569784624428266
8.81100e-06;0.008602114337148744
8.81125e-06;0.008634444049869003
8.81150e-06;0.008666773762589482
8.81175e-06;0.00869910347530996
8.81200e-06;0.008731433188030439
8.81225e-06;0.008763708621311211
8.81250e-06;0.008795252827354296
8.81275e-06;0.00882679703339738
8.81300e-06;0.00885814787264385
8.81325e-06;0.008886893764791074
8.81350e-06;0.008915639656938297
8.81375e-06;0.008944077929841913
8.81400e-06;0.008968372100082474
8.81425e-06;0.008992666270323036
8.81450e-06;0.00901631263624844
8.81475e-06;0.009031232085231062
8.81500e-06;0.009046151534213684
8.81525e-06;0.009061070983196206
8.81550e-06;0.009075990432178828
8.81575e-06;0.00909090988116145
8.81600e-06;0.009098118549697396
8.81625e-06;0.0090994889485331
8.81650e-06;0.009100859347368805
8.81675e-06;0.009102229746204499
8.81700e-06;0.009103600145040204
8.81725e-06;0.009104029862600213
8.81750e-06;0.009091787161695689
8.81775e-06;0.00907954446079108
8.81800e-06;0.009067301759886473
8.81825e-06;0.009055059058981949
8.81850e-06;0.00904281635807734
8.81875e-06;0.009029820740840647
8.81900e-06;0.009006682186694885
8.81925e-06;0.008983543632548966
8.81950e-06;0.008960405078403047
8.81975e-06;0.008937266524257286
8.82000e-06;0.008914127970111367
8.82025e-06;0.00889066601890114
8.82050e-06;0.008862847413597375
8.82075e-06;0.00883493961158435
8.82100e-06;0.00880583019319217
8.82125e-06;0.008776685636702327
8.82150e-06;0.008747067716184607
8.82175e-06;0.008717470839911985
8.82200e-06;0.008688157461875963
8.82225e-06;0.008658919862429861
8.82250e-06;0.008630703116725449
8.82275e-06;0.008602617398799103
8.82300e-06;0.008576296825856785
8.82325e-06;0.008550169287207154
8.82350e-06;0.008526642216327217
8.82375e-06;0.00850337169860911
8.82400e-06;0.008483557345172879
8.82425e-06;0.00846407139780312
8.82450e-06;0.008449009583465254
8.82475e-06;0.008434440549841587
8.82500e-06;0.00842651002767786
8.82525e-06;0.008418579505514187
8.82550e-06;0.008411528878914673
8.82575e-06;0.00841633179409766
8.82600e-06;0.008421134709280614
8.82625e-06;0.0084259376244636
8.82650e-06;0.008430740539646587
8.82675e-06;0.00843554345482954
8.82700e-06;0.008449650188157957
8.82725e-06;0.008470801370484414
8.82750e-06;0.008491952552810727
8.82775e-06;0.008513103735137181
8.82800e-06;0.008534254917463638
8.82825e-06;0.008556168417873506
8.82850e-06;0.008588351511202776
8.82875e-06;0.008620534604532047
8.82900e-06;0.008653153856470126
8.82925e-06;0.008691648833328163
8.82950e-06;0.00873014381018646
8.82975e-06;0.00876895809753519
8.83000e-06;0.00881207398656758
8.83025e-06;0.008855189875600262
8.83050e-06;0.008898508634589793
8.83075e-06;0.00894456036281821
8.83100e-06;0.008990612091046938
8.83125e-06;0.009036728603802432
8.83150e-06;0.009083717863422621
8.83175e-06;0.00913070712304313
8.83200e-06;0.009177610789861726
8.83225e-06;0.009223361390457685
8.83250e-06;0.009269111991053952
8.83275e-06;0.00931462524860254
8.83300e-06;0.00935694113154334
8.83325e-06;0.009399257014484427
8.83350e-06;0.009441087876911069
8.83375e-06;0.009476384769658114
8.83400e-06;0.009511681662405397
8.83425e-06;0.00954697855515268
8.83450e-06;0.00958182687404462
8.83475e-06;0.009610632215616189
8.83500e-06;0.009639437557187758
8.83525e-06;0.009668242898759132
8.83550e-06;0.00969666899986293
8.83575e-06;0.009719986150634548
8.83600e-06;0.00974330330140601
8.83625e-06;0.009766620452177627
8.83650e-06;0.009789937602949245
8.83675e-06;0.009812931882226799
8.83700e-06;0.00983157658764157
8.83725e-06;0.009850221293056344
8.83750e-06;0.009868865998471116
8.83775e-06;0.00988751070388576
8.83800e-06;0.00990578205568138
8.83825e-06;0.009919023762016406
8.83850e-06;0.009932265468351343
8.83875e-06;0.009945507174686369
8.83900e-06;0.009958748881021395
8.83925e-06;0.009971990587356332
8.83950e-06;0.009985232293691358
8.83975e-06;0.009998474000026384
8.84000e-06;0.010011715706361321
8.84025e-06;0.010024957412696347
8.84050e-06;0.010038199119031373
8.84075e-06;0.01005144082536631
8.84100e-06;0.010062280864373524
8.84125e-06;0.010071302464676968
8.84150e-06;0.010080324064980349
8.84175e-06;0.010089345665283791
8.84200e-06;0.010098367265587233
8.84225e-06;0.010107388865890615
8.84250e-06;0.010116410466194058
8.84275e-06;0.0101254320664975
8.84300e-06;0.010134453666800882
8.84325e-06;0.010143475267104324
8.84350e-06;0.010152496867407768
8.84375e-06;0.010161314836947518
8.84400e-06;0.010167389588009576
8.84425e-06;0.010173464339071634
8.84450e-06;0.010179539090133652
8.84475e-06;0.01018561384119571
8.84500e-06;0.010191688592257768
8.84525e-06;0.010197763343319786
8.84550e-06;0.01020342933588996
8.84575e-06;0.010203588725096302
8.84600e-06;0.010203748114302644
8.84625e-06;0.010203907503508984
8.84650e-06;0.010204066892715326
8.84675e-06;0.010204226281921667
8.84700e-06;0.010204385671128009
8.84725e-06;0.010204040275279184
8.84750e-06;0.010196894651085303
8.84775e-06;0.010189749026891471
8.84800e-06;0.010182603402697592
8.84825e-06;0.010175457778503712
8.84850e-06;0.01016831215430988
8.84875e-06;0.010161166530115999
8.84900e-06;0.010154020905922118
8.84925e-06;0.010146875281728288
8.84950e-06;0.010139393207032516
8.84975e-06;0.010127378628418546
8.85000e-06;0.010115364049804657
8.85025e-06;0.010103349471190688
8.85050e-06;0.010091334892576718
8.85075e-06;0.010079320313962829
8.85100e-06;0.010067305735348859
8.85125e-06;0.01005529115673489
8.85150e-06;0.010043276578121001
8.85175e-06;0.010031257932597591
8.85200e-06;0.01001918449957092
8.85225e-06;0.010007111066544332
8.85250e-06;0.00999503763351766
8.85275e-06;0.009983103160082787
8.85300e-06;0.009973040685325422
8.85325e-06;0.00996297821056799
8.85350e-06;0.009952915735810556
8.85375e-06;0.00994305616318723
8.85400e-06;0.009935929993287131
8.85425e-06;0.00992880382338703
8.85450e-06;0.009921653348563543
8.85475e-06;0.009914175449171149
8.85500e-06;0.009906697549778702
8.85525e-06;0.009899023155913858
8.85550e-06;0.009888701680348494
8.85575e-06;0.009878380204783061
8.85600e-06;0.009868058729217628
8.85625e-06;0.009857737253652264
8.85650e-06;0.009847106820250555
8.85675e-06;0.009832314251268907
8.85700e-06;0.00981752168228736
8.85725e-06;0.009802729113305712
8.85750e-06;0.009787936544324064
8.85775e-06;0.009772804268453197
8.85800e-06;0.009753095620129184
8.85825e-06;0.009733386971805171
8.85850e-06;0.009713678323481292
8.85875e-06;0.00969396967515728
8.85900e-06;0.009674261026833266
8.85925e-06;0.009652321586077251
8.85950e-06;0.009628693085702371
8.85975e-06;0.00960506458532749
8.86000e-06;0.00958143608495277
8.86025e-06;0.00955780758457789
8.86050e-06;0.009534092219892914
8.86075e-06;0.00950920665981764
8.86100e-06;0.0094843210997422
8.86125e-06;0.009459446737522005
8.86150e-06;0.009434723227574715
8.86175e-06;0.009409999717627255
8.86200e-06;0.009385392540953764
8.86225e-06;0.009362352551780508
8.86250e-06;0.009339312562607095
8.86275e-06;0.009316450151682216
8.86300e-06;0.009295979991933026
8.86325e-06;0.009275509832183974
8.86350e-06;0.009255396480722726
8.86375e-06;0.009240089883768062
8.86400e-06;0.009224783286813502
8.86425e-06;0.00920947668985884
8.86450e-06;0.009194170092904175
8.86475e-06;0.009181594024604316
8.86500e-06;0.0091710853945935
8.86525e-06;0.009160576764582682
8.86550e-06;0.009150068134571938
8.86575e-06;0.009139931393485422
8.86600e-06;0.009134804566192443
8.86625e-06;0.009129677738899498
8.86650e-06;0.009124550911606518
8.86675e-06;0.009119424084313538
8.86700e-06;0.009114297257020593
8.86725e-06;0.009109170429727613
8.86750e-06;0.009104043602434633
8.86775e-06;0.009098916775141687
8.86800e-06;0.00909410976603104
8.86825e-06;0.009093611198012762
8.86850e-06;0.009093112629994488
8.86875e-06;0.009092614061976211
8.86900e-06;0.009092115493957933
8.86925e-06;0.009091616925939659
8.86950e-06;0.00909111835792138
8.86975e-06;0.009090619789903102
8.87000e-06;0.009090121221884828
8.87025e-06;0.009089805991931307
8.87050e-06;0.009091960606707682
8.87075e-06;0.009094115221484041
8.87100e-06;0.009096269836260416
8.87125e-06;0.00909842445103679
8.87150e-06;0.009100579065813165
8.87175e-06;0.009102733680589526
8.87200e-06;0.0091048882953659
8.87225e-06;0.009107131133474458
8.87250e-06;0.009110562475085283
8.87275e-06;0.009113993816696132
8.87300e-06;0.00911742515830698
8.87325e-06;0.009120856499917807
8.87350e-06;0.009124287841528656
8.87375e-06;0.009127719183139505
8.87400e-06;0.00913115052475033
8.87425e-06;0.009134788487705797
8.87450e-06;0.009141209956857771
8.87475e-06;0.009147631426009701
8.87500e-06;0.009154052895161675
8.87525e-06;0.009160474364313649
8.87550e-06;0.009166895833465579
8.87575e-06;0.009173317302617553
8.87600e-06;0.009179738771769527
8.87625e-06;0.009186570901346542
8.87650e-06;0.00919893525626246
8.87675e-06;0.009211299611178376
8.87700e-06;0.00922366396609421
8.87725e-06;0.009236028321010127
8.87750e-06;0.009248392675926044
8.87775e-06;0.009260757030841877
8.87800e-06;0.009273121385757794
8.87825e-06;0.009285919493069
8.87850e-06;0.00930456090995152
8.87875e-06;0.009323202326834167
8.87900e-06;0.009341843743716813
8.87925e-06;0.009360485160599334
8.87950e-06;0.00937912657748198
8.87975e-06;0.009397767994364627
8.88000e-06;0.009416409411247273
8.88025e-06;0.009435050828129793
8.88050e-06;0.009453692245012439
8.88075e-06;0.009472333661895087
8.88100e-06;0.009490975078777606
8.88125e-06;0.009509616495660253
8.88150e-06;0.009528257912542899
8.88175e-06;0.009546899329425419
8.88200e-06;0.009564058929057937
8.88225e-06;0.009580096560709387
8.88250e-06;0.009596134192360729
8.88275e-06;0.00961217182401218
8.88300e-06;0.00962820945566363
8.88325e-06;0.009644247087314973
8.88350e-06;0.009660284718966424
8.88375e-06;0.009676322350617874
8.88400e-06;0.009692359982269217
8.88425e-06;0.009708397613920668
8.88450e-06;0.009724435245572118
8.88475e-06;0.00974047287722346
8.88500e-06;0.009756510508874912
8.88525e-06;0.009772548140526362
8.88550e-06;0.009787823227678115
8.88575e-06;0.009792825671667237
8.88600e-06;0.009797828115656358
8.88625e-06;0.009802830559645445
8.88650e-06;0.009807833003634567
8.88675e-06;0.009812835447623687
8.88700e-06;0.009817837891612774
8.88725e-06;0.009822840335601896
8.88750e-06;0.009827842779591017
8.88775e-06;0.009832845223580104
8.88800e-06;0.009837847667569226
8.88825e-06;0.009838282275540306
8.88850e-06;0.00983525831548922
8.88875e-06;0.009832234355438153
8.88900e-06;0.009829210395387067
8.88925e-06;0.009826186435335981
8.88950e-06;0.009823162475284915
8.88975e-06;0.009820138515233829
8.89000e-06;0.009817114555182742
8.89025e-06;0.009814090595131676
8.89050e-06;0.00981106663508059
8.89075e-06;0.009807851780711283
8.89100e-06;0.009802065287290721
8.89125e-06;0.009796278793870121
8.89150e-06;0.00979049230044952
8.89175e-06;0.009784705807028959
8.89200e-06;0.009778919313608357
8.89225e-06;0.009773132820187757
8.89250e-06;0.009767346326767195
8.89275e-06;0.009762658805466543
8.89300e-06;0.00975880337836032
8.89325e-06;0.009754947951254126
8.89350e-06;0.009751092524147903
8.89375e-06;0.009747237097041683
8.89400e-06;0.009743381669935486
8.89425e-06;0.009739526242829265
8.89450e-06;0.00973596898614785
8.89475e-06;0.009736428542098276
8.89500e-06;0.009736888098048707
8.89525e-06;0.009737347653999136
8.89550e-06;0.009737807209949564
8.89575e-06;0.009738266765899993
8.89600e-06;0.009738726321850424
8.89625e-06;0.00973918587780085
8.89650e-06;0.009739645433751281
8.89675e-06;0.00974010498970171
8.89700e-06;0.009740564545652142
8.89725e-06;0.009741024101602568
8.89750e-06;0.009741483657552999
8.89775e-06;0.009741943213503428
8.89800e-06;0.009742402769453855
8.89825e-06;0.009742862325404285
8.89850e-06;0.009743321881354714
8.89875e-06;0.009743781437305142
8.89900e-06;0.00974442451723563
8.89925e-06;0.00974753994646815
8.89950e-06;0.00975065537570065
8.89975e-06;0.00975377080493317
8.90000e-06;0.00975688623416569
8.90025e-06;0.00976000166339819
8.90050e-06;0.009763117092630709
8.90075e-06;0.00976623252186323
8.90100e-06;0.00976934795109573
8.90125e-06;0.009772463380328248
8.90150e-06;0.00977557880956077
8.90175e-06;0.009778694238793267
