Time(s);Current(A)
7.00000e-06;-0.0012387278422477234
7.00025e-06;-0.0011897816289101674
7.00050e-06;-0.0011384731538892892
7.00075e-06;-0.001087164678868237
7.00100e-06;-0.0010358562038473586
7.00125e-06;-0.0009846103118484632
7.00150e-06;-0.0009347756289317116
7.00175e-06;-0.0008849409460151288
7.00200e-06;-0.0008351062630985462
7.00225e-06;-0.0007852715801817946
7.00250e-06;-0.000737739744750796
7.00275e-06;-0.0006921502241546738
7.00300e-06;-0.0006485517950431276
7.00325e-06;-0.0006066327331290414
7.00350e-06;-0.0005666824703558804
7.00375e-06;-0.0005299665298603033
7.00400e-06;-0.0004963485752035309
7.00425e-06;-0.0004662300715905232
7.00450e-06;-0.0004400702126358845
7.00475e-06;-0.00041825452824781274
7.00500e-06;-0.00040097357299038577
7.00525e-06;-0.0003882884194868523
7.00550e-06;-0.0003802325563590942
7.00575e-06;-0.00037683938148841965
7.00600e-06;-0.0003781428428566895
7.00625e-06;-0.00038420151228050255
7.00650e-06;-0.00039511013623052095
7.00675e-06;-0.00041091728887943655
7.00700e-06;-0.00043154942460965097
7.00725e-06;-0.0004568518713816865
7.00750e-06;-0.0004866526812935392
7.00775e-06;-0.000520779895598941
7.00800e-06;-0.000559061837259559
7.00825e-06;-0.0006013423223921756
7.00850e-06;-0.0006474878637340666
7.00875e-06;-0.0006982410002808781
7.00900e-06;-0.0007514109336614372
7.00925e-06;-0.0008078750659836696
7.00950e-06;-0.0008671176591081784
7.00975e-06;-0.000929530427648178
7.01000e-06;-0.000994617050526066
7.01025e-06;-0.0010597036734037333
7.01050e-06;-0.0011276743424179104
7.01075e-06;-0.0011980775327478197
7.01100e-06;-0.0012684807230774907
7.01125e-06;-0.0013388839134074002
7.01150e-06;-0.001409287103737071
7.01175e-06;-0.0014790468221021098
7.01200e-06;-0.0015482638101517918
7.01225e-06;-0.0016174807982012394
7.01250e-06;-0.001686697786250687
7.01275e-06;-0.001755914774300369
7.01300e-06;-0.001820988792433395
7.01325e-06;-0.0018825684619486868
7.01350e-06;-0.0019441481314641873
7.01375e-06;-0.0020002660295015866
7.01400e-06;-0.002051777248272925
7.01425e-06;-0.0021032884670444383
7.01450e-06;-0.0021511808743585564
7.01475e-06;-0.002196021029527924
7.01500e-06;-0.0022408611846974438
7.01525e-06;-0.0022857013398668116
7.01550e-06;-0.0023305414950363316
7.01575e-06;-0.0023753816502056994
7.01600e-06;-0.002420221805375067
7.01625e-06;-0.0024636880449005693
7.01650e-06;-0.0025059954683282703
7.01675e-06;-0.0025483028917559713
7.01700e-06;-0.002590610315183816
7.01725e-06;-0.002632917738611517
7.01750e-06;-0.002675225162039218
7.01775e-06;-0.002717532585467062
7.01800e-06;-0.0027601124307733284
7.01825e-06;-0.002802922047725037
7.01850e-06;-0.00284573166467689
7.01875e-06;-0.0028885412816285986
7.01900e-06;-0.0029313508985803075
7.01925e-06;-0.002974160515532161
7.01950e-06;-0.0030169701324838693
7.01975e-06;-0.003059779749435723
7.02000e-06;-0.003102589366387431
7.02025e-06;-0.00314539898333914
7.02050e-06;-0.003188069153472891
7.02075e-06;-0.003227594882677825
7.02100e-06;-0.003267120611882758
7.02125e-06;-0.003306646341087826
7.02150e-06;-0.003346172070292759
7.02175e-06;-0.003385697799497693
7.02200e-06;-0.00342522352870276
7.02225e-06;-0.003464749257907694
7.02250e-06;-0.0035042749871126272
7.02275e-06;-0.003543800716317695
7.02300e-06;-0.0035833264455226283
7.02325e-06;-0.003615260562751804
7.02350e-06;-0.0036407916069817556
7.02375e-06;-0.0036663226512116207
7.02400e-06;-0.003691853695441572
7.02425e-06;-0.003717384739671437
7.02450e-06;-0.0037429157839013022
7.02475e-06;-0.003768446828131254
7.02500e-06;-0.003793977872361119
7.02525e-06;-0.0038026049736289485
7.02550e-06;-0.0037969746047964307
7.02575e-06;-0.003791344235963932
7.02600e-06;-0.003785713867131433
7.02625e-06;-0.003780083498298915
7.02650e-06;-0.0037744531294664164
7.02675e-06;-0.0037688227606339176
7.02700e-06;-0.0037631923918013998
7.02725e-06;-0.003739095725647214
7.02750e-06;-0.0036994238364513837
7.02775e-06;-0.0036597519472554184
7.02800e-06;-0.003620080058059588
7.02825e-06;-0.003580408168863623
7.02850e-06;-0.0035407362796677925
7.02875e-06;-0.0035010643904719615
7.02900e-06;-0.0034604359206224246
7.02925e-06;-0.0033982371389036
7.02950e-06;-0.0033360383571847756
7.02975e-06;-0.0032738395754657403
7.03000e-06;-0.003211640793746916
7.03025e-06;-0.0031494420120280913
7.03050e-06;-0.0030872432303090565
7.03075e-06;-0.003025044448590232
7.03100e-06;-0.002959581857298057
7.03125e-06;-0.002891366436828184
7.03150e-06;-0.0028231510163585424
7.03175e-06;-0.0027549355958889007
7.03200e-06;-0.002686720175419028
7.03225e-06;-0.0026185047549493862
7.03250e-06;-0.0025557572105660495
7.03275e-06;-0.002497621494321471
7.03300e-06;-0.0024394857780768928
7.03325e-06;-0.0023813500618321175
7.03350e-06;-0.002323214345587539
7.03375e-06;-0.002265078629342961
7.03400e-06;-0.002216266206817815
7.03425e-06;-0.0021753174278060492
7.03450e-06;-0.002134368648794283
7.03475e-06;-0.0021009498402569213
7.03500e-06;-0.0020738821137789407
7.03525e-06;-0.00204681438730096
7.03550e-06;-0.0020262965681031877
7.03575e-06;-0.002011303205974453
7.03600e-06;-0.002001851480433976
7.03625e-06;-0.0019970737956261824
7.03650e-06;-0.001998925167495424
7.03675e-06;-0.0020063677542402746
7.03700e-06;-0.0020138103409850995
7.03725e-06;-0.0020285781201910737
7.03750e-06;-0.002049524263386178
7.03775e-06;-0.002070470406581211
7.03800e-06;-0.0020982169143762656
7.03825e-06;-0.0021316991250870236
7.03850e-06;-0.0021651813357976683
7.03875e-06;-0.0022043215916508685
7.03900e-06;-0.0022482340719258533
7.03925e-06;-0.00229214655220069
7.03950e-06;-0.0023423032721698656
7.03975e-06;-0.002397726636786396
7.04000e-06;-0.002453150001402739
7.04025e-06;-0.002508573366019082
7.04050e-06;-0.0025639967306356126
7.04075e-06;-0.0026194200952519555
7.04100e-06;-0.002675062547641593
7.04125e-06;-0.0027356452960409397
7.04150e-06;-0.0027962280444402865
7.04175e-06;-0.0028568107928398385
7.04200e-06;-0.0029173935412391853
7.04225e-06;-0.002977976289638532
7.04250e-06;-0.003038559038038084
7.04275e-06;-0.0030925268116489065
7.04300e-06;-0.0031409152476198983
7.04325e-06;-0.003189303683591054
7.04350e-06;-0.003237692119562046
7.04375e-06;-0.003286080555533038
7.04400e-06;-0.0033344689915041936
7.04425e-06;-0.0033828574274751854
7.04450e-06;-0.0034312458634461773
7.04475e-06;-0.0034626346193629477
7.04500e-06;-0.003479685156643686
7.04525e-06;-0.003496735693924482
7.04550e-06;-0.0035137862312052204
7.04575e-06;-0.0035308367684859588
7.04600e-06;-0.003547887305766755
7.04625e-06;-0.003564937843047493
7.04650e-06;-0.0035819883803282315
7.04675e-06;-0.0035797261385369225
7.04700e-06;-0.0035611747167195304
7.04725e-06;-0.0035426232949021383
7.04750e-06;-0.0035240718730846833
7.04775e-06;-0.003505520451267291
7.04800e-06;-0.003486969029449899
7.04825e-06;-0.003468417607632444
7.04850e-06;-0.003449866185815052
7.04875e-06;-0.0034171462589147506
7.04900e-06;-0.0033724760410112683
7.04925e-06;-0.0033278058231079374
7.04950e-06;-0.003283135605204455
7.04975e-06;-0.003238465387301124
7.05000e-06;-0.0031937951693977932
7.05025e-06;-0.003149124951494311
7.05050e-06;-0.00310445473359098
7.05075e-06;-0.0030546273799211543
7.05100e-06;-0.0030004502890849027
7.05125e-06;-0.0029462731982488346
7.05150e-06;-0.0028920961074127664
7.05175e-06;-0.002837919016576515
7.05200e-06;-0.002783741925740447
7.05225e-06;-0.002732503129954241
7.05250e-06;-0.0026837426112119715
7.05275e-06;-0.002634982092469867
7.05300e-06;-0.0025862215737277624
7.05325e-06;-0.002537461054985493
7.05350e-06;-0.0024887005362433886
7.05375e-06;-0.0024466589803156806
7.05400e-06;-0.002410284469739353
7.05425e-06;-0.002373909959163025
7.05450e-06;-0.002341742281121459
7.05475e-06;-0.00231312281601374
7.05500e-06;-0.002284503350906021
7.05525e-06;-0.0022627365771910836
7.05550e-06;-0.00224674964092617
7.05575e-06;-0.0022307627046612563
7.05600e-06;-0.002214775768396289
7.05625e-06;-0.0021987888321313752
7.05650e-06;-0.0021828018958664616
7.05675e-06;-0.0021668149596014937
7.05700e-06;-0.00215082802333658
7.05725e-06;-0.0021348410870716665
7.05750e-06;-0.0021194748716388398
7.05775e-06;-0.002118105533352289
7.05800e-06;-0.0021167361950657384
7.05825e-06;-0.0021153668567791832
7.05850e-06;-0.0021139975184926323
7.05875e-06;-0.002112628180206077
7.05900e-06;-0.0021112588419195263
7.05925e-06;-0.002109889503632976
7.05950e-06;-0.0021085201653464206
7.05975e-06;-0.0021071508270598697
7.06000e-06;-0.0021102906098128403
7.06025e-06;-0.00211723356786648
7.06050e-06;-0.0021241765259200963
7.06075e-06;-0.0021311194839737126
7.06100e-06;-0.0021380624420273523
7.06125e-06;-0.0021450054000809685
7.06150e-06;-0.002151948358134585
7.06175e-06;-0.0021588913161882245
7.06200e-06;-0.0021658342742418408
7.06225e-06;-0.002172777232295457
7.06250e-06;-0.0021797201903490967
7.06275e-06;-0.002186663148402713
7.06300e-06;-0.0021936061064563527
7.06325e-06;-0.0022007023745508852
7.06350e-06;-0.0022112556907985677
7.06375e-06;-0.0022218090070462862
7.06400e-06;-0.0022323623232939687
7.06425e-06;-0.0022429156395416517
7.06450e-06;-0.0022534689557893697
7.06475e-06;-0.0022640222720370527
7.06500e-06;-0.002274575588284735
7.06525e-06;-0.0022851289045324537
7.06550e-06;-0.002295682220780136
7.06575e-06;-0.002306235537027819
7.06600e-06;-0.002316788853275537
7.06625e-06;-0.00232734216952322
7.06650e-06;-0.0023378954857709027
7.06675e-06;-0.0023533171082067554
7.06700e-06;-0.0023728448572437177
7.06725e-06;-0.002392372606280746
7.06750e-06;-0.0024119003553177082
7.06775e-06;-0.0024314281043546705
7.06800e-06;-0.0024509558533916988
7.06825e-06;-0.002470483602428661
7.06850e-06;-0.0024900113514656234
7.06875e-06;-0.002509539100502652
7.06900e-06;-0.0025290668495396144
7.06925e-06;-0.0025485945985765767
7.06950e-06;-0.00256833234207834
7.06975e-06;-0.002592805333001945
7.07000e-06;-0.0026172783239255507
7.07025e-06;-0.0026417513148492386
7.07050e-06;-0.002666224305772844
7.07075e-06;-0.0026906972966964492
7.07100e-06;-0.0027151702876201376
7.07125e-06;-0.0027396432785437427
7.07150e-06;-0.0027641162694674306
7.07175e-06;-0.002788589260391036
7.07200e-06;-0.0028130622513146413
7.07225e-06;-0.0028375352422383296
7.07250e-06;-0.002860024253040913
7.07275e-06;-0.002880839894660178
7.07300e-06;-0.002901655536279514
7.07325e-06;-0.002922471177898779
7.07350e-06;-0.002943286819518044
7.07375e-06;-0.0029641024611373793
7.07400e-06;-0.0029849181027566444
7.07425e-06;-0.0030057337443759095
7.07450e-06;-0.003019026777885488
7.07475e-06;-0.003025974939057237
7.07500e-06;-0.0030329231002289864
7.07525e-06;-0.003039871261400759
7.07550e-06;-0.0030468194225725083
7.07575e-06;-0.003053767583744281
7.07600e-06;-0.00306071574491603
7.07625e-06;-0.0030676639060877794
7.07650e-06;-0.0030631770967519765
7.07675e-06;-0.0030490455701857625
7.07700e-06;-0.0030349140436195486
7.07725e-06;-0.0030207825170532865
7.07750e-06;-0.0030066509904870726
7.07775e-06;-0.0029925194639208587
7.07800e-06;-0.0029783879373545966
7.07825e-06;-0.0029642564107883827
7.07850e-06;-0.0029501248842221687
7.07875e-06;-0.002926965330476356
7.07900e-06;-0.0028961911729820495
7.07925e-06;-0.002865417015487743
7.07950e-06;-0.0028346428579933323
7.07975e-06;-0.0028038687004990257
7.08000e-06;-0.0027730945430046146
7.08025e-06;-0.002742320385510308
7.08050e-06;-0.0027115462280160015
7.08075e-06;-0.002680772070521591
7.08100e-06;-0.002647740314817156
7.08125e-06;-0.002612804409352098
7.08150e-06;-0.002577868503886922
7.08175e-06;-0.0025429325984218636
7.08200e-06;-0.002507996692956806
7.08225e-06;-0.0024730607874916296
7.08250e-06;-0.002438124882026572
7.08275e-06;-0.0024076328483089095
7.08300e-06;-0.0023808889559946405
7.08325e-06;-0.0023541450636804617
7.08350e-06;-0.002327401171366283
7.08375e-06;-0.002300657279052014
7.08400e-06;-0.002273913386737835
7.08425e-06;-0.002247169494423566
7.08450e-06;-0.0022270110604627204
7.08475e-06;-0.0022124070687803894
7.08500e-06;-0.0021978030770980093
7.08525e-06;-0.00218781421095665
7.08550e-06;-0.002181717928603646
7.08575e-06;-0.0021756216462506216
7.08600e-06;-0.0021743906099523794
7.08625e-06;-0.002177263119213352
7.08650e-06;-0.002180135628474334
7.08675e-06;-0.002191581929268416
7.08700e-06;-0.002210259713069695
7.08725e-06;-0.0022289374968710368
7.08750e-06;-0.002247615280672316
7.08775e-06;-0.002266293064473595
7.08800e-06;-0.0022849708482749367
7.08825e-06;-0.0023036486320762157
7.08850e-06;-0.0023223264158775576
7.08875e-06;-0.0023417224718388432
7.08900e-06;-0.0023773151279831606
7.08925e-06;-0.0024129077841275985
7.08950e-06;-0.0024485004402719163
7.08975e-06;-0.0024840930964162337
7.09000e-06;-0.0025196857525606716
7.09025e-06;-0.002555278408704989
7.09050e-06;-0.0025908710648493063
7.09075e-06;-0.002626463720993744
7.09100e-06;-0.002664715869181962
7.09125e-06;-0.002705211140666028
7.09150e-06;-0.0027457064121502316
7.09175e-06;-0.002786201683634298
7.09200e-06;-0.0028266969551183642
7.09225e-06;-0.0028671922266025676
7.09250e-06;-0.002907687498086634
7.09275e-06;-0.002947846184982669
7.09300e-06;-0.0029804150942105098
7.09325e-06;-0.0030129840034383505
7.09350e-06;-0.0030455529126663015
7.09375e-06;-0.0030781218218941422
7.09400e-06;-0.003110690731121983
7.09425e-06;-0.003143259640349934
7.09450e-06;-0.0031758285495777747
7.09475e-06;-0.0031973490055004195
7.09500e-06;-0.003209550748457927
7.09525e-06;-0.003221752491415393
7.09550e-06;-0.0032339542343728586
7.09575e-06;-0.0032461559773303656
7.09600e-06;-0.0032583577202878315
7.09625e-06;-0.0032705594632452973
7.09650e-06;-0.0032827612062028043
7.09675e-06;-0.00329496294916027
7.09700e-06;-0.0033071646921177776
7.09725e-06;-0.0033193664350752434
7.09750e-06;-0.003330645723593106
7.09775e-06;-0.0033211242257746337
7.09800e-06;-0.0033116027279561935
7.09825e-06;-0.003302081230137753
7.09850e-06;-0.0032925597323192808
7.09875e-06;-0.00328303823450084
7.09900e-06;-0.0032735167366823997
7.09925e-06;-0.0032639952388639273
7.09950e-06;-0.003254473741045487
7.09975e-06;-0.0032449522432270467
7.10000e-06;-0.0032354307454085744
7.10025e-06;-0.003225909247590134
7.10050e-06;-0.0032121076742564676
7.10075e-06;-0.0031946961118962626
7.10100e-06;-0.003177284549536117
7.10125e-06;-0.003159872987175912
7.10150e-06;-0.0031424614248157664
7.10175e-06;-0.0031250498624556203
7.10200e-06;-0.0031076383000954158
7.10225e-06;-0.0030902267377352697
7.10250e-06;-0.0030728151753751237
7.10275e-06;-0.003055403613014919
7.10300e-06;-0.003037992050654773
7.10325e-06;-0.0030238210475434096
7.10350e-06;-0.0030123832633402966
7.10375e-06;-0.0030009454791372226
7.10400e-06;-0.0029895076949341486
7.10425e-06;-0.0029780699107310356
7.10450e-06;-0.002966632126527961
7.10475e-06;-0.002955194342324887
7.10500e-06;-0.002943756558121774
7.10525e-06;-0.0029323187739187
7.10550e-06;-0.002920880989715587
7.10575e-06;-0.0029094432055125127
7.10600e-06;-0.002898492304919517
7.10625e-06;-0.0028879520616812704
7.10650e-06;-0.0028774118184430597
7.10675e-06;-0.002866871575204849
7.10700e-06;-0.002856331331966603
7.10725e-06;-0.002845791088728392
7.10750e-06;-0.0028352508454901814
7.10775e-06;-0.002824710602251935
7.10800e-06;-0.0028141703590137245
7.10825e-06;-0.002803630115775514
7.10850e-06;-0.002793089872537267
7.10875e-06;-0.0027825496292990565
7.10900e-06;-0.002772009386060846
7.10925e-06;-0.0027614691428225996
7.10950e-06;-0.0027504664259303765
7.10975e-06;-0.002739073640028868
7.11000e-06;-0.002727680854127398
7.11025e-06;-0.0027162880682259282
7.11050e-06;-0.0027048952823244196
7.11075e-06;-0.00269350249642295
7.11100e-06;-0.00268210971052148
7.11125e-06;-0.002670716924619972
7.11150e-06;-0.0026593241387185018
7.11175e-06;-0.0026479313528170317
7.11200e-06;-0.0026365385669155235
7.11225e-06;-0.0026251457810140535
7.11250e-06;-0.002613752995112584
7.11275e-06;-0.0026023602092110753
7.11300e-06;-0.0025932419205945555
7.11325e-06;-0.002586042035101578
7.11350e-06;-0.0025788421496085764
7.11375e-06;-0.002571642264115599
7.11400e-06;-0.0025644423786225974
7.11425e-06;-0.0025578176648432954
7.11450e-06;-0.0025641627232113047
7.11475e-06;-0.002570507781579335
7.11500e-06;-0.002576852839947344
7.11525e-06;-0.002583197898315353
7.11550e-06;-0.0025895429566833834
7.11575e-06;-0.0026049663475185736
7.11600e-06;-0.002628046771613767
7.11625e-06;-0.002651127195709039
7.11650e-06;-0.002681410341209282
7.11675e-06;-0.002717768553640554
7.11700e-06;-0.002754126766071949
7.11725e-06;-0.002797844693578754
7.11750e-06;-0.002847770102836166
7.11775e-06;-0.0028976955120937472
7.11800e-06;-0.002957423688410269
7.11825e-06;-0.0030254199154599016
7.11850e-06;-0.0030934161425093033
7.11875e-06;-0.003161412369558705
7.11900e-06;-0.0032294085966083374
7.11925e-06;-0.003297404823657739
7.11950e-06;-0.0033654010507071412
7.11975e-06;-0.0034420318394152187
7.12000e-06;-0.0035259453671104145
7.12025e-06;-0.0036098588948056108
7.12050e-06;-0.003693772422501091
7.12075e-06;-0.003777685950196287
7.12100e-06;-0.003861599477891483
7.12125e-06;-0.0039455130055869635
7.12150e-06;-0.0040270673157999535
7.12175e-06;-0.004092907702986485
7.12200e-06;-0.0041807150501652944
7.12225e-06;-0.004259012824570151
7.12250e-06;-0.004340650166040544
7.12275e-06;-0.004430669633304444
7.12300e-06;-0.004494141499324848
7.12325e-06;-0.004552565053994261
7.12350e-06;-0.004610988608663476
7.12375e-06;-0.0046694121633326915
7.12400e-06;-0.0047278357180021045
7.12425e-06;-0.00478625927267132
7.12450e-06;-0.004844682827340535
7.12475e-06;-0.004903106382009948
7.12500e-06;-0.004961529936679163
7.12525e-06;-0.005019953491348378
7.12550e-06;-0.005078377046017792
7.12575e-06;-0.005104301986444832
7.12600e-06;-0.005122119018390861
7.12625e-06;-0.00513993605033695
7.12650e-06;-0.005157753082282979
7.12675e-06;-0.005175570114229069
7.12700e-06;-0.005193387146175098
7.12725e-06;-0.005211204178121127
7.12750e-06;-0.005229021210067217
7.12775e-06;-0.005246838242013246
7.12800e-06;-0.0052646552739592746
7.12825e-06;-0.005282472305905363
7.12850e-06;-0.005279339750968173
7.12875e-06;-0.005269607383497313
7.12900e-06;-0.00525987501602642
7.12925e-06;-0.005250142648555558
7.12950e-06;-0.005240410281084698
7.12975e-06;-0.005230677913613805
7.13000e-06;-0.0052209455461429445
7.13025e-06;-0.005211213178672084
7.13050e-06;-0.00520148081120119
7.13075e-06;-0.00519174844373033
7.13100e-06;-0.005175270495858868
7.13125e-06;-0.00515666746712931
7.13150e-06;-0.005138064438399752
7.13175e-06;-0.005119461409670131
7.13200e-06;-0.005100858380940573
7.13225e-06;-0.005082255352211015
7.13250e-06;-0.005063652323481394
7.13275e-06;-0.005045049294751836
7.13300e-06;-0.0050264462660222775
7.13325e-06;-0.0050078432372926565
7.13350e-06;-0.004999030045385457
7.13375e-06;-0.004993300975762603
7.13400e-06;-0.004987571906139729
7.13425e-06;-0.004981842836516874
7.13450e-06;-0.0049761137668940195
7.13475e-06;-0.004970384697271146
7.13500e-06;-0.004964655627648292
7.13525e-06;-0.004958926558025418
7.13550e-06;-0.0049531974884025635
7.13575e-06;-0.004947468418779709
7.13600e-06;-0.004941739349156835
7.13625e-06;-0.004936010279533981
7.13650e-06;-0.0049490232218654786
7.13675e-06;-0.0049679405176368836
7.13700e-06;-0.004986857813408224
7.13725e-06;-0.005005775109179564
7.13750e-06;-0.005024692404950969
7.13775e-06;-0.005043609700722309
7.13800e-06;-0.00506252699649365
7.13825e-06;-0.005081444292265055
7.13850e-06;-0.005100361588036395
7.13875e-06;-0.005119278883807736
7.13900e-06;-0.005138196179579141
7.13925e-06;-0.005157113475350481
7.13950e-06;-0.005187198541182821
7.13975e-06;-0.005220801823828166
7.14000e-06;-0.005254405106473511
7.14025e-06;-0.00528800838911897
7.14050e-06;-0.005321611671764315
7.14075e-06;-0.0053552149544096594
7.14100e-06;-0.005388818237055118
7.14125e-06;-0.0054224215197004625
7.14150e-06;-0.005456024802345807
7.14175e-06;-0.005489628084991266
7.14200e-06;-0.005521180845188466
7.14225e-06;-0.005552087623017397
7.14250e-06;-0.005582994400846434
7.14275e-06;-0.0056139011786753654
7.14300e-06;-0.005644807956504298
7.14325e-06;-0.005675714734333334
7.14350e-06;-0.005706621512162266
7.14375e-06;-0.005737528289991302
7.14400e-06;-0.005768435067820234
7.14425e-06;-0.005799341845649166
7.14450e-06;-0.005812885241169827
