Time(s);Current(A)
1.45000e-05;-0.002904502168285618
1.45003e-05;-0.0029123257780775636
1.45005e-05;-0.002920127700115761
1.45008e-05;-0.002926725457071794
1.45010e-05;-0.0029332889529163518
1.45013e-05;-0.002938855203566952
1.45015e-05;-0.0029443930804262594
1.45018e-05;-0.0029489060925878634
1.45020e-05;-0.0029533899451233496
1.45023e-05;-0.002957873797658836
1.45025e-05;-0.0029609002308653852
1.45028e-05;-0.0029638851973272425
1.45030e-05;-0.0029668701637891
1.45033e-05;-0.00296856833304717
1.45035e-05;-0.002970229890130499
1.45038e-05;-0.0029718914472138275
1.45040e-05;-0.0029724890497008667
1.45043e-05;-0.002973056380369239
1.45045e-05;-0.0029736237110376115
1.45048e-05;-0.0029730908648097935
1.45050e-05;-0.002972526716160219
1.45053e-05;-0.0029719625675106442
1.45055e-05;-0.0029705960949184
1.45058e-05;-0.002969206794467714
1.45060e-05;-0.002967817494017028
1.45063e-05;-0.002965751213873944
1.45065e-05;-0.0029636656721885217
1.45068e-05;-0.0029615801305030998
1.45070e-05;-0.0029589414441130502
1.45073e-05;-0.002956287019554967
1.45075e-05;-0.0029536325949968837
1.45078e-05;-0.002950704692074616
1.45080e-05;-0.0029477690080989987
1.45083e-05;-0.0029448333241233818
1.45085e-05;-0.002941751392611962
1.45088e-05;-0.0029386653000405445
1.45090e-05;-0.0029355792074691267
1.45093e-05;-0.0029326107619092406
1.45095e-05;-0.002929645663662329
1.45098e-05;-0.002926680565415397
1.45100e-05;-0.002923715467168465
1.45103e-05;-0.0029210039250208084
1.45105e-05;-0.0029184356571087438
1.45108e-05;-0.002916016828767238
1.45110e-05;-0.002913479439121031
1.45113e-05;-0.0029101550246822677
1.45115e-05;-0.00290553487677976
1.45118e-05;-0.0028995484591631568
1.45120e-05;-0.002891705952829308
1.45123e-05;-0.002883811713440902
1.45125e-05;-0.0028737853389251044
1.45128e-05;-0.002863698300534766
1.45130e-05;-0.00285204906226686
1.45133e-05;-0.0028381291761076033
1.45135e-05;-0.002824145949726361
1.45138e-05;-0.002807018854103813
1.45140e-05;-0.002789802308574266
1.45143e-05;-0.0027693746938907055
1.45145e-05;-0.002748855717316563
1.45148e-05;-0.0027283367407425593
1.45150e-05;-0.002704466144944648
1.45153e-05;-0.002680500188301424
1.45155e-05;-0.002656534231658363
1.45158e-05;-0.0026297202966861404
1.45160e-05;-0.002602825330545751
1.45163e-05;-0.0025742978706273035
1.45165e-05;-0.002545723962715526
1.45168e-05;-0.002516123944964631
1.45170e-05;-0.0024864947321606933
1.45173e-05;-0.002456065346113017
1.45175e-05;-0.002425613193398884
1.45178e-05;-0.002394716525148271
1.45180e-05;-0.002363807209465533
1.45183e-05;-0.00233314997835089
1.45185e-05;-0.002302499919589651
1.45188e-05;-0.002272792546183279
1.45190e-05;-0.002243111994222215
1.45193e-05;-0.0022148260008069487
1.45195e-05;-0.0021865796856109835
1.45198e-05;-0.0021602614155211922
1.45200e-05;-0.002133998002501714
1.45203e-05;-0.00211123347499401
1.45205e-05;-0.0020885684983773098
1.45208e-05;-0.002065903521760609
1.45210e-05;-0.00204651560680037
1.45213e-05;-0.0020283687254885416
1.45215e-05;-0.0020117997598182074
1.45218e-05;-0.001995274760105415
1.45220e-05;-0.001978749760392511
1.45223e-05;-0.0019651224314761076
1.45225e-05;-0.0019515775475867426
1.45228e-05;-0.001938032663697286
1.45230e-05;-0.001927167343307944
1.45233e-05;-0.0019163782623194013
1.45235e-05;-0.001907129930814985
1.45238e-05;-0.0018979254369794166
1.45240e-05;-0.0018887209431439106
1.45243e-05;-0.0018815225232856375
1.45245e-05;-0.0018743811805885934
1.45248e-05;-0.0018672398378915974
1.45250e-05;-0.0018618822359404857
1.45253e-05;-0.001856575385287344
1.45255e-05;-0.0018522848154012687
1.45258e-05;-0.0018480231609100427
1.45260e-05;-0.001843761506418817
1.45263e-05;-0.0018407532566984235
1.45265e-05;-0.0018377806690658073
1.45268e-05;-0.001834808081433171
1.45270e-05;-0.0018328962223480463
1.45273e-05;-0.0018310145432937094
1.45275e-05;-0.0018295682110061396
1.45278e-05;-0.0018281342652795363
1.45280e-05;-0.001827172624385074
1.45283e-05;-0.0018262244215887936
1.45285e-05;-0.0018252762187925132
1.45288e-05;-0.001824903460054141
1.45290e-05;-0.0018245470739489214
1.45293e-05;-0.0018241906878437018
1.45295e-05;-0.0018239726633777417
1.45298e-05;-0.001823758575600902
1.45300e-05;-0.0018235359982225262
1.45303e-05;-0.0018233058216418864
1.45305e-05;-0.001823066946118455
1.45308e-05;-0.0018228113026230988
1.45310e-05;-0.0018222607695338139
1.45313e-05;-0.0018207538540688723
1.45315e-05;-0.0018177896377216997
1.45318e-05;-0.0018132962152987593
1.45320e-05;-0.0018066931103610559
1.45323e-05;-0.0018000311853618486
1.45325e-05;-0.0017908861651081357
1.45328e-05;-0.001781670495401672
1.45330e-05;-0.0017698318218073463
1.45333e-05;-0.0017579185180559287
1.45335e-05;-0.00174254343778485
1.45338e-05;-0.0017270698624535794
1.45340e-05;-0.0017083665031141575
1.45343e-05;-0.001689571249405199
1.45345e-05;-0.00166748878425004
1.45348e-05;-0.0016453127907901201
1.45350e-05;-0.0016231367973303502
1.45353e-05;-0.001597139313500941
1.45355e-05;-0.0015710330999710363
1.45358e-05;-0.0015449268864413087
1.45360e-05;-0.0015160036155982923
1.45363e-05;-0.0014870001933566343
1.45365e-05;-0.001456512392585352
1.45368e-05;-0.0014259823580209164
1.45370e-05;-0.0013944560404176112
1.45373e-05;-0.0013629013763983297
1.45375e-05;-0.0013305640843119485
1.45378e-05;-0.0012982045247573418
1.45380e-05;-0.0012656961707867098
1.45383e-05;-0.0012331835832915616
1.45385e-05;-0.001201031520874952
1.45388e-05;-0.0011693803019540983
1.45390e-05;-0.001138380100962982
1.45393e-05;-0.0011081230376750143
1.45395e-05;-0.0010787263939363054
1.45398e-05;-0.0010503734150225745
1.45400e-05;-0.0010232708214809748
1.45403e-05;-0.0009976257226104789
1.45405e-05;-0.0009736455608523202
1.45408e-05;-0.0009515368827526806
1.45410e-05;-0.0009314775142394276
1.45413e-05;-0.0009135704354837257
1.45415e-05;-0.0008978595268371144
1.45418e-05;-0.0008843808779510588
1.45420e-05;-0.0008743015574606884
1.45423e-05;-0.0008643171973842013
1.45425e-05;-0.0008589165995659322
1.45428e-05;-0.0008536464197391481
1.45430e-05;-0.0008530598964819764
1.45433e-05;-0.0008526066334264416
1.45435e-05;-0.0008566882891216261
1.45438e-05;-0.0008608989731044598
1.45440e-05;-0.0008683549487675203
1.45443e-05;-0.0008779856460889668
1.45445e-05;-0.0008896969093447423
1.45448e-05;-0.0009034259324686715
1.45450e-05;-0.0009190983635364344
1.45453e-05;-0.0009366107140714033
1.45455e-05;-0.0009558361502023882
1.45458e-05;-0.000976644876660761
1.45460e-05;-0.0009989090696596646
1.45463e-05;-0.0010225009067859202
1.45465e-05;-0.0010472926772106808
1.45468e-05;-0.0010731564469368567
1.45470e-05;-0.0010999572574549982
1.45473e-05;-0.0011275417262316483
1.45475e-05;-0.0011557420292652044
1.45478e-05;-0.001184388361689825
1.45480e-05;-0.001213312118692327
1.45483e-05;-0.0012423449572764708
1.45485e-05;-0.0012713185408867002
1.45488e-05;-0.0013000640801887104
1.45490e-05;-0.0013284088111521946
1.45493e-05;-0.0013561680847765823
1.45495e-05;-0.0013831486539031468
1.45498e-05;-0.0014091555647364514
1.45500e-05;-0.0014339951799484934
1.45503e-05;-0.001457473448080167
1.45505e-05;-0.00147854683526075
1.45508e-05;-0.001499552874138863
1.45510e-05;-0.0015180848733375993
1.45513e-05;-0.0015353877067220629
1.45515e-05;-0.0015514871940015532
1.45518e-05;-0.0015675533815285839
1.45520e-05;-0.00158235750489137
1.45523e-05;-0.001596139907257492
1.45525e-05;-0.0016087998948808673
1.45528e-05;-0.0016202302400605845
1.45530e-05;-0.0016304846903511347
1.45533e-05;-0.0016398661835475496
1.45535e-05;-0.0016486265483619772
1.45538e-05;-0.0016567928545928175
1.45540e-05;-0.0016643074934438013
1.45543e-05;-0.0016707347078835184
1.45545e-05;-0.0016771314969872648
1.45548e-05;-0.0016823451752211722
1.45550e-05;-0.0016867630515527356
1.45553e-05;-0.0016905955338090035
1.45555e-05;-0.0016940103625545364
1.45558e-05;-0.0016970344490915704
1.45560e-05;-0.001699425115905212
1.45563e-05;-0.0017017980676176713
1.45565e-05;-0.0017032523312494206
1.45568e-05;-0.0017046804562099325
1.45570e-05;-0.0017052626206762293
1.45573e-05;-0.0017058207157290657
1.45575e-05;-0.0017059314087810489
1.45578e-05;-0.0017060293722743667
1.45580e-05;-0.0017057565099726669
1.45583e-05;-0.0017054730968716792
1.45585e-05;-0.0017047907856932662
1.45588e-05;-0.0017040971249981628
1.45590e-05;-0.0017030887830728537
1.45593e-05;-0.001702071487783069
1.45595e-05;-0.0017010417222119267
1.45598e-05;-0.0017000116018341873
1.45600e-05;-0.001698981481456448
1.45603e-05;-0.0016980147123719352
1.45605e-05;-0.0016970899298832465
1.45608e-05;-0.0016962072671966096
1.45610e-05;-0.0016951869936933247
1.45613e-05;-0.0016935915913006852
1.45615e-05;-0.0016910890953976702
1.45618e-05;-0.0016876328302757532
1.45620e-05;-0.0016828699741940152
1.45623e-05;-0.001678070694344039
1.45625e-05;-0.0016717505306779144
1.45628e-05;-0.0016653870945639146
1.45630e-05;-0.0016574128980521609
1.45633e-05;-0.0016493928719085206
1.45635e-05;-0.0016386783405669797
1.45638e-05;-0.0016278871447000173
1.45640e-05;-0.0016170959488330551
1.45643e-05;-0.0016035299361377194
1.45645e-05;-0.0015898849738765991
1.45648e-05;-0.0015762400116154786
1.45650e-05;-0.0015602515042839396
1.45653e-05;-0.0015441963180048215
1.45655e-05;-0.0015281411317257035
1.45658e-05;-0.0015101186783819558
1.45660e-05;-0.0014920402520171466
1.45663e-05;-0.001472824954812284
1.45665e-05;-0.0014535773111628366
1.45668e-05;-0.0014336016558830747
1.45670e-05;-0.0014136052870911667
1.45673e-05;-0.0013930443032000657
1.45675e-05;-0.001372467254782885
1.45678e-05;-0.001351576034511617
1.45680e-05;-0.0013306758753688472
1.45683e-05;-0.0013099333964250856
1.45685e-05;-0.001289195403825479
1.45688e-05;-0.001269083377845749
1.45690e-05;-0.0012489891619758455
1.45693e-05;-0.001229835027982417
1.45695e-05;-0.0012107076413602862
1.45698e-05;-0.0011924995087923248
1.45700e-05;-0.0011750968764195192
1.45703e-05;-0.001158624579091426
1.45705e-05;-0.0011432149842497015
1.45708e-05;-0.0011290058894600275
1.45710e-05;-0.001116348618864086
1.45713e-05;-0.001105876762536508
1.45715e-05;-0.001098048959480665
1.45718e-05;-0.0010929495195006092
1.45720e-05;-0.001090534867019778
1.45723e-05;-0.0010907580866634727
1.45725e-05;-0.0010935722630570175
1.45728e-05;-0.0010989338766662715
1.45730e-05;-0.0011069333006964697
1.45733e-05;-0.0011178376766247727
1.45735e-05;-0.0011318040612561208
1.45738e-05;-0.001148755774847858
1.45740e-05;-0.0011685354379247456
1.45743e-05;-0.0011909839010797896
1.45745e-05;-0.0012170834231958227
1.45748e-05;-0.0012432847286411063
1.45750e-05;-0.0012739686002931135
1.45753e-05;-0.0013047800106904047
1.45755e-05;-0.0013399614717756094
1.45758e-05;-0.001375267270294773
1.45760e-05;-0.001413415896783581
1.45763e-05;-0.0014532430377168662
1.45765e-05;-0.0014950662621338831
1.45768e-05;-0.0015369449861389565
1.45770e-05;-0.0015808240866546106
1.45773e-05;-0.0016247601022267117
1.45775e-05;-0.0016698720408061286
1.45778e-05;-0.0017155157199619747
1.45780e-05;-0.0017614055122657385
1.45783e-05;-0.0018072681716329731
1.45785e-05;-0.0018528301317199134
1.45788e-05;-0.0018978187220774513
1.45790e-05;-0.0019419943508702047
1.45793e-05;-0.0019851607015020116
1.45795e-05;-0.0020270944764160955
1.45798e-05;-0.002067515205163487
1.45800e-05;-0.002106122136296587
1.45803e-05;-0.002142614439740972
1.45805e-05;-0.0021766915246941845
1.45808e-05;-0.0022080532595744953
1.45810e-05;-0.0022364459355037006
1.45813e-05;-0.0022617312643085103
1.45815e-05;-0.0022822902218680385
1.45818e-05;-0.0023027171527277234
1.45820e-05;-0.002316771562287436
1.45823e-05;-0.00233064465977423
1.45825e-05;-0.002337906395171426
1.45828e-05;-0.0023449800229562497
1.45830e-05;-0.002345299776540415
1.45833e-05;-0.002345427367733138
1.45835e-05;-0.0023390305303559117
1.45838e-05;-0.002332448058813829
1.45840e-05;-0.0023196979483555047
1.45843e-05;-0.002306772355173104
1.45845e-05;-0.0022880240272860424
1.45848e-05;-0.0022691100299488203
1.45850e-05;-0.0022447783084976057
1.45853e-05;-0.002220292441027103
1.45855e-05;-0.0021910267015043043
1.45858e-05;-0.0021616249642392145
1.45860e-05;-0.002128161348821952
1.45863e-05;-0.0020945821641482256
1.45865e-05;-0.0020576510584000302
1.45868e-05;-0.0020206245832166156
1.45870e-05;-0.0019809938944641524
1.45873e-05;-0.001941289110178875
1.45875e-05;-0.0018998738975744339
1.45878e-05;-0.0018584100195686909
1.45880e-05;-0.0018162533900778924
1.45883e-05;-0.001773928086094631
1.45885e-05;-0.0017316842321339174
1.45888e-05;-0.0016897632703528718
1.45890e-05;-0.0016484136641998434
1.45893e-05;-0.0016079017351728763
1.45895e-05;-0.0015685063058267143
1.45898e-05;-0.001530507106076791
1.45900e-05;-0.0014941819576312504
1.45903e-05;-0.0014598090802269861
1.45905e-05;-0.001427666253704634
1.45908e-05;-0.001398017322075108
1.45910e-05;-0.0013705531944845964
1.45913e-05;-0.0013441060952473932
1.45915e-05;-0.0013177450812726697
1.45918e-05;-0.0012913770260370996
1.45920e-05;-0.0012652181329839611
1.45923e-05;-0.001239492168464622
1.45925e-05;-0.0012148501360742558
1.45928e-05;-0.0011902385982640075
1.45930e-05;-0.0011667581583643897
1.45933e-05;-0.0011433365014087977
1.45935e-05;-0.001119188268840602
1.45938e-05;-0.001095019342083773
1.45940e-05;-0.0010702590296842202
1.45943e-05;-0.0010454818910786742
1.45945e-05;-0.001020850773619311
1.45948e-05;-0.0009962238107787539
1.45950e-05;-0.0009718488759090103
1.45953e-05;-0.000947481111782666
1.45955e-05;-0.0009223955801453019
1.45958e-05;-0.0008972896264630879
1.45960e-05;-0.0008717373461298406
1.45963e-05;-0.000846172366833663
1.45965e-05;-0.0008208172787860256
1.45968e-05;-0.0007954681626005173
1.45970e-05;-0.000770589709923762
1.45973e-05;-0.0007457246486462384
1.45975e-05;-0.0007208875181579228
1.45978e-05;-0.0006961104963770952
1.45980e-05;-0.0006715462137029496
1.45983e-05;-0.0006473505550825281
1.45985e-05;-0.0006236794572287692
1.45988e-05;-0.0006006866511690283
1.45990e-05;-0.0005784376830643683
1.45993e-05;-0.0005568658141025045
1.45995e-05;-0.0005359409103224908
1.45998e-05;-0.0005157618377083959
1.46000e-05;-0.0004964749628920558
1.46003e-05;-0.00047822795709903237
1.46005e-05;-0.00046116837997049135
1.46008e-05;-0.0004454460235216784
1.46010e-05;-0.0004312940263667633
1.46013e-05;-0.0004190400937745169
1.46015e-05;-0.00040890834930528395
1.46018e-05;-0.00040095188554483183
1.46020e-05;-0.0003951687564106535
1.46023e-05;-0.0003915555009623974
1.46025e-05;-0.0003901086558442333
1.46028e-05;-0.00039082617263395177
1.46030e-05;-0.00039375808442463153
1.46033e-05;-0.00039901380407861173
1.46035e-05;-0.0004066377484409469
1.46038e-05;-0.0004165672520448072
1.46040e-05;-0.00042870510362980866
1.46043e-05;-0.0004429532224821028
1.46045e-05;-0.000459213500394268
1.46048e-05;-0.0004782874572789977
1.46050e-05;-0.0004974398877472365
1.46053e-05;-0.0005201150642214719
1.46055e-05;-0.0005428904704722021
1.46058e-05;-0.0005680892900774193
1.46060e-05;-0.0005947752206939433
1.46063e-05;-0.0006227666780505523
1.46065e-05;-0.0006519062702422823
1.46068e-05;-0.0006820372829219414
1.46070e-05;-0.0007130233395130853
1.46073e-05;-0.000744751393674709
1.46075e-05;-0.0007770829550379966
1.46078e-05;-0.000809837474817693
1.46080e-05;-0.0008428208904753191
1.46083e-05;-0.0008758387884232002
1.46085e-05;-0.000908696868269021
1.46088e-05;-0.0009412010592298029
1.46090e-05;-0.0009731702011581715
1.46093e-05;-0.0010044375937983089
1.46095e-05;-0.0010348208642171999
1.46098e-05;-0.0010641112039710312
1.46100e-05;-0.0010920911418528245
1.46103e-05;-0.001118543320794619
1.46105e-05;-0.0011432501670010226
1.46108e-05;-0.0011649824793174533
1.46110e-05;-0.0011866315382256774
1.46113e-05;-0.0012043338379793618
1.46115e-05;-0.0012219238438614462
1.46118e-05;-0.0012356307060032762
1.46120e-05;-0.0012492270842700875
1.46123e-05;-0.0012597716205784838
1.46125e-05;-0.001265935360362335
1.46128e-05;-0.0012719769275140937
1.46130e-05;-0.0012780184946658115
1.46133e-05;-0.0012798056772352856
1.46135e-05;-0.0012795099230048152
1.46138e-05;-0.0012772528293706058
1.46140e-05;-0.0012721480444859504
1.46143e-05;-0.0012669637791666748
1.46145e-05;-0.0012581630567899558
1.46148e-05;-0.0012492594383536491
1.46150e-05;-0.0012369778074681793
1.46153e-05;-0.0012246000647903362
1.46155e-05;-0.0012093483656048301
1.46158e-05;-0.0011940148961133781
1.46160e-05;-0.0011762205175276173
1.46163e-05;-0.0011583561207319868
1.46165e-05;-0.0011383957545130824
1.46168e-05;-0.0011183757534109792
1.46170e-05;-0.0010966925261741757
1.46173e-05;-0.0010749619765406727
1.46175e-05;-0.0010521674534461451
1.46178e-05;-0.0010293426579951299
1.46180e-05;-0.0010059958652446632
1.46183e-05;-0.0009826342205372014
1.46185e-05;-0.000959200980190006
1.46188e-05;-0.0009358888020135248
1.46190e-05;-0.0009128458508054013
1.46193e-05;-0.0008902442220780708
1.46195e-05;-0.0008682598472308377
1.46198e-05;-0.0008470544271025332
1.46200e-05;-0.0008273150444427124
1.46203e-05;-0.0008076167570823423
1.46205e-05;-0.0007903446280473673
1.46208e-05;-0.0007731415284874913
1.46210e-05;-0.000757916109902694
1.46213e-05;-0.0007436666674704686
1.46215e-05;-0.0007306934016250535
1.46218e-05;-0.0007177557012491389
1.46220e-05;-0.0007048180008732243
1.46223e-05;-0.0006942142051527787
1.46225e-05;-0.0006836768140899528
1.46228e-05;-0.0006731394230271269
1.46230e-05;-0.000664757570091586
1.46233e-05;-0.00065643704689848
1.46235e-05;-0.0006493734658092775
1.46238e-05;-0.0006423456474536158
1.46240e-05;-0.0006353178290979065
1.46243e-05;-0.0006299184861077269
1.46245e-05;-0.0006245654767795171
1.46248e-05;-0.000619212467451271
1.46250e-05;-0.0006153013037482382
1.46253e-05;-0.0006114311636856194
1.46255e-05;-0.0006082385504224212
1.46258e-05;-0.0006050652142685712
1.46260e-05;-0.0006027017766678197
1.46263e-05;-0.0006003613824403646
1.46265e-05;-0.0005980209882129096
1.46268e-05;-0.000596595527775249
1.46270e-05;-0.0005951960991915674
1.46273e-05;-0.0005942994814078359
1.46275e-05;-0.0005934171696837155
1.46278e-05;-0.0005928284566791643
1.46280e-05;-0.0005922480971960245
1.46283e-05;-0.0005920612496095843
1.46285e-05;-0.0005918855982915007
1.46288e-05;-0.000591709946973417
1.46290e-05;-0.0005918786999236252
1.46293e-05;-0.0005920572519234768
1.46295e-05;-0.0005922645082093912
1.46298e-05;-0.0005924725811946038
1.46300e-05;-0.0005926806541798148
1.46303e-05;-0.0005928590890227966
1.46305e-05;-0.0005930177204861598
1.46308e-05;-0.0005931614367679424
1.46310e-05;-0.000593577430030253
1.46313e-05;-0.00059495496023492
1.46315e-05;-0.00059781689590935
1.46318e-05;-0.000602237555621134
1.46320e-05;-0.000608131373202959
1.46323e-05;-0.0006154087056363341
1.46325e-05;-0.0006239799131235428
1.46328e-05;-0.0006337597704595336
1.46330e-05;-0.0006448401013398573
1.46333e-05;-0.0006575646409249006
1.46335e-05;-0.0006730676256057714
1.46338e-05;-0.0006886483612406783
1.46340e-05;-0.000706773260662112
1.46343e-05;-0.0007264796586384265
1.46345e-05;-0.0007482135233708535
1.46348e-05;-0.0007700038522721145
1.46350e-05;-0.0007942808420587519
1.46353e-05;-0.0008186285827497421
1.46355e-05;-0.0008456710361610744
1.46358e-05;-0.0008727901600036417
1.46360e-05;-0.0009016482372259896
1.46363e-05;-0.0009314837614946437
1.46365e-05;-0.0009623914376435214
1.46368e-05;-0.0009933288676264806
1.46370e-05;-0.0010252754848421289
1.46373e-05;-0.0010572508156270458
1.46375e-05;-0.001090023150203549
1.46378e-05;-0.001122818161269227
1.46380e-05;-0.0011558202054177578
1.46383e-05;-0.0011887070217921267
1.46385e-05;-0.0012210209662138257
1.46388e-05;-0.0012533187092325423
1.46390e-05;-0.001284704046476228
1.46393e-05;-0.0013153164520532557
1.46395e-05;-0.0013450442687834652
1.46398e-05;-0.0013736995653195105
1.46400e-05;-0.001401069602944521
1.46403e-05;-0.0014269416715420905
1.46405e-05;-0.0014511025143456127
1.46408e-05;-0.0014723289920847834
1.46410e-05;-0.0014934733323652269
1.46413e-05;-0.0015105302124960923
1.46415e-05;-0.0015274707955052504
1.46418e-05;-0.0015402527755041598
1.46420e-05;-0.0015529164342124938
1.46423e-05;-0.001561231039849439
1.46425e-05;-0.0015694219054778603
1.46428e-05;-0.0015730830593144523
1.46430e-05;-0.0015766153330093132
1.46433e-05;-0.0015767779140652754
1.46435e-05;-0.0015747035425390404
