Time(s);Current(A)
5.00000e-06;0.0011510793664778166
5.00025e-06;0.0011374918225146831
5.00050e-06;0.0011186563428344522
5.00075e-06;0.001099820863154285
5.00100e-06;0.001080985383474118
5.00125e-06;0.001062149903793887
5.00150e-06;0.0010433144241137199
5.00175e-06;0.0010244789444335527
5.00200e-06;0.0010015697338035968
5.00225e-06;0.0009771448410966633
5.00250e-06;0.0009527199483897299
5.00275e-06;0.0009282950556827136
5.00300e-06;0.0009038701629757802
5.00325e-06;0.0008794452702688468
5.00350e-06;0.0008549181047871625
5.00375e-06;0.0008300462739586746
5.00400e-06;0.0008051744431301025
5.00425e-06;0.0007803026123016147
5.00450e-06;0.0007554307814731267
5.00475e-06;0.0007314201751858108
5.00500e-06;0.000710311946938198
5.00525e-06;0.0006892037186905853
5.00550e-06;0.0006680954904429011
5.00575e-06;0.0006469872621952884
5.00600e-06;0.0006271196784638699
5.00625e-06;0.0006114331407038173
5.00650e-06;0.0005957466029438179
5.00675e-06;0.0005807613003148616
5.00700e-06;0.000568139201876377
5.00725e-06;0.0005560949098198227
5.00750e-06;0.0005459978597118072
5.00775e-06;0.0005365389206973646
5.00800e-06;0.000529230454104561
5.00825e-06;0.0005226663938457764
5.00850e-06;0.0005186110273048279
5.00875e-06;0.0005145556607638794
5.00900e-06;0.0005112565839039919
5.00925e-06;0.0005105062483497099
5.00950e-06;0.0005097559127954281
5.00975e-06;0.0005097556821651219
5.01000e-06;0.0005122833498402892
5.01025e-06;0.0005148110175154565
5.01050e-06;0.0005179499238920334
5.01075e-06;0.0005231487411265197
5.01100e-06;0.0005283475583610061
5.01125e-06;0.0005342466807418891
5.01150e-06;0.0005425058732092002
5.01175e-06;0.0005507650656765114
5.01200e-06;0.0005590242581438505
5.01225e-06;0.0005672834506111616
5.01250e-06;0.0005755426430785007
5.01275e-06;0.0005838018355458118
5.01300e-06;0.0005934326247969956
5.01325e-06;0.0006035737336268419
5.01350e-06;0.0006137148424566539
5.01375e-06;0.0006238559512864659
5.01400e-06;0.0006339970601163123
5.01425e-06;0.0006441381689461244
5.01450e-06;0.0006538654506197616
5.01475e-06;0.0006621981101101946
5.01500e-06;0.0006705307696005994
5.01525e-06;0.0006788634290910043
5.01550e-06;0.0006871960885814374
5.01575e-06;0.0006955287480718423
5.01600e-06;0.0007038614075622472
5.01625e-06;0.0007121940670526802
5.01650e-06;0.000720526726543085
5.01675e-06;0.0007269992711717944
5.01700e-06;0.0007327797370179098
5.01725e-06;0.0007385602028640254
5.01750e-06;0.0007443406687101604
5.01775e-06;0.0007501211345562758
5.01800e-06;0.0007559016004023912
5.01825e-06;0.0007616820662485263
5.01850e-06;0.0007674625320946418
5.01875e-06;0.000773092985581271
5.01900e-06;0.0007782178884747463
5.01925e-06;0.0007833427913682045
5.01950e-06;0.0007884676942616625
5.01975e-06;0.000793592597155138
5.02000e-06;0.0007987175000485961
5.02025e-06;0.0008038424029420542
5.02050e-06;0.0008089673058355296
5.02075e-06;0.0008140922087289876
5.02100e-06;0.0008192171116224631
5.02125e-06;0.0008243420145159212
5.02150e-06;0.0008294669174093793
5.02175e-06;0.0008345918203028547
5.02200e-06;0.0008397167231963128
5.02225e-06;0.0008448416260897709
5.02250e-06;0.0008499665289832464
5.02275e-06;0.0008541941369640931
5.02300e-06;0.0008580878952545709
5.02325e-06;0.0008619816535450619
5.02350e-06;0.0008658754118355396
5.02375e-06;0.0008697691701260174
5.02400e-06;0.0008736629284165084
5.02425e-06;0.0008775566867069861
5.02450e-06;0.0008814504449974639
5.02475e-06;0.0008853442032879549
5.02500e-06;0.0008892379615784326
5.02525e-06;0.0008931317198689235
5.02550e-06;0.0008970254781594013
5.02575e-06;0.0009009192364498791
5.02600e-06;0.00090481299474037
5.02625e-06;0.0009087067530308478
5.02650e-06;0.0009118983043031692
5.02675e-06;0.0009127233760687476
5.02700e-06;0.0009135484478343231
5.02725e-06;0.0009143735195998987
5.02750e-06;0.000915198591365477
5.02775e-06;0.0009160236631310525
5.02800e-06;0.0009168487348966281
5.02825e-06;0.0009176738066622065
5.02850e-06;0.000918498878427782
5.02875e-06;0.0009193239501933576
5.02900e-06;0.000920149021958936
5.02925e-06;0.0009209740937245115
5.02950e-06;0.0009217991654900899
5.02975e-06;0.0009226242372556655
5.03000e-06;0.000923449309021241
5.03025e-06;0.0009242743807868194
5.03050e-06;0.0009246090855048137
5.03075e-06;0.0009232912240439659
5.03100e-06;0.0009219733625831137
5.03125e-06;0.0009206555011222659
5.03150e-06;0.0009193376396614181
5.03175e-06;0.0009180197782005658
5.03200e-06;0.000916701916739718
5.03225e-06;0.0009153840552788702
5.03250e-06;0.000914066193818018
5.03275e-06;0.0009127483323571702
5.03300e-06;0.0009114304708963224
5.03325e-06;0.0009101126094354702
5.03350e-06;0.0009087947479746224
5.03375e-06;0.0009074768865137702
5.03400e-06;0.0009061590250529224
5.03425e-06;0.0009048411635920747
5.03450e-06;0.0009034640335216892
5.03475e-06;0.000901887164704479
5.03500e-06;0.0009003102958872689
5.03525e-06;0.0008987334270700533
5.03550e-06;0.0008971565582528431
5.03575e-06;0.0008959908057360034
5.03600e-06;0.0008962105396559525
5.03625e-06;0.0008964302735759008
5.03650e-06;0.0008966500074958491
5.03675e-06;0.0008968697414157982
5.03700e-06;0.000898369862134052
5.03725e-06;0.0009041849626797364
5.03750e-06;0.0009100000632254406
5.03775e-06;0.0009168084544107298
5.03800e-06;0.0009269642942563023
5.03825e-06;0.0009371201341018405
5.03850e-06;0.0009485165127952009
5.03875e-06;0.0009640935813476284
5.03900e-06;0.0009796706499000034
5.03925e-06;0.0009964623195033444
5.03950e-06;0.0010173472670442745
5.03975e-06;0.0010382322145851338
5.04000e-06;0.0010601047253164862
5.04025e-06;0.0010853053828630919
5.04050e-06;0.001110506040409612
5.04075e-06;0.0011370578472693206
5.04100e-06;0.0011681631078490659
5.04125e-06;0.0011992683684287058
5.04150e-06;0.001230373629008346
5.04175e-06;0.0012614788895880912
5.04200e-06;0.0012925841501677314
5.04225e-06;0.0013236894107474767
5.04250e-06;0.0013571726835825023
5.04275e-06;0.0013915407253419934
5.04300e-06;0.001425908767101601
5.04325e-06;0.0014602768088610922
5.04350e-06;0.0014946448506205834
5.04375e-06;0.001529012892380191
5.04400e-06;0.0015626522188641422
5.04425e-06;0.0015938357314350996
5.04450e-06;0.0016250192440061626
5.04475e-06;0.0016562027565771198
5.04500e-06;0.0016873862691480772
5.04525e-06;0.0017185697817191402
5.04550e-06;0.0017473580617331879
5.04575e-06;0.001768074265265059
5.04600e-06;0.0017887904687970005
5.04625e-06;0.0018095066723288716
5.04650e-06;0.0018302228758608132
5.04675e-06;0.0018509390793926843
5.04700e-06;0.0018686418676885951
5.04725e-06;0.0018761892670281972
5.04750e-06;0.001883736666367774
5.04775e-06;0.0018890974144169517
5.04800e-06;0.0018870890172847867
5.04825e-06;0.0018850806201526284
5.04850e-06;0.0018807793519675358
5.04875e-06;0.0018687509716703709
5.04900e-06;0.0018567225913732465
5.04925e-06;0.0018425431410085608
5.04950e-06;0.0018211144563044825
5.04975e-06;0.0017996857716004767
5.05000e-06;0.001776358850410038
5.05025e-06;0.0017466347591185098
5.05050e-06;0.0017169106678270821
5.05075e-06;0.0016849083304573086
5.05100e-06;0.0016452281680125979
5.05125e-06;0.0016055480055678871
5.05150e-06;0.001565867843123042
5.05175e-06;0.0015261876806783312
5.05200e-06;0.0014865075182336205
5.05225e-06;0.001445235817544783
5.05250e-06;0.0013986005381128438
5.05275e-06;0.0013519652586809047
5.05300e-06;0.0013053299792488075
5.05325e-06;0.0012586946998168684
5.05350e-06;0.0012120594203849293
5.05375e-06;0.0011656413489122743
5.05400e-06;0.0011199552812093875
5.05425e-06;0.0010742692135065008
5.05450e-06;0.0010285831458034592
5.05475e-06;0.0009828970781005724
5.05500e-06;0.0009423201549000665
5.05525e-06;0.0009036441522163422
5.05550e-06;0.0008649681495326179
5.05575e-06;0.0008262921468487625
5.05600e-06;0.0007894658394101376
5.05625e-06;0.0007588731151948983
5.05650e-06;0.0007289353580898826
5.05675e-06;0.0007012048791847413
5.05700e-06;0.0006740702192676937
5.05725e-06;0.000648943504853002
5.05750e-06;0.0006238167904383955
5.05775e-06;0.0005995360691031351
5.05800e-06;0.0005781063948688212
5.05825e-06;0.0005573346669064655
5.05850e-06;0.0005387802570958132
5.05875e-06;0.000520225847285098
5.05900e-06;0.0005020909353862734
5.05925e-06;0.0004853697564534804
5.05950e-06;0.00046864857752074407
5.05975e-06;0.0004525397827798649
5.06000e-06;0.00043849475926523857
5.06025e-06;0.00042444973575065986
5.06050e-06;0.0004107822754523397
5.06075e-06;0.00039838722569652575
5.06100e-06;0.00038599217594075376
5.06125e-06;0.0003738913350365175
5.06150e-06;0.00036278199549751825
5.06175e-06;0.0003516726559585566
5.06200e-06;0.00034095169519101975
5.06225e-06;0.00033153959403149473
5.06250e-06;0.0003221274928720016
5.06275e-06;0.00031291289991081757
5.06300e-06;0.00030436392134987404
5.06325e-06;0.0002958149427889594
5.06350e-06;0.00028751862465381127
5.06375e-06;0.00028007378721276425
5.06400e-06;0.00027262894977171724
5.06425e-06;0.0002654384288328288
5.06450e-06;0.0002591049696641562
5.06475e-06;0.00025277151049548366
5.06500e-06;0.00024657634258467876
5.06525e-06;0.0002408472244554403
5.06550e-06;0.0002352247833966987
5.06575e-06;0.00023004619044247676
5.06600e-06;0.00022526748955228686
5.06625e-06;0.00022114006173506906
5.06650e-06;0.00021837629184620565
5.06675e-06;0.00021782193916518314
5.06700e-06;0.00021980540051232619
5.06725e-06;0.00022425964989694952
5.06750e-06;0.00023107710833964715
5.06775e-06;0.00024015019143353914
5.06800e-06;0.00025138469152784123
5.06825e-06;0.000264803373533266
5.06850e-06;0.0002807176840907506
5.06875e-06;0.00029952259556953486
5.06900e-06;0.0003212890383069034
5.06925e-06;0.00034584015149119
5.06950e-06;0.0003729737665962211
5.06975e-06;0.00040248767686788903
5.07000e-06;0.00043442719039805993
5.07025e-06;0.0004687602224882768
5.07050e-06;0.0005040992011054641
5.07075e-06;0.0005428282794748106
5.07100e-06;0.000582453270748901
5.07125e-06;0.0006250975419103082
5.07150e-06;0.0006685174517643371
5.07175e-06;0.0007145513102411647
5.07200e-06;0.0007605851687181482
5.07225e-06;0.0008073035017683968
5.07250e-06;0.0008563285549267992
5.07275e-06;0.0009053536080853678
5.07300e-06;0.0009543786612437702
5.07325e-06;0.0010034037144021726
5.07350e-06;0.001052153812706047
5.07375e-06;0.001099977296761745
5.07400e-06;0.001147800780817443
5.07425e-06;0.001195624264873303
5.07450e-06;0.0012434477489290008
5.07475e-06;0.0012900498140483916
5.07500e-06;0.0013325356245543825
5.07525e-06;0.0013750214350602297
5.07550e-06;0.0014158648617804146
5.07575e-06;0.0014511733572548926
5.07600e-06;0.0014864818527292511
5.07625e-06;0.0015196710055393437
5.07650e-06;0.0015457178472551166
5.07675e-06;0.0015717646889708895
5.07700e-06;0.0015955808446347036
5.07725e-06;0.0016118794553517618
5.07750e-06;0.00162817806606882
5.07775e-06;0.0016421032751324479
5.07800e-06;0.0016480299791666571
5.07825e-06;0.0016539566832008664
5.07850e-06;0.0016575611507940757
5.07875e-06;0.0016533395431735584
5.07900e-06;0.001649117935553041
5.07925e-06;0.0016427601758706944
5.07950e-06;0.0016292034564235186
5.07975e-06;0.0016156467369763431
5.08000e-06;0.001600134435511744
5.08025e-06;0.0015780317060943604
5.08050e-06;0.0015559289766769017
5.08075e-06;0.0015322102008600348
5.08100e-06;0.001503045252359342
5.08125e-06;0.0014738803038585502
5.08150e-06;0.0014430888929926643
5.08175e-06;0.0014068162070178167
5.08200e-06;0.0013705435210428463
5.08225e-06;0.001334270835067999
5.08250e-06;0.0012979981490931513
5.08275e-06;0.001261725463118181
5.08300e-06;0.001222760243735749
5.08325e-06;0.0011827932339380691
5.08350e-06;0.0011428262241402537
5.08375e-06;0.0011028592143425737
5.08400e-06;0.0010628922045448938
5.08425e-06;0.0010238855503350325
5.08450e-06;0.0009881153516943086
5.08475e-06;0.0009523451530535845
5.08500e-06;0.0009165749544127392
5.08525e-06;0.0008808047557720153
5.08550e-06;0.00084503455713117
5.08575e-06;0.000811640139921644
5.08600e-06;0.0007862522477325188
5.08625e-06;0.0007608643555433076
5.08650e-06;0.0007354764633541824
5.08675e-06;0.0007100885711650571
5.08700e-06;0.0006847006789758459
5.08725e-06;0.000660646048153864
5.08750e-06;0.0006410845876017478
5.08775e-06;0.0006215231270495653
5.08800e-06;0.0006029161259207588
5.08825e-06;0.0005875257099343798
5.08850e-06;0.0005721352939479488
5.08875e-06;0.000557272278351935
5.08900e-06;0.0005441866335045319
5.08925e-06;0.0005311009886570846
5.08950e-06;0.0005186026781816322
5.08975e-06;0.0005080837195447266
5.09000e-06;0.0004975647609078566
5.09025e-06;0.0004875826707120168
5.09050e-06;0.0004794098591597278
5.09075e-06;0.00047123704760746653
5.09100e-06;0.0004636429566100262
5.09125e-06;0.00045799918837396476
5.09150e-06;0.00045235542013792243
5.09175e-06;0.00044671165190188005
5.09200e-06;0.0004410678836658186
5.09225e-06;0.00043542411542977626
5.09250e-06;0.00042978034719373394
5.09275e-06;0.00042413657895767247
5.09300e-06;0.0004204629712587255
5.09325e-06;0.00041752238619806016
5.09350e-06;0.00041458180113738486
5.09375e-06;0.00041164121607671953
5.09400e-06;0.0004087006310160442
5.09425e-06;0.0004057600459553789
5.09450e-06;0.00040281946089471357
5.09475e-06;0.00040011368215820195
5.09500e-06;0.00039819921472845974
5.09525e-06;0.00039628474729871754
5.09550e-06;0.00039437027986896883
5.09575e-06;0.0003924558124392266
5.09600e-06;0.0003908789808015466
5.09625e-06;0.0003904400019060001
5.09650e-06;0.0003900010230104551
5.09675e-06;0.0003895620441149101
5.09700e-06;0.0003891230652193636
5.09725e-06;0.0003892654082062088
5.09750e-06;0.0003913668405830605
5.09775e-06;0.0003934682729599192
5.09800e-06;0.0003960092981597238
5.09825e-06;0.0004000317773722699
5.09850e-06;0.00040405425658480233
5.09875e-06;0.00040861224563424036
5.09900e-06;0.00041497493474998984
5.09925e-06;0.0004213376238657178
5.09950e-06;0.00042816272680340213
5.09975e-06;0.0004365461918805377
5.10000e-06;0.00044492965695764486
5.10025e-06;0.00045372152023925963
5.10050e-06;0.0004638897098102227
5.10075e-06;0.0004740578993811513
5.10100e-06;0.0004845316538998137
5.10125e-06;0.0004960351805037224
5.10150e-06;0.000507538707107592
5.10175e-06;0.0005190422337114616
5.10200e-06;0.0005299247131130083
5.10225e-06;0.0005428502690234348
5.10250e-06;0.0005554578516993875
5.10275e-06;0.0005699607731354493
5.10300e-06;0.0005828306998582328
5.10325e-06;0.0005968547388193854
5.10350e-06;0.0006099903392298582
5.10375e-06;0.000620570009494043
5.10400e-06;0.0006363862547295284
5.10425e-06;0.0006493288601452251
5.10450e-06;0.0006613123041281243
5.10475e-06;0.0006732957481110642
5.10500e-06;0.0006852791920939634
5.10525e-06;0.0006972626360768625
5.10550e-06;0.0007092460800598023
5.10575e-06;0.000719084837941922
5.10600e-06;0.0007282077440394434
5.10625e-06;0.0007373306501369957
5.10650e-06;0.000746453556234517
5.10675e-06;0.0007555764623320693
5.10700e-06;0.0007646993684295907
5.10725e-06;0.0007737321410064784
5.10750e-06;0.0007837652645000567
5.10775e-06;0.0007941423260533576
5.10800e-06;0.0008045193876066584
5.10825e-06;0.0008148964491599944
5.10850e-06;0.0008252735107132953
5.10875e-06;0.000835650572266596
5.10900e-06;0.000846027633819932
5.10925e-06;0.0008564046953732329
5.10950e-06;0.0008667817569265337
5.10975e-06;0.0008771588184798697
5.11000e-06;0.0008875358800331705
5.11025e-06;0.0008979129415864714
5.11050e-06;0.0009089723081356675
5.11075e-06;0.0009220813299557936
5.11100e-06;0.0009351903517759643
5.11125e-06;0.0009482993735960905
5.11150e-06;0.0009614083954162167
5.11175e-06;0.0009745174172363872
5.11200e-06;0.0009876264390565135
5.11225e-06;0.0010007354608766396
5.11250e-06;0.0010138444826968103
5.11275e-06;0.0010269535045169364
5.11300e-06;0.0010400625263370625
5.11325e-06;0.0010531715481572332
5.11350e-06;0.0010662805699773593
5.11375e-06;0.0010766928402102247
5.11400e-06;0.0010862049906375836
5.11425e-06;0.0010957171410649101
5.11450e-06;0.0011052292914922367
5.11475e-06;0.0011147414419195956
5.11500e-06;0.0011242535923469221
5.11525e-06;0.0011337657427742808
5.11550e-06;0.0011432778932016073
5.11575e-06;0.001152790043628934
5.11600e-06;0.0011623021940562928
5.11625e-06;0.0011718143444836193
5.11650e-06;0.001181326494910946
5.11675e-06;0.0011908386453383045
5.11700e-06;0.0012003507957656311
5.11725e-06;0.0012098629461929577
5.11750e-06;0.0012193750966203165
5.11775e-06;0.0012225404274025374
5.11800e-06;0.0012235873212878966
5.11825e-06;0.0012246342151732593
5.11850e-06;0.0012256811090586184
5.11875e-06;0.0012267280029439776
5.11900e-06;0.0012277748968293402
5.11925e-06;0.0012288217907146994
5.11950e-06;0.0012298686846000623
5.11975e-06;0.0012309155784854214
5.12000e-06;0.0012319624723707806
5.12025e-06;0.0012330093662561432
5.12050e-06;0.0012340562601415024
5.12075e-06;0.0012351031540268616
5.12100e-06;0.0012361500479122244
5.12125e-06;0.0012371969417975836
5.12150e-06;0.0012382438356829428
5.12175e-06;0.0012362159802620076
5.12200e-06;0.0012331618372289138
5.12225e-06;0.0012301076941958198
5.12250e-06;0.0012270535511627156
5.12275e-06;0.0012239994081296216
5.12300e-06;0.0012209452650965278
5.12325e-06;0.0012178911220634236
5.12350e-06;0.0012148369790303296
5.12375e-06;0.0012117828359972254
5.12400e-06;0.0012087286929641317
5.12425e-06;0.0012056745499310377
5.12450e-06;0.0012026204068979335
5.12475e-06;0.0011995662638648397
5.12500e-06;0.0011965121208317457
5.12525e-06;0.0011934579777986415
5.12550e-06;0.0011904038347655477
5.12575e-06;0.0011873496917324537
5.12600e-06;0.0011842955486993496
5.12625e-06;0.001186054796545777
5.12650e-06;0.0011894206545380983
5.12675e-06;0.0011927865125304308
5.12700e-06;0.001196152370522752
5.12725e-06;0.0011995182285150733
5.12750e-06;0.001202884086507406
5.12775e-06;0.0012062499444997273
5.12800e-06;0.0012096158024920598
5.12825e-06;0.001212981660484381
5.12850e-06;0.0012163475184767023
5.12875e-06;0.001219713376469035
5.12900e-06;0.0012230792344613563
5.12925e-06;0.0012356627287388475
5.12950e-06;0.0012513228790259525
5.12975e-06;0.0012669830293130045
5.13000e-06;0.0012826431796000566
5.13025e-06;0.0012983033298871616
5.13050e-06;0.0013139634801742136
5.13075e-06;0.0013296236304612655
5.13100e-06;0.0013452837807483705
5.13125e-06;0.0013609439310354227
5.13150e-06;0.0013766040813224746
5.13175e-06;0.0013922642316095797
5.13200e-06;0.0014079243818966316
5.13225e-06;0.0014275615501324267
5.13250e-06;0.0014485261645585277
5.13275e-06;0.0014694907789846287
5.13300e-06;0.0014904553934108008
5.13325e-06;0.0015114200078369018
5.13350e-06;0.001532384622263003
5.13375e-06;0.0015533492366891749
5.13400e-06;0.0015737109012730036
5.13425e-06;0.0015922612947550487
5.13450e-06;0.0016108116882371567
5.13475e-06;0.0016293620817192018
5.13500e-06;0.001647912475201247
5.13525e-06;0.0016664628686833547
5.13550e-06;0.0016850132621653998
5.13575e-06;0.001703563655647445
5.13600e-06;0.0017167375977151034
5.13625e-06;0.001728116991696873
5.13650e-06;0.0017394963856786814
5.13675e-06;0.001750875779660451
5.13700e-06;0.0017622551736422207
5.13725e-06;0.001773634567624029
5.13750e-06;0.0017850139616057987
5.13775e-06;0.0017963933555875684
5.13800e-06;0.0018077727495693766
5.13825e-06;0.0018191521435511463
5.13850e-06;0.001830531537532916
5.13875e-06;0.001841910931514724
5.13900e-06;0.0018506205345380966
5.13925e-06;0.001858439016655824
5.13950e-06;0.0018662574987735779
5.13975e-06;0.0018740759808913052
5.14000e-06;0.0018818944630090326
5.14025e-06;0.0018897129451267865
5.14050e-06;0.001897531427244514
5.14075e-06;0.0019053499093622678
5.14100e-06;0.0019131683914799954
5.14125e-06;0.0019209868735977226
5.14150e-06;0.0019288053557154766
5.14175e-06;0.001936623837833204
5.14200e-06;0.001943271370150979
5.14225e-06;0.0019495280636868692
5.14250e-06;0.0019557847572227384
5.14275e-06;0.0019620414507586074
5.14300e-06;0.0019682981442944976
5.14325e-06;0.0019745548378303666
5.14350e-06;0.001980811531366236
5.14375e-06;0.0019870682249021263
5.14400e-06;0.0019929137107022555
5.14425e-06;0.0019975239217976436
5.14450e-06;0.0020021341328930477
5.14475e-06;0.002006744343988436
5.14500e-06;0.00201135455508384
5.14525e-06;0.002015964766179228
5.14550e-06;0.0020205749772746165
5.14575e-06;0.00202518518837002
5.14600e-06;0.0020297953994654087
5.14625e-06;0.0020313706236180437
5.14650e-06;0.0020319328320122553
5.14675e-06;0.0020324950404064647
