Time(s);Current(A)
5.80000e-06;0.007860784539144761
5.80025e-06;0.007867613236603153
5.80050e-06;0.007874441934061565
5.80075e-06;0.007881270631519957
5.80100e-06;0.007888099328978349
5.80125e-06;0.007901632891311617
5.80150e-06;0.007918876298737958
5.80175e-06;0.007936119706164297
5.80200e-06;0.007953363113590696
5.80225e-06;0.007970606521017035
5.80250e-06;0.007987849928443435
5.80275e-06;0.008005093335869774
5.80300e-06;0.008022336743296114
5.80325e-06;0.008039580150722512
5.80350e-06;0.008056823558148853
5.80375e-06;0.008074066965575192
5.80400e-06;0.00809131037300159
5.80425e-06;0.008108553780427932
5.80450e-06;0.008125797187854271
5.80475e-06;0.00814304059528067
5.80500e-06;0.00815964655449614
5.80525e-06;0.008172456710245461
5.80550e-06;0.008185266865994828
5.80575e-06;0.008198077021744151
5.80600e-06;0.008210887177493473
5.80625e-06;0.00822369733324284
5.80650e-06;0.008236507488992163
5.80675e-06;0.008249317644741528
5.80700e-06;0.008262127800490852
5.80725e-06;0.008274937956240173
5.80750e-06;0.00828774811198954
5.80775e-06;0.008300558267738864
5.80800e-06;0.008313368423488185
5.80825e-06;0.008329063059051595
5.80850e-06;0.00834635369594868
5.80875e-06;0.008363644332845765
5.80900e-06;0.008380934969742907
5.80925e-06;0.008398225606639992
5.80950e-06;0.008415516243537077
5.80975e-06;0.00843280688043422
5.81000e-06;0.008450097517331305
5.81025e-06;0.00846738815422839
5.81050e-06;0.008484678791125534
5.81075e-06;0.008501969428022617
5.81100e-06;0.008519260064919761
5.81125e-06;0.008537080375830994
5.81150e-06;0.008558054728786808
5.81175e-06;0.008579029081742694
5.81200e-06;0.00860000343469851
5.81225e-06;0.008620977787654326
5.81250e-06;0.008641952140610212
5.81275e-06;0.008662926493566028
5.81300e-06;0.008683900846521842
5.81325e-06;0.008704875199477729
5.81350e-06;0.008725849552433544
5.81375e-06;0.00874682390538936
5.81400e-06;0.008767798258345246
5.81425e-06;0.008788772611301062
5.81450e-06;0.00880273256897648
5.81475e-06;0.008812811416384809
5.81500e-06;0.008822890263793105
5.81525e-06;0.008832969111201436
5.81550e-06;0.008843047958609731
5.81575e-06;0.008853126806018028
5.81600e-06;0.008863205653426359
5.81625e-06;0.008873284500834654
5.81650e-06;0.00888336334824295
5.81675e-06;0.00889344219565128
5.81700e-06;0.008903521043059576
5.81725e-06;0.008913599890467873
5.81750e-06;0.00891931403761048
5.81775e-06;0.008899037768423384
5.81800e-06;0.00887876149923629
5.81825e-06;0.008858485230049127
5.81850e-06;0.00883820896086203
5.81875e-06;0.008817932691674937
5.81900e-06;0.008797656422487773
5.81925e-06;0.008777380153300677
5.81950e-06;0.008757103884113514
5.81975e-06;0.00873682761492642
5.82000e-06;0.008716551345739324
5.82025e-06;0.00869627507655216
5.82050e-06;0.008660857680380657
5.82075e-06;0.00861706260073993
5.82100e-06;0.008573267521099055
5.82125e-06;0.008529472441458328
5.82150e-06;0.0084856773618176
5.82175e-06;0.008441882282176726
5.82200e-06;0.008398087202536
5.82225e-06;0.008354292122895273
5.82250e-06;0.008310497043254398
5.82275e-06;0.008266701963613671
5.82300e-06;0.008222906883972946
5.82325e-06;0.00817921816587483
5.82350e-06;0.008136162797287455
5.82375e-06;0.008093107428699934
5.82400e-06;0.00805005206011256
5.82425e-06;0.008006996691525185
5.82450e-06;0.007963941322937665
5.82475e-06;0.007920885954350289
5.82500e-06;0.007877830585762914
5.82525e-06;0.007834775217175394
5.82550e-06;0.007791719848588019
5.82575e-06;0.007752327629185957
5.82600e-06;0.007734748310230357
5.82625e-06;0.007717168991274816
5.82650e-06;0.007699589672319275
5.82675e-06;0.007682010353363675
5.82700e-06;0.0076644310344081345
5.82725e-06;0.0076468517154525935
5.82750e-06;0.0076292723964969935
5.82775e-06;0.0076116930775414525
5.82800e-06;0.0075941137585858525
5.82825e-06;0.007581624436485673
5.82850e-06;0.007599444443612939
5.82875e-06;0.007617264450740267
5.82900e-06;0.007635084457867533
5.82925e-06;0.0076529044649948
5.82950e-06;0.007670724472122127
5.82975e-06;0.007688544479249395
5.83000e-06;0.0077063644863766614
5.83025e-06;0.007724184493503989
5.83050e-06;0.0077420045006312554
5.83075e-06;0.007759824507758522
5.83100e-06;0.0077776445148858495
5.83125e-06;0.007809304781402797
5.83150e-06;0.00784862295293505
5.83175e-06;0.007887941124467434
5.83200e-06;0.007927259295999686
5.83225e-06;0.007966577467532071
5.83250e-06;0.008005895639064323
5.83275e-06;0.008045213810596575
5.83300e-06;0.00808453198212896
5.83325e-06;0.008123850153661212
5.83350e-06;0.008163168325193464
5.83375e-06;0.00820248649672585
5.83400e-06;0.008240800660405312
5.83425e-06;0.008273136273328218
5.83450e-06;0.008305471886251234
5.83475e-06;0.00833780749917414
5.83500e-06;0.008370143112097047
5.83525e-06;0.008402478725020065
5.83550e-06;0.008434814337942971
5.83575e-06;0.008467149950865878
5.83600e-06;0.008499485563788895
5.83625e-06;0.008531821176711802
5.83650e-06;0.008560172423401178
5.83675e-06;0.00856479802323252
5.83700e-06;0.008569423623063864
5.83725e-06;0.008574049222895222
5.83750e-06;0.008578674822726564
5.83775e-06;0.008583300422557907
5.83800e-06;0.008587926022389265
5.83825e-06;0.008592551622220609
5.83850e-06;0.00859717722205195
5.83875e-06;0.008601802821883308
5.83900e-06;0.008602113954763617
5.83925e-06;0.008576733794913914
5.83950e-06;0.008551353635064126
5.83975e-06;0.008525973475214424
5.84000e-06;0.008500593315364721
5.84025e-06;0.008475213155514933
5.84050e-06;0.008449832995665232
5.84075e-06;0.008424452835815529
5.84100e-06;0.00839907267596574
5.84125e-06;0.008373692516116039
5.84150e-06;0.008348312356266251
5.84175e-06;0.008322932196416548
5.84200e-06;0.008289009615335281
5.84225e-06;0.008250360457349748
5.84250e-06;0.008211711299364346
5.84275e-06;0.008173062141378943
5.84300e-06;0.008134412983393409
5.84325e-06;0.008095763825408006
5.84350e-06;0.008057114667422604
5.84375e-06;0.00801846550943707
5.84400e-06;0.007979816351451667
5.84425e-06;0.007941167193466265
5.84450e-06;0.00790251803548073
5.84475e-06;0.00786640072434335
5.84500e-06;0.007845359764292669
5.84525e-06;0.007824318804241916
5.84550e-06;0.007803277844191236
5.84575e-06;0.007782236884140484
5.84600e-06;0.007761195924089802
5.84625e-06;0.007740154964039122
5.84650e-06;0.0077191140039883695
5.84675e-06;0.007698073043937688
5.84700e-06;0.007677032083887007
5.84725e-06;0.007655991123836255
5.84750e-06;0.007634950163785573
5.84775e-06;0.007613909203734893
5.84800e-06;0.007592868243684141
5.84825e-06;0.007571827283633459
5.84850e-06;0.007550786323582778
5.84875e-06;0.007529745363532026
5.84900e-06;0.007511787966296506
5.84925e-06;0.00751219221507757
5.84950e-06;0.007512596463858635
5.84975e-06;0.0075130007126397
5.85000e-06;0.007513404961420765
5.85025e-06;0.007513809210201829
5.85050e-06;0.007514213458982893
5.85075e-06;0.007514617707763958
5.85100e-06;0.007515021956545022
5.85125e-06;0.007515426205326086
5.85150e-06;0.0075158304541071514
5.85175e-06;0.007516234702888216
5.85200e-06;0.00751663895166928
5.85225e-06;0.007517043200450345
5.85250e-06;0.007517447449231409
5.85275e-06;0.007517851698012473
5.85300e-06;0.007518255946793538
5.85325e-06;0.007519149299090275
5.85350e-06;0.0075229551088776166
5.85375e-06;0.007526760918664972
5.85400e-06;0.007530566728452314
5.85425e-06;0.007534372538239668
5.85450e-06;0.00753817834802701
5.85475e-06;0.007541984157814353
5.85500e-06;0.007545789967601707
5.85525e-06;0.007549595777389049
5.85550e-06;0.00755340158717639
5.85575e-06;0.0075572073969637455
5.85600e-06;0.007561013206751088
5.85625e-06;0.007564819016538429
5.85650e-06;0.007568624826325784
5.85675e-06;0.007572430636113126
5.85700e-06;0.007576236445900468
5.85725e-06;0.007580042255687823
5.85750e-06;0.007583848065475164
5.85775e-06;0.007582513262604337
5.85800e-06;0.007578334125510643
5.85825e-06;0.0075741549884169625
5.85850e-06;0.007569975851323269
5.85875e-06;0.007565796714229589
5.85900e-06;0.007561617577135909
5.85925e-06;0.007557438440042215
5.85950e-06;0.007553259302948536
5.85975e-06;0.007549080165854856
5.86000e-06;0.0075449010287611615
5.86025e-06;0.007540721891667481
5.86050e-06;0.007536542754573802
5.86075e-06;0.007532363617480108
5.86100e-06;0.007528184480386428
5.86125e-06;0.007524005343292748
5.86150e-06;0.007519826206199054
5.86175e-06;0.0075156470691053745
5.86200e-06;0.007510968164708253
5.86225e-06;0.007503313303321746
5.86250e-06;0.007495658441935265
5.86275e-06;0.007488003580548758
5.86300e-06;0.007480348719162278
5.86325e-06;0.0074726938577757964
5.86350e-06;0.00746503899638929
5.86375e-06;0.007457384135002809
5.86400e-06;0.007449729273616328
5.86425e-06;0.007442074412229821
5.86450e-06;0.00743441955084334
5.86475e-06;0.007426764689456859
5.86500e-06;0.007419109828070353
5.86525e-06;0.0074114549666838715
5.86550e-06;0.007403800105297391
5.86575e-06;0.007402622858139641
5.86600e-06;0.007405029716818163
5.86625e-06;0.007407436575496684
5.86650e-06;0.007409843434175214
5.86675e-06;0.007412250292853736
5.86700e-06;0.007414657151532265
5.86725e-06;0.007417064010210786
5.86750e-06;0.007419470868889308
5.86775e-06;0.007421877727567838
5.86800e-06;0.007424284586246359
5.86825e-06;0.007426691444924881
5.86850e-06;0.00742909830360341
5.86875e-06;0.0074315051622819315
5.86900e-06;0.007433912020960454
5.86925e-06;0.007438850406703475
5.86950e-06;0.007458863239308397
5.86975e-06;0.007478876071913319
5.87000e-06;0.007498888904518309
5.87025e-06;0.00751890173712323
5.87050e-06;0.007538914569728152
5.87075e-06;0.007558927402333142
5.87100e-06;0.007578940234938063
5.87125e-06;0.007598953067543053
5.87150e-06;0.0076189659001479745
5.87175e-06;0.007638978732752897
5.87200e-06;0.007658991565357886
5.87225e-06;0.007679004397962808
5.87250e-06;0.007699411130426072
5.87275e-06;0.007722163412564203
5.87300e-06;0.007744915694702257
5.87325e-06;0.0077676679768403116
5.87350e-06;0.007790420258978443
5.87375e-06;0.007813172541116497
5.87400e-06;0.00783592482325455
5.87425e-06;0.007858677105392682
5.87450e-06;0.007881429387530737
5.87475e-06;0.00790418166966879
5.87500e-06;0.007926933951806922
5.87525e-06;0.007949686233944977
5.87550e-06;0.007972438516083109
5.87575e-06;0.007994026969405767
5.87600e-06;0.008008685188453721
5.87625e-06;0.008023343407501727
5.87650e-06;0.008038001626549681
5.87675e-06;0.008052659845597637
5.87700e-06;0.008067318064645642
5.87725e-06;0.008081976283693598
5.87750e-06;0.008096453873271937
5.87775e-06;0.008109855871212863
5.87800e-06;0.008123257869153746
5.87825e-06;0.008136659867094626
5.87850e-06;0.008150061865035552
5.87875e-06;0.008163463862976433
5.87900e-06;0.008176865860917313
5.87925e-06;0.008190320984047518
5.87950e-06;0.008204014379695325
5.87975e-06;0.008217242885545208
5.88000e-06;0.008230471391395046
5.88025e-06;0.008243699897244884
5.88050e-06;0.008256928403094768
5.88075e-06;0.008270156908944606
5.88100e-06;0.008283385414794444
5.88125e-06;0.008296613920644326
5.88150e-06;0.008309842426494164
5.88175e-06;0.008323070932344002
5.88200e-06;0.008336299438193886
5.88225e-06;0.008349527944043724
5.88250e-06;0.008362756449893562
5.88275e-06;0.008375984955743446
5.88300e-06;0.008389213461593284
5.88325e-06;0.008402441967443122
5.88350e-06;0.008415670473293006
5.88375e-06;0.008428898979142844
5.88400e-06;0.008442127484992727
5.88425e-06;0.008455355990842565
5.88450e-06;0.008468584496692404
5.88475e-06;0.008480592290144588
5.88500e-06;0.008485331125496395
5.88525e-06;0.008490069960848202
5.88550e-06;0.008494808796200026
5.88575e-06;0.008499547631551835
5.88600e-06;0.008504286466903642
5.88625e-06;0.008509025302255465
5.88650e-06;0.008513764137607273
5.88675e-06;0.00851850297295908
5.88700e-06;0.008523241808310905
5.88725e-06;0.008527980643662713
5.88750e-06;0.00853271947901452
5.88775e-06;0.008537458314366345
5.88800e-06;0.008542197149718152
5.88825e-06;0.008546935985069976
5.88850e-06;0.008551674820421783
5.88875e-06;0.00855641365577359
5.88900e-06;0.008561152491125415
5.88925e-06;0.008565891326477223
5.88950e-06;0.00857063016182903
5.88975e-06;0.008575368997180853
5.89000e-06;0.008578955989663557
5.89025e-06;0.00857568412041285
5.89050e-06;0.008572412251162132
5.89075e-06;0.008569140381911427
5.89100e-06;0.00856586851266072
5.89125e-06;0.008562596643410003
5.89150e-06;0.008559324774159298
5.89175e-06;0.00855605290490859
5.89200e-06;0.008552781035657873
5.89225e-06;0.008549509166407168
5.89250e-06;0.00854623729715645
5.89275e-06;0.008542965427905743
5.89300e-06;0.008539693558655038
5.89325e-06;0.00853642168940432
5.89350e-06;0.008533149820153614
5.89375e-06;0.008529877950902907
5.89400e-06;0.00852660608165219
5.89425e-06;0.008523334212401484
5.89450e-06;0.008520062343150777
5.89475e-06;0.00851679047390006
5.89500e-06;0.008513518604649354
5.89525e-06;0.008510246735398647
5.89550e-06;0.00850697486614793
5.89575e-06;0.008503702996897225
5.89600e-06;0.008500431127646518
5.89625e-06;0.0084971592583958
5.89650e-06;0.008493887389145095
5.89675e-06;0.008490615519894378
5.89700e-06;0.00848734365064367
5.89725e-06;0.008484071781392964
5.89750e-06;0.008480799912142248
5.89775e-06;0.00847752804289154
5.89800e-06;0.008474256173640834
5.89825e-06;0.008470984304390116
5.89850e-06;0.008467712435139411
5.89875e-06;0.008464184149328587
5.89900e-06;0.00845912898361199
5.89925e-06;0.008454073817895409
5.89950e-06;0.00844901865217883
5.89975e-06;0.008443963486462232
5.90000e-06;0.008438908320745652
5.90025e-06;0.008433853155029073
5.90050e-06;0.008428797989312476
5.90075e-06;0.008423742823595896
5.90100e-06;0.008418687657879299
5.90125e-06;0.008413632492162718
5.90150e-06;0.008408577326446138
5.90175e-06;0.00840352216072954
5.90200e-06;0.008398466995012961
5.90225e-06;0.008393411829296381
5.90250e-06;0.008388356663579784
5.90275e-06;0.008383301497863205
5.90300e-06;0.008378246332146623
5.90325e-06;0.008373191166430026
5.90350e-06;0.008368136000713447
5.90375e-06;0.008363080834996867
5.90400e-06;0.00835802566928027
5.90425e-06;0.00835297050356369
5.90450e-06;0.00834791533784711
5.90475e-06;0.008342860172130514
5.90500e-06;0.008337805006413932
5.90525e-06;0.008332749840697335
5.90550e-06;0.008327694674980755
5.90575e-06;0.008322639509264176
5.90600e-06;0.008317584343547579
5.90625e-06;0.008312529177830999
5.90650e-06;0.00830747401211442
5.90675e-06;0.008302418846397822
5.90700e-06;0.00829736368068124
5.90725e-06;0.008292308514964661
5.90750e-06;0.008286570766029702
5.90775e-06;0.008276768448880941
5.90800e-06;0.00826696613173218
5.90825e-06;0.008257163814583387
5.90850e-06;0.008247361497434625
5.90875e-06;0.008237559180285865
5.90900e-06;0.00822775686313707
5.90925e-06;0.00821795454598831
5.90950e-06;0.008208152228839517
5.90975e-06;0.008198349911690755
5.91000e-06;0.008188547594541995
5.91025e-06;0.0081787452773932
5.91050e-06;0.00816894296024444
5.91075e-06;0.00815914064309568
5.91100e-06;0.008149338325946885
5.91125e-06;0.008139536008798125
5.91150e-06;0.008129733691649363
5.91175e-06;0.00811993137450057
5.91200e-06;0.008110129057351808
5.91225e-06;0.008100249789580072
5.91250e-06;0.008089912305069715
5.91275e-06;0.008079574820559394
5.91300e-06;0.008069237336049072
5.91325e-06;0.008058899851538716
5.91350e-06;0.008048562367028394
5.91375e-06;0.008038224882518038
5.91400e-06;0.008027887398007718
5.91425e-06;0.008017549913497396
5.91450e-06;0.00800721242898704
5.91475e-06;0.007996874944476718
5.91500e-06;0.007986537459966397
5.91525e-06;0.00797619997545604
5.91550e-06;0.007965862490945719
5.91575e-06;0.007955525006435397
5.91600e-06;0.00794518752192504
5.91625e-06;0.007934850037414719
5.91650e-06;0.0079245125529044
5.91675e-06;0.007914175068394043
5.91700e-06;0.007905515812583246
5.91725e-06;0.007906849880431239
5.91750e-06;0.007908183948279237
5.91775e-06;0.00790951801612723
5.91800e-06;0.007910852083975229
5.91825e-06;0.007912186151823222
5.91850e-06;0.007913520219671216
5.91875e-06;0.007914854287519214
5.91900e-06;0.007916188355367207
5.91925e-06;0.0079175224232152
5.91950e-06;0.007918856491063199
5.91975e-06;0.007920190558911192
5.92000e-06;0.007921524626759187
5.92025e-06;0.007922858694607184
5.92050e-06;0.007924192762455179
5.92075e-06;0.007925526830303172
5.92100e-06;0.00792686089815117
5.92125e-06;0.007928194965999164
5.92150e-06;0.007930355388483457
5.92175e-06;0.007937436492718998
5.92200e-06;0.007944517596954515
5.92225e-06;0.007951598701190056
5.92250e-06;0.007958679805425571
5.92275e-06;0.007965760909661088
5.92300e-06;0.00797284201389663
5.92325e-06;0.007979923118132146
5.92350e-06;0.007987004222367663
5.92375e-06;0.007994085326603204
5.92400e-06;0.00800116643083872
5.92425e-06;0.008008247535074236
5.92450e-06;0.008015328639309777
5.92475e-06;0.008022409743545294
5.92500e-06;0.008029490847780811
5.92525e-06;0.008036571952016352
5.92550e-06;0.008043653056251867
5.92575e-06;0.008050734160487384
5.92600e-06;0.008055760235565718
5.92625e-06;0.008048549258867537
5.92650e-06;0.00804133828216933
5.92675e-06;0.008034127305471149
5.92700e-06;0.008026916328772967
5.92725e-06;0.00801970535207476
5.92750e-06;0.008012494375376579
5.92775e-06;0.008005283398678396
5.92800e-06;0.00799807242198019
5.92825e-06;0.00799086144528201
5.92850e-06;0.007983650468583826
5.92875e-06;0.007973096214518955
5.92900e-06;0.00794263379609008
5.92925e-06;0.007912171377661203
5.92950e-06;0.007881708959232224
5.92975e-06;0.007851246540803348
5.93000e-06;0.007820784122374472
5.93025e-06;0.007790321703945492
5.93050e-06;0.0077598592855166165
5.93075e-06;0.007729396867087637
5.93100e-06;0.0076989344486587605
5.93125e-06;0.0076684720302298845
5.93150e-06;0.007636309926030759
5.93175e-06;0.007594026728077165
5.93200e-06;0.0075517435301235706
5.93225e-06;0.007509460332169832
5.93250e-06;0.007467177134216238
5.93275e-06;0.007424893936262644
5.93300e-06;0.007382610738308907
5.93325e-06;0.007340327540355312
5.93350e-06;0.007298044342401718
5.93375e-06;0.00725576114444798
5.93400e-06;0.007213477946494386
5.93425e-06;0.00717791997315896
5.93450e-06;0.0071460831100838736
5.93475e-06;0.0071142462470088945
5.93500e-06;0.007082409383933808
5.93525e-06;0.007050572520858829
5.93550e-06;0.007018735657783851
5.93575e-06;0.006986898794708764
5.93600e-06;0.006955061931633785
5.93625e-06;0.006923225068558806
5.93650e-06;0.0068913882054837195
5.93675e-06;0.006864271565931118
5.93700e-06;0.0068652623716736515
5.93725e-06;0.006866253177416189
5.93750e-06;0.006867243983158721
5.93775e-06;0.006868234788901255
5.93800e-06;0.006869225594643792
5.93825e-06;0.006870216400386326
5.93850e-06;0.006871207206128859
5.93875e-06;0.006872198011871396
5.93900e-06;0.006873188817613929
5.93925e-06;0.006874179623356466
5.93950e-06;0.006875170429098999
5.93975e-06;0.006896255523008152
5.94000e-06;0.006928458916470168
5.94025e-06;0.006960662309932075
5.94050e-06;0.006992865703393982
5.94075e-06;0.007025069096855997
5.94100e-06;0.007057272490317904
5.94125e-06;0.007089475883779811
5.94150e-06;0.007121679277241827
5.94175e-06;0.007153882670703734
5.94200e-06;0.007186086064165641
5.94225e-06;0.007218289457627657
5.94250e-06;0.007251685022559459
5.94275e-06;0.007292179593334157
5.94300e-06;0.007332674164108992
5.94325e-06;0.00737316873488369
5.94350e-06;0.007413663305658525
5.94375e-06;0.007454157876433223
5.94400e-06;0.007494652447207921
5.94425e-06;0.007535147017982757
5.94450e-06;0.007575641588757454
5.94475e-06;0.007616136159532152
5.94500e-06;0.007656630730306988
5.94525e-06;0.007684922337470488
5.94550e-06;0.007706461965976191
5.94575e-06;0.007728001594481967
5.94600e-06;0.00774954122298767
5.94625e-06;0.007771080851493374
5.94650e-06;0.00779262047999915
5.94675e-06;0.007814160108504853
5.94700e-06;0.007835699737010557
5.94725e-06;0.007857239365516333
5.94750e-06;0.007878778994022036
5.94775e-06;0.007895764169782722
5.94800e-06;0.007885629013059363
5.94825e-06;0.007875493856336001
5.94850e-06;0.007865358699612607
5.94875e-06;0.007855223542889247
5.94900e-06;0.007845088386165888
5.94925e-06;0.007834953229442491
5.94950e-06;0.007824818072719132
5.94975e-06;0.007814682915995772
5.95000e-06;0.007804547759272377
5.95025e-06;0.007794412602549017
5.95050e-06;0.007784277445825657
5.95075e-06;0.007771086143973191
5.95100e-06;0.007739696459867278
5.95125e-06;0.007708306775761366
5.95150e-06;0.007676917091655346
