Time(s);Current(A)
8.00000e-06;-0.0016927234137245658
8.00025e-06;-0.001692703916688928
8.00050e-06;-0.0016926844196532896
8.00075e-06;-0.0016926649226176515
8.00100e-06;-0.0016924820807699011
8.00125e-06;-0.0016921050115425037
8.00150e-06;-0.0016916190288176227
8.00175e-06;-0.0016910035410111278
8.00200e-06;-0.0016890937481744922
8.00225e-06;-0.0016856449442653693
8.00250e-06;-0.0016801381911039498
8.00275e-06;-0.001672184405278429
8.00300e-06;-0.0016619441716682767
8.00325e-06;-0.001648985206093663
8.00350e-06;-0.0016360262405189611
8.00375e-06;-0.00162016695672331
8.00400e-06;-0.0016008590099371566
8.00425e-06;-0.0015815510631508722
8.00450e-06;-0.001558669782218352
8.00475e-06;-0.0015315395795178416
8.00500e-06;-0.0015044093768171473
8.00525e-06;-0.0014748249598377644
8.00550e-06;-0.0014423223258528527
8.00575e-06;-0.0014080891744533879
8.00600e-06;-0.0013717983276883465
8.00625e-06;-0.0013340803843880666
8.00650e-06;-0.0012937847583674939
8.00675e-06;-0.001251680824089708
8.00700e-06;-0.001208030642498927
8.00725e-06;-0.0011630960948882487
8.00750e-06;-0.0011171375102650297
8.00775e-06;-0.0010703645742545945
8.00800e-06;-0.0010228635008707608
8.00825e-06;-0.0009746756273408757
8.00850e-06;-0.0009259556314895647
8.00875e-06;-0.0008769697169640215
8.00900e-06;-0.0008280115780575821
8.00925e-06;-0.0007793748939828538
8.00950e-06;-0.000731352401786625
8.00975e-06;-0.0006842049735129357
8.01000e-06;-0.0006381160557997903
8.01025e-06;-0.0005932410815381289
8.01050e-06;-0.0005498065451455105
8.01075e-06;-0.0005081086982232277
8.01100e-06;-0.00046846100159366545
8.01125e-06;-0.0004311768377617805
8.01150e-06;-0.00039657060144792007
8.01175e-06;-0.00036498132380480925
8.01200e-06;-0.00033678341202100136
8.01225e-06;-0.0003122901680583654
8.01250e-06;-0.00029165951773184583
8.01275e-06;-0.00027494565925894005
8.01300e-06;-0.000262181654591166
8.01325e-06;-0.00025340052579470696
8.01350e-06;-0.00024863585908417883
8.01375e-06;-0.0002479367254419413
8.01400e-06;-0.00025137430375677435
8.01425e-06;-0.0002589814943014417
8.01450e-06;-0.0002706938711698382
8.01475e-06;-0.0002863820075563024
8.01500e-06;-0.0003059032839102418
8.01525e-06;-0.00032911503325471446
8.01550e-06;-0.00035587497417066287
8.01575e-06;-0.0003860504839050688
8.01600e-06;-0.0004195228175607543
8.01625e-06;-0.000456149269577707
8.01650e-06;-0.000496312890421623
8.01675e-06;-0.0005387067667776957
8.01700e-06;-0.0005832168050014592
8.01725e-06;-0.0006302430943952659
8.01750e-06;-0.0006792505094947687
8.01775e-06;-0.0007306136091716361
8.01800e-06;-0.0007819767088481553
8.01825e-06;-0.0008346437702325245
8.01850e-06;-0.0008888613250942042
8.01875e-06;-0.0009434719763152813
8.01900e-06;-0.0009985500441320751
8.01925e-06;-0.0010534340300109028
8.01950e-06;-0.001108087240110319
8.01975e-06;-0.001161967552595257
8.02000e-06;-0.0012149288406152717
8.02025e-06;-0.0012665221953155174
8.02050e-06;-0.0013164889902198388
8.02075e-06;-0.0013637887605373166
8.02100e-06;-0.0014079172688440571
8.02125e-06;-0.0014520457771510968
8.02150e-06;-0.0014919178133813514
8.02175e-06;-0.0015267286333546638
8.02200e-06;-0.001561539453328212
8.02225e-06;-0.001592589619995152
8.02250e-06;-0.0016191681304855285
8.02275e-06;-0.0016457466409760852
8.02300e-06;-0.001668393009036671
8.02325e-06;-0.0016863638094363293
8.02350e-06;-0.0017043346098361096
8.02375e-06;-0.0017182471238528932
8.02400e-06;-0.0017273340770184828
8.02425e-06;-0.0017364210301841338
8.02450e-06;-0.001742148009044373
8.02475e-06;-0.0017438797645667552
8.02500e-06;-0.0017456115200891495
8.02525e-06;-0.0017440337163430286
8.02550e-06;-0.0017385206359472455
8.02575e-06;-0.0017330075555515
8.02600e-06;-0.0017247006418606744
8.02625e-06;-0.0017130716825327383
8.02650e-06;-0.0017014427232048808
8.02675e-06;-0.0016879888246297448
8.02700e-06;-0.0016723649571179955
8.02725e-06;-0.0016554391265964068
8.02750e-06;-0.0016369651791756906
8.02775e-06;-0.001617418689071183
8.02800e-06;-0.0015965968774400022
8.02825e-06;-0.0015751249086002066
8.02850e-06;-0.0015528798614518895
8.02875e-06;-0.001530261275042977
8.02900e-06;-0.0015071985266741476
8.02925e-06;-0.0014839888142183205
8.02950e-06;-0.0014606043521077808
8.02975e-06;-0.001437361615812839
8.03000e-06;-0.0014142874005348095
8.03025e-06;-0.001391764453476865
8.03050e-06;-0.0013698969994248935
8.03075e-06;-0.0013488989920377508
8.03100e-06;-0.0013289348120824633
8.03125e-06;-0.0013101230517995925
8.03150e-06;-0.0012926815918681593
8.03175e-06;-0.0012760385295623067
8.03200e-06;-0.0012601559691907713
8.03225e-06;-0.0012440488616781184
8.03250e-06;-0.0012272151235151155
8.03275e-06;-0.0012095173752526803
8.03300e-06;-0.001191308057952876
8.03325e-06;-0.0011724904525022542
8.03350e-06;-0.0011536728470515048
8.03375e-06;-0.0011344029953204162
8.03400e-06;-0.0011145953939728506
8.03425e-06;-0.0010934239807887396
8.03450e-06;-0.0010706309085129222
8.03475e-06;-0.0010478378362371048
8.03500e-06;-0.0010236620198957377
8.03525e-06;-0.0009978420328370981
8.03550e-06;-0.0009720220457784587
8.03575e-06;-0.0009462020587199942
8.03600e-06;-0.0009189528877950727
8.03625e-06;-0.0008900043262738257
8.03650e-06;-0.0008610557647527748
8.03675e-06;-0.0008321072032315278
8.03700e-06;-0.0008022332891304356
8.03725e-06;-0.0007712590719057793
8.03750e-06;-0.000740101289170795
8.03775e-06;-0.0007087252353588127
8.03800e-06;-0.0006771707479473286
8.03825e-06;-0.0006454040916267865
8.03850e-06;-0.0006135487702532307
8.03875e-06;-0.0005815880204875892
8.03900e-06;-0.0005498844113410612
8.03925e-06;-0.0005184865587600668
8.03950e-06;-0.0004876846326556855
8.03975e-06;-0.0004575913010672533
8.04000e-06;-0.00042823596744367184
8.04025e-06;-0.00039975816038025547
8.04050e-06;-0.0003722133971144712
8.04075e-06;-0.0003457780823204002
8.04100e-06;-0.00032026368618886543
8.04125e-06;-0.00029657939401275883
8.04150e-06;-0.0002745957603143906
8.04175e-06;-0.0002545299035033564
8.04200e-06;-0.00023662590487520053
8.04225e-06;-0.00022109072436845865
8.04250e-06;-0.0002080285406657818
8.04275e-06;-0.00019747355402526461
8.04300e-06;-0.00018944556169924563
8.04325e-06;-0.000183964335606623
8.04350e-06;-0.00018105003358781242
8.04375e-06;-0.00018073379590487253
8.04400e-06;-0.00018306365401326154
8.04425e-06;-0.0001880643802838104
8.04450e-06;-0.00019569634253446035
8.04475e-06;-0.00020587610216463915
8.04500e-06;-0.0002185111988184563
8.04525e-06;-0.00023350914052292686
8.04550e-06;-0.0002507777078544268
8.04575e-06;-0.0002702315267169871
8.04600e-06;-0.00029179582234744325
8.04625e-06;-0.000315381294543577
8.04650e-06;-0.000341234209301313
8.04675e-06;-0.0003685166201846577
8.04700e-06;-0.00039715414125843663
8.04725e-06;-0.0004274029746127942
8.04750e-06;-0.00045891864531035534
8.04775e-06;-0.0004919406662538181
8.04800e-06;-0.0005249626871970572
8.04825e-06;-0.000558897487982904
8.04850e-06;-0.0005939176421076507
8.04875e-06;-0.0006289377962321602
8.04900e-06;-0.000664050537465783
8.04925e-06;-0.0006992733706658305
8.04950e-06;-0.0007344962038656393
8.04975e-06;-0.0007689703099514712
8.05000e-06;-0.0008025541318355171
8.05025e-06;-0.0008361379537193356
8.05050e-06;-0.000868448685129565
8.05075e-06;-0.0008992456309231192
8.05100e-06;-0.0009285290088212268
8.05125e-06;-0.0009560126581402646
8.05150e-06;-0.0009815093274772296
8.05175e-06;-0.0010046433511268476
8.05200e-06;-0.0010249378727979822
8.05225e-06;-0.0010418560458578033
8.05250e-06;-0.0010554670882230131
8.05275e-06;-0.0010651457416643497
8.05300e-06;-0.0010715256935074707
8.05325e-06;-0.0010739832791589066
8.05350e-06;-0.0010731435724931385
8.05375e-06;-0.0010683831753606364
8.05400e-06;-0.0010600893914422943
8.05425e-06;-0.0010475941857046862
8.05450e-06;-0.0010315708314524222
8.05475e-06;-0.0010113522840188075
8.05500e-06;-0.0009879088095228325
8.05525e-06;-0.0009606306914544802
8.05550e-06;-0.0009304265867519705
8.05575e-06;-0.0008967432976769284
8.05600e-06;-0.0008609584912929773
8.05625e-06;-0.0008213261650417334
8.05650e-06;-0.000778848593384756
8.05675e-06;-0.0007337772545135936
8.05700e-06;-0.0006863838617896695
8.05725e-06;-0.0006369401019842607
8.05750e-06;-0.0005857168857243162
8.05775e-06;-0.0005329645615942426
8.05800e-06;-0.00047888791832484114
8.05825e-06;-0.00042368873770369335
8.05850e-06;-0.0003676332561308409
8.05875e-06;-0.00031104197817327086
8.05900e-06;-0.00025424800884458576
8.05925e-06;-0.00019758439782899964
8.05950e-06;-0.00014138376271982108
8.05975e-06;-8.596578471221022e-05
8.06000e-06;-3.162156177245352e-05
8.06025e-06;2.135967774459622e-05
8.06050e-06;7.264837718376255e-05
8.06075e-06;0.00012188099523157385
8.06100e-06;0.00016868613623281954
8.06125e-06;0.00021269244860568922
8.06150e-06;0.0002535273003052782
8.06175e-06;0.00029078354607545235
8.06200e-06;0.00032399933292816805
8.06225e-06;0.0003527805205324141
8.06250e-06;0.0003769288524859456
8.06275e-06;0.00039638057800935907
8.06300e-06;0.0004110997937576532
8.06325e-06;0.00042105065710660054
8.06350e-06;0.00042619654353460035
8.06375e-06;0.0004264792194039626
8.06400e-06;0.0004218061788905846
8.06425e-06;0.00041212736722068933
8.06450e-06;0.00039751544061136925
8.06475e-06;0.00037812730727764654
8.06500e-06;0.0003541373016778637
8.06525e-06;0.00032571976653754777
8.06550e-06;0.0002930486000900716
8.06575e-06;0.0002562841529190246
8.06600e-06;0.00021556526629409284
8.06625e-06;0.00017105738252138914
8.06650e-06;0.00012300281428879252
8.06675e-06;7.169660965949034e-05
8.06700e-06;1.7444737831794693e-05
8.06725e-06;-3.944683990026579e-05
8.06750e-06;-9.867248797389581e-05
8.06775e-06;-0.00015993507812410093
8.06800e-06;-0.00022324243483471724
8.06825e-06;-0.00028776638365688774
8.06850e-06;-0.00035311016181281815
8.06875e-06;-0.00041942876923627267
8.06900e-06;-0.00048586065095098014
8.06925e-06;-0.000552427223009926
8.06950e-06;-0.0006184006738597847
8.06975e-06;-0.0006836688658339525
8.07000e-06;-0.0007476514743683884
8.07025e-06;-0.0008101054423531542
8.07050e-06;-0.0008705184123456935
8.07075e-06;-0.0009285045057978938
8.07100e-06;-0.0009836481989396256
8.07125e-06;-0.0010354120971666385
8.07150e-06;-0.0010836416513615825
8.07175e-06;-0.0011276686455079891
8.07200e-06;-0.0011686452640215308
8.07225e-06;-0.0012059947917232663
8.07250e-06;-0.0012407588470121547
8.07275e-06;-0.0012724486110124154
8.07300e-06;-0.0013012346443847572
8.07325e-06;-0.0013265679571904992
8.07350e-06;-0.0013479861541663815
8.07375e-06;-0.0013647490291868855
8.07400e-06;-0.0013815119042073895
8.07425e-06;-0.0013945058297787742
8.07450e-06;-0.0014030182345261008
8.07475e-06;-0.0014115306392734274
8.07500e-06;-0.0014164845826686275
8.07525e-06;-0.0014172072889865306
8.07550e-06;-0.001417929995304434
8.07575e-06;-0.001415327631400836
8.07600e-06;-0.0014087715473316933
8.07625e-06;-0.0014022154632625508
8.07650e-06;-0.001393612296475552
8.07675e-06;-0.0013825750180208013
8.07700e-06;-0.001370066476694308
8.07725e-06;-0.0013558085101535542
8.07750e-06;-0.001340196410613218
8.07775e-06;-0.001322974160732785
8.07800e-06;-0.0013048038635293624
8.07825e-06;-0.0012855062777068513
8.07850e-06;-0.0012656619440002408
8.07875e-06;-0.0012451674922538962
8.07900e-06;-0.001224334972586444
8.07925e-06;-0.0012031004686392456
8.07950e-06;-0.0011817433306466807
8.07975e-06;-0.001160240372967495
8.08000e-06;-0.001139011055132233
8.08025e-06;-0.0011181071124913623
8.08050e-06;-0.001097870158661102
8.08075e-06;-0.0010784262969865846
8.08100e-06;-0.0010602119577274105
8.08125e-06;-0.0010434595988910917
8.08150e-06;-0.0010267072400546595
8.08175e-06;-0.0010117407683098575
8.08200e-06;-0.000998897830005997
8.08225e-06;-0.0009860548917020495
8.08250e-06;-0.000974928555267635
8.08275e-06;-0.000965843367734447
8.08300e-06;-0.0009567581802011975
8.08325e-06;-0.0009495435075323645
8.08350e-06;-0.0009445529961137563
8.08375e-06;-0.0009395624846951144
8.08400e-06;-0.0009363728306558978
8.08425e-06;-0.0009353245106828509
8.08450e-06;-0.000934276190709797
8.08475e-06;-0.0009349268117212204
8.08500e-06;-0.0009375975817172288
8.08525e-06;-0.0009402683517132554
8.08550e-06;-0.00094372063476451
8.08575e-06;-0.0009489134996183662
8.08600e-06;-0.000954106364472187
8.08625e-06;-0.0009590826745081098
8.08650e-06;-0.0009657658035967014
8.08675e-06;-0.0009746381632534181
8.08700e-06;-0.0009860778486105698
8.08725e-06;-0.000997766854426889
8.08750e-06;-0.001009346907739434
8.08775e-06;-0.0010204742099209762
8.08800e-06;-0.001032567125709551
8.08825e-06;-0.0010445514326385787
8.08850e-06;-0.0010566973125338559
8.08875e-06;-0.0010694825225162781
8.08900e-06;-0.001083491423322603
8.08925e-06;-0.0010976035848048534
8.08950e-06;-0.0011101340794675819
8.08975e-06;-0.0011222125674336082
8.09000e-06;-0.001135330130654206
8.09025e-06;-0.0011484476938748037
8.09050e-06;-0.0011613411277436529
8.09075e-06;-0.0011725841674323032
8.09100e-06;-0.0011838272071209536
8.09125e-06;-0.0011950702468095276
8.09150e-06;-0.0012042031195160792
8.09175e-06;-0.001212488824826682
8.09200e-06;-0.0012207745301372288
8.09225e-06;-0.0012247338968627063
8.09250e-06;-0.0012269563711884985
8.09275e-06;-0.001229178845514276
8.09300e-06;-0.0012314013198400683
8.09325e-06;-0.0012336237941658608
8.09350e-06;-0.0012339517085308371
8.09375e-06;-0.001227301896016689
8.09400e-06;-0.0012206520835025408
8.09425e-06;-0.0012140022709883928
8.09450e-06;-0.0012073524584742896
8.09475e-06;-0.0012007026459601416
8.09500e-06;-0.0011892605918145001
8.09525e-06;-0.0011758945994696749
8.09550e-06;-0.001162528607124759
8.09575e-06;-0.0011461645743633508
8.09600e-06;-0.0011285969202231762
8.09625e-06;-0.0011110292660828826
8.09650e-06;-0.0010909088639822332
8.09675e-06;-0.001069763611781912
8.09700e-06;-0.0010486183595814478
8.09725e-06;-0.00102586733272279
8.09750e-06;-0.001002471636533694
8.09775e-06;-0.0009781494152750444
8.09800e-06;-0.0009534552225861323
8.09825e-06;-0.0009281171389994722
8.09850e-06;-0.0009025205529434186
8.09875e-06;-0.0008766909234874938
8.09900e-06;-0.0008507677342462303
8.09925e-06;-0.0008250043651799286
8.09950e-06;-0.0007993051590176845
8.09975e-06;-0.0007741712419652004
8.10000e-06;-0.0007492642711718191
8.10025e-06;-0.0007253083924004032
8.10050e-06;-0.0007017343479382696
8.10075e-06;-0.000680030174605062
8.10100e-06;-0.0006590766972447539
8.10125e-06;-0.0006381232198845876
8.10150e-06;-0.0006200203812249655
8.10175e-06;-0.0006030619866714532
8.10200e-06;-0.0005861035921180558
8.10225e-06;-0.000570431664138844
8.10250e-06;-0.000555276213077019
8.10275e-06;-0.000540120762015194
8.10300e-06;-0.0005260408575374532
8.10325e-06;-0.0005123927520626434
8.10350e-06;-0.0004987446465878336
8.10375e-06;-0.0004863236150547433
8.10400e-06;-0.00047439521611651456
8.10425e-06;-0.0004624668171782859
8.10450e-06;-0.00045137836643348674
8.10475e-06;-0.0004406271291556139
8.10500e-06;-0.00042987589187774107
8.10525e-06;-0.00041912465459994103
8.10550e-06;-0.0004083734173220682
8.10575e-06;-0.0003976221800441953
8.10600e-06;-0.0003868709427663953
8.10625e-06;-0.0003761197054885225
8.10650e-06;-0.0003653684682106496
8.10675e-06;-0.00035461723093284955
8.10700e-06;-0.00034508037778604805
8.10725e-06;-0.0003360310626640919
8.10750e-06;-0.00032698174754219704
8.10775e-06;-0.00031793243242024083
8.10800e-06;-0.00030888311729828467
8.10825e-06;-0.0002998338021763898
8.10850e-06;-0.00029078448705443366
8.10875e-06;-0.0002817351719324775
8.10900e-06;-0.00027268585681058266
8.10925e-06;-0.0002636365416886265
8.10950e-06;-0.0002556113273233728
8.10975e-06;-0.0002479972580377549
8.11000e-06;-0.0002403831887520854
8.11025e-06;-0.00023297510345727024
8.11050e-06;-0.000226325664001374
8.11075e-06;-0.00021967622454543268
8.11100e-06;-0.00021302678508949136
8.11125e-06;-0.00020709011952524156
8.11150e-06;-0.00020143961084210501
8.11175e-06;-0.00019599269844229925
8.11200e-06;-0.00019062752371292222
8.11225e-06;-0.0001843420642941122
8.11250e-06;-0.00017678773494803188
8.11275e-06;-0.00016805062752702057
8.11300e-06;-0.0001582421717132704
8.11325e-06;-0.0001474702414915709
8.11350e-06;-0.00013584191500099112
8.11375e-06;-0.00012336759793669567
8.11400e-06;-0.00010979709068160007
8.11425e-06;-9.478082867659334e-05
8.11450e-06;-7.819711809919641e-05
8.11475e-06;-6.014242492598035e-05
8.11500e-06;-4.076495721985031e-05
8.11525e-06;-2.0210682533566494e-05
8.11550e-06;1.3749461319711367e-06
8.11575e-06;2.3907031704191647e-05
8.11600e-06;4.7463921245073326e-05
8.11625e-06;7.218618490461857e-05
8.11650e-06;9.807163836172632e-05
8.11675e-06;0.00012498145898882563
8.11700e-06;0.00015297093809984793
8.11725e-06;0.0001812816673487628
8.11750e-06;0.00021027539110617794
8.11775e-06;0.00023954331623498432
8.11800e-06;0.0002691888154891339
8.11825e-06;0.00029924706063751545
8.11850e-06;0.0003295882904721578
8.11875e-06;0.0003600472216400581
8.11900e-06;0.00039043826386933595
8.11925e-06;0.00042057672303177516
8.11950e-06;0.00045027812268052094
8.11975e-06;0.0004793817887424551
8.12000e-06;0.0005077910518689789
8.12025e-06;0.0005354337442441861
8.12050e-06;0.0005621816153761526
8.12075e-06;0.0005878528400497008
8.12100e-06;0.0006122529634495607
8.12125e-06;0.0006351880203647618
8.12150e-06;0.0006564642126330245
8.12175e-06;0.0006756949111209367
8.12200e-06;0.0006920233453805745
8.12225e-06;0.0007044765225404325
8.12250e-06;0.0007125923371152428
8.12275e-06;0.0007163591325232766
8.12300e-06;0.0007158670136133377
8.12325e-06;0.0007112066509416483
8.12350e-06;0.0007024687653926198
8.12375e-06;0.0006896233902378029
8.12400e-06;0.0006723459518322338
8.12425e-06;0.0006502392551688268
8.12450e-06;0.0006232260083790333
8.12475e-06;0.0005915112026132902
8.12500e-06;0.0005553635408037471
8.12525e-06;0.000515052033595331
8.12550e-06;0.0004708457750039087
8.12575e-06;0.00042293812305619884
8.12600e-06;0.00037133800382087393
8.12625e-06;0.0003160088083574679
8.12650e-06;0.0002571143706650142
8.12675e-06;0.00019499530129536482
8.12700e-06;0.00013003207447067624
8.12725e-06;6.260536814115951e-05
8.12750e-06;-6.904134852997333e-06
8.12775e-06;-7.816320097868647e-05
8.12800e-06;-0.00015095412584224411
8.12825e-06;-0.00022541738684240652
8.12850e-06;-0.00030038176003977077
8.12875e-06;-0.00037602197882536666
8.12900e-06;-0.00045193352890949564
8.12925e-06;-0.0005272354323091254
8.12950e-06;-0.000602292581242536
8.12975e-06;-0.000675544277210533
8.13000e-06;-0.0007480711391235437
8.13025e-06;-0.000817786777448
8.13050e-06;-0.0008863737956249133
8.13075e-06;-0.0009508556199538563
8.13100e-06;-0.0010136893347184215
8.13125e-06;-0.001071008215109947
8.13150e-06;-0.0011261130584503877
8.13175e-06;-0.0011745056205710934
8.13200e-06;-0.0012202034074163602
8.13225e-06;-0.0012588727199558073
8.13250e-06;-0.0012947203153829926
8.13275e-06;-0.0013233266613599368
8.13300e-06;-0.0013490258675220067
8.13325e-06;-0.0013671490657592923
8.13350e-06;-0.0013822307289096836
8.13375e-06;-0.0013895345322506292
8.13400e-06;-0.0013937157631570404
8.13425e-06;-0.001390469426186626
8.13450e-06;-0.001384241148261245
8.13475e-06;-0.0013710003032878391
8.13500e-06;-0.001354944127478431
8.13525e-06;-0.0013322139226272047
8.13550e-06;-0.0013068042995780051
8.13575e-06;-0.0012766249081955605
8.13600e-06;-0.001241565704117749
8.13625e-06;-0.0012025782259610302
8.13650e-06;-0.0011599632425280883
8.13675e-06;-0.0011139949823691154
8.13700e-06;-0.0010649397206741707
8.13725e-06;-0.0010130637823502337
8.13750e-06;-0.000958633442587343
8.13775e-06;-0.0009019301028848844
8.13800e-06;-0.0008432850269875905
8.13825e-06;-0.0007830772065904085
8.13850e-06;-0.000721686940306956
8.13875e-06;-0.0006594778560253115
8.13900e-06;-0.0005968086293524344
8.13925e-06;-0.0005340379358952989
8.13950e-06;-0.0004715243474263267
8.13975e-06;-0.0004096359051612221
8.14000e-06;-0.00034877188072643064
8.14025e-06;-0.00028936136540828677
8.14050e-06;-0.00023183427557940697
8.14075e-06;-0.000176610080405208
8.14100e-06;-0.0001241050769834813
8.14125e-06;-7.473551403914887e-05
8.14150e-06;-2.8917607555240832e-05
8.14175e-06;1.3015525070174416e-05
8.14200e-06;5.0981487788124676e-05
8.14225e-06;8.508967146758459e-05
8.14250e-06;0.00011538034195548796
8.14275e-06;0.00014176771933353667
