Time(s);Current(A)
1.50000e-06;-0.007309251417435351
1.50025e-06;-0.0073385672789982636
1.50050e-06;-0.007367883140561152
1.50075e-06;-0.007395660053144669
1.50100e-06;-0.007422253193160692
1.50125e-06;-0.007448846333176691
1.50150e-06;-0.007472950185273451
1.50175e-06;-0.007495139256054523
1.50200e-06;-0.0075173283268356135
1.50225e-06;-0.007537498716978953
1.50250e-06;-0.007556116320906804
1.50275e-06;-0.00757473392483467
1.50300e-06;-0.007593596781483401
1.50325e-06;-0.0076126482885987825
1.50350e-06;-0.007631699795714148
1.50375e-06;-0.007650751302829512
1.50400e-06;-0.007669802809944894
1.50425e-06;-0.007688854317060259
1.50450e-06;-0.00770790582417564
1.50475e-06;-0.007727096882960278
1.50500e-06;-0.007748287948470391
1.50525e-06;-0.007769479013980522
1.50550e-06;-0.007790670079490635
1.50575e-06;-0.0078118611450007655
1.50600e-06;-0.007833052210510878
1.50625e-06;-0.007854243276021008
1.50650e-06;-0.007875434341531122
1.50675e-06;-0.007898232402815475
1.50700e-06;-0.00792226657883731
1.50725e-06;-0.007946300754859125
1.50750e-06;-0.007970334930880958
1.50775e-06;-0.007994369106902773
1.50800e-06;-0.008018403282924587
1.50825e-06;-0.008042437458946422
1.50850e-06;-0.008066471634968236
1.50875e-06;-0.008090068959516057
1.50900e-06;-0.008113330254216263
1.50925e-06;-0.008136591548916468
1.50950e-06;-0.008159852843616693
1.50975e-06;-0.008183114138316898
1.51000e-06;-0.008206375433017122
1.51025e-06;-0.008229636727717328
1.51050e-06;-0.008252898022417554
1.51075e-06;-0.008272331023028979
1.51100e-06;-0.008288819267457333
1.51125e-06;-0.008305307511885702
1.51150e-06;-0.008321795756314056
1.51175e-06;-0.008338284000742427
1.51200e-06;-0.008354772245170781
1.51225e-06;-0.008371260489599136
1.51250e-06;-0.008387748734027504
1.51275e-06;-0.008403455739710982
1.51300e-06;-0.008407966299290892
1.51325e-06;-0.008412476858870796
1.51350e-06;-0.008416987418450702
1.51375e-06;-0.008421497978030611
1.51400e-06;-0.008426008537610516
1.51425e-06;-0.008430519097190425
1.51450e-06;-0.00843502965677033
1.51475e-06;-0.008439540216350239
1.51500e-06;-0.008437589045024835
1.51525e-06;-0.008430667455650293
1.51550e-06;-0.008423745866275744
1.51575e-06;-0.008416824276901201
1.51600e-06;-0.008409902687526654
1.51625e-06;-0.008402981098152112
1.51650e-06;-0.00839605950877757
1.51675e-06;-0.00838913791940302
1.51700e-06;-0.00837790631219447
1.51725e-06;-0.00836335940282493
1.51750e-06;-0.008348812493455402
1.51775e-06;-0.008334265584085874
1.51800e-06;-0.008319718674716333
1.51825e-06;-0.008305171765346805
1.51850e-06;-0.008290624855977265
1.51875e-06;-0.008276077946607736
1.51900e-06;-0.008260118730860414
1.51925e-06;-0.008243073157105669
1.51950e-06;-0.008226027583350923
1.51975e-06;-0.008208982009596162
1.52000e-06;-0.008191936435841417
1.52025e-06;-0.008174980091069123
1.52050e-06;-0.008159302545510802
1.52075e-06;-0.00814362499995248
1.52100e-06;-0.008127947454394146
1.52125e-06;-0.008112269908835824
1.52150e-06;-0.00809659236327749
1.52175e-06;-0.008082425675741299
1.52200e-06;-0.008069421152970655
1.52225e-06;-0.008056755372689578
1.52250e-06;-0.0080443501559957
1.52275e-06;-0.008030406253525534
1.52300e-06;-0.008015278780946055
1.52325e-06;-0.007998172722346113
1.52350e-06;-0.007979544718649511
1.52375e-06;-0.007960916714952911
1.52400e-06;-0.007940351711337904
1.52425e-06;-0.007918296751007576
1.52450e-06;-0.00789624179067723
1.52475e-06;-0.007870230418670724
1.52500e-06;-0.00784117574134987
1.52525e-06;-0.007812121064028991
1.52550e-06;-0.007783066386708138
1.52575e-06;-0.007753566515534028
1.52600e-06;-0.007717686278544109
1.52625e-06;-0.007681806041554191
1.52650e-06;-0.007645925804564241
1.52675e-06;-0.007610045567574323
1.52700e-06;-0.007571181717852609
1.52725e-06;-0.007530022847990052
1.52750e-06;-0.00748886397812746
1.52775e-06;-0.007446501480133703
1.52800e-06;-0.007403213141204288
1.52825e-06;-0.007359545526495904
1.52850e-06;-0.00731531743920714
1.52875e-06;-0.007270619702213905
1.52900e-06;-0.007225572578992835
1.52925e-06;-0.007180415703329752
1.52950e-06;-0.007135415170277781
1.52975e-06;-0.007090837135635228
1.53000e-06;-0.007046946115236115
1.53025e-06;-0.007003959673558119
1.53050e-06;-0.006961995865047313
1.53075e-06;-0.006921150778246545
1.53100e-06;-0.006881610455829644
1.53125e-06;-0.006843635101494318
1.53150e-06;-0.006807501318045291
1.53175e-06;-0.006773486497896697
1.53200e-06;-0.0067418641663830985
1.53225e-06;-0.006712774384681363
1.53250e-06;-0.006686055849231304
1.53275e-06;-0.006661420012352536
1.53300e-06;-0.006638757769575846
1.53325e-06;-0.006618138019236037
1.53350e-06;-0.006599672985703333
1.53375e-06;-0.0065834743669416045
1.53400e-06;-0.0065696516135763045
1.53425e-06;-0.0065588320588954915
1.53450e-06;-0.006549512313891314
1.53475e-06;-0.006542386762177302
1.53500e-06;-0.006536949002494762
1.53525e-06;-0.006534932577050815
1.53550e-06;-0.006535547870831778
1.53575e-06;-0.006536163164612741
1.53600e-06;-0.006536778458393704
1.53625e-06;-0.006537868319643062
1.53650e-06;-0.006545759519298065
1.53675e-06;-0.0065536507189530736
1.53700e-06;-0.006561541918608076
1.53725e-06;-0.006569433118263085
1.53750e-06;-0.0065801195809303695
1.53775e-06;-0.006592956183541606
1.53800e-06;-0.006605792786152853
1.53825e-06;-0.0066186293887640895
1.53850e-06;-0.0066314659913753364
1.53875e-06;-0.006644437921026829
1.53900e-06;-0.006660960137383772
1.53925e-06;-0.00667748235374073
1.53950e-06;-0.006694004570097673
1.53975e-06;-0.00671052678645463
1.54000e-06;-0.006727049002811574
1.54025e-06;-0.006743716260102618
1.54050e-06;-0.0067605238717036035
1.54075e-06;-0.006777297288760182
1.54100e-06;-0.006792460451734106
1.54125e-06;-0.006807623614708018
1.54150e-06;-0.006820912012753249
1.54175e-06;-0.006832835051633612
1.54200e-06;-0.0068447194291227
1.54225e-06;-0.006856359076691447
1.54250e-06;-0.006867998724260183
1.54275e-06;-0.006880118585372223
1.54300e-06;-0.00689277324129567
1.54325e-06;-0.006905427897219115
1.54350e-06;-0.0069187066923944735
1.54375e-06;-0.006932680566744863
1.54400e-06;-0.006946654441095264
1.54425e-06;-0.006962314313917803
1.54450e-06;-0.0069798518164897435
1.54475e-06;-0.006997389319061699
1.54500e-06;-0.007014926821633639
1.54525e-06;-0.007032464324205594
1.54550e-06;-0.007050001826777535
1.54575e-06;-0.007069948827046238
1.54600e-06;-0.007092579189507249
1.54625e-06;-0.00711520955196826
1.54650e-06;-0.007137839914429289
1.54675e-06;-0.0071604702768903
1.54700e-06;-0.00718310063935133
1.54725e-06;-0.007207458098657749
1.54750e-06;-0.007233738957344742
1.54775e-06;-0.0072600198160317556
1.54800e-06;-0.007286300674718748
1.54825e-06;-0.0073125815334057626
1.54850e-06;-0.007338862392092755
1.54875e-06;-0.007365143250779747
1.54900e-06;-0.007391278484318327
1.54925e-06;-0.007417251540894409
1.54950e-06;-0.007443224597470512
1.54975e-06;-0.007469197654046594
1.55000e-06;-0.007495170710622698
1.55025e-06;-0.007521143767198779
1.55050e-06;-0.007547116823774861
1.55075e-06;-0.007571485716686818
1.55100e-06;-0.007594068116035236
1.55125e-06;-0.007616650515383673
1.55150e-06;-0.007635419905403416
1.55175e-06;-0.007649942897891827
1.55200e-06;-0.00766446589038025
1.55225e-06;-0.00767898888286866
1.55250e-06;-0.007693511875357084
1.55275e-06;-0.007708034867845494
1.55300e-06;-0.007722557860333905
1.55325e-06;-0.007737080852822328
1.55350e-06;-0.007751603845310739
1.55375e-06;-0.0077607193444742106
1.55400e-06;-0.007763812732405796
1.55425e-06;-0.007766906120337384
1.55450e-06;-0.007769999508268969
1.55475e-06;-0.007773092896200554
1.55500e-06;-0.007776186284132142
1.55525e-06;-0.007779279672063728
1.55550e-06;-0.0077823730599953156
1.55575e-06;-0.007785466447926901
1.55600e-06;-0.007784478327237461
1.55625e-06;-0.0077789447919848565
1.55650e-06;-0.007773411256732258
1.55675e-06;-0.007767877721479653
1.55700e-06;-0.007762344186227054
1.55725e-06;-0.007756810650974454
1.55750e-06;-0.0077512771157218505
1.55775e-06;-0.007745743580469251
1.55800e-06;-0.007740210045216647
1.55825e-06;-0.0077305580446520306
1.55850e-06;-0.007720792250918286
1.55875e-06;-0.007711026457184549
1.55900e-06;-0.007701260663450812
1.55925e-06;-0.007691494869717068
1.55950e-06;-0.007681729075983331
1.55975e-06;-0.007671963282249586
1.56000e-06;-0.007662197488515849
1.56025e-06;-0.007652262596397845
1.56050e-06;-0.007642139386103929
1.56075e-06;-0.007632016175810021
1.56100e-06;-0.007621892965516105
1.56125e-06;-0.007612908563300634
1.56150e-06;-0.007603955626344775
1.56175e-06;-0.007595002689388908
1.56200e-06;-0.0075866072005915
1.56225e-06;-0.0075788325197386035
1.56250e-06;-0.007570077017159762
1.56275e-06;-0.00756022921225577
1.56300e-06;-0.007550381407351786
1.56325e-06;-0.007538772514860943
1.56350e-06;-0.007525202368846639
1.56375e-06;-0.007511632222832345
1.56400e-06;-0.007496576891239593
1.56425e-06;-0.007479867567267129
1.56450e-06;-0.007463158243294666
1.56475e-06;-0.007443494909881411
1.56500e-06;-0.00742054181310421
1.56525e-06;-0.00739758871632699
1.56550e-06;-0.007374635619549789
1.56575e-06;-0.007351682522772589
1.56600e-06;-0.007325709015011857
1.56625e-06;-0.007296371795117925
1.56650e-06;-0.007267034575223968
1.56675e-06;-0.007237697355330036
1.56700e-06;-0.007208360135436078
1.56725e-06;-0.00717698663094
1.56750e-06;-0.007143345396899739
1.56775e-06;-0.00710970416285945
1.56800e-06;-0.0070754186311692375
1.56825e-06;-0.007040415570694216
1.56850e-06;-0.007005034127174671
1.56875e-06;-0.006969231293438728
1.56900e-06;-0.006933238111551084
1.56925e-06;-0.00689703360739399
1.56950e-06;-0.006860930741434858
1.56975e-06;-0.0068251416098698385
1.57000e-06;-0.006789875910521582
1.57025e-06;-0.006755309112930401
1.57050e-06;-0.00672154527528524
1.57075e-06;-0.006688670419488271
1.57100e-06;-0.006656836596003951
1.57125e-06;-0.006626252921667165
1.57150e-06;-0.00660192640091835
1.57175e-06;-0.00658376599876442
1.57200e-06;-0.006565605596610476
1.57225e-06;-0.006547445194456547
1.57250e-06;-0.006529284792302603
1.57275e-06;-0.006511124390148673
1.57300e-06;-0.006492963987994744
1.57325e-06;-0.0064748035858408
1.57350e-06;-0.006456643183686871
1.57375e-06;-0.006438482781532927
1.57400e-06;-0.006420322379378997
1.57425e-06;-0.006402161977225068
1.57450e-06;-0.006384001575071124
1.57475e-06;-0.006365841172917195
1.57500e-06;-0.00634768077076325
1.57525e-06;-0.006329520368609321
1.57550e-06;-0.006311359966455392
1.57575e-06;-0.006293199564301448
1.57600e-06;-0.006280209736158777
1.57625e-06;-0.006272978171587311
1.57650e-06;-0.006265746607015851
1.57675e-06;-0.006258515042444385
1.57700e-06;-0.006251283477872924
1.57725e-06;-0.006244051913301464
1.57750e-06;-0.006236820348729998
1.57775e-06;-0.006229588784158538
1.57800e-06;-0.006222357219587072
1.57825e-06;-0.006215125655015611
1.57850e-06;-0.0062078940904441516
1.57875e-06;-0.006200662525872686
1.57900e-06;-0.006193430961301225
1.57925e-06;-0.006186199396729759
1.57950e-06;-0.006178967832158299
1.57975e-06;-0.006171736267586839
1.58000e-06;-0.006164504703015373
1.58025e-06;-0.006157273138443913
1.58050e-06;-0.006151362848542577
1.58075e-06;-0.00614692400993153
1.58100e-06;-0.00614248517132048
1.58125e-06;-0.006138169559637873
1.58150e-06;-0.006134069170774563
1.58175e-06;-0.00613014420090427
1.58200e-06;-0.006126431542252604
1.58225e-06;-0.006123225520051318
1.58250e-06;-0.006121366709851306
1.58275e-06;-0.006121809854701673
1.58300e-06;-0.006124962757471491
1.58325e-06;-0.006130782653376393
1.58350e-06;-0.0061391333740507
1.58375e-06;-0.00614987889631737
1.58400e-06;-0.0061628925501968
1.58425e-06;-0.006178912894796077
1.58450e-06;-0.006196987072001639
1.58475e-06;-0.006218071569976375
1.58500e-06;-0.00624250854301171
1.58525e-06;-0.006271156185577259
1.58550e-06;-0.00630449308409619
1.58575e-06;-0.006337829982615119
1.58600e-06;-0.006371166881134077
1.58625e-06;-0.006404503779653008
1.58650e-06;-0.006448061021781106
1.58675e-06;-0.006491900651934554
1.58700e-06;-0.006535740282088002
1.58725e-06;-0.0065795799122414875
1.58750e-06;-0.006626571106584277
1.58775e-06;-0.006677072073192844
1.58800e-06;-0.0067275730398013685
1.58825e-06;-0.0067794298698066885
1.58850e-06;-0.006832796671197779
1.58875e-06;-0.006886163472588825
1.58900e-06;-0.00694011872295346
1.58925e-06;-0.006994729305642904
1.58950e-06;-0.007049339888332395
1.58975e-06;-0.007103425948771302
1.59000e-06;-0.007156927869545881
1.59025e-06;-0.0072093709787267694
1.59050e-06;-0.0072606349313545475
1.59075e-06;-0.007310425007668989
1.59100e-06;-0.007358573686284679
1.59125e-06;-0.0074039482535562685
1.59150e-06;-0.007446233402852429
1.59175e-06;-0.007488518552148554
1.59200e-06;-0.007526405572276372
1.59225e-06;-0.007559394570073543
1.59250e-06;-0.007592383567870714
1.59275e-06;-0.0076214147634739065
1.59300e-06;-0.007646038311465024
1.59325e-06;-0.007670661859456161
1.59350e-06;-0.007688666900079585
1.59375e-06;-0.007699301171077743
1.59400e-06;-0.007709935442075891
1.59425e-06;-0.007720569713074039
1.59450e-06;-0.007731203984072197
1.59475e-06;-0.007741838255070345
1.59500e-06;-0.007752472526068503
1.59525e-06;-0.0077465341756836874
1.59550e-06;-0.0077401379238814265
1.59575e-06;-0.00773374167207916
1.59600e-06;-0.0077273454202769
1.59625e-06;-0.007720949168474634
1.59650e-06;-0.007714552916672373
1.59675e-06;-0.007702391145553831
1.59700e-06;-0.007683808543832727
1.59725e-06;-0.007665225942111639
1.59750e-06;-0.007646643340390535
1.59775e-06;-0.0076280607386694475
1.59800e-06;-0.0076094781369483435
1.59825e-06;-0.007587807848802963
1.59850e-06;-0.0075626989265300424
1.59875e-06;-0.007537590004257101
1.59900e-06;-0.00751248108198418
1.59925e-06;-0.007487372159711238
1.59950e-06;-0.0074622632374383175
1.59975e-06;-0.0074365444960868415
1.60000e-06;-0.0074101466233706306
1.60025e-06;-0.007383951215875971
1.60050e-06;-0.007357981285882797
1.60075e-06;-0.007332648823918477
1.60100e-06;-0.007308026284860149
1.60125e-06;-0.007286505966033858
1.60150e-06;-0.007268440467061377
1.60175e-06;-0.007250374968088881
1.60200e-06;-0.0072323094691163995
1.60225e-06;-0.007214243970143904
1.60250e-06;-0.007196178471171422
1.60275e-06;-0.0071781129721989415
1.60300e-06;-0.007160047473226445
1.60325e-06;-0.007141981974253964
1.60350e-06;-0.007123916475281468
1.60375e-06;-0.007105850976308987
1.60400e-06;-0.007090356018569339
1.60425e-06;-0.007077723770831466
1.60450e-06;-0.007065091523093603
1.60475e-06;-0.007052459275355729
1.60500e-06;-0.0070398270276178666
1.60525e-06;-0.007027194779880003
1.60550e-06;-0.00701456253214213
1.60575e-06;-0.0070019302844042675
1.60600e-06;-0.006989298036666394
1.60625e-06;-0.006976665788928531
1.60650e-06;-0.006964033541190657
1.60675e-06;-0.006952262959318849
1.60700e-06;-0.0069414519806081975
1.60725e-06;-0.006930641001897537
1.60750e-06;-0.006919830023186886
1.60775e-06;-0.006909019044476225
1.60800e-06;-0.006898208065765574
1.60825e-06;-0.006887397087054922
1.60850e-06;-0.006876586108344262
1.60875e-06;-0.0068657751296336104
1.60900e-06;-0.006854964150922949
1.60925e-06;-0.006845147278653139
1.60950e-06;-0.006836437503369206
1.60975e-06;-0.006827727728085266
1.61000e-06;-0.006819017952801333
1.61025e-06;-0.006810308177517393
1.61050e-06;-0.006801598402233461
1.61075e-06;-0.0067928886269495205
1.61100e-06;-0.006784178851665588
1.61125e-06;-0.006775469076381655
1.61150e-06;-0.006766759301097715
1.61175e-06;-0.006759032866421667
1.61200e-06;-0.006752401539249541
1.61225e-06;-0.006745770212077421
1.61250e-06;-0.0067389147558316225
1.61275e-06;-0.006731809695909875
1.61300e-06;-0.0067247046359881334
1.61325e-06;-0.0067169260872935455
1.61350e-06;-0.006708397500816504
1.61375e-06;-0.006699868914339463
1.61400e-06;-0.006690346324233062
1.61425e-06;-0.0066797167516379026
1.61450e-06;-0.006669087179042734
1.61475e-06;-0.006658457606447576
1.61500e-06;-0.006647828033852416
1.61525e-06;-0.006637198461257248
1.61550e-06;-0.006624950892654273
1.61575e-06;-0.006610901425954899
1.61600e-06;-0.006596851959255537
1.61625e-06;-0.006582802492556164
1.61650e-06;-0.006568753025856802
1.61675e-06;-0.00655470355915744
1.61700e-06;-0.006539447452612177
1.61725e-06;-0.006522847559042232
1.61750e-06;-0.0065062476654722725
1.61775e-06;-0.006489647771902328
1.61800e-06;-0.0064730478783323825
1.61825e-06;-0.006456447984762424
1.61850e-06;-0.006439016124308369
1.61875e-06;-0.006421561276614909
1.61900e-06;-0.006404106428921465
1.61925e-06;-0.00638665158122802
1.61950e-06;-0.006369196733534561
1.61975e-06;-0.006351935208182686
1.62000e-06;-0.006334888978268841
1.62025e-06;-0.006318192270742361
1.62050e-06;-0.00630188481246083
1.62075e-06;-0.0062858802809253635
1.62100e-06;-0.006270465141966608
1.62125e-06;-0.006255631187799889
1.62150e-06;-0.006241481084218799
1.62175e-06;-0.006228117301747088
1.62200e-06;-0.006215648649827883
1.62225e-06;-0.006204284074134521
1.62250e-06;-0.006194437791736883
1.62275e-06;-0.006186542908769307
1.62300e-06;-0.006180787989589472
1.62325e-06;-0.006177172879365445
1.62350e-06;-0.006175658953250938
1.62375e-06;-0.0061766829660770736
1.62400e-06;-0.0061793125553665
1.62425e-06;-0.006183964703922942
1.62450e-06;-0.006190869296660497
1.62475e-06;-0.006200568783353136
1.62500e-06;-0.006213380832791692
1.62525e-06;-0.006226192882230247
1.62550e-06;-0.006242869028523091
1.62575e-06;-0.006263848466500166
1.62600e-06;-0.00628482790447726
1.62625e-06;-0.006305807342454336
1.62650e-06;-0.006326786780431411
1.62675e-06;-0.006351716647549501
1.62700e-06;-0.00638104595120155
1.62725e-06;-0.006410375254853623
1.62750e-06;-0.006439704558505671
1.62775e-06;-0.006469033862157718
1.62800e-06;-0.006500385423986
1.62825e-06;-0.006533989094682417
1.62850e-06;-0.006567592765378863
1.62875e-06;-0.006601964731740069
1.62900e-06;-0.006637192318565787
1.62925e-06;-0.006672419905391476
1.62950e-06;-0.006707570824211617
1.62975e-06;-0.006742636360909352
1.63000e-06;-0.006777701897607058
1.63025e-06;-0.006812057227138457
1.63050e-06;-0.006845621627066312
1.63075e-06;-0.006878221618389896
1.63100e-06;-0.006909747586032587
1.63125e-06;-0.00693987733676387
1.63150e-06;-0.006968452175998246
1.63175e-06;-0.006995177840219469
1.63200e-06;-0.007019844151438803
1.63225e-06;-0.0070422103123365274
1.63250e-06;-0.007062014886885726
1.63275e-06;-0.007078552772842206
1.63300e-06;-0.007091452677043634
1.63325e-06;-0.007104352581245073
1.63350e-06;-0.007113168812599231
1.63375e-06;-0.0071174372191791235
1.63400e-06;-0.007121705625759019
1.63425e-06;-0.007121758246711958
1.63450e-06;-0.007117115914118354
1.63475e-06;-0.007112473581524754
1.63500e-06;-0.0071028265808601235
1.63525e-06;-0.007087606079503454
1.63550e-06;-0.007072385578146798
1.63575e-06;-0.007057165076790129
1.63600e-06;-0.007041944575433473
1.63625e-06;-0.007016049381086518
1.63650e-06;-0.006989859245044592
1.63675e-06;-0.006963669109002689
1.63700e-06;-0.006937478972960763
1.63725e-06;-0.006907913510839293
1.63750e-06;-0.006874589081694802
1.63775e-06;-0.006841264652550341
1.63800e-06;-0.0068063332061976
1.63825e-06;-0.006769612088403055
1.63850e-06;-0.0067321747416256615
1.63875e-06;-0.006693587482719199
1.63900e-06;-0.006654360058525369
1.63925e-06;-0.006614714514356492
1.63950e-06;-0.006574873927009717
1.63975e-06;-0.006535061323201169
1.64000e-06;-0.006495500220348688
1.64025e-06;-0.0064564130343184424
1.64050e-06;-0.006418024479187646
1.64075e-06;-0.006380569583648795
1.64100e-06;-0.006344295779020013
1.64125e-06;-0.006309456825662257
1.64150e-06;-0.006276307194948816
1.64175e-06;-0.006245647973298519
1.64200e-06;-0.006216692223131149
1.64225e-06;-0.006189680601742461
1.64250e-06;-0.0061648340796049165
1.64275e-06;-0.006141171064725493
1.64300e-06;-0.0061188260750233685
1.64325e-06;-0.006098077344040282
1.64350e-06;-0.006079106303195365
1.64375e-06;-0.006060135262350432
1.64400e-06;-0.0060433962592073495
1.64425e-06;-0.006029142988084564
1.64450e-06;-0.006014889716961791
1.64475e-06;-0.006002913426854456
1.64500e-06;-0.005993472920356429
1.64525e-06;-0.0059840324138584105
1.64550e-06;-0.0059745919073603835
1.64575e-06;-0.005965151400862364
1.64600e-06;-0.005955710894364337
1.64625e-06;-0.005948859254915848
1.64650e-06;-0.005944890734204982
