Time(s);Current(A)
9.75000e-06;0.005067577986711824
9.75025e-06;0.005073496541673506
9.75050e-06;0.005079415096635187
9.75075e-06;0.005085333651596829
9.75100e-06;0.00509125220655851
9.75125e-06;0.005097170761520191
9.75150e-06;0.005103089316481873
9.75175e-06;0.005109007871443514
9.75200e-06;0.0051245928102527875
9.75225e-06;0.0051466923188462676
9.75250e-06;0.005168791827439598
9.75275e-06;0.005190891336033078
9.75300e-06;0.005212990844626557
9.75325e-06;0.005235090353219887
9.75350e-06;0.005257189861813367
9.75375e-06;0.005279289370406847
9.75400e-06;0.005301388879000177
9.75425e-06;0.005323488387593656
9.75450e-06;0.005345587896187136
9.75475e-06;0.005367687404780466
9.75500e-06;0.0053984536710091156
9.75525e-06;0.005435060818203561
9.75550e-06;0.005471667965397758
9.75575e-06;0.005508275112592203
9.75600e-06;0.005544882259786648
9.75625e-06;0.005581489406980845
9.75650e-06;0.00561809655417529
9.75675e-06;0.005654703701369735
9.75700e-06;0.0056913108485639324
9.75725e-06;0.005727917995758378
9.75750e-06;0.005764525142952823
9.75775e-06;0.00580113229014702
9.75800e-06;0.0058358057896619065
9.75825e-06;0.0058691761252482755
9.75850e-06;0.005902546460834419
9.75875e-06;0.005935916796420788
9.75900e-06;0.005969287132007157
9.75925e-06;0.0060026574675933
9.75950e-06;0.006036027803179669
9.75975e-06;0.006069398138766038
9.76000e-06;0.00609752507891301
9.76025e-06;0.006122118281310071
9.76050e-06;0.006146711483707298
9.76075e-06;0.0061713046861045255
9.76100e-06;0.006195897888501586
9.76125e-06;0.0062204910908988135
9.76150e-06;0.006245084293296041
9.76175e-06;0.0062696774956931016
9.76200e-06;0.006295752934791072
9.76225e-06;0.006322827313573157
9.76250e-06;0.0063499016923550585
9.76275e-06;0.006376976071137143
9.76300e-06;0.006404050449919228
9.76325e-06;0.00643112482870113
9.76350e-06;0.006458199207483215
9.76375e-06;0.0064852735862653
9.76400e-06;0.006512347965047202
9.76425e-06;0.006539422343829287
9.76450e-06;0.006566496722611372
9.76475e-06;0.0065935711013932734
9.76500e-06;0.006620645480175358
9.76525e-06;0.006647719858957443
9.76550e-06;0.006676700325465016
9.76575e-06;0.006706965382126213
9.76600e-06;0.00673723043878741
9.76625e-06;0.006767495495448402
9.76650e-06;0.006797760552109599
9.76675e-06;0.0068280256087707965
9.76700e-06;0.006858290665431788
9.76725e-06;0.006888555722092985
9.76750e-06;0.006918820778754183
9.76775e-06;0.006949085835415174
9.76800e-06;0.006979350892076372
9.76825e-06;0.007009615948737569
9.76850e-06;0.007039881005398766
9.76875e-06;0.007070146062059758
9.76900e-06;0.007094045474815716
9.76925e-06;0.007113654820870243
9.76950e-06;0.007133264166924638
9.76975e-06;0.007152873512979165
9.77000e-06;0.007172482859033693
9.77025e-06;0.007192092205088088
9.77050e-06;0.007211701551142615
9.77075e-06;0.0072313108971971424
9.77100e-06;0.007232213815414405
9.77125e-06;0.007220509709996219
9.77150e-06;0.007208805604578034
9.77175e-06;0.007197101499159928
9.77200e-06;0.007185397393741743
9.77225e-06;0.007173693288323557
9.77250e-06;0.007161989182905451
9.77275e-06;0.007150285077487266
9.77300e-06;0.0071130350371375155
9.77325e-06;0.007058568550746791
9.77350e-06;0.007004102064355697
9.77375e-06;0.006949635577964603
9.77400e-06;0.006895169091573878
9.77425e-06;0.006840702605182784
9.77450e-06;0.00678623611879169
9.77475e-06;0.006731769632400965
9.77500e-06;0.006677303146009871
9.77525e-06;0.006605066783939426
9.77550e-06;0.006520854578877687
9.77575e-06;0.0064366423738153765
9.77600e-06;0.006352430168753067
9.77625e-06;0.006268217963691328
9.77650e-06;0.0061840057586290175
9.77675e-06;0.006099793553566708
9.77700e-06;0.006015581348504398
9.77725e-06;0.0059313691434426585
9.77750e-06;0.005845244618038643
9.77775e-06;0.005757831302066951
9.77800e-06;0.005670417986095851
9.77825e-06;0.005583004670124158
9.77850e-06;0.005495591354152466
9.77875e-06;0.005408178038181366
9.77900e-06;0.005331104864459543
9.77925e-06;0.005261000333757509
9.77950e-06;0.005190895803055949
9.77975e-06;0.005120791272353914
9.78000e-06;0.005050686741651879
9.78025e-06;0.00498058221095032
9.78050e-06;0.00492818010805381
9.78075e-06;0.004887708392282176
9.78100e-06;0.0048472366765108165
9.78125e-06;0.0048067649607391825
9.78150e-06;0.004766293244967549
9.78175e-06;0.00472582152919619
9.78200e-06;0.004685349813424556
9.78225e-06;0.004644878097652923
9.78250e-06;0.004604406381881563
9.78275e-06;0.00456393466610993
9.78300e-06;0.004523462950338296
9.78325e-06;0.004485359359183801
9.78350e-06;0.004469202856143943
9.78375e-06;0.004453046353104086
9.78400e-06;0.004436889850064338
9.78425e-06;0.00442073334702448
9.78450e-06;0.004404576843984623
9.78475e-06;0.004388420340944874
9.78500e-06;0.004372263837905017
9.78525e-06;0.00435610733486516
9.78550e-06;0.004339950831825302
9.78575e-06;0.004323794328785553
9.78600e-06;0.004307637825745696
9.78625e-06;0.004298682889317104
9.78650e-06;0.004294581381951424
9.78675e-06;0.004290479874585716
9.78700e-06;0.004286378367220008
9.78725e-06;0.004282276859854327
9.78750e-06;0.004278175352488619
9.78775e-06;0.0042740738451229115
9.78800e-06;0.004269972337757231
9.78825e-06;0.0042658708303915235
9.78850e-06;0.004261769323025816
9.78875e-06;0.0042576678156601355
9.78900e-06;0.004253566308294427
9.78925e-06;0.00425001989874039
9.78950e-06;0.0042516179737726156
9.78975e-06;0.004253216048804851
9.79000e-06;0.004254814123837087
9.79025e-06;0.004256412198869312
9.79050e-06;0.004258010273901548
9.79075e-06;0.004259608348933784
9.79100e-06;0.004261206423966009
9.79125e-06;0.004262804498998245
9.79150e-06;0.004264402574030481
9.79175e-06;0.004266000649062706
9.79200e-06;0.004267598724094942
9.79225e-06;0.004269196799127178
9.79250e-06;0.004278081590789602
9.79275e-06;0.004291877197581575
9.79300e-06;0.004305672804373548
9.79325e-06;0.004319468411165427
9.79350e-06;0.0043332640179574
9.79375e-06;0.004347059624749373
9.79400e-06;0.004360855231541346
9.79425e-06;0.0043746508383332265
9.79450e-06;0.0043884464451251996
9.79475e-06;0.004402242051917173
9.79500e-06;0.004416037658709052
9.79525e-06;0.004429833265501025
9.79550e-06;0.004444346442800595
9.79575e-06;0.004465509854238917
9.79600e-06;0.004486673265677381
9.79625e-06;0.004507836677115846
9.79650e-06;0.004529000088554168
9.79675e-06;0.0045501634999926335
9.79700e-06;0.004571326911431099
9.79725e-06;0.004592490322869421
9.79750e-06;0.004613653734307886
9.79775e-06;0.00463481714574635
9.79800e-06;0.004655980557184672
9.79825e-06;0.004677143968623137
9.79850e-06;0.0046983073800616025
9.79875e-06;0.004715021178569713
9.79900e-06;0.004728736201688151
9.79925e-06;0.004742451224806589
9.79950e-06;0.004756166247924934
9.79975e-06;0.004769881271043373
9.80000e-06;0.0047835962941618106
9.80025e-06;0.0047973113172801556
9.80050e-06;0.004811026340398594
9.80075e-06;0.004824741363517032
9.80100e-06;0.004838456386635377
9.80125e-06;0.004852171409753816
9.80150e-06;0.0048658864328722535
9.80175e-06;0.0048796014559905985
9.80200e-06;0.004893316479109037
9.80225e-06;0.004907031502227475
9.80250e-06;0.004920746525345913
9.80275e-06;0.004933840530918403
9.80300e-06;0.004941179127031204
9.80325e-06;0.004948517723144004
9.80350e-06;0.0049558563192567545
9.80375e-06;0.004963194915369555
9.80400e-06;0.004970533511482356
9.80425e-06;0.004977872107595106
9.80450e-06;0.0049852107037079065
9.80475e-06;0.004992549299820707
9.80500e-06;0.004999887895933457
9.80525e-06;0.005007226492046258
9.80550e-06;0.0050145650881590585
9.80575e-06;0.005021903684271809
9.80600e-06;0.005029242280384609
9.80625e-06;0.00503658087649741
9.80650e-06;0.00504391947261016
9.80675e-06;0.005051258068722961
9.80700e-06;0.005057524917994843
9.80725e-06;0.005063069473417321
9.80750e-06;0.005068614028839836
9.80775e-06;0.00507415858426235
9.80800e-06;0.005079703139684828
9.80825e-06;0.0050852476951073425
9.80850e-06;0.005090792250529857
9.80875e-06;0.005096336805952334
9.80900e-06;0.005101881361374849
9.80925e-06;0.005106782701066621
9.80950e-06;0.005105722904993692
9.80975e-06;0.005104663108920756
9.81000e-06;0.00510360331284782
9.81025e-06;0.00510254351677489
9.81050e-06;0.005101483720701954
9.81075e-06;0.005100423924629018
9.81100e-06;0.005099364128556081
9.81125e-06;0.005098304332483153
9.81150e-06;0.005097244536410216
9.81175e-06;0.005081001739846643
9.81200e-06;0.0050545265008339
9.81225e-06;0.005028051261820978
9.81250e-06;0.005001576022808055
9.81275e-06;0.004975100783795311
9.81300e-06;0.004948625544782389
9.81325e-06;0.004922150305769466
9.81350e-06;0.004895675066756723
9.81375e-06;0.004869199827743801
9.81400e-06;0.004842724588730878
9.81425e-06;0.00481377328073196
9.81450e-06;0.0047618744876363256
9.81475e-06;0.004709975694540691
9.81500e-06;0.0046580769014454085
9.81525e-06;0.004606178108349774
9.81550e-06;0.00455427931525414
9.81575e-06;0.004502380522158858
9.81600e-06;0.004450481729063224
9.81625e-06;0.00439858293596759
9.81650e-06;0.004346684142872308
9.81675e-06;0.0042947853497766735
9.81700e-06;0.004239442324165315
9.81725e-06;0.004181778089974526
9.81750e-06;0.0041241138557833465
9.81775e-06;0.004066449621592167
9.81800e-06;0.004008785387401379
9.81825e-06;0.0039511211532102
9.81850e-06;0.0038934569190190206
9.81875e-06;0.0038357926848282316
9.81900e-06;0.003786931575723858
9.81925e-06;0.003744003251177193
9.81950e-06;0.003701074926630528
9.81975e-06;0.003658146602084154
9.82000e-06;0.003615218277537489
9.82025e-06;0.003572289952990824
9.82050e-06;0.00352936162844445
9.82075e-06;0.003486433303897785
9.82100e-06;0.0034568563972707145
9.82125e-06;0.003436277554999371
9.82150e-06;0.003415698712727887
9.82175e-06;0.003395119870456404
9.82200e-06;0.00337454102818506
9.82225e-06;0.0033539621859135765
9.82250e-06;0.003333383343642093
9.82275e-06;0.0033128045013707495
9.82300e-06;0.003292225659099266
9.82325e-06;0.0032716468168277825
9.82350e-06;0.003251067974556439
9.82375e-06;0.0032414075614882816
9.82400e-06;0.003239105522581629
9.82425e-06;0.0032368034836749915
9.82450e-06;0.0032345014447683383
9.82475e-06;0.0032321994058616857
9.82500e-06;0.003229897366955048
9.82525e-06;0.003227595328048395
9.82550e-06;0.0032252932891417424
9.82575e-06;0.003222991250235105
9.82600e-06;0.0032206892113284522
9.82625e-06;0.003218387172421799
9.82650e-06;0.0032209962587284877
9.82675e-06;0.003226915152352927
9.82700e-06;0.0032328340459773664
9.82725e-06;0.003238752939601766
9.82750e-06;0.0032446718332262052
9.82775e-06;0.0032505907268506446
9.82800e-06;0.003256509620475084
9.82825e-06;0.0032624285140994834
9.82850e-06;0.0032683474077239228
9.82875e-06;0.003274266301348362
9.82900e-06;0.0032801851949727616
9.82925e-06;0.0032844988355508367
9.82950e-06;0.003287730630716865
9.82975e-06;0.0032909624258828716
9.83000e-06;0.0032941942210489
9.83025e-06;0.0032974260162149283
9.83050e-06;0.003300657811380935
9.83075e-06;0.0033038896065469637
9.83100e-06;0.003307121401712992
9.83125e-06;0.0033103531968789986
9.83150e-06;0.003313584992045027
9.83175e-06;0.0033168167872110552
9.83200e-06;0.0033137505415958782
9.83225e-06;0.003306439789770307
9.83250e-06;0.003299129037944736
9.83275e-06;0.0032918182861192144
9.83300e-06;0.0032845075342936435
9.83325e-06;0.003277196782468072
9.83350e-06;0.0032698860306425506
9.83375e-06;0.0032625752788169797
9.83400e-06;0.0032552645269914087
9.83425e-06;0.0032479537751658872
9.83450e-06;0.003240643023340316
9.83475e-06;0.003233332271514745
9.83500e-06;0.003225263821718632
9.83525e-06;0.0032101732481395508
9.83550e-06;0.0031950826745604697
9.83575e-06;0.003179992100981491
9.83600e-06;0.0031649015274024094
9.83625e-06;0.0031498109538233283
9.83650e-06;0.0031347203802442472
9.83675e-06;0.0031196298066652685
9.83700e-06;0.0031045392330861874
9.83725e-06;0.0030894486595071063
9.83750e-06;0.003074358085928127
9.83775e-06;0.003059267512349046
9.83800e-06;0.003044176938769965
9.83825e-06;0.0030305979751058553
9.83850e-06;0.003018037746933452
9.83875e-06;0.003005477518761049
9.83900e-06;0.002992917290588731
9.83925e-06;0.002980357062416328
9.83950e-06;0.002967796834243925
9.83975e-06;0.002955236606071607
9.84000e-06;0.0029426763778992037
9.84025e-06;0.0029301161497268004
9.84050e-06;0.0029175559215544825
9.84075e-06;0.0029049956933820792
9.84100e-06;0.0028924354652096764
9.84125e-06;0.002879875237037358
9.84150e-06;0.002869154791293071
9.84175e-06;0.0028596742498643766
9.84200e-06;0.0028501937084357463
9.84225e-06;0.002840713167007052
9.84250e-06;0.0028312326255783577
9.84275e-06;0.0028217520841497274
9.84300e-06;0.0028122715427210333
9.84325e-06;0.002802791001292339
9.84350e-06;0.0027933104598637085
9.84375e-06;0.0027838299184350145
9.84400e-06;0.00277434937700632
9.84425e-06;0.0027648688355776897
9.84450e-06;0.0027553882941489956
9.84475e-06;0.0027456343847590777
9.84500e-06;0.002735696241565356
9.84525e-06;0.002725758098371702
9.84550e-06;0.00271581995517798
9.84575e-06;0.0027058818119842583
9.84600e-06;0.0026959436687906038
9.84625e-06;0.002686005525596882
9.84650e-06;0.00267606738240316
9.84675e-06;0.0026661292392095057
9.84700e-06;0.002656191096015784
9.84725e-06;0.002646388231411298
9.84750e-06;0.002637839089314632
9.84775e-06;0.002629289947217908
9.84800e-06;0.0026207408051211844
9.84825e-06;0.0026121916630245184
9.84850e-06;0.0026036425209277946
9.84875e-06;0.002595093378831071
9.84900e-06;0.0025865442367344047
9.84925e-06;0.002577995094637681
9.84950e-06;0.002569445952540957
9.84975e-06;0.0025608968104442915
9.85000e-06;0.002557729082121365
9.85025e-06;0.0025581881077353296
9.85050e-06;0.0025586471333492915
9.85075e-06;0.002559106158963256
9.85100e-06;0.0025595651845772205
9.85125e-06;0.0025600242101911823
9.85150e-06;0.0025750353880815897
9.85175e-06;0.0025998538541266085
9.85200e-06;0.0026246723201714586
9.85225e-06;0.002649490786216477
9.85250e-06;0.0026743092522614957
9.85275e-06;0.0026991277183063458
9.85300e-06;0.0027370950673756837
9.85325e-06;0.002783923984292928
9.85350e-06;0.002830752901210173
9.85375e-06;0.0028853473334755435
9.85400e-06;0.0029451752628381982
9.85425e-06;0.003005003192200853
9.85450e-06;0.003075334025625559
9.85475e-06;0.003152743193901062
9.85500e-06;0.003230152362176565
9.85525e-06;0.0033075615304515435
9.85550e-06;0.0033849706987270464
9.85575e-06;0.0034623798670025494
9.85600e-06;0.003541079125742826
9.85625e-06;0.003631734566637283
9.85650e-06;0.00372239000753174
9.85675e-06;0.003813045448425583
9.85700e-06;0.00390370088932004
9.85725e-06;0.0039943563302144965
9.85750e-06;0.004085011771108339
9.85775e-06;0.004172752790085069
9.85800e-06;0.004258529661421427
9.85825e-06;0.004344306532757203
9.85850e-06;0.004430083404093561
9.85875e-06;0.004515860275429919
9.85900e-06;0.0046016371467656955
9.85925e-06;0.004687414018102054
9.85950e-06;0.004756381344479228
9.85975e-06;0.004814020033822255
9.86000e-06;0.004871658723165674
9.86025e-06;0.004929297412509092
9.86050e-06;0.0049869361018521205
9.86075e-06;0.005044574791195538
9.86100e-06;0.005102213480538957
9.86125e-06;0.005141763951698365
9.86150e-06;0.00516912403585456
9.86175e-06;0.005196484120010755
9.86200e-06;0.005212013837412017
9.86225e-06;0.005219570588782481
9.86250e-06;0.0052271273401529456
9.86275e-06;0.005214480310760577
9.86300e-06;0.005188217130571898
9.86325e-06;0.005161953950383041
9.86350e-06;0.005135690770194184
9.86375e-06;0.005109427590005505
9.86400e-06;0.005083164409816648
9.86425e-06;0.0050569012296277915
9.86450e-06;0.005030638049439112
9.86475e-06;0.004982207605720416
9.86500e-06;0.004918837740191123
9.86525e-06;0.00485546787466226
9.86550e-06;0.004792098009132968
9.86575e-06;0.004728728143603675
9.86600e-06;0.004665358278074811
9.86625e-06;0.004601988412545518
9.86650e-06;0.004538618547016225
9.86675e-06;0.0044666564054882
9.86700e-06;0.004388903579182664
9.86725e-06;0.0043111507528771275
9.86750e-06;0.004233397926572118
9.86775e-06;0.004155645100266582
9.86800e-06;0.004077892273961046
9.86825e-06;0.004000907546865823
9.86850e-06;0.003931041339222625
9.86875e-06;0.0038611751315794285
9.86900e-06;0.003791308923936705
9.86925e-06;0.0037214427162935077
9.86950e-06;0.003651576508650311
9.86975e-06;0.003581710301007587
9.87000e-06;0.003531018406965181
9.87025e-06;0.0034932488638694187
9.87050e-06;0.0034554793207739122
9.87075e-06;0.00341770977767815
9.87100e-06;0.0033799402345823875
9.87125e-06;0.003342170691486625
9.87150e-06;0.003304401148391119
9.87175e-06;0.0032666316052953567
9.87200e-06;0.0032288620621995943
9.87225e-06;0.003191092519104088
9.87250e-06;0.003156838638481079
9.87275e-06;0.003155166892285295
9.87300e-06;0.003153495146089523
9.87325e-06;0.003151823399893739
9.87350e-06;0.003150151653697955
9.87375e-06;0.0031484799075021824
9.87400e-06;0.0031468081613063984
9.87425e-06;0.0031451364151106145
9.87450e-06;0.003143464668914842
9.87475e-06;0.003141792922719058
9.87500e-06;0.003140121176523274
9.87525e-06;0.0031509588657943973
9.87550e-06;0.0031702271731635996
9.87575e-06;0.003189495480532802
9.87600e-06;0.003208763787901874
9.87625e-06;0.0032280320952710762
9.87650e-06;0.0032473004026402786
9.87675e-06;0.0032665687100093504
9.87700e-06;0.003285837017378553
9.87725e-06;0.003308442247471757
9.87750e-06;0.0033332963657088602
9.87775e-06;0.003358150483946132
9.87800e-06;0.003383004602183404
9.87825e-06;0.0034078587204205077
9.87850e-06;0.0034327128386577796
9.87875e-06;0.0034575669568950515
9.87900e-06;0.003482421075132155
9.87925e-06;0.003499976898730743
9.87950e-06;0.003512614104295961
9.87975e-06;0.0035252513098611793
9.88000e-06;0.0035378885154263118
9.88025e-06;0.00355052572099153
9.88050e-06;0.0035631629265567484
9.88075e-06;0.0035758001321218808
9.88100e-06;0.0035884373376870986
9.88125e-06;0.003601074543252317
9.88150e-06;0.0036137117488174494
9.88175e-06;0.0036263489543826677
9.88200e-06;0.003638986159947886
9.88225e-06;0.0036516233655130184
9.88250e-06;0.0036501148864715115
9.88275e-06;0.003639073054386661
9.88300e-06;0.003628031222301885
9.88325e-06;0.0036169893902170346
9.88350e-06;0.0036059475581321837
9.88375e-06;0.003594905726047408
9.88400e-06;0.0035838638939625573
9.88425e-06;0.0035728220618777068
9.88450e-06;0.003561780229792931
9.88475e-06;0.0035507383977080803
9.88500e-06;0.0035396965656232294
9.88525e-06;0.0035286547335384535
9.88550e-06;0.003517612901453603
9.88575e-06;0.003498998871951236
9.88600e-06;0.003475281630175738
9.88625e-06;0.0034515643884000797
9.88650e-06;0.0034278471466244213
9.88675e-06;0.0034041299048489237
9.88700e-06;0.0033804126630732653
9.88725e-06;0.003356695421297607
9.88750e-06;0.0033329781795221093
9.88775e-06;0.003309260937746451
9.88800e-06;0.003286462286026603
9.88825e-06;0.0032642827095617777
9.88850e-06;0.003242103133097103
9.88875e-06;0.0032199235566322776
9.88900e-06;0.0031977439801674523
9.88925e-06;0.0031755644037027774
9.88950e-06;0.003153384827237952
9.88975e-06;0.0031312052507731273
9.89000e-06;0.003109025674308452
9.89025e-06;0.0030934114053279413
9.89050e-06;0.0030822217644824613
9.89075e-06;0.0030710321236370568
9.89100e-06;0.003059842482791577
9.89125e-06;0.0030486528419460964
9.89150e-06;0.003037463201100692
9.89175e-06;0.003026273560255212
9.89200e-06;0.0030150839194097315
9.89225e-06;0.0030038942785643274
9.89250e-06;0.002992704637718847
9.89275e-06;0.002981514996873367
9.89300e-06;0.0029703253560279625
9.89325e-06;0.002959135715182482
9.89350e-06;0.0029514500799259075
9.89375e-06;0.0029480845965461013
9.89400e-06;0.0029447191131662725
9.89425e-06;0.0029413536297864433
9.89450e-06;0.002937988146406637
9.89475e-06;0.0029346226630268084
9.89500e-06;0.002931257179646979
9.89525e-06;0.002927891696267173
9.89550e-06;0.0029245262128873442
9.89575e-06;0.002921160729507515
9.89600e-06;0.002917795246127709
9.89625e-06;0.0029144297627478797
9.89650e-06;0.002911064279368051
9.89675e-06;0.0029086178544861312
9.89700e-06;0.002908333397527759
9.89725e-06;0.0029080489405693844
9.89750e-06;0.00290776448361101
9.89775e-06;0.002907480026652637
9.89800e-06;0.002907195569694263
9.89825e-06;0.0029069111127358886
9.89850e-06;0.002906626655777516
9.89875e-06;0.0029067934611035073
9.89900e-06;0.0029070742859038405
9.89925e-06;0.002907355110704172
9.89950e-06;0.002907635935504505
9.89975e-06;0.002907916760304838
9.90000e-06;0.0029081975851051696
