Time(s);Current(A)
8.00000e-06;0.0012425964689721355
8.00025e-06;0.0012731864574271046
8.00050e-06;0.001303776445882281
8.00075e-06;0.0013322810589230217
8.00100e-06;0.00135644317538336
8.00125e-06;0.0013806052918438623
8.00150e-06;0.0014016782779816474
8.00175e-06;0.0014163185912442892
8.00200e-06;0.0014309589045070298
8.00225e-06;0.0014427486822423357
8.00250e-06;0.0014486026267003832
8.00275e-06;0.00145217057065671
8.00300e-06;0.0014509782449305547
8.00325e-06;0.0014474000216099913
8.00350e-06;0.0014388535071733599
8.00375e-06;0.0014278737337229082
8.00400e-06;0.0014118270457623378
8.00425e-06;0.0013930018463784088
8.00450e-06;0.0013683907936318347
8.00475e-06;0.0013437797408854275
8.00500e-06;0.0013161861021256075
8.00525e-06;0.0012823816538041458
8.00550e-06;0.001248577205482913
8.00575e-06;0.0012121697675109234
8.00600e-06;0.0011703419752091494
8.00625e-06;0.001128514182907659
8.00650e-06;0.0010847660625620903
8.00675e-06;0.0010370191332220258
8.00700e-06;0.0009892722038822848
8.00725e-06;0.000940161282660655
8.00750e-06;0.0008882100430766412
8.00775e-06;0.0008362588034929794
8.00800e-06;0.0007843075639089657
8.00825e-06;0.0007320940236412347
8.00850e-06;0.0006793342796471328
8.00875e-06;0.0006265745356533885
8.00900e-06;0.0005738147916592866
8.00925e-06;0.0005218350239585261
8.00950e-06;0.00047147944553538963
8.00975e-06;0.0004221611728394842
8.01000e-06;0.00037500294122998326
8.01025e-06;0.0003289007909030515
8.01050e-06;0.00028585236187785994
8.01075e-06;0.0002455509281143987
8.01100e-06;0.00020828527961781445
8.01125e-06;0.00017398403379735556
8.01150e-06;0.0001419409320841224
8.01175e-06;0.00011135932076450475
8.01200e-06;8.204396109849984e-05
8.01225e-06;5.418033564277559e-05
8.01250e-06;2.797661130831881e-05
8.01275e-06;3.6409002415069302e-06
8.01300e-06;-1.8655738610728264e-05
8.01325e-06;-3.8967874924808704e-05
8.01350e-06;-5.7747747702039234e-05
8.01375e-06;-7.550416875849694e-05
8.01400e-06;-9.23691872710197e-05
8.01425e-06;-0.00010823638587086918
8.01450e-06;-0.00012298513842834937
8.01475e-06;-0.0001364948673849812
8.01500e-06;-0.0001486682167577803
8.01525e-06;-0.00015954915983326293
8.01550e-06;-0.000169430760998613
8.01575e-06;-0.00017864149108342875
8.01600e-06;-0.00018716353387867934
8.01625e-06;-0.00019504114770388384
8.01650e-06;-0.00020243496878510968
8.01675e-06;-0.00020882136054542542
8.01700e-06;-0.0002146968136126266
8.01725e-06;-0.0002195083097954045
8.01750e-06;-0.00022402992973133098
8.01775e-06;-0.00022794792376720454
8.01800e-06;-0.00023159636482338587
8.01825e-06;-0.00023468350028206137
8.01850e-06;-0.0002377706357407369
8.01875e-06;-0.00024044589240212008
8.01900e-06;-0.00024226347026988878
8.01925e-06;-0.00024408104813765748
8.01950e-06;-0.0002458986260054139
8.01975e-06;-0.00024753825863618533
8.02000e-06;-0.00024880734571516643
8.02025e-06;-0.0002500764327941389
8.02050e-06;-0.00025134551987312
8.02075e-06;-0.0002525212201662333
8.02100e-06;-0.00025350245581007877
8.02125e-06;-0.00025418135639670113
8.02150e-06;-0.000253698825070806
8.02175e-06;-0.00025147345676847785
8.02200e-06;-0.0002473148020649205
8.02225e-06;-0.00024130743595881003
8.02250e-06;-0.00023355178671582606
8.02275e-06;-0.0002241482523313048
8.02300e-06;-0.00021317234778239525
8.02325e-06;-0.00020055270361099905
8.02350e-06;-0.00018597585557310009
8.02375e-06;-0.00016913756074832102
8.02400e-06;-0.0001500253032112563
8.02425e-06;-0.0001287988389346721
8.02450e-06;-0.00010562783616870396
8.02475e-06;-8.068194841721847e-05
8.02500e-06;-5.4115215541807546e-05
8.02525e-06;-2.5989670926635102e-05
8.02550e-06;3.784284319200009e-06
8.02575e-06;3.5290468243095586e-05
8.02600e-06;6.842995979040829e-05
8.02625e-06;0.00010299592957038571
8.02650e-06;0.0001387753598160351
8.02675e-06;0.00017566454108350774
8.02700e-06;0.00021335998236213675
8.02725e-06;0.00025153829263533354
8.02750e-06;0.00029072210865415836
8.02775e-06;0.0003299059246729831
8.02800e-06;0.0003692314929034234
8.02825e-06;0.0004088522398782567
8.02850e-06;0.00044847298685309
8.02875e-06;0.0004880937338276549
8.02900e-06;0.0005268556773944238
8.02925e-06;0.0005638292854700649
8.02950e-06;0.0006008028935454554
8.02975e-06;0.0006377765016210965
8.03000e-06;0.0006734900230668752
8.03025e-06;0.000706579594000604
8.03050e-06;0.0007384065431091289
8.03075e-06;0.000767604262522916
8.03100e-06;0.0007952439744169011
8.03125e-06;0.0008196393580785139
8.03150e-06;0.000842400716121046
8.03175e-06;0.0008617594490913463
8.03200e-06;0.0008794472568361296
8.03225e-06;0.0008936556013459547
8.03250e-06;0.0009061107235545601
8.03275e-06;0.0009149150106175479
8.03300e-06;0.0009219069396996912
8.03325e-06;0.0009251248920256204
8.03350e-06;0.000926608789450959
8.03375e-06;0.0009244817651058519
8.03400e-06;0.0009207234627838083
8.03425e-06;0.000913568256962214
8.03450e-06;0.0009048561294589379
8.03475e-06;0.0008929019348256478
8.03500e-06;0.0008791477639117343
8.03525e-06;0.0008616453993644319
8.03550e-06;0.0008441430348171296
8.03575e-06;0.0008248449964254974
8.03600e-06;0.0008018077236095943
8.03625e-06;0.0007787704507936914
8.03650e-06;0.0007543381437209208
8.03675e-06;0.0007270008769678035
8.03700e-06;0.0006996636102146863
8.03725e-06;0.0006712539174336823
8.03750e-06;0.000640611050552325
8.03775e-06;0.0006099681836709677
8.03800e-06;0.000579325316789818
8.03825e-06;0.0005486824499084607
8.03850e-06;0.0005175094865941943
8.03875e-06;0.0004862236320205273
8.03900e-06;0.0004549377774466484
8.03925e-06;0.0004236519228727694
8.03950e-06;0.0003929585466037165
8.03975e-06;0.0003634989218196492
8.04000e-06;0.0003347957956232324
8.04025e-06;0.0003076679697355425
8.04050e-06;0.00028127752224508916
8.04075e-06;0.0002570047627072039
8.04100e-06;0.0002345773724029626
8.04125e-06;0.00021407967567148664
8.04150e-06;0.00019539369948625064
8.04175e-06;0.00017834167080801742
8.04200e-06;0.00016289322894312601
8.04225e-06;0.0001491200937792117
8.04250e-06;0.00013710033711917055
8.04275e-06;0.0001269119859434866
8.04300e-06;0.00011862233748763012
8.04325e-06;0.00011223099552496624
8.04350e-06;0.00010761086281215636
8.04375e-06;0.0001045974109381756
8.04400e-06;0.0001031184325083622
8.04425e-06;0.00010316568485981792
8.04450e-06;0.00010473488756335674
8.04475e-06;0.00010782174288855773
8.04500e-06;0.00011241521638293631
8.04525e-06;0.00011846187584167692
8.04550e-06;0.0001258289415926708
8.04575e-06;0.00013436018924651942
8.04600e-06;0.00014395723036253992
8.04625e-06;0.00015456173691930582
8.04650e-06;0.00016625708039414892
8.04675e-06;0.0001788597010940575
8.04700e-06;0.0001919655439557055
8.04725e-06;0.00020611927512758263
8.04750e-06;0.000220656488073371
8.04775e-06;0.00023599224706615226
8.04800e-06;0.0002513280060588296
8.04825e-06;0.00026684984305748753
8.04850e-06;0.00028275916093835644
8.04875e-06;0.0002986684788191176
8.04900e-06;0.0003145777966999865
8.04925e-06;0.0003304871145808554
8.04950e-06;0.00034533349894966817
8.04975e-06;0.0003599535171413038
8.05000e-06;0.00037457353533293933
8.05025e-06;0.0003891935535244759
8.05050e-06;0.0004028985974384983
8.05075e-06;0.0004146983380435546
8.05100e-06;0.0004264980786485309
8.05125e-06;0.00043810978280519794
8.05150e-06;0.000449329927902666
8.05175e-06;0.00046055007300013404
8.05200e-06;0.00047177021809752603
8.05225e-06;0.00048350749588516685
8.05250e-06;0.0004963216286729198
8.05275e-06;0.0005091357614605859
8.05300e-06;0.0005219498942483387
8.05325e-06;0.0005352723038521463
8.05350e-06;0.0005496531273624374
8.05375e-06;0.0005640339508728259
8.05400e-06;0.0005796019244896923
8.05425e-06;0.000597641968722773
8.05450e-06;0.0006156820129559759
8.05475e-06;0.0006337220571891788
8.05500e-06;0.0006517621014222595
8.05525e-06;0.0006698021456554625
8.05550e-06;0.0006878421898886654
8.05575e-06;0.0007058822341217461
8.05600e-06;0.0007267250636684828
8.05625e-06;0.0007481647845449977
8.05650e-06;0.0007696045054213673
8.05675e-06;0.0007910442262978822
8.05700e-06;0.0008124839471743972
8.05725e-06;0.0008339236680507668
8.05750e-06;0.0008553633889272817
8.05775e-06;0.0008768694762200568
8.05800e-06;0.0008985137620999393
8.05825e-06;0.0009201580479799685
8.05850e-06;0.0009418023338599977
8.05875e-06;0.0009634466197398803
8.05900e-06;0.0009850909056199095
8.05925e-06;0.0010067351914999387
8.05950e-06;0.001026931360709547
8.05975e-06;0.0010441120336893276
8.06000e-06;0.0010612927066691081
8.06025e-06;0.0010784733796488889
8.06050e-06;0.001095654052628553
8.06075e-06;0.0011128347256083337
8.06100e-06;0.0011300153985881142
8.06125e-06;0.001145173434659566
8.06150e-06;0.0011561196181249871
8.06175e-06;0.0011670658015904083
8.06200e-06;0.0011765198989172523
8.06225e-06;0.0011828669398734858
8.06250e-06;0.001189213980829719
8.06275e-06;0.0011939930717684366
8.06300e-06;0.0011955071306390139
8.06325e-06;0.0011970211895095911
8.06350e-06;0.0011969788932237057
8.06375e-06;0.0011936957095124204
8.06400e-06;0.0011904125258011351
8.06425e-06;0.0011847394687578888
8.06450e-06;0.0011740898416832896
8.06475e-06;0.0011634402146086904
8.06500e-06;0.0011527905875341634
8.06525e-06;0.001142140960459564
8.06550e-06;0.0011314913333849647
8.06575e-06;0.0011208417063104377
8.06600e-06;0.0011101920792358385
8.06625e-06;0.0010935193606113117
8.06650e-06;0.001075563942556177
8.06675e-06;0.001057608524500921
8.06700e-06;0.0010396531064456648
8.06725e-06;0.0010216976883905301
8.06750e-06;0.001003742270335274
8.06775e-06;0.0009857868522800178
8.06800e-06;0.0009671906431604085
8.06825e-06;0.0009472600781291632
8.06850e-06;0.0009273295130979178
8.06875e-06;0.0009073989480666725
8.06900e-06;0.0008874683830355622
8.06925e-06;0.0008675378180043169
8.06950e-06;0.0008485430753391752
8.06975e-06;0.0008314970491522731
8.07000e-06;0.0008144510229652556
8.07025e-06;0.000797404996778238
8.07050e-06;0.000780358970591336
8.07075e-06;0.0007633129444043185
8.07100e-06;0.0007478424439214241
8.07125e-06;0.0007356527507934375
8.07150e-06;0.0007234630576653683
8.07175e-06;0.0007124356329024569
8.07200e-06;0.0007038284660832408
8.07225e-06;0.0006952212992639664
8.07250e-06;0.0006878578040360539
8.07275e-06;0.0006830840773492402
8.07300e-06;0.0006783103506623942
8.07325e-06;0.0006747862755440986
8.07350e-06;0.0006738644214156626
8.07375e-06;0.0006729425672872203
8.07400e-06;0.0006731430352763389
8.07425e-06;0.0006756805788513022
8.07450e-06;0.0006782181224262826
8.07475e-06;0.0006818135932066548
8.07500e-06;0.0006876120463612787
8.07525e-06;0.000693410499515942
8.07550e-06;0.0007005580013516128
8.07575e-06;0.0007105147044737184
8.07600e-06;0.0007204714075958914
8.07625e-06;0.0007304281107180645
8.07650e-06;0.00074038481384017
8.07675e-06;0.000750341516962343
8.07700e-06;0.0007602982200845161
8.07725e-06;0.0007712537835246202
8.07750e-06;0.000784289330978442
8.07775e-06;0.0007973248784323521
8.07800e-06;0.0008103604258862622
8.07825e-06;0.0008233959733400841
8.07850e-06;0.0008364315207939942
8.07875e-06;0.0008494670682479043
8.07900e-06;0.0008623433966633416
8.07925e-06;0.0008748881741616681
8.07950e-06;0.0008874329516599946
8.07975e-06;0.0008999777291582361
8.08000e-06;0.0009125225066565627
8.08025e-06;0.0009250672841548892
8.08050e-06;0.0009342449814510373
8.08075e-06;0.0009427056131297753
8.08100e-06;0.0009511662448085132
8.08125e-06;0.0009596268764871939
8.08150e-06;0.0009680875081659318
8.08175e-06;0.0009741951564491258
8.08200e-06;0.0009754030527245675
8.08225e-06;0.0009750408273071431
8.08250e-06;0.0009714090476159263
8.08275e-06;0.0009662865540341154
8.08300e-06;0.000958059861590374
8.08325e-06;0.0009481920903034472
8.08350e-06;0.0009349070066072911
8.08375e-06;0.0009197849116892166
8.08400e-06;0.0009008375031546302
8.08425e-06;0.0008802305754158333
8.08450e-06;0.0008561679358478323
8.08475e-06;0.0008306587712732614
8.08500e-06;0.0008021374248794819
8.08525e-06;0.0007722385655629958
8.08550e-06;0.0007394712322398597
8.08575e-06;0.0007053668830291518
8.08600e-06;0.0006684783891059314
8.08625e-06;0.0006305272752688998
8.08650e-06;0.0005903634071619981
8.08675e-06;0.0005492889490459048
8.08700e-06;0.0005063183172310326
8.08725e-06;0.0004633476854161604
8.08750e-06;0.00041964566777145826
8.08775e-06;0.0003744206435481306
8.08800e-06;0.000329195619324803
8.08825e-06;0.0002839705951017818
8.08850e-06;0.00023874557087845416
8.08875e-06;0.00019352054665512652
8.08900e-06;0.00014863731117521084
8.08925e-06;0.00010477018122347835
8.08950e-06;6.189758356626968e-05
8.08975e-06;2.0214905795065774e-05
8.09000e-06;-2.00204339197987e-05
8.09025e-06;-5.851528603212888e-05
8.09050e-06;-9.497450911770951e-05
8.09075e-06;-0.00012910300432574288
8.09100e-06;-0.00016065601660570237
8.09125e-06;-0.00018969538390087643
8.09150e-06;-0.00021682322322329577
8.09175e-06;-0.000242718276186365
8.09200e-06;-0.00026754700619149125
8.09225e-06;-0.0002909050375330212
8.09250e-06;-0.0003128417004938188
8.09275e-06;-0.00033398098070788306
8.09300e-06;-0.0003526451587322969
8.09325e-06;-0.0003696129101673011
8.09350e-06;-0.0003859256133282468
8.09375e-06;-0.00040087427197339987
8.09400e-06;-0.00041529823011034504
8.09425e-06;-0.00042862957434510216
8.09450e-06;-0.00044130539348134307
8.09475e-06;-0.00045261617518281094
8.09500e-06;-0.0004630997324779233
8.09525e-06;-0.0004718607130411022
8.09550e-06;-0.00048062169360434044
8.09575e-06;-0.0004888231780605994
8.09600e-06;-0.0004958595917475225
8.09625e-06;-0.0005028960054344934
8.09650e-06;-0.0005093252688910901
8.09675e-06;-0.0005144902286694434
8.09700e-06;-0.0005196551884478318
8.09725e-06;-0.000524082498527555
8.09750e-06;-0.0005269737584163433
8.09775e-06;-0.0005298650183051513
8.09800e-06;-0.0005327562781939592
8.09825e-06;-0.0005356475380827475
8.09850e-06;-0.0005385387979715555
8.09875e-06;-0.0005414300578603634
8.09900e-06;-0.0005443213177491517
8.09925e-06;-0.0005458636294333292
8.09950e-06;-0.0005471186642128381
8.09975e-06;-0.0005483736989923385
8.10000e-06;-0.0005496287337718474
8.10025e-06;-0.0005508837685513563
8.10050e-06;-0.0005521388033308567
8.10075e-06;-0.0005533938381103656
8.10100e-06;-0.0005552419040793183
8.10125e-06;-0.0005583248728395793
8.10150e-06;-0.0005614078415998611
8.10175e-06;-0.0005644908103601429
8.10200e-06;-0.0005675737791204038
8.10225e-06;-0.0005706567478806856
8.10250e-06;-0.0005737397166409674
8.10275e-06;-0.0005768226854012492
8.10300e-06;-0.00057990565416151
8.10325e-06;-0.0005829886229217918
8.10350e-06;-0.0005860715916820736
8.10375e-06;-0.0005891545604423345
8.10400e-06;-0.0005922375292026163
8.10425e-06;-0.0005969592489719458
8.10450e-06;-0.0006050934337711194
8.10475e-06;-0.0006132276185703481
8.10500e-06;-0.0006213618033695768
8.10525e-06;-0.0006294959881687504
8.10550e-06;-0.0006376301729679792
8.10575e-06;-0.0006457643577672078
8.10600e-06;-0.0006538985425663815
8.10625e-06;-0.0006620327273656101
8.10650e-06;-0.0006701669121648389
8.10675e-06;-0.0006783010969640125
8.10700e-06;-0.0006864352817632412
8.10725e-06;-0.00069456946656247
8.10750e-06;-0.000703257070601102
8.10775e-06;-0.0007130970912005665
8.10800e-06;-0.0007229371118000311
8.10825e-06;-0.000732777132399429
8.10850e-06;-0.0007426171529988936
8.10875e-06;-0.0007524571735983581
8.10900e-06;-0.0007622971941977561
8.10925e-06;-0.0007721372147972206
8.10950e-06;-0.000780431376559767
8.10975e-06;-0.000788396326614597
8.11000e-06;-0.0007963612766694809
8.11025e-06;-0.0008043262267243649
8.11050e-06;-0.0008122911767791949
8.11075e-06;-0.0008202561268340788
8.11100e-06;-0.0008282210768889628
8.11125e-06;-0.0008350195952566783
8.11150e-06;-0.0008393891861537716
8.11175e-06;-0.0008437587770508946
8.11200e-06;-0.0008470191954865195
8.11225e-06;-0.0008479699206147685
8.11250e-06;-0.000848920645743024
8.11275e-06;-0.0008480956311721926
8.11300e-06;-0.0008435728921798242
8.11325e-06;-0.000839050153187425
8.11350e-06;-0.0008345274141950259
8.11375e-06;-0.0008300046752026574
8.11400e-06;-0.0008254819362102584
8.11425e-06;-0.0008209591972178592
8.11450e-06;-0.0008115154512529283
8.11475e-06;-0.0007993810002827001
8.11500e-06;-0.0007872465493124719
8.11525e-06;-0.000775112098342326
8.11550e-06;-0.0007629776473720978
8.11575e-06;-0.0007508431964018698
8.11600e-06;-0.0007387087454317238
8.11625e-06;-0.0007224125011853141
8.11650e-06;-0.0007059812613504886
8.11675e-06;-0.0006892815316713613
8.11700e-06;-0.0006721475129555972
8.11725e-06;-0.0006550134942398331
8.11750e-06;-0.000638985336579587
8.11775e-06;-0.0006180025139776594
8.11800e-06;-0.000599120167056059
8.11825e-06;-0.0005802378201345866
8.11850e-06;-0.0005613554732129862
8.11875e-06;-0.0005425736489913615
8.11900e-06;-0.0005243315936158904
8.11925e-06;-0.0005060895382402958
8.11950e-06;-0.0004878474828647012
8.11975e-06;-0.0004698878104405159
8.12000e-06;-0.00045344442756960055
8.12025e-06;-0.00043700104469857374
8.12050e-06;-0.0004209256407891232
8.12075e-06;-0.0004068261446053018
8.12100e-06;-0.00039316664041764017
8.12125e-06;-0.00038186972669138487
8.12150e-06;-0.0003709998605263118
8.12175e-06;-0.000362743965763919
8.12200e-06;-0.00035649640557176756
8.12225e-06;-0.00035209245837702696
8.12250e-06;-0.00034969633478201714
8.12275e-06;-0.00034940958039547367
8.12300e-06;-0.0003511510563110551
8.12325e-06;-0.00035501473383715626
8.12350e-06;-0.0003610384519541459
8.12375e-06;-0.00036928980030850867
8.12400e-06;-0.0003797260590646265
8.12425e-06;-0.00039230760932988147
8.12450e-06;-0.0004074153349602934
8.12475e-06;-0.0004231083633523957
8.12500e-06;-0.0004419442460086719
8.12525e-06;-0.00046132530276364765
8.12550e-06;-0.0004836337380546995
8.12575e-06;-0.0005064298079911396
8.12600e-06;-0.0005318442913798531
8.12625e-06;-0.0005577359460337861
8.12650e-06;-0.0005861898297487601
8.12675e-06;-0.0006146437134635412
8.12700e-06;-0.0006435773792625437
8.12725e-06;-0.0006750872932323286
8.12750e-06;-0.0007065972072019001
8.12775e-06;-0.000738107121171685
8.12800e-06;-0.00076961703514147
8.12825e-06;-0.0008011730738848991
8.12850e-06;-0.0008329767852021633
8.12875e-06;-0.0008647804965196429
8.12900e-06;-0.0008965842078371225
8.12925e-06;-0.0009283879191543866
8.12950e-06;-0.0009597424215627404
8.12975e-06;-0.000988684842175761
8.13000e-06;-0.0010176272627885857
8.13025e-06;-0.0010458917873396529
8.13050e-06;-0.0010705162666533442
8.13075e-06;-0.0010951407459668689
8.13100e-06;-0.0011188091190542928
8.13125e-06;-0.001137343563637252
8.13150e-06;-0.0011558780082200854
8.13175e-06;-0.0011733002640127907
8.13200e-06;-0.0011847504870166152
8.13225e-06;-0.0011962007100203623
8.13250e-06;-0.0012064856079294021
8.13275e-06;-0.0012105131512084523
8.13300e-06;-0.0012145406944874752
8.13325e-06;-0.001217378537717012
8.13350e-06;-0.0012138281420370335
8.13375e-06;-0.001210277746357079
8.13400e-06;-0.0012056064682951632
8.13425e-06;-0.0011949164761479517
8.13450e-06;-0.0011842264840008125
8.13475e-06;-0.001172522064847307
8.13500e-06;-0.0011553705566774376
8.13525e-06;-0.0011382190485076842
8.13550e-06;-0.0011201900846152016
8.13575e-06;-0.0010974495156495282
8.13600e-06;-0.0010747089466840087
8.13625e-06;-0.0010512371839082055
8.13650e-06;-0.0010238391871622019
8.13675e-06;-0.0009964411904161983
8.13700e-06;-0.0009690431936703802
8.13725e-06;-0.0009394806473096557
8.13750e-06;-0.0009087880304329087
8.13775e-06;-0.0008780954135563698
8.13800e-06;-0.0008463057331202948
8.13825e-06;-0.0008045199638764251
8.13850e-06;-0.0007758687428689843
8.13875e-06;-0.0007502825240953923
8.13900e-06;-0.0007144519291746729
8.13925e-06;-0.0006876497641018582
8.13950e-06;-0.0006575963338649822
8.13975e-06;-0.0006283913137312498
8.14000e-06;-0.0006019716422462283
8.14025e-06;-0.0005762435417019979
8.14050e-06;-0.000552785883457701
8.14075e-06;-0.0005299536588309505
8.14100e-06;-0.0005099624483606615
8.14125e-06;-0.0004925572809058079
8.14150e-06;-0.00047574413864850035
8.14175e-06;-0.0004608746278702744
8.14200e-06;-0.00044675051591836797
8.14225e-06;-0.0004350735643740482
8.14250e-06;-0.0004240626237641526
8.14275e-06;-0.00041523821140240395
8.14300e-06;-0.00040720607090289604
8.14325e-06;-0.0004017749759975161
8.14350e-06;-0.0003968535726944998
8.14375e-06;-0.00039360549790404796
8.14400e-06;-0.00039093838578530893
8.14425e-06;-0.0003901785866354876
