Time(s);Current(A)
9.80000e-06;-0.013078441202854327
9.80025e-06;-0.013046581087418135
9.80050e-06;-0.013014720971981728
9.80075e-06;-0.01298286085654532
9.80100e-06;-0.01295100074110913
9.80125e-06;-0.01291467995424733
9.80150e-06;-0.0128774115292198
9.80175e-06;-0.012840143104192524
9.80200e-06;-0.012802874679164994
9.80225e-06;-0.012765606254137465
9.80250e-06;-0.012728337829109936
9.80275e-06;-0.012689287965802818
9.80300e-06;-0.012649859648504328
9.80325e-06;-0.012610431331205835
9.80350e-06;-0.01257100301390761
9.80375e-06;-0.01253157469660912
9.80400e-06;-0.012492146379310627
9.80425e-06;-0.012453571078416166
9.80450e-06;-0.012415176994836786
9.80475e-06;-0.012376782911257404
9.80500e-06;-0.012340190749617782
9.80525e-06;-0.01230398139357802
9.80550e-06;-0.01226950572328637
9.80575e-06;-0.012235398362297745
9.80600e-06;-0.012204460463579285
9.80625e-06;-0.012174195894753721
9.80650e-06;-0.012143931325928364
9.80675e-06;-0.012117911995576179
9.80700e-06;-0.012092794536179657
9.80725e-06;-0.012067677076783306
9.80750e-06;-0.012043108835512559
9.80775e-06;-0.012018657271756886
9.80800e-06;-0.011994205708001382
9.80825e-06;-0.011970594171251773
9.80850e-06;-0.011947161092311673
9.80875e-06;-0.011923728013371734
9.80900e-06;-0.011900294934431637
9.80925e-06;-0.01187686185549154
9.80950e-06;-0.0118534287765516
9.80975e-06;-0.011829705134558997
9.81000e-06;-0.011805377412825684
9.81025e-06;-0.011781049691092536
9.81050e-06;-0.011756721969359223
9.81075e-06;-0.01173239424762591
9.81100e-06;-0.011708066525892596
9.81125e-06;-0.011683738804159448
9.81150e-06;-0.01165829679103419
9.81175e-06;-0.011632618054566035
9.81200e-06;-0.011606939318098052
9.81225e-06;-0.011581260581629896
9.81250e-06;-0.01155558184516174
9.81275e-06;-0.011529903108693758
9.81300e-06;-0.01150445148480254
9.81325e-06;-0.011479048109375611
9.81350e-06;-0.011453644733948855
9.81375e-06;-0.011428241358521928
9.81400e-06;-0.011402837983094999
9.81425e-06;-0.011377434607668243
9.81450e-06;-0.011353109824947446
9.81475e-06;-0.011329014181635707
9.81500e-06;-0.011305990857909468
9.81525e-06;-0.011283195340911892
9.81550e-06;-0.011261476368254468
9.81575e-06;-0.011239986099845362
9.81600e-06;-0.01121953588925741
9.81625e-06;-0.011200154655125793
9.81650e-06;-0.01118191758983973
9.81675e-06;-0.011165014483891013
9.81700e-06;-0.011150073424075311
9.81725e-06;-0.011138184401706564
9.81750e-06;-0.011130073779566345
9.81775e-06;-0.011125854664909427
9.81800e-06;-0.011125436907097695
9.81825e-06;-0.011128715218890714
9.81850e-06;-0.011137025549482862
9.81875e-06;-0.011146267994713315
9.81900e-06;-0.011161822607703428
9.81925e-06;-0.011178718196190872
9.81950e-06;-0.011204565015944577
9.81975e-06;-0.011232313461614199
9.82000e-06;-0.01126006190728401
9.82025e-06;-0.011299955012371935
9.82050e-06;-0.0113424281646515
9.82075e-06;-0.011384901316931356
9.82100e-06;-0.011427374469211209
9.82125e-06;-0.011469847621490774
9.82150e-06;-0.011524776426351942
9.82175e-06;-0.011582351346708215
9.82200e-06;-0.011639926267064098
9.82225e-06;-0.011697501187420373
9.82250e-06;-0.011755076107776647
9.82275e-06;-0.011818859164505197
9.82300e-06;-0.011883961095997686
9.82325e-06;-0.011949063027490173
9.82350e-06;-0.012016458104685594
9.82375e-06;-0.012084340344504167
9.82400e-06;-0.01215222258432274
9.82425e-06;-0.012219564311570534
9.82450e-06;-0.012286791210737434
9.82475e-06;-0.012354018109904337
9.82500e-06;-0.012418676870235984
9.82525e-06;-0.012482790047595088
9.82550e-06;-0.01254358832870048
9.82575e-06;-0.012603682383488423
9.82600e-06;-0.01264589188358497
9.82625e-06;-0.012684301936242098
9.82650e-06;-0.012722711988898966
9.82675e-06;-0.012761122041556092
9.82700e-06;-0.01279953209421322
9.82725e-06;-0.012837942146870087
9.82750e-06;-0.012876352199527215
9.82775e-06;-0.012914762252184341
9.82800e-06;-0.012953172304841469
9.82825e-06;-0.012991582357498336
9.82850e-06;-0.013029992410155464
9.82875e-06;-0.01306840246281259
9.82900e-06;-0.013098425873656762
9.82925e-06;-0.013111013480563653
9.82950e-06;-0.013123601087470543
9.82975e-06;-0.013136188694377349
9.83000e-06;-0.01314877630128424
9.83025e-06;-0.013161363908191132
9.83050e-06;-0.013173951515097936
9.83075e-06;-0.013186539122004829
9.83100e-06;-0.01319912672891172
9.83125e-06;-0.013211714335818525
9.83150e-06;-0.013224301942725416
9.83175e-06;-0.013236889549632307
9.83200e-06;-0.013249477156539112
9.83225e-06;-0.013252397201431187
9.83250e-06;-0.013253263440992941
9.83275e-06;-0.01325412968055469
9.83300e-06;-0.013254995920116447
9.83325e-06;-0.013255862159678201
9.83350e-06;-0.013256728399239952
9.83375e-06;-0.013257594638801707
9.83400e-06;-0.013258460878363463
9.83425e-06;-0.013258123583907482
9.83450e-06;-0.013255284145728519
9.83475e-06;-0.013252444707549556
9.83500e-06;-0.013249605269370614
9.83525e-06;-0.01324676583119165
9.83550e-06;-0.013243926393012688
9.83575e-06;-0.013241086954833746
9.83600e-06;-0.013238247516654783
9.83625e-06;-0.013235408078475822
9.83650e-06;-0.01323225305638389
9.83675e-06;-0.0132290309907166
9.83700e-06;-0.01322580892504929
9.83725e-06;-0.01321730423327994
9.83750e-06;-0.013207677284872286
9.83775e-06;-0.013198050336464569
9.83800e-06;-0.01318842338805685
9.83825e-06;-0.013178796439649199
9.83850e-06;-0.01316916949124148
9.83875e-06;-0.013159542542833762
9.83900e-06;-0.013140192952195106
9.83925e-06;-0.013118777854822234
9.83950e-06;-0.013097362757449361
9.83975e-06;-0.013075947660076633
9.84000e-06;-0.013054532562703761
9.84025e-06;-0.013033117465330889
9.84050e-06;-0.013011702367958162
9.84075e-06;-0.0129815326163322
9.84100e-06;-0.012949503000187212
9.84125e-06;-0.012917473384042442
9.84150e-06;-0.012885443767897456
9.84175e-06;-0.012853414151752467
9.84200e-06;-0.012821384535607697
9.84225e-06;-0.012787344710825158
9.84250e-06;-0.012749125668129673
9.84275e-06;-0.012710906625434445
9.84300e-06;-0.01267268758273896
9.84325e-06;-0.012634468540043475
9.84350e-06;-0.012596249497348248
9.84375e-06;-0.012558030454652763
9.84400e-06;-0.012519026159045344
9.84425e-06;-0.012479855041998139
9.84450e-06;-0.01244068392495067
9.84475e-06;-0.012402991472087479
9.84500e-06;-0.012365613150996144
9.84525e-06;-0.012328234829905063
9.84550e-06;-0.012294874378662989
9.84575e-06;-0.01226236749551861
9.84600e-06;-0.012229860612374452
9.84625e-06;-0.012197353729230073
9.84650e-06;-0.012164846846085695
9.84675e-06;-0.012137469967489298
9.84700e-06;-0.01211118292215949
9.84725e-06;-0.012084575947669818
9.84750e-06;-0.012057901006487862
9.84775e-06;-0.012028936760289072
9.84800e-06;-0.011999486167393722
9.84825e-06;-0.011970035574498572
9.84850e-06;-0.01193925712836351
9.84875e-06;-0.01190819658917751
9.84900e-06;-0.01187713604999172
9.84925e-06;-0.011842731041269086
9.84950e-06;-0.01180761552359321
9.84975e-06;-0.01177250000591757
9.85000e-06;-0.011730712960279222
9.85025e-06;-0.01168750859560195
9.85050e-06;-0.011644304230924973
9.85075e-06;-0.011601099866247702
9.85100e-06;-0.011557895501570433
9.85125e-06;-0.011514691136893455
9.85150e-06;-0.011471486772216185
9.85175e-06;-0.011428282407538914
9.85200e-06;-0.011385078042861936
9.85225e-06;-0.011337033133353248
9.85250e-06;-0.01128795988425161
9.85275e-06;-0.011238441115551964
9.85300e-06;-0.011188827699357048
9.85325e-06;-0.011138845577287644
9.85350e-06;-0.011088493234106277
9.85375e-06;-0.011037994385401298
9.85400e-06;-0.010987638126991854
9.85425e-06;-0.010937723087054065
9.85450e-06;-0.01088854668386024
9.85475e-06;-0.010840392950977953
9.85500e-06;-0.010793424854690349
9.85525e-06;-0.010747667314564715
9.85550e-06;-0.010703218047215055
9.85575e-06;-0.010660322841390249
9.85600e-06;-0.010619277618722094
9.85625e-06;-0.010580384732676097
9.85650e-06;-0.010543945326814822
9.85675e-06;-0.010510228724703318
9.85700e-06;-0.010479208739705485
9.85725e-06;-0.010450477514271103
9.85750e-06;-0.01042372813275719
9.85775e-06;-0.010398969182248972
9.85800e-06;-0.010376323187038518
9.85825e-06;-0.010355920416890515
9.85850e-06;-0.010337893398191501
9.85875e-06;-0.01032235457036436
9.85900e-06;-0.010310070644509816
9.85925e-06;-0.010298384874504829
9.85950e-06;-0.010290526860381972
9.85975e-06;-0.010283482025986754
9.86000e-06;-0.010276437191591489
9.86025e-06;-0.010275057027935587
9.86050e-06;-0.010274880283606984
9.86075e-06;-0.010274703539278379
9.86100e-06;-0.010274526794949772
9.86125e-06;-0.010276488286728341
9.86150e-06;-0.01028289516515999
9.86175e-06;-0.010289302043591637
9.86200e-06;-0.010295708922023241
9.86225e-06;-0.010302115800454889
9.86250e-06;-0.010311918869663528
9.86275e-06;-0.010322443435638401
9.86300e-06;-0.0103329680016132
9.86325e-06;-0.010345216011505428
9.86350e-06;-0.010357830154896877
9.86375e-06;-0.010370444298288243
9.86400e-06;-0.01038383886911396
9.86425e-06;-0.01039739923624122
9.86450e-06;-0.010410959603368387
9.86475e-06;-0.010424682175475833
9.86500e-06;-0.010438439206886765
9.86525e-06;-0.010451741501052448
9.86550e-06;-0.010464947189499208
9.86575e-06;-0.010477213830171975
9.86600e-06;-0.010489280976771187
9.86625e-06;-0.01050041637290026
9.86650e-06;-0.01051061487719317
9.86675e-06;-0.010519905158973424
9.86700e-06;-0.01052896978569245
9.86725e-06;-0.010539299326974545
9.86750e-06;-0.010551913859543221
9.86775e-06;-0.01056781510767954
9.86800e-06;-0.010584323731637174
9.86825e-06;-0.010604028574643739
9.86850e-06;-0.010624412431834348
9.86875e-06;-0.010647568112249775
9.86900e-06;-0.010671312646950723
9.86925e-06;-0.010700705934880213
9.86950e-06;-0.010731299260574615
9.86975e-06;-0.01076189258626881
9.87000e-06;-0.010801259109962519
9.87025e-06;-0.010842489437666254
9.87050e-06;-0.010883719765369712
9.87075e-06;-0.010924950093073447
9.87100e-06;-0.010966180420777183
9.87125e-06;-0.011010981559576954
9.87150e-06;-0.011063206404270737
9.87175e-06;-0.011115431248964875
9.87200e-06;-0.011167656093659013
9.87225e-06;-0.011219880938352796
9.87250e-06;-0.011272105783046934
9.87275e-06;-0.011328361043830866
9.87300e-06;-0.011385472538073624
9.87325e-06;-0.01144258403231677
9.87350e-06;-0.01150097396297032
9.87375e-06;-0.011559635488418086
9.87400e-06;-0.011618297013866248
9.87425e-06;-0.011675908751755306
9.87450e-06;-0.011733297469684439
9.87475e-06;-0.01179068618761396
9.87500e-06;-0.011844803665091037
9.87525e-06;-0.011898226190615768
9.87550e-06;-0.01195164871614086
9.87575e-06;-0.011999904238509268
9.87600e-06;-0.012047062067515461
9.87625e-06;-0.012094219896521975
9.87650e-06;-0.01213352838713552
9.87675e-06;-0.012171169341192641
9.87700e-06;-0.012208810295250016
9.87725e-06;-0.012232853171822747
9.87750e-06;-0.01225400723278246
9.87775e-06;-0.012275161293742318
9.87800e-06;-0.012296315354702174
9.87825e-06;-0.012317469415661888
9.87850e-06;-0.012338623476621745
9.87875e-06;-0.012359777537581603
9.87900e-06;-0.012362302514769304
9.87925e-06;-0.01236086987455738
9.87950e-06;-0.012359437234345454
9.87975e-06;-0.012358004594133528
9.88000e-06;-0.012356571953921612
9.88025e-06;-0.012355139313709686
9.88050e-06;-0.01235370667349776
9.88075e-06;-0.012337411506241533
9.88100e-06;-0.01231795889998534
9.88125e-06;-0.01229850629372915
9.88150e-06;-0.012279053687473089
9.88175e-06;-0.012259601081216898
9.88200e-06;-0.012240148474960705
9.88225e-06;-0.012217206366529412
9.88250e-06;-0.012187009593211269
9.88275e-06;-0.012156812819893123
9.88300e-06;-0.012126616046575184
9.88325e-06;-0.012096419273257041
9.88350e-06;-0.012066222499938897
9.88375e-06;-0.012036025726620957
9.88400e-06;-0.012003226405860275
9.88425e-06;-0.011969874192259002
9.88450e-06;-0.011936521978657957
9.88475e-06;-0.011903294331312165
9.88500e-06;-0.01187009314718841
9.88525e-06;-0.01183791435372906
9.88550e-06;-0.011805952759952118
9.88575e-06;-0.01177754683077698
9.88600e-06;-0.01174989627745798
9.88625e-06;-0.01172224572413879
9.88650e-06;-0.0116945951708196
9.88675e-06;-0.01166851944173516
9.88700e-06;-0.011645717767660563
9.88725e-06;-0.011622916093585966
9.88750e-06;-0.011600114419511523
9.88775e-06;-0.011577312745436927
9.88800e-06;-0.011554660833738486
9.88825e-06;-0.011532040738000142
9.88850e-06;-0.011509420642261953
9.88875e-06;-0.011486800546523611
9.88900e-06;-0.011464180450785268
9.88925e-06;-0.011441560355047078
9.88950e-06;-0.011418940259308735
9.88975e-06;-0.01139482174728631
9.89000e-06;-0.011370384907297222
9.89025e-06;-0.01134594806730797
9.89050e-06;-0.011321511227318717
9.89075e-06;-0.01129707438732963
9.89100e-06;-0.011272637547340375
9.89125e-06;-0.011248200707351122
9.89150e-06;-0.011221948137242664
9.89175e-06;-0.011195309828081796
9.89200e-06;-0.011168671518920929
9.89225e-06;-0.01114203320976024
9.89250e-06;-0.011115394900599372
9.89275e-06;-0.011088756591438504
9.89300e-06;-0.01106202034477994
9.89325e-06;-0.011035263291990808
9.89350e-06;-0.011008506239201677
9.89375e-06;-0.010981749186412726
9.89400e-06;-0.010954992133623595
9.89425e-06;-0.010928235080834462
9.89450e-06;-0.010902772211269049
9.89475e-06;-0.010877584281797715
9.89500e-06;-0.01085239635232638
9.89525e-06;-0.010828567513675374
9.89550e-06;-0.010805027404279393
9.89575e-06;-0.010782817708580007
9.89600e-06;-0.010760890649883408
9.89625e-06;-0.01074026635194267
9.89650e-06;-0.010720952729055105
9.89675e-06;-0.010703731472217102
9.89700e-06;-0.01068690806122936
9.89725e-06;-0.010673420670267037
9.89750e-06;-0.010660641993220739
9.89775e-06;-0.010651609905553822
9.89800e-06;-0.010643373754365183
9.89825e-06;-0.010638873438634573
9.89850e-06;-0.010635166774787616
9.89875e-06;-0.010636217440902604
9.89900e-06;-0.010638278768201092
9.89925e-06;-0.010640340095499565
9.89950e-06;-0.010650656058328673
9.89975e-06;-0.010662725660232936
9.90000e-06;-0.010674795262137115
9.90025e-06;-0.010686864864041377
9.90050e-06;-0.01069893446594564
9.90075e-06;-0.010714530387480886
9.90100e-06;-0.01073745751729142
9.90125e-06;-0.010760384647101955
9.90150e-06;-0.010783311776912335
9.90175e-06;-0.01080623890672287
9.90200e-06;-0.010829166036533404
9.90225e-06;-0.010858403848854186
9.90250e-06;-0.010888982321147525
9.90275e-06;-0.010919560793440865
9.90300e-06;-0.010950139265733998
9.90325e-06;-0.010980717738027338
9.90350e-06;-0.01101129621032068
9.90375e-06;-0.01104239875709976
9.90400e-06;-0.011074590853213918
9.90425e-06;-0.011106782949328077
9.90450e-06;-0.011138975045442019
9.90475e-06;-0.011171167141556177
9.90500e-06;-0.011203359237670336
9.90525e-06;-0.011235551333784495
9.90550e-06;-0.01126469520529166
9.90575e-06;-0.011293191502988888
9.90600e-06;-0.011321687800686113
9.90625e-06;-0.011346065346512155
9.90650e-06;-0.011369567892564294
9.90675e-06;-0.011393070438616431
9.90700e-06;-0.011414315173279743
9.90725e-06;-0.011435080251844228
9.90750e-06;-0.011455845330408712
9.90775e-06;-0.011478806769382654
9.90800e-06;-0.011502234809628822
9.90825e-06;-0.011525662849874992
9.90850e-06;-0.011552144601422233
9.90875e-06;-0.011579275092389438
9.90900e-06;-0.011606405583356644
9.90925e-06;-0.011633536074323665
9.90950e-06;-0.011660666565290871
9.90975e-06;-0.011687797056258076
9.91000e-06;-0.011714927547225099
9.91025e-06;-0.01174873468706608
9.91050e-06;-0.011783960233851844
9.91075e-06;-0.011819185780637368
9.91100e-06;-0.011854411327423132
9.91125e-06;-0.011889636874208895
9.91150e-06;-0.01192486242099442
9.91175e-06;-0.011960087967780184
9.91200e-06;-0.011999948703390865
9.91225e-06;-0.012040794152162701
9.91250e-06;-0.012081639600934814
9.91275e-06;-0.012122485049706927
9.91300e-06;-0.012163330498478762
9.91325e-06;-0.012204175947250874
9.91350e-06;-0.012245021396022987
9.91375e-06;-0.012285296294491653
9.91400e-06;-0.01232438502053509
9.91425e-06;-0.012363473746578792
9.91450e-06;-0.012402562472622492
9.91475e-06;-0.012441651198665929
9.91500e-06;-0.01248073992470963
9.91525e-06;-0.01251982865075333
9.91550e-06;-0.012558917376796767
9.91575e-06;-0.012586778329773674
9.91600e-06;-0.012612254021581589
9.91625e-06;-0.012637729713389332
9.91650e-06;-0.012663205405197248
9.91675e-06;-0.012688681097005163
9.91700e-06;-0.012714156788812906
9.91725e-06;-0.012739632480620822
9.91750e-06;-0.012765108172428737
9.91775e-06;-0.01279058386423648
9.91800e-06;-0.012809794833350124
9.91825e-06;-0.012815981462162368
9.91850e-06;-0.012822168090974568
9.91875e-06;-0.01282835471978681
9.91900e-06;-0.012834541348599052
9.91925e-06;-0.012840727977411252
9.91950e-06;-0.012846914606223494
9.91975e-06;-0.012853101235035736
9.92000e-06;-0.012859287863847936
9.92025e-06;-0.012865474492660178
9.92050e-06;-0.012859120593780481
9.92075e-06;-0.012850102548273555
9.92100e-06;-0.01284108450276657
9.92125e-06;-0.012832066457259584
9.92150e-06;-0.01282304841175266
9.92175e-06;-0.012814030366245675
9.92200e-06;-0.012805012320738688
9.92225e-06;-0.012795994275231704
9.92250e-06;-0.012786976229724778
9.92275e-06;-0.012775580277490988
9.92300e-06;-0.012759240664072158
9.92325e-06;-0.012742901050653439
9.92350e-06;-0.012726561437234609
9.92375e-06;-0.012710221823815778
9.92400e-06;-0.01269388221039706
9.92425e-06;-0.01267754259697823
9.92450e-06;-0.0126612029835594
9.92475e-06;-0.012644863370140681
9.92500e-06;-0.012628523756721851
9.92525e-06;-0.012613850381209303
9.92550e-06;-0.01259953098618383
9.92575e-06;-0.012585211591158258
9.92600e-06;-0.012570892196132687
9.92625e-06;-0.012556572801107214
9.92650e-06;-0.012542253406081642
9.92675e-06;-0.01252793401105607
9.92700e-06;-0.012513614616030596
9.92725e-06;-0.012499295221005026
9.92750e-06;-0.012489422913844589
9.92775e-06;-0.012480495359124672
9.92800e-06;-0.012471567804404693
9.92825e-06;-0.012462640249684716
9.92850e-06;-0.012453712694964798
9.92875e-06;-0.01244478514024482
9.92900e-06;-0.012435857585524842
9.92925e-06;-0.012426930030804926
9.92950e-06;-0.012418002476084947
9.92975e-06;-0.012412542148421173
9.93000e-06;-0.012407818408682558
9.93025e-06;-0.01240309466894391
9.93050e-06;-0.012398370929205262
9.93075e-06;-0.012393647189466615
9.93100e-06;-0.012388923449728
9.93125e-06;-0.01238419970998935
9.93150e-06;-0.012379475970250704
9.93175e-06;-0.012374752230512088
9.93200e-06;-0.012370028490773441
9.93225e-06;-0.012365304751034792
9.93250e-06;-0.012360581011296176
9.93275e-06;-0.01235585727155753
9.93300e-06;-0.012353109535319793
9.93325e-06;-0.012350781587084261
9.93350e-06;-0.012348453638848712
9.93375e-06;-0.012346125690613163
9.93400e-06;-0.012343797742377632
9.93425e-06;-0.012341469794142083
9.93450e-06;-0.012339141845906534
9.93475e-06;-0.012336813897671002
9.93500e-06;-0.012334485949435453
9.93525e-06;-0.012332158001199904
9.93550e-06;-0.012329830052964372
9.93575e-06;-0.012327502104728823
9.93600e-06;-0.012325174156493274
9.93625e-06;-0.012323003380954118
9.93650e-06;-0.012320865995645375
9.93675e-06;-0.012318728610336633
9.93700e-06;-0.012314036656620323
9.93725e-06;-0.012308802002869266
9.93750e-06;-0.012303567349118211
9.93775e-06;-0.012292052917401482
9.93800e-06;-0.012279204391162087
9.93825e-06;-0.012266355864922692
9.93850e-06;-0.012247857177207066
9.93875e-06;-0.012228158152549658
9.93900e-06;-0.012208459127892249
9.93925e-06;-0.012178771130208633
9.93950e-06;-0.01214696104568166
9.93975e-06;-0.01211515096115447
9.94000e-06;-0.012083340876627281
9.94025e-06;-0.012051530792100308
9.94050e-06;-0.012015237189050974
9.94075e-06;-0.011969622363997326
9.94100e-06;-0.011924007538943987
9.94125e-06;-0.011878392713890339
9.94150e-06;-0.01183277788883669
9.94175e-06;-0.01178716306378335
9.94200e-06;-0.011734550927476523
9.94225e-06;-0.011680452261762259
9.94250e-06;-0.01162635359604836
9.94275e-06;-0.011569608953595352
9.94300e-06;-0.011512302192052397
9.94325e-06;-0.01145499543050983
9.94350e-06;-0.011396245851188404
9.94375e-06;-0.011337189755409462
9.94400e-06;-0.011278049932671994
9.94425e-06;-0.011218892322732418
9.94450e-06;-0.011160378411798174
9.94475e-06;-0.011102799344766658
9.94500e-06;-0.011046383028748188
9.94525e-06;-0.010991296887325704
9.94550e-06;-0.010937765862302164
9.94575e-06;-0.01088611703440896
9.94600e-06;-0.010837816636551678
9.94625e-06;-0.010790155272473479
9.94650e-06;-0.010747491409264386
9.94675e-06;-0.010705889229856312
9.94700e-06;-0.01067035405439873
9.94725e-06;-0.010636107771125829
9.94750e-06;-0.010601861487852925
