Time(s);Current(A)
5.00000e-06;0.0004698077095990142
5.00025e-06;0.0004394097700450642
5.00050e-06;0.0004090118304910112
5.00075e-06;0.00038009649296804704
5.00100e-06;0.0003517587480885107
5.00125e-06;0.00032524283532481496
5.00150e-06;0.0002994366725856424
5.00175e-06;0.00027536694145481334
5.00200e-06;0.0002533320554858238
5.00225e-06;0.00023338875674053274
5.00250e-06;0.0002158556105203387
5.00275e-06;0.00020096655577900944
5.00300e-06;0.00018880887705091415
5.00325e-06;0.00017940336713841414
5.00350e-06;0.0001727613724556177
5.00375e-06;0.00016889421207995638
5.00400e-06;0.0001678153501155734
5.00425e-06;0.00016957200511052314
5.00450e-06;0.00017424616792538649
5.00475e-06;0.00018186685660591295
5.00500e-06;0.00019237117725851233
5.00525e-06;0.00020565461334867246
5.00550e-06;0.00022160672399936654
5.00575e-06;0.00024011707064607195
5.00600e-06;0.000261076517352659
5.00625e-06;0.0002843971375427239
5.00650e-06;0.00031001276789748277
5.00675e-06;0.00033782404384324243
5.00700e-06;0.0003683229361664275
5.00725e-06;0.0003996325604853923
5.00750e-06;0.00043326912086676236
5.00775e-06;0.00046781220985341775
5.00800e-06;0.0005045032621075638
5.00825e-06;0.0005420311186799117
5.00850e-06;0.0005795589752521324
5.00875e-06;0.0006187046231090996
5.00900e-06;0.0006584805306886149
5.00925e-06;0.0006982564382679954
5.00950e-06;0.0007380323458473759
5.00975e-06;0.0007775055995541698
5.01000e-06;0.0008159035636442931
5.01025e-06;0.0008543015277344165
5.01050e-06;0.0008926994918246699
5.01075e-06;0.0009310974559147932
5.01100e-06;0.0009661314393808129
5.01125e-06;0.000999854882040951
5.01150e-06;0.0010335783247009747
5.01175e-06;0.0010628529262687284
5.01200e-06;0.001090394346691316
5.01225e-06;0.0011179357671138104
5.01250e-06;0.0011437181151066516
5.01275e-06;0.001168815163016738
5.01300e-06;0.0011939122109268247
5.01325e-06;0.0012190092588369962
5.01350e-06;0.0012441063067470826
5.01375e-06;0.001269167417660792
5.01400e-06;0.0012941008491277565
5.01425e-06;0.001319034280594636
5.01450e-06;0.0013439677120615158
5.01475e-06;0.00136890114352848
5.01500e-06;0.0013938345749953597
5.01525e-06;0.001420903912092241
5.01550e-06;0.001448805356088268
5.01575e-06;0.0014767068000842004
5.01600e-06;0.001504608244080133
5.01625e-06;0.00153250968807616
5.01650e-06;0.0015604111320720925
5.01675e-06;0.0015883125760681196
5.01700e-06;0.001616214020064052
5.01725e-06;0.0016441154640599845
5.01750e-06;0.0016723235044415646
5.01775e-06;0.0017016208416716582
5.01800e-06;0.0017309181789017518
5.01825e-06;0.0017602155161319448
5.01850e-06;0.0017895128533620384
5.01875e-06;0.001818810190592132
5.01900e-06;0.001848107527822325
5.01925e-06;0.0018774048650524186
5.01950e-06;0.0019067022022825123
5.01975e-06;0.0019359995395127052
5.02000e-06;0.001961940203411688
5.02025e-06;0.0019865731732828457
5.02050e-06;0.002011206143154087
5.02075e-06;0.0020358391130252448
5.02100e-06;0.002060472082896486
5.02125e-06;0.002085105052767644
5.02150e-06;0.0021097380226388017
5.02175e-06;0.002131676226384815
5.02200e-06;0.002144040278620898
5.02225e-06;0.0021564043308569805
5.02250e-06;0.0021687683830931056
5.02275e-06;0.0021811324353291886
5.02300e-06;0.0021934964875652712
5.02325e-06;0.0022058605398013963
5.02350e-06;0.0022182245920374793
5.02375e-06;0.0022158484563877118
5.02400e-06;0.0022077298329339747
5.02425e-06;0.002199611209480265
5.02450e-06;0.002191492586026555
5.02475e-06;0.0021833739625728176
5.02500e-06;0.002175255339119108
5.02525e-06;0.0021671367156653703
5.02550e-06;0.0021590180922116606
5.02575e-06;0.002150899468757951
5.02600e-06;0.002128894493543227
5.02625e-06;0.0021014796683157012
5.02650e-06;0.0020740648430881757
5.02675e-06;0.0020466500178605573
5.02700e-06;0.002019235192633032
5.02725e-06;0.0019918203674055062
5.02750e-06;0.001964405542177888
5.02775e-06;0.0019369907169503623
5.02800e-06;0.001909575891722837
5.02825e-06;0.001876060532227848
5.02850e-06;0.0018401685243553951
5.02875e-06;0.0018042765164829422
5.02900e-06;0.0017683845086103678
5.02925e-06;0.0017324925007379149
5.02950e-06;0.0016966004928653403
5.02975e-06;0.0016611102276402133
5.03000e-06;0.0016270473014841878
5.03025e-06;0.0015929843753280473
5.03050e-06;0.0015589214491720218
5.03075e-06;0.0015248585230159964
5.03100e-06;0.0014907955968598556
5.03125e-06;0.0014567326707038302
5.03150e-06;0.0014275735920911805
5.03175e-06;0.0014003249562029884
5.03200e-06;0.0013730763203148887
5.03225e-06;0.0013500490282017847
5.03250e-06;0.0013286662887447209
5.03275e-06;0.0013072835492877295
5.03300e-06;0.0012892593309665056
5.03325e-06;0.0012725435265410702
5.03350e-06;0.0012558277221156916
5.03375e-06;0.0012429743035663246
5.03400e-06;0.0012316255947231332
5.03425e-06;0.0012202768858799416
5.03450e-06;0.0012123588583725412
5.03475e-06;0.0012057773569581626
5.03500e-06;0.0011991958555437842
5.03525e-06;0.0011978388161415947
5.03550e-06;0.0011985171245661346
5.03575e-06;0.0011991954329906745
5.03600e-06;0.0011998737414152165
5.03625e-06;0.0012005520498397564
5.03650e-06;0.0012012303582642962
5.03675e-06;0.0012019086666888385
5.03700e-06;0.0012025869751133783
5.03725e-06;0.0012085937620768844
5.03750e-06;0.001216676419663695
5.03775e-06;0.0012247590772504781
5.03800e-06;0.0012328417348372888
5.03825e-06;0.001240924392424072
5.03850e-06;0.0012490070500108552
5.03875e-06;0.0012570897075976657
5.03900e-06;0.0012651723651844488
5.03925e-06;0.001274954208378936
5.03950e-06;0.001285398020925602
5.03975e-06;0.001295841833472233
5.04000e-06;0.0013062856460188635
5.04025e-06;0.0013167294585655295
5.04050e-06;0.0013271732711121604
5.04075e-06;0.0013365365656482775
5.04100e-06;0.0013454789115816756
5.04125e-06;0.0013544212575150435
5.04150e-06;0.0013633636034484113
5.04175e-06;0.0013723059493818094
5.04200e-06;0.0013812482953151771
5.04225e-06;0.0013866675674892863
5.04250e-06;0.0013907143192964197
5.04275e-06;0.0013947610711035532
5.04300e-06;0.0013933000225044823
5.04325e-06;0.0013896932430036402
5.04350e-06;0.0013860864635027981
5.04375e-06;0.001377235558753819
5.04400e-06;0.001366341645767898
5.04425e-06;0.001355447732781977
5.04450e-06;0.0013385133352506755
5.04475e-06;0.0013192256835354963
5.04500e-06;0.0012999380318203168
5.04525e-06;0.001274606153505984
5.04550e-06;0.0012469195631771713
5.04575e-06;0.0012192329728483587
5.04600e-06;0.0011865397939049103
5.04625e-06;0.0011518961463335056
5.04650e-06;0.0011172524987619833
5.04675e-06;0.001077840776611761
5.04700e-06;0.0010365715062190053
5.04725e-06;0.00099530223582611
5.04750e-06;0.0009505861150740871
5.04775e-06;0.0009045271690954059
5.04800e-06;0.0008584682231165685
5.04825e-06;0.0008100924327514265
5.04850e-06;0.0007608140453008135
5.04875e-06;0.0007115356578500335
5.04900e-06;0.0006622572703994204
5.04925e-06;0.0006125763538608981
5.04950e-06;0.0005627386198925682
5.04975e-06;0.0005129008859244071
5.05000e-06;0.00046306315195624614
5.05025e-06;0.0004149152484614575
5.05050e-06;0.0003674256697422066
5.05075e-06;0.00032133610432302486
5.05100e-06;0.0002769975541510859
5.05125e-06;0.00023456784984165387
5.05150e-06;0.00019437153636751788
5.05175e-06;0.00015673312959804732
5.05200e-06;0.00012198143083044589
5.05225e-06;9.051167916544097e-05
5.05250e-06;6.277821190024013e-05
5.05275e-06;3.910782481433464e-05
5.05300e-06;1.9626462055062863e-05
5.05325e-06;4.371367916288096e-06
5.05350e-06;-6.632629249322491e-06
5.05375e-06;-1.3360741030467072e-05
5.05400e-06;-1.5785474471970816e-05
5.05425e-06;-1.3837749955494153e-05
5.05450e-06;-7.411487266709279e-06
5.05475e-06;3.5194940912880587e-06
5.05500e-06;1.8855552148369345e-05
5.05525e-06;3.844148702142977e-05
5.05550e-06;6.21143325979439e-05
5.05575e-06;8.971109910560374e-05
5.05600e-06;0.00012107049750469053
5.05625e-06;0.00015605730399181452
5.05650e-06;0.00019455946366666116
5.05675e-06;0.00023641487298425184
5.05700e-06;0.0002813826331344323
5.05725e-06;0.00032918706719806736
5.05750e-06;0.0003795476433530638
5.05775e-06;0.00043287392452353863
5.05800e-06;0.0004870849892312101
5.05825e-06;0.0005441298916701649
5.05850e-06;0.0006022788016512169
5.05875e-06;0.0006604277116324661
5.05900e-06;0.0007202180322857538
5.05925e-06;0.0007806478143105432
5.05950e-06;0.000841077596335128
5.05975e-06;0.0009015073783597127
5.06000e-06;0.0009601344294972725
5.06025e-06;0.00101805917207487
5.06050e-06;0.0010759839146524675
5.06075e-06;0.0011339086572302612
5.06100e-06;0.0011869337878515887
5.06125e-06;0.0012380501258512902
5.06150e-06;0.0012891664638511647
5.06175e-06;0.0013346562331271335
5.06200e-06;0.0013779540016976163
5.06225e-06;0.0014156623986754605
5.06250e-06;0.0014511932862196156
5.06275e-06;0.0014809244792040703
5.06300e-06;0.0015083962250565443
5.06325e-06;0.0015298592938194334
5.06350e-06;0.0015489814999598078
5.06375e-06;0.0015618290360132014
5.06400e-06;0.001572232083794639
5.06425e-06;0.0015762524306324281
5.06450e-06;0.001577786202497498
5.06475e-06;0.0015732596066653363
5.06500e-06;0.0015663720105647443
5.06525e-06;0.001552372110785918
5.06550e-06;0.0015356013971337444
5.06575e-06;0.0015188306834815139
5.06600e-06;0.0014941660795881914
5.06625e-06;0.001466426171041982
5.06650e-06;0.0014386862624956788
5.06675e-06;0.0014043272473658534
5.06700e-06;0.0013673895582676343
5.06725e-06;0.00133045186916929
5.06750e-06;0.001288360199220621
5.06775e-06;0.0012442606395234594
5.06800e-06;0.0012001610798264473
5.06825e-06;0.0011519550909134726
5.06850e-06;0.0011021493178016415
5.06875e-06;0.001052343544689979
5.06900e-06;0.0010025377715783166
5.06925e-06;0.0009523990928431977
5.06950e-06;0.0009010776439814536
5.06975e-06;0.0008497561951197095
5.07000e-06;0.0007984347462577914
5.07025e-06;0.0007471132973960473
5.07050e-06;0.0006976465434692212
5.07075e-06;0.000648902342274561
5.07100e-06;0.0006026955467206981
5.07125e-06;0.0005574772745860364
5.07150e-06;0.0005147788148542416
5.07175e-06;0.00047507020885928085
5.07200e-06;0.0004383954256791939
5.07225e-06;0.0004050281734811793
5.07250e-06;0.00037509701244191297
5.07275e-06;0.0003486393223442219
5.07300e-06;0.0003257026847372586
5.07325e-06;0.0003063588199091835
5.07350e-06;0.0002906846155546831
5.07375e-06;0.0002787570186674276
5.07400e-06;0.00027065110294483696
5.07425e-06;0.00026640083984500384
5.07450e-06;0.0002659493082674765
5.07475e-06;0.00026918248859550745
5.07500e-06;0.0002759927206918085
5.07525e-06;0.00028628748393367756
5.07550e-06;0.00029997754597694876
5.07575e-06;0.00031697363258884135
5.07600e-06;0.00033718530127922584
5.07625e-06;0.0003604964647561193
5.07650e-06;0.0003867339903835226
5.07675e-06;0.0004156890458362739
5.07700e-06;0.0004479711399982222
5.07725e-06;0.0004812591699520596
5.07750e-06;0.0005175263424213277
5.07775e-06;0.0005549541303232882
5.07800e-06;0.0005952611423211679
5.07825e-06;0.0006366898434971655
5.07850e-06;0.0006781185446733035
5.07875e-06;0.0007217331776983932
5.07900e-06;0.0007661994068540362
5.07925e-06;0.0008106656360098298
5.07950e-06;0.0008551318651654728
5.07975e-06;0.0008993552677727868
5.08000e-06;0.0009427159394223266
5.08025e-06;0.0009860766110717195
5.08050e-06;0.0010294372827212592
5.08075e-06;0.001072797954370652
5.08100e-06;0.0011124150643111686
5.08125e-06;0.0011505737561099453
5.08150e-06;0.0011887324479085924
5.08175e-06;0.0012216089795536072
5.08200e-06;0.0012524276853111706
5.08225e-06;0.0012832463910686296
5.08250e-06;0.001308069852033131
5.08275e-06;0.0013305576833351942
5.08300e-06;0.0013476270487805643
5.08325e-06;0.0013625854863127508
5.08350e-06;0.0013720310409464226
5.08375e-06;0.0013793288846411095
5.08400e-06;0.0013810135639827665
5.08425e-06;0.0013805114646997252
5.08450e-06;0.0013742281437556453
5.08475e-06;0.0013656925723592945
5.08500e-06;0.0013515484024738823
5.08525e-06;0.0013352192327348445
5.08550e-06;0.0013136791973430144
5.08575e-06;0.0012901091110016632
5.08600e-06;0.001261721996198422
5.08625e-06;0.0012314582616825634
5.08650e-06;0.0011957245242941285
5.08675e-06;0.0011578597811830944
5.08700e-06;0.0011199950380719318
5.08725e-06;0.0010768079496182668
5.08750e-06;0.0010315473799166748
5.08775e-06;0.0009862868102149293
5.08800e-06;0.0009372806122970196
5.08825e-06;0.0008868151911667598
5.08850e-06;0.000836349770036329
5.08875e-06;0.0007836616353217289
5.08900e-06;0.0007301075750348866
5.08925e-06;0.0006765535147478628
5.08950e-06;0.0006229994544610205
5.08975e-06;0.0005701220897844385
5.09000e-06;0.0005175083524317804
5.09025e-06;0.0004648946150791224
5.09050e-06;0.0004122808777262861
5.09075e-06;0.00036176069899856517
5.09100e-06;0.00031337147545118207
5.09125e-06;0.0002670650907209065
5.09150e-06;0.00022319595031102842
5.09175e-06;0.00018211838873186562
5.09200e-06;0.00014418210826256135
5.09225e-06;0.00010963847843726647
5.09250e-06;7.85420146336601e-05
5.09275e-06;5.086255530824125e-05
5.09300e-06;2.6630222718753156e-05
5.09325e-06;5.926542986131703e-06
5.09350e-06;-1.1157445293038208e-05
5.09375e-06;-2.4530747980037402e-05
5.09400e-06;-3.410528493821524e-05
5.09425e-06;-3.985460215711215e-05
5.09450e-06;-4.1875547983475465e-05
5.09475e-06;-4.03180082325538e-05
5.09500e-06;-3.529409917181188e-05
5.09525e-06;-2.6883732567345225e-05
5.09550e-06;-1.5160866480237748e-05
5.09575e-06;-1.9948243991288287e-07
5.09600e-06;1.7924611966448626e-05
5.09625e-06;3.9097009383220514e-05
5.09650e-06;6.31260740680501e-05
5.09675e-06;8.978696708562265e-05
5.09700e-06;0.00011887850889587292
5.09725e-06;0.00015021970264481618
5.09750e-06;0.000183633314437354
5.09775e-06;0.0002189420955537109
5.09800e-06;0.00025596764764824044
5.09825e-06;0.00029493512287421045
5.09850e-06;0.0003344771003319126
5.09875e-06;0.000375667267942599
5.09900e-06;0.000417499538076715
5.09925e-06;0.00045933180821068934
5.09950e-06;0.0005011640783446637
5.09975e-06;0.0005429963484787797
5.10000e-06;0.000584828618612754
5.10025e-06;0.0006266608887467283
5.10050e-06;0.0006666424370518172
5.10075e-06;0.0007059029804690028
5.10100e-06;0.0007451635238861883
5.10125e-06;0.0007814705815924727
5.10150e-06;0.0008166270192539715
5.10175e-06;0.000848478336839523
5.10200e-06;0.0008790420445359005
5.10225e-06;0.000905502122574115
5.10250e-06;0.0009303635070678086
5.10275e-06;0.0009552248915614178
5.10300e-06;0.0009762041187291944
5.10325e-06;0.0009956709336247313
5.10350e-06;0.0010151377485202021
5.10375e-06;0.001030116807754594
5.10400e-06;0.0010433475254955917
5.10425e-06;0.0010565782432365447
5.10450e-06;0.0010658518508741795
5.10475e-06;0.0010735838461090924
5.10500e-06;0.0010813158413439793
5.10525e-06;0.0010856906838044124
5.10550e-06;0.0010887576454579535
5.10575e-06;0.001091824607111484
5.10600e-06;0.0010896360442137903
5.10625e-06;0.0010854000321374388
5.10650e-06;0.0010811640200611018
5.10675e-06;0.0010769280079847502
5.10700e-06;0.001072691995908413
5.10725e-06;0.0010684559838320758
5.10750e-06;0.0010642199717557242
5.10775e-06;0.001058606845916944
5.10800e-06;0.0010481010150478632
5.10825e-06;0.0010375951841787466
5.10850e-06;0.0010270893533096655
5.10875e-06;0.0010165835224405844
5.10900e-06;0.0010060776915714678
5.10925e-06;0.000995571860702387
5.10950e-06;0.000985066029833306
5.10975e-06;0.0009735265040984671
5.11000e-06;0.0009615842711394947
5.11025e-06;0.0009496420381805222
5.11050e-06;0.0009376998052215093
5.11075e-06;0.0009257575722625369
5.11100e-06;0.0009151801053904987
5.11125e-06;0.0009051343245902156
5.11150e-06;0.0008950885437899327
5.11175e-06;0.0008850427629896158
5.11200e-06;0.0008749969821893328
5.11225e-06;0.0008664855914199679
5.11250e-06;0.0008620014164065866
5.11275e-06;0.0008588532868157149
5.11300e-06;0.0008557051572248433
5.11325e-06;0.000852557027633961
5.11350e-06;0.0008494088980430893
5.11375e-06;0.0008462607684522176
5.11400e-06;0.0008431126388613353
5.11425e-06;0.0008399645092704636
5.11450e-06;0.000836816379679592
5.11475e-06;0.0008336682500887096
5.11500e-06;0.000830520120497838
5.11525e-06;0.0008330514992841129
5.11550e-06;0.0008377955030226435
5.11575e-06;0.0008425395067611742
5.11600e-06;0.0008472835104997208
5.11625e-06;0.0008520275142382516
5.11650e-06;0.0008567715179767822
5.11675e-06;0.0008615155217153289
5.11700e-06;0.0008662595254538595
5.11725e-06;0.0008710035291923903
5.11750e-06;0.000875747532930937
5.11775e-06;0.0008804915366694676
5.11800e-06;0.0008879349142693513
5.11825e-06;0.0008964299149260743
5.11850e-06;0.0009049249155827684
5.11875e-06;0.0009134199162394626
5.11900e-06;0.0009219149168961855
5.11925e-06;0.0009304099175528797
5.11950e-06;0.0009389049182096027
5.11975e-06;0.0009473999188662969
5.12000e-06;0.0009554776403901297
5.12025e-06;0.0009633927981567036
5.12050e-06;0.0009713079559232506
5.12075e-06;0.0009792231136897978
5.12100e-06;0.0009871382714563715
5.12125e-06;0.0009950534292229186
5.12150e-06;0.0010029685869894656
5.12175e-06;0.0010108837447560396
5.12200e-06;0.0010125294309526747
5.12225e-06;0.001011732654120877
5.12250e-06;0.0010109358772890764
5.12275e-06;0.0010101391004572785
5.12300e-06;0.001009342323625481
5.12325e-06;0.0010085455467936802
5.12350e-06;0.0010077487699618824
5.12375e-06;0.001006951993130082
5.12400e-06;0.001006155216298284
5.12425e-06;0.0010053584394664862
5.12450e-06;0.0010045616626346858
5.12475e-06;0.001000220752893714
5.12500e-06;0.0009832880026109834
5.12525e-06;0.0009663552523281954
5.12550e-06;0.0009494225020454647
5.12575e-06;0.0009324897517627341
5.12600e-06;0.000915557001479946
5.12625e-06;0.0008986242511972154
5.12650e-06;0.0008816915009144848
5.12675e-06;0.0008647587506316968
5.12700e-06;0.0008478260003489661
5.12725e-06;0.0008308932500662354
5.12750e-06;0.0008139604997834474
5.12775e-06;0.00079124780271031
5.12800e-06;0.0007662833518516921
5.12825e-06;0.0007413189009931587
5.12850e-06;0.0007163544501346253
5.12875e-06;0.0006913899992760074
5.12900e-06;0.0006656525434446441
5.12925e-06;0.0006396139400531457
5.12950e-06;0.0006135753366615592
5.12975e-06;0.0005875367332700608
5.13000e-06;0.0005614981298785626
5.13025e-06;0.0005365506548959733
5.13050e-06;0.0005120282621182472
5.13075e-06;0.00048750586934052123
5.13100e-06;0.0004644731420704477
5.13125e-06;0.00044202075923395685
5.13150e-06;0.000421315562921024
5.13175e-06;0.0004012910361730812
5.13200e-06;0.0003832937844807155
5.13225e-06;0.0003660863193460845
5.13250e-06;0.000348741069535501
5.13275e-06;0.00033090628879775546
5.13300e-06;0.0003130715080599494
5.13325e-06;0.00029405027079284606
5.13350e-06;0.0002745668133569923
5.13375e-06;0.0002546282251468516
5.13400e-06;0.0002345123269232578
5.13425e-06;0.00021373948882878147
5.13450e-06;0.00019271071985901047
5.13475e-06;0.0001703222240080456
5.13500e-06;0.0001464526299920203
5.13525e-06;0.00012140279575448805
5.13550e-06;9.536964134665719e-05
5.13575e-06;6.8550067271692e-05
5.13600e-06;4.1131865730618144e-05
5.13625e-06;1.3134506856135239e-05
5.13650e-06;-1.5688634371574164e-05
5.13675e-06;-4.5552152382671755e-05
5.13700e-06;-7.641410479653506e-05
5.13725e-06;-0.00010829305367877752
5.13750e-06;-0.00014046298358806454
5.13775e-06;-0.0001731874172657475
5.13800e-06;-0.00020612787472446697
5.13825e-06;-0.00023906833218307482
5.13850e-06;-0.0002724179146979072
5.13875e-06;-0.00030592688430190914
5.13900e-06;-0.0003394358539057976
5.13925e-06;-0.00037277670298768056
5.13950e-06;-0.0004055202418506999
5.13975e-06;-0.0004382637807136083
5.14000e-06;-0.0004710073195765167
5.14025e-06;-0.0005019603256291623
5.14050e-06;-0.0005322157752545153
5.14075e-06;-0.0005624712248799708
5.14100e-06;-0.0005903238571313944
5.14125e-06;-0.0006172403989114291
5.14150e-06;-0.000644156940691555
5.14175e-06;-0.0006681122613203596
5.14200e-06;-0.0006909139483299921
5.14225e-06;-0.0007108240610688622
5.14250e-06;-0.0007296076732456381
5.14275e-06;-0.0007454968627226244
5.14300e-06;-0.0007602584419456515
5.14325e-06;-0.000772020918704913
5.14350e-06;-0.0007826150040294687
5.14375e-06;-0.0007900512079206982
5.14400e-06;-0.0007962571632081398
5.14425e-06;-0.0007992600601412989
5.14450e-06;-0.0008010151084293373
5.14475e-06;-0.000799784521458147
5.14500e-06;-0.0007973907896107334
5.14525e-06;-0.0007914818730327945
5.14550e-06;-0.0007842035095019601
5.14575e-06;-0.0007769251459711009
5.14600e-06;-0.0007657158806747667
5.14625e-06;-0.0007529752132310442
