Time(s);Current(A)
1.20000e-05;-0.00869161091173461
1.20003e-05;-0.00869489673991852
1.20005e-05;-0.008698182568102428
1.20008e-05;-0.008701468396286315
1.20010e-05;-0.008704754224470224
1.20013e-05;-0.008708040052654133
1.20015e-05;-0.00871132588083802
1.20018e-05;-0.008714611709021929
1.20020e-05;-0.008717897537205836
1.20023e-05;-0.008721183365389724
1.20025e-05;-0.008724469193573633
1.20028e-05;-0.00872775502175754
1.20030e-05;-0.008731040849941429
1.20033e-05;-0.008734326678125336
1.20035e-05;-0.008737612506309245
1.20038e-05;-0.008740898334493133
1.20040e-05;-0.00874418416267704
1.20043e-05;-0.00874746999086095
1.20045e-05;-0.008750755819044836
1.20048e-05;-0.008754407938872938
1.20050e-05;-0.008758450111677413
1.20052e-05;-0.00876249228448186
1.20055e-05;-0.008766534457286335
1.20058e-05;-0.00877057663009081
1.20060e-05;-0.008774618802895259
1.20063e-05;-0.008778660975699733
1.20065e-05;-0.008782703148504208
1.20068e-05;-0.008792821625307144
1.20070e-05;-0.008809410575836727
1.20073e-05;-0.008825999526366422
1.20075e-05;-0.008842588476896117
1.20078e-05;-0.008859177427425698
1.20080e-05;-0.008875766377955393
1.20083e-05;-0.008892355328485087
1.20085e-05;-0.00890894427901467
1.20088e-05;-0.008934043383114171
1.20090e-05;-0.008968204694289314
1.20093e-05;-0.009002366005464224
1.20095e-05;-0.009036527316639367
1.20098e-05;-0.009070688627814509
1.20100e-05;-0.00910484993898942
1.20103e-05;-0.009139011250164562
1.20105e-05;-0.009179199509543049
1.20108e-05;-0.009225805685144216
1.20110e-05;-0.009272411860745698
1.20113e-05;-0.00931901803634718
1.20115e-05;-0.009365624211948347
1.20118e-05;-0.00941223038754983
1.20120e-05;-0.009458836563151312
1.20123e-05;-0.009507592301201665
1.20125e-05;-0.009558637043778443
1.20128e-05;-0.00960968178635522
1.20130e-05;-0.009660726528931653
1.20133e-05;-0.009711771271508431
1.20135e-05;-0.00976281601408521
1.20137e-05;-0.00981386075666164
1.20140e-05;-0.009864905499238418
1.20143e-05;-0.009911418497128736
1.20145e-05;-0.009953105776136782
1.20148e-05;-0.00999479305514511
1.20150e-05;-0.01003648033415344
1.20153e-05;-0.010078167613161769
1.20155e-05;-0.010119854892169815
1.20158e-05;-0.010161542171178144
1.20160e-05;-0.010203229450186473
1.20163e-05;-0.010237283894743316
1.20165e-05;-0.01026321036301632
1.20168e-05;-0.010289136831289325
1.20170e-05;-0.010315063299562152
1.20173e-05;-0.010340989767835157
1.20175e-05;-0.01036691623610816
1.20178e-05;-0.010386775270681105
1.20180e-05;-0.010400173277239523
1.20183e-05;-0.010413571283797942
1.20185e-05;-0.01042696929035627
1.20188e-05;-0.010440367296914688
1.20190e-05;-0.010453765303473106
1.20193e-05;-0.010464129217321521
1.20195e-05;-0.010467433738049208
1.20198e-05;-0.010466661426549964
1.20200e-05;-0.010465889115050723
1.20203e-05;-0.010465116803551477
1.20205e-05;-0.010464344492052233
1.20208e-05;-0.010463572180552992
1.20210e-05;-0.010462799869053747
1.20213e-05;-0.010462027557554501
1.20215e-05;-0.01046125524605526
1.20218e-05;-0.010460482934556016
1.20220e-05;-0.010451967266051987
1.20222e-05;-0.01044332802374804
1.20225e-05;-0.010434688781444035
1.20228e-05;-0.01042604953914003
1.20230e-05;-0.010417410296836084
1.20233e-05;-0.01040877105453208
1.20235e-05;-0.010400131812228073
1.20238e-05;-0.010391492569924068
1.20240e-05;-0.010382853327620121
1.20243e-05;-0.010374822519660673
1.20245e-05;-0.010367439615170837
1.20248e-05;-0.010360056710681052
1.20250e-05;-0.010352673806191218
1.20253e-05;-0.010345290901701382
1.20255e-05;-0.010337907997211597
1.20258e-05;-0.010330525092721761
1.20260e-05;-0.010323142188231927
1.20263e-05;-0.010315759283742142
1.20265e-05;-0.010310536321702899
1.20268e-05;-0.010307613417542612
1.20270e-05;-0.010304690513382344
1.20273e-05;-0.010301767609222056
1.20275e-05;-0.010298844705061767
1.20278e-05;-0.010295921800901501
1.20280e-05;-0.010292998896741212
1.20283e-05;-0.010290075992580925
1.20285e-05;-0.010287153088420656
1.20288e-05;-0.010285796789016277
1.20290e-05;-0.010286108719990604
1.20293e-05;-0.010286420650964925
1.20295e-05;-0.01028673258193925
1.20298e-05;-0.010287044512913575
1.20300e-05;-0.010287356443887898
1.20303e-05;-0.010287668374862223
1.20305e-05;-0.010287980305836547
1.20307e-05;-0.01028829223681087
1.20310e-05;-0.010288604167785195
1.20313e-05;-0.01028891609875952
1.20315e-05;-0.010289228029733843
1.20318e-05;-0.010289539960708168
1.20320e-05;-0.010289851891682493
1.20323e-05;-0.010290163822656817
1.20325e-05;-0.010291412577301465
1.20328e-05;-0.010293658927351441
1.20330e-05;-0.010295905277401415
1.20333e-05;-0.010298151627451374
1.20335e-05;-0.010300397977501348
1.20338e-05;-0.010302644327551324
1.20340e-05;-0.010304890677601283
1.20343e-05;-0.010307137027651257
1.20345e-05;-0.010309383377701231
1.20348e-05;-0.010311629727751192
1.20350e-05;-0.010313876077801166
1.20353e-05;-0.01031612242785114
1.20355e-05;-0.010318368777901099
1.20358e-05;-0.010320615127951075
1.20360e-05;-0.01032286147800105
1.20363e-05;-0.010326646913472516
1.20365e-05;-0.010332071274809831
1.20368e-05;-0.010337495636147146
1.20370e-05;-0.010342919997484424
1.20373e-05;-0.010348344358821739
1.20375e-05;-0.010353768720159053
1.20378e-05;-0.010359193081496331
1.20380e-05;-0.010364617442833646
1.20383e-05;-0.010370041804170962
1.20385e-05;-0.01037546616550824
1.20388e-05;-0.010380890526845555
1.20390e-05;-0.01038872971386516
1.20392e-05;-0.010399140376266897
1.20395e-05;-0.010409551038668703
1.20398e-05;-0.010419961701070509
1.20400e-05;-0.010430372363472246
1.20403e-05;-0.010440783025874052
1.20405e-05;-0.010451193688275857
1.20408e-05;-0.010461604350677663
1.20410e-05;-0.0104720150130794
1.20413e-05;-0.010482425675481206
1.20415e-05;-0.010492836337883012
1.20418e-05;-0.010504389100037944
1.20420e-05;-0.010517158049937353
1.20423e-05;-0.010529926999836762
1.20425e-05;-0.010542695949736083
1.20428e-05;-0.010555464899635492
1.20430e-05;-0.0105682338495349
1.20433e-05;-0.010581002799434223
1.20435e-05;-0.010593771749333632
1.20438e-05;-0.01060654069923304
1.20440e-05;-0.01061851703544815
1.20443e-05;-0.010629649341143101
1.20445e-05;-0.010640781646838052
1.20448e-05;-0.010651913952532928
1.20450e-05;-0.010663046258227879
1.20453e-05;-0.01067417856392283
1.20455e-05;-0.010685310869617706
1.20458e-05;-0.010696443175312657
1.20460e-05;-0.010707575481007607
1.20463e-05;-0.010718020882296989
1.20465e-05;-0.010727734819703943
1.20468e-05;-0.010737448757110897
1.20470e-05;-0.010747162694517786
1.20473e-05;-0.01075687663192474
1.20475e-05;-0.010766590569331696
1.20477e-05;-0.010776304506738584
1.20480e-05;-0.010786018444145538
1.20483e-05;-0.010795732381552493
1.20485e-05;-0.010805446318959381
1.20488e-05;-0.010815160256366337
1.20490e-05;-0.01082487419377329
1.20493e-05;-0.010836124110678214
1.20495e-05;-0.01084739853979729
1.20498e-05;-0.010858672968916442
1.20500e-05;-0.010869947398035594
1.20503e-05;-0.010881221827154668
1.20505e-05;-0.01089249625627382
1.20508e-05;-0.010903770685392972
1.20510e-05;-0.010915045114512046
1.20513e-05;-0.010926319543631198
1.20515e-05;-0.01093759397275035
1.20518e-05;-0.010948868401869425
1.20520e-05;-0.010960096748629898
1.20523e-05;-0.010971276023669867
1.20525e-05;-0.01098245529870976
1.20528e-05;-0.010993634573749729
1.20530e-05;-0.011004813848789699
1.20533e-05;-0.01101599312382959
1.20535e-05;-0.011027172398869559
1.20538e-05;-0.011038351673909529
1.20540e-05;-0.011049530948949421
1.20543e-05;-0.011060710223989391
1.20545e-05;-0.01107188949902936
1.20548e-05;-0.011083068774069253
1.20550e-05;-0.011094248049109221
1.20553e-05;-0.01110542732414919
1.20555e-05;-0.011116606599189083
1.20558e-05;-0.011121917076940492
1.20560e-05;-0.011127133896399487
1.20562e-05;-0.011132350715858446
1.20565e-05;-0.01113756753531744
1.20568e-05;-0.011142784354776435
1.20570e-05;-0.011148001174235395
1.20573e-05;-0.011153217993694389
1.20575e-05;-0.011158434813153383
1.20578e-05;-0.011163651632612378
1.20580e-05;-0.011168868452071335
1.20583e-05;-0.01117408527153033
1.20585e-05;-0.011179302090989324
1.20588e-05;-0.011184518910448284
1.20590e-05;-0.011189735729907278
1.20593e-05;-0.01119162032742504
1.20595e-05;-0.011189956541819847
1.20598e-05;-0.011188292756214642
1.20600e-05;-0.011186628970609437
1.20603e-05;-0.011184965185004244
1.20605e-05;-0.01118330139939904
1.20608e-05;-0.011181637613793835
1.20610e-05;-0.011179973828188642
1.20613e-05;-0.011178310042583437
1.20615e-05;-0.011176646256978232
1.20618e-05;-0.01117498247137304
1.20620e-05;-0.011170817946300033
1.20623e-05;-0.011166613512711273
1.20625e-05;-0.011162409079122542
1.20628e-05;-0.01115820464553378
1.20630e-05;-0.011154000211945021
1.20633e-05;-0.01114979577835629
1.20635e-05;-0.01114559134476753
1.20638e-05;-0.01114138691117877
1.20640e-05;-0.011137182477590038
1.20643e-05;-0.011132978044001278
1.20645e-05;-0.0111297403869071
1.20647e-05;-0.0111275322210827
1.20650e-05;-0.011125324055258286
1.20653e-05;-0.011123115889433873
1.20655e-05;-0.011120907723609475
1.20658e-05;-0.011118699557785062
1.20660e-05;-0.011116491391960649
1.20663e-05;-0.011114283226136236
1.20665e-05;-0.011112075060311838
1.20668e-05;-0.011109866894487425
1.20670e-05;-0.011107658728663011
1.20673e-05;-0.011105450562838612
1.20675e-05;-0.011103242397014199
1.20678e-05;-0.011101034231189785
1.20680e-05;-0.011098826065365388
1.20683e-05;-0.011096903914008397
1.20685e-05;-0.011095286330872632
1.20688e-05;-0.01109366874773688
1.20690e-05;-0.011092051164601116
1.20693e-05;-0.011090433581465352
1.20695e-05;-0.0110888159983296
1.20698e-05;-0.011087198415193835
1.20700e-05;-0.011085580832058073
1.20703e-05;-0.011083963248922319
1.20705e-05;-0.011082345665786555
1.20708e-05;-0.011080728082650792
1.20710e-05;-0.011079110499515038
1.20713e-05;-0.011077492916379276
1.20715e-05;-0.011075875333243512
1.20718e-05;-0.011074257750107758
1.20720e-05;-0.011072826749541164
1.20723e-05;-0.011071594435151964
1.20725e-05;-0.011070362120762772
1.20728e-05;-0.011069129806373573
1.20730e-05;-0.011067897491984372
1.20732e-05;-0.01106666517759518
1.20735e-05;-0.01106543286320598
1.20738e-05;-0.01106420054881678
1.20740e-05;-0.011062968234427588
1.20743e-05;-0.011061735920038389
1.20745e-05;-0.011060503605649188
1.20748e-05;-0.011059271291259989
1.20750e-05;-0.011058038976870797
1.20753e-05;-0.011056806662481596
1.20755e-05;-0.011055574348092397
1.20758e-05;-0.011054342033703205
1.20760e-05;-0.011055420638482664
1.20763e-05;-0.011058960071719831
1.20765e-05;-0.011062499504956975
1.20768e-05;-0.011066038938194144
1.20770e-05;-0.011069578371431313
1.20773e-05;-0.011073117804668457
1.20775e-05;-0.011076657237905624
1.20778e-05;-0.011080196671142793
1.20780e-05;-0.011083736104379937
1.20783e-05;-0.011087275537617106
1.20785e-05;-0.011090814970854273
1.20788e-05;-0.011094354404091417
1.20790e-05;-0.011097893837328586
1.20793e-05;-0.011101433270565755
1.20795e-05;-0.011104972703802899
1.20798e-05;-0.011108512137040066
1.20800e-05;-0.011114509325888028
1.20803e-05;-0.01112312370491361
1.20805e-05;-0.011131738083939252
1.20808e-05;-0.011140352462964891
1.20810e-05;-0.011148966841990475
1.20813e-05;-0.011157581221016115
1.20815e-05;-0.011166195600041756
1.20817e-05;-0.011174809979067338
1.20820e-05;-0.01118342435809298
1.20823e-05;-0.011192038737118621
1.20825e-05;-0.011200653116144203
1.20828e-05;-0.011210129885354851
1.20830e-05;-0.011219620417179735
1.20833e-05;-0.011229110949004618
1.20835e-05;-0.011238601480829438
1.20838e-05;-0.011248092012654323
1.20840e-05;-0.011257582544479207
1.20843e-05;-0.011267073076304026
1.20845e-05;-0.01127656360812891
1.20848e-05;-0.011286054139953794
1.20850e-05;-0.011295544671778613
1.20853e-05;-0.011304206891805672
1.20855e-05;-0.011311987067461752
1.20858e-05;-0.011319767243117779
1.20860e-05;-0.01132754741877386
1.20863e-05;-0.01133532759442994
1.20865e-05;-0.011343107770085967
1.20868e-05;-0.011350887945742048
1.20870e-05;-0.011358668121398128
1.20873e-05;-0.011366448297054155
1.20875e-05;-0.011374228472710236
1.20878e-05;-0.011382453230673596
1.20880e-05;-0.011391151410991415
1.20883e-05;-0.011399849591309293
1.20885e-05;-0.011408547771627172
1.20888e-05;-0.011417245951944991
1.20890e-05;-0.011425944132262871
1.20893e-05;-0.01143464231258075
1.20895e-05;-0.011443340492898569
1.20898e-05;-0.011452038673216447
1.20900e-05;-0.011460736853534326
1.20902e-05;-0.01147015947680852
1.20905e-05;-0.01148035353764235
1.20908e-05;-0.01149054759847618
1.20910e-05;-0.011500741659309942
1.20913e-05;-0.011510935720143773
1.20915e-05;-0.011521129780977604
1.20918e-05;-0.011531323841811434
1.20920e-05;-0.011541517902645196
1.20923e-05;-0.011551711963479027
1.20925e-05;-0.011561906024312856
1.20928e-05;-0.01157193623827151
1.20930e-05;-0.011581963837449371
1.20933e-05;-0.011591991436627234
1.20935e-05;-0.011602019035805029
1.20938e-05;-0.011612046634982892
1.20940e-05;-0.011622074234160753
1.20943e-05;-0.011632101833338548
1.20945e-05;-0.011642129432516411
1.20948e-05;-0.011652157031694274
1.20950e-05;-0.011660632455451247
1.20953e-05;-0.011667455014192021
1.20955e-05;-0.011674277572932797
1.20958e-05;-0.011681100131673524
1.20960e-05;-0.0116879226904143
1.20963e-05;-0.011694745249155074
1.20965e-05;-0.011701567807895804
1.20968e-05;-0.011708390366636578
1.20970e-05;-0.011715212925377352
1.20973e-05;-0.011722035484118081
1.20975e-05;-0.011728858042858855
1.20978e-05;-0.011735680601599631
1.20980e-05;-0.011742503160340359
1.20983e-05;-0.011749325719081135
1.20985e-05;-0.011756148277821909
1.20987e-05;-0.011761440905726893
1.20990e-05;-0.011765104356206401
1.20993e-05;-0.011768767806685908
1.20995e-05;-0.011772431257165391
1.20998e-05;-0.011776094707644898
1.21000e-05;-0.011779758158124405
1.21003e-05;-0.011783421608603913
1.21005e-05;-0.011787085059083395
1.21008e-05;-0.011790748509562902
1.21010e-05;-0.011794411960042411
1.21013e-05;-0.011798075410521892
1.21015e-05;-0.011801738861001401
1.21018e-05;-0.011805402311480908
1.21020e-05;-0.011809065761960391
1.21023e-05;-0.011812729212439898
1.21025e-05;-0.01181585045677177
1.21028e-05;-0.01181839432205147
1.21030e-05;-0.011820938187331188
1.21033e-05;-0.011823482052610907
1.21035e-05;-0.011826025917890608
1.21038e-05;-0.011828569783170324
1.21040e-05;-0.011831113648450043
1.21043e-05;-0.011833657513729744
1.21045e-05;-0.011836201379009462
1.21048e-05;-0.011838745244289179
1.21050e-05;-0.01184128910956888
1.21053e-05;-0.011843823298160644
1.21055e-05;-0.011846361615363952
1.21058e-05;-0.011848926126633108
1.21060e-05;-0.011851095784983329
1.21063e-05;-0.011852832701584992
1.21065e-05;-0.011853144131343096
1.21068e-05;-0.011851937602947676
1.21070e-05;-0.011849232069481984
1.21072e-05;-0.011844930290509849
1.21075e-05;-0.01183898705550668
1.21078e-05;-0.011831295883244648
1.21080e-05;-0.011823604710982667
1.21083e-05;-0.011813451655362194
1.21085e-05;-0.01180067701404705
1.21088e-05;-0.011787902372731909
1.21090e-05;-0.011771679276919184
1.21093e-05;-0.011751784025417494
1.21095e-05;-0.011731888773915804
1.21098e-05;-0.011711993522414248
1.21100e-05;-0.011692098270912558
1.21103e-05;-0.011672203019410868
1.21105e-05;-0.011645061223618426
1.21108e-05;-0.011617803782498713
1.21110e-05;-0.011590546341378998
1.21113e-05;-0.011563288900259469
1.21115e-05;-0.011536031459139754
1.21118e-05;-0.011506768205880506
1.21120e-05;-0.011475369023478548
1.21123e-05;-0.011443969841076377
1.21125e-05;-0.011412570658674208
1.21128e-05;-0.01138117147627225
1.21130e-05;-0.011349772293870079
1.21133e-05;-0.011318373111467907
1.21135e-05;-0.011288445715501519
1.21138e-05;-0.011258541807312993
1.21140e-05;-0.011228637899124465
1.21143e-05;-0.011198733990936143
1.21145e-05;-0.011168830082747615
1.21148e-05;-0.01113892617455909
1.21150e-05;-0.011115005542103916
1.21153e-05;-0.01109745632038957
1.21155e-05;-0.01107990709867522
1.21158e-05;-0.011062357876960993
1.21160e-05;-0.011044808655246645
1.21163e-05;-0.011027259433532298
1.21165e-05;-0.011009710211818069
1.21168e-05;-0.010992160990103722
1.21170e-05;-0.010974611768389373
1.21173e-05;-0.010957062546675026
1.21175e-05;-0.010939513324960798
1.21178e-05;-0.01092196410324645
1.21180e-05;-0.010910750002753499
1.21183e-05;-0.010906281982701809
1.21185e-05;-0.010901813962650088
1.21188e-05;-0.010897345942598368
1.21190e-05;-0.010892877922546678
1.21193e-05;-0.010888409902494957
1.21195e-05;-0.010883941882443238
1.21198e-05;-0.010879473862391548
1.21200e-05;-0.010875005842339826
1.21203e-05;-0.010870537822288107
1.21205e-05;-0.010866069802236417
1.21208e-05;-0.010861601782184697
1.21210e-05;-0.01086030893766825
1.21213e-05;-0.010862397242277297
1.21215e-05;-0.010864485546886357
1.21218e-05;-0.01086657385149542
1.21220e-05;-0.010868662156104467
1.21223e-05;-0.010870750460713528
1.21225e-05;-0.010872838765322591
1.21228e-05;-0.010874927069931638
1.21230e-05;-0.0108770153745407
1.21233e-05;-0.010879103679149762
1.21235e-05;-0.01088215994367471
1.21238e-05;-0.010886246959661157
1.21240e-05;-0.010890333975647601
1.21243e-05;-0.010894420991634018
1.21245e-05;-0.010898508007620464
1.21248e-05;-0.010902595023606909
1.21250e-05;-0.010906682039593328
1.21253e-05;-0.010910769055579772
1.21255e-05;-0.010914856071566219
1.21258e-05;-0.010918943087552663
1.21260e-05;-0.010923451358897215
1.21263e-05;-0.01092840821242887
1.21265e-05;-0.010933365065960526
1.21268e-05;-0.010938321919492148
1.21270e-05;-0.010943278773023805
1.21273e-05;-0.010948235626555461
1.21275e-05;-0.010953192480087083
1.21278e-05;-0.010958149333618739
1.21280e-05;-0.010963106187150394
1.21283e-05;-0.010968063040682017
1.21285e-05;-0.010973019894213672
1.21288e-05;-0.010980371587303583
1.21290e-05;-0.010987761498887026
1.21293e-05;-0.010995151410470517
1.21295e-05;-0.011002541322054008
1.21298e-05;-0.01100993123363745
1.21300e-05;-0.011017321145220941
1.21303e-05;-0.011024711056804434
1.21305e-05;-0.011032100968387875
1.21308e-05;-0.011039490879971367
1.21310e-05;-0.011046880791554858
1.21313e-05;-0.011054759858346376
1.21315e-05;-0.011063159811837335
1.21318e-05;-0.011071559765328292
1.21320e-05;-0.011079959718819194
1.21323e-05;-0.011088359672310153
1.21325e-05;-0.011096759625801112
1.21328e-05;-0.011105159579292014
1.21330e-05;-0.011113559532782973
1.21333e-05;-0.011121975402979038
1.21335e-05;-0.011130511810776626
1.21338e-05;-0.01113904821857427
1.21340e-05;-0.011147584626371915
1.21343e-05;-0.01115612103416956
1.21345e-05;-0.011164657441967147
1.21348e-05;-0.011173193849764793
1.21350e-05;-0.011181730257562437
1.21353e-05;-0.011190266665360025
1.21355e-05;-0.011198073730424949
1.21358e-05;-0.011205636380171684
1.21360e-05;-0.011213199029918368
1.21363e-05;-0.011218720623054634
1.21365e-05;-0.011223558222948045
1.21368e-05;-0.011228395822841424
1.21370e-05;-0.011231157720711427
1.21373e-05;-0.011233224015063645
1.21375e-05;-0.011235290309415849
1.21378e-05;-0.011233396473880344
1.21380e-05;-0.011230175530576132
1.21383e-05;-0.011226954587271942
1.21385e-05;-0.01122373364396773
1.21388e-05;-0.011220512700663519
1.21390e-05;-0.011217291757359327
1.21393e-05;-0.011212375965421156
1.21395e-05;-0.011202348343620064
1.21398e-05;-0.011192320721819039
1.21400e-05;-0.011182293100017945
1.21403e-05;-0.011172265478216852
1.21405e-05;-0.011162237856415826
1.21408e-05;-0.011152210234614733
1.21410e-05;-0.01113853104658957
1.21413e-05;-0.011123628155796756
1.21415e-05;-0.01110872526500384
1.21418e-05;-0.011093822374210926
1.21420e-05;-0.011078919483418112
1.21423e-05;-0.011064016592625197
1.21425e-05;-0.011049113701832283
1.21427e-05;-0.011033309365960994
1.21430e-05;-0.011017202940309511
1.21433e-05;-0.01100109651465803
1.21435e-05;-0.010984990089006547
1.21438e-05;-0.010968883663355175
1.21440e-05;-0.010952777237703692
1.21443e-05;-0.01093667081205221
1.21445e-05;-0.010921975879720864
1.21448e-05;-0.01090775396312477
1.21450e-05;-0.010893532046528676
1.21453e-05;-0.010881313750895424
1.21455e-05;-0.010869766903174483
1.21458e-05;-0.010858220055453543
1.21460e-05;-0.01084958714273383
1.21463e-05;-0.010841930739847917
1.21465e-05;-0.010834274336962003
1.21468e-05;-0.010830519844645385
1.21470e-05;-0.010828072949801001
1.21473e-05;-0.010825626054956617
