Time(s);Current(A)
1.25000e-05;-0.012214668761922079
1.25003e-05;-0.012213715335958358
1.25005e-05;-0.012212761909994645
1.25008e-05;-0.012211684445607928
1.25010e-05;-0.012208903516400122
1.25012e-05;-0.012206122587192338
1.25015e-05;-0.012203341657984533
1.25018e-05;-0.012200560728776729
1.25020e-05;-0.012197779799568924
1.25023e-05;-0.01219499887036114
1.25025e-05;-0.012192217941153334
1.25028e-05;-0.012189449352317746
1.25030e-05;-0.012186690153970036
1.25033e-05;-0.01218393095562231
1.25035e-05;-0.012181467485480145
1.25038e-05;-0.012179229051672073
1.25040e-05;-0.012177331476573638
1.25043e-05;-0.012175693280164884
1.25045e-05;-0.012174587658962698
1.25048e-05;-0.012173887304386583
1.25050e-05;-0.012174138921381287
1.25053e-05;-0.012175114947439477
1.25055e-05;-0.012177130473565686
1.25058e-05;-0.0121799370141443
1.25060e-05;-0.012183979090418075
1.25063e-05;-0.012188961355751421
1.25065e-05;-0.012193943621084767
1.25068e-05;-0.012200557636206841
1.25070e-05;-0.012208413342123723
1.25073e-05;-0.012216269048040605
1.25075e-05;-0.01222591030507906
1.25078e-05;-0.012236910289053927
1.25080e-05;-0.012247910273028791
1.25083e-05;-0.012259104407555406
1.25085e-05;-0.012272964882295161
1.25088e-05;-0.012286825357034917
1.25090e-05;-0.01230068583177458
1.25093e-05;-0.012315716136023542
1.25095e-05;-0.012331636629775307
1.25097e-05;-0.012348075683596478
1.25100e-05;-0.012365192286238405
1.25103e-05;-0.012382760605625404
1.25105e-05;-0.01240070661846733
1.25108e-05;-0.01241898031990134
1.25110e-05;-0.012437544330601078
1.25113e-05;-0.01245633719592469
1.25115e-05;-0.012475270233737496
1.25118e-05;-0.012494246988941478
1.25120e-05;-0.012513169546242552
1.25123e-05;-0.012531941300940066
1.25125e-05;-0.01255047043137023
1.25128e-05;-0.012568679694646938
1.25130e-05;-0.012586499517602837
1.25133e-05;-0.012603846955641318
1.25135e-05;-0.012620620816984758
1.25138e-05;-0.012636715183706775
1.25140e-05;-0.012652023632186853
1.25143e-05;-0.012666439186752415
1.25145e-05;-0.012679814424528467
1.25148e-05;-0.012691886969631886
1.25150e-05;-0.012702349369719782
1.25153e-05;-0.012711026725754337
1.25155e-05;-0.01271789246342181
1.25158e-05;-0.012722962162358693
1.25160e-05;-0.012726252436769028
1.25163e-05;-0.01272777979761198
1.25165e-05;-0.012727534817886351
1.25168e-05;-0.012725436141732343
1.25170e-05;-0.012721374458846933
1.25173e-05;-0.012715324159947913
1.25175e-05;-0.012707350884304573
1.25178e-05;-0.012697066351645072
1.25180e-05;-0.012685642283283552
1.25182e-05;-0.012671731869173405
1.25185e-05;-0.012655929453819494
1.25188e-05;-0.012640127038465582
1.25190e-05;-0.012623989419926686
1.25193e-05;-0.012603248334005812
1.25195e-05;-0.012582507248084797
1.25198e-05;-0.012561766162163781
1.25200e-05;-0.01253937344334447
1.25203e-05;-0.012515723903545972
1.25205e-05;-0.012491250379465762
1.25208e-05;-0.012466149839096182
1.25210e-05;-0.012440458811916086
1.25213e-05;-0.012414318449891779
1.25215e-05;-0.01238793507068059
1.25218e-05;-0.012361366765933248
1.25220e-05;-0.012334946016779353
1.25223e-05;-0.012308637551030505
1.25225e-05;-0.012282847645350922
1.25228e-05;-0.012257452341386307
1.25230e-05;-0.012232649904161116
1.25233e-05;-0.012208820081674102
1.25235e-05;-0.012186017491103183
1.25238e-05;-0.01216443239827959
1.25240e-05;-0.012144255448304957
1.25243e-05;-0.012125677964756715
1.25245e-05;-0.012108928418752492
1.25248e-05;-0.012094334195444261
1.25250e-05;-0.012082238126902334
1.25253e-05;-0.012072834543514963
1.25255e-05;-0.012066166530555054
1.25258e-05;-0.012062234467293514
1.25260e-05;-0.012061037974459508
1.25263e-05;-0.012062576373577655
1.25265e-05;-0.012066873866386734
1.25267e-05;-0.012074015201123216
1.25270e-05;-0.012084095511761626
1.25273e-05;-0.01209711634279944
1.25275e-05;-0.012112984920189113
1.25278e-05;-0.012131581632191517
1.25280e-05;-0.012153478506652217
1.25283e-05;-0.012177006508854728
1.25285e-05;-0.012204161296081074
1.25288e-05;-0.012234075909362053
1.25290e-05;-0.01226399052264303
1.25293e-05;-0.012294368279806735
1.25295e-05;-0.012331106560545839
1.25298e-05;-0.01236784484128494
1.25300e-05;-0.012404583122023796
1.25303e-05;-0.012443497224451356
1.25305e-05;-0.012484067032785469
1.25308e-05;-0.012525727113004124
1.25310e-05;-0.012568216842825806
1.25313e-05;-0.012611361053102234
1.25315e-05;-0.012655003294609708
1.25318e-05;-0.012698758450523203
1.25320e-05;-0.012742599529400652
1.25323e-05;-0.012786006667903575
1.25325e-05;-0.012829083596608552
1.25328e-05;-0.012871216486839431
1.25330e-05;-0.01291263100474844
1.25333e-05;-0.012952557273769167
1.25335e-05;-0.012991351049953487
1.25338e-05;-0.01302804493551496
1.25340e-05;-0.01306314089541677
1.25343e-05;-0.013096277909375736
1.25345e-05;-0.013125188037359937
1.25348e-05;-0.01315201602588517
1.25350e-05;-0.0131788440144104
1.25352e-05;-0.01320200162365818
1.25355e-05;-0.013222366233515581
1.25358e-05;-0.01324273084337298
1.25360e-05;-0.013259074959964414
1.25363e-05;-0.013272359655609498
1.25365e-05;-0.013285644351254672
1.25368e-05;-0.013293918234031143
1.25370e-05;-0.013298379105608563
1.25373e-05;-0.013302839977186013
1.25375e-05;-0.013307300848763463
1.25378e-05;-0.013311761720340884
1.25380e-05;-0.013308060052757057
1.25383e-05;-0.013304040232945805
1.25385e-05;-0.01330002041313458
1.25388e-05;-0.013296000593323327
1.25390e-05;-0.013289308835336616
1.25393e-05;-0.013277806629011162
1.25395e-05;-0.013266304422685633
1.25398e-05;-0.013254802216360101
1.25400e-05;-0.013243300010034648
1.25403e-05;-0.013229997721541228
1.25405e-05;-0.013213454638648333
1.25408e-05;-0.013196911555755551
1.25410e-05;-0.013180368472862657
1.25413e-05;-0.013163825389969762
1.25415e-05;-0.013146698974829564
1.25418e-05;-0.013128522352140794
1.25420e-05;-0.013110201060394084
1.25423e-05;-0.013091619312385483
1.25425e-05;-0.013073210834673731
1.25428e-05;-0.013055232701553102
1.25430e-05;-0.013037656292076568
1.25433e-05;-0.013020677782734583
1.25435e-05;-0.013005385320555259
1.25437e-05;-0.012992290769935825
1.25440e-05;-0.012979196219316303
1.25443e-05;-0.012966101668696781
1.25445e-05;-0.012953007118077257
1.25448e-05;-0.012939912567457823
1.25450e-05;-0.01292839513128475
1.25453e-05;-0.012919717067534482
1.25455e-05;-0.012911039003784274
1.25458e-05;-0.012902360940034007
1.25460e-05;-0.01289368287628374
1.25463e-05;-0.012885004812533532
1.25465e-05;-0.012877798419256018
1.25468e-05;-0.012873241561378708
1.25470e-05;-0.012868684703501429
1.25473e-05;-0.012864127845624119
1.25475e-05;-0.01285957098774681
1.25478e-05;-0.012855014129869531
1.25480e-05;-0.012850457271992221
1.25483e-05;-0.012845900414114911
1.25485e-05;-0.012841343556237632
1.25488e-05;-0.012836786698360322
1.25490e-05;-0.012832229840483014
1.25493e-05;-0.012827672982605735
1.25495e-05;-0.012823116124728424
1.25498e-05;-0.012818559266851114
1.25500e-05;-0.012816595427238012
1.25503e-05;-0.0128150639190042
1.25505e-05;-0.012813532410770387
1.25508e-05;-0.012812000902536584
1.25510e-05;-0.012810469394302772
1.25513e-05;-0.012808937886068959
1.25515e-05;-0.012807406377835156
1.25518e-05;-0.012805874869601344
1.25520e-05;-0.01280434336136753
1.25522e-05;-0.012802811853133728
1.25525e-05;-0.012801280344899916
1.25528e-05;-0.012799748836666102
1.25530e-05;-0.012798217328432289
1.25533e-05;-0.012797134719231799
1.25535e-05;-0.012796860289513145
1.25538e-05;-0.012796585859794492
1.25540e-05;-0.012796501994145212
1.25543e-05;-0.012796761212261814
1.25545e-05;-0.012797020430378416
1.25548e-05;-0.012797719641974554
1.25550e-05;-0.012799210999857376
1.25553e-05;-0.012800702357740196
1.25555e-05;-0.012803162103532405
1.25558e-05;-0.01280736529535773
1.25560e-05;-0.012811568487183057
1.25563e-05;-0.012815771679008353
1.25565e-05;-0.012819974870833679
1.25568e-05;-0.012824178062659005
1.25570e-05;-0.012828381254484303
1.25573e-05;-0.012833964859931022
1.25575e-05;-0.012842033705671408
1.25578e-05;-0.01285010255141174
1.25580e-05;-0.012858171397152127
1.25583e-05;-0.012866240242892513
1.25585e-05;-0.012874309088632845
1.25588e-05;-0.012882377934373232
1.25590e-05;-0.012891578239428443
1.25593e-05;-0.012902815577613677
1.25595e-05;-0.012914052915798988
1.25598e-05;-0.012925290253984298
1.25600e-05;-0.012936527592169534
1.25603e-05;-0.012947764930354844
1.25605e-05;-0.012959002268540154
1.25607e-05;-0.012970239606725388
1.25610e-05;-0.012981825855083916
1.25613e-05;-0.01299404026706532
1.25615e-05;-0.013006254679046723
1.25618e-05;-0.013018469091028046
1.25620e-05;-0.01303068350300945
1.25623e-05;-0.013042897914990853
1.25625e-05;-0.013055112326972174
1.25628e-05;-0.013067326738953578
1.25630e-05;-0.013079042435305678
1.25633e-05;-0.013089860264411193
1.25635e-05;-0.013100678093516782
1.25638e-05;-0.013111495922622372
1.25640e-05;-0.013122313751727887
1.25643e-05;-0.013131698130252663
1.25645e-05;-0.013140843510974816
1.25648e-05;-0.013149988891696905
1.25650e-05;-0.013159134272419057
1.25653e-05;-0.01316872200940731
1.25655e-05;-0.013179106146546842
1.25658e-05;-0.013189490283686442
1.25660e-05;-0.013199874420826043
1.25663e-05;-0.013210258557965574
1.25665e-05;-0.013220642695105174
1.25668e-05;-0.013231026832244775
1.25670e-05;-0.013241410969384306
1.25673e-05;-0.013251795106523906
1.25675e-05;-0.013264591600220055
1.25678e-05;-0.013277790303747415
1.25680e-05;-0.013290989007274866
1.25683e-05;-0.013304187710802317
1.25685e-05;-0.013317386414329679
1.25688e-05;-0.01333058511785713
1.25690e-05;-0.01334378382138458
1.25692e-05;-0.01335698252491194
1.25695e-05;-0.013370948062479912
1.25698e-05;-0.013386294176729704
1.25700e-05;-0.013401640290979493
1.25703e-05;-0.01341698640522918
1.25705e-05;-0.01343233251947897
1.25708e-05;-0.013447678633728762
1.25710e-05;-0.013463024747978447
1.25713e-05;-0.013478370862228238
1.25715e-05;-0.013493716976478028
1.25718e-05;-0.01350831556821957
1.25720e-05;-0.013522789526270075
1.25723e-05;-0.013537263484320577
1.25725e-05;-0.013551737442370983
1.25728e-05;-0.013566211400421486
1.25730e-05;-0.01358068535847199
1.25733e-05;-0.013595159316522396
1.25735e-05;-0.013609633274572899
1.25738e-05;-0.013623282354892
1.25740e-05;-0.01363544635903897
1.25743e-05;-0.013647022873782194
1.25745e-05;-0.013657541696601189
1.25748e-05;-0.01366673671439782
1.25750e-05;-0.01367354840770858
1.25753e-05;-0.013678118451196743
1.25755e-05;-0.013678652719913711
1.25758e-05;-0.013679186988630684
1.25760e-05;-0.013677195036282562
1.25763e-05;-0.013670654978722784
1.25765e-05;-0.01366411492116296
1.25768e-05;-0.013654721834582117
1.25770e-05;-0.01364019227109564
1.25773e-05;-0.013625662707609064
1.25775e-05;-0.01360757300738058
1.25777e-05;-0.013583073782390381
1.25780e-05;-0.013558574557400014
1.25783e-05;-0.013534075332409648
1.25785e-05;-0.013509576107419282
1.25788e-05;-0.013479409035049728
1.25790e-05;-0.01344521931410122
1.25793e-05;-0.013411029593152714
1.25795e-05;-0.01337683987220444
1.25798e-05;-0.013336071669243834
1.25800e-05;-0.013294002462608638
1.25803e-05;-0.013251933255973727
1.25805e-05;-0.013209645097240829
1.25808e-05;-0.013164934580691524
1.25810e-05;-0.013119559682998773
1.25813e-05;-0.013074140391102287
1.25815e-05;-0.013027695963454025
1.25818e-05;-0.012980120876960445
1.25820e-05;-0.01293265024347901
1.25823e-05;-0.01288553781095068
1.25825e-05;-0.01283913918052993
1.25828e-05;-0.012793670392094633
1.25830e-05;-0.012749408542476819
1.25833e-05;-0.012706870606998887
1.25835e-05;-0.012665573158457661
1.25838e-05;-0.012625577487838203
1.25840e-05;-0.01258778871266793
1.25843e-05;-0.012552495207529654
1.25845e-05;-0.01252005564722368
1.25848e-05;-0.012490757696635955
1.25850e-05;-0.012464875066360407
1.25853e-05;-0.012442691710545005
1.25855e-05;-0.012423773328549579
1.25858e-05;-0.012408015952293279
1.25860e-05;-0.01239584499325557
1.25862e-05;-0.012387296938905388
1.25865e-05;-0.012382615849845416
1.25868e-05;-0.012383082442455298
1.25870e-05;-0.012384180150269365
1.25873e-05;-0.012392081490992376
1.25875e-05;-0.012400878534460716
1.25878e-05;-0.012419331552993575
1.25880e-05;-0.01243778457152631
1.25883e-05;-0.012456237590059168
1.25885e-05;-0.012474690608592028
1.25888e-05;-0.012500698148991213
1.25890e-05;-0.012532067369870602
1.25893e-05;-0.012563436590749993
1.25895e-05;-0.01259480581162917
1.25898e-05;-0.012626841530290088
1.25900e-05;-0.01266606231787487
1.25903e-05;-0.012705283105459386
1.25905e-05;-0.01274485590928265
1.25908e-05;-0.012788223565851336
1.25910e-05;-0.012831591222419728
1.25913e-05;-0.012875108929928807
1.25915e-05;-0.012920244236744115
1.25918e-05;-0.012965379543559115
1.25920e-05;-0.013010486060305512
1.25923e-05;-0.01305528221048323
1.25925e-05;-0.013099949022758408
1.25928e-05;-0.013143221529204054
1.25930e-05;-0.013186266310816331
1.25933e-05;-0.013226856142585524
1.25935e-05;-0.01326710207467609
1.25938e-05;-0.013303640653245978
1.25940e-05;-0.013339610413841026
1.25943e-05;-0.013369448126486556
1.25945e-05;-0.013399285839132087
1.25947e-05;-0.013428400440115538
1.25950e-05;-0.013449719655611918
1.25953e-05;-0.0134710388711083
1.25955e-05;-0.013491618109364598
1.25958e-05;-0.013504220145562578
1.25960e-05;-0.013516822181760558
1.25963e-05;-0.01352827905838054
1.25965e-05;-0.013527390731864791
1.25968e-05;-0.013526502405349035
1.25970e-05;-0.013525614078833278
1.25973e-05;-0.013524725752317529
1.25975e-05;-0.013523837425801773
1.25978e-05;-0.013521625019641404
1.25980e-05;-0.013505138592205224
1.25983e-05;-0.013488652164768933
1.25985e-05;-0.013472165737332642
1.25988e-05;-0.013455679309896463
1.25990e-05;-0.013439192882460172
1.25993e-05;-0.013421802004139158
1.25995e-05;-0.013394660842876353
1.25998e-05;-0.013367519681613364
1.26000e-05;-0.013340378520350374
1.26003e-05;-0.013313237359087569
1.26005e-05;-0.013285628004105637
1.26008e-05;-0.01325297136429126
1.26010e-05;-0.013220314724477104
1.26013e-05;-0.013187658084662728
1.26015e-05;-0.01315500144484835
1.26018e-05;-0.013122240868273837
1.26020e-05;-0.013088359818670613
1.26023e-05;-0.013054512921863064
1.26025e-05;-0.013021034203612301
1.26028e-05;-0.01298762825769561
1.26030e-05;-0.012955083112263037
1.26032e-05;-0.01292345440197219
1.26035e-05;-0.012892950347792373
1.26038e-05;-0.012863776016171207
1.26040e-05;-0.012836147772809572
1.26043e-05;-0.012810363393341866
1.26045e-05;-0.012787312228297558
1.26048e-05;-0.012764623383305439
1.26050e-05;-0.01274584046962072
1.26053e-05;-0.012727431220724558
1.26055e-05;-0.012713050203188633
1.26058e-05;-0.01269915845870887
1.26060e-05;-0.01269054124136679
1.26063e-05;-0.012681924024024713
1.26065e-05;-0.012673906088107196
1.26068e-05;-0.012672348606321578
1.26070e-05;-0.012670791124535959
1.26073e-05;-0.012670011133922588
1.26075e-05;-0.012677612758107987
1.26078e-05;-0.012685214382293385
1.26080e-05;-0.012692816006478732
1.26083e-05;-0.01270041763066413
1.26085e-05;-0.012708019254849528
1.26088e-05;-0.01272135547926754
1.26090e-05;-0.012738761728855748
1.26093e-05;-0.012756167978443957
1.26095e-05;-0.012773574228032046
1.26098e-05;-0.012790980477620253
1.26100e-05;-0.012808940483918993
1.26103e-05;-0.012832870172711792
1.26105e-05;-0.012856799861504755
1.26108e-05;-0.012880729550297718
1.26110e-05;-0.012904659239090517
1.26113e-05;-0.01292858892788348
1.26115e-05;-0.012952518616676442
1.26117e-05;-0.012977007605854065
1.26120e-05;-0.013001893548010563
1.26123e-05;-0.013026779490167062
1.26125e-05;-0.013051665432323391
1.26128e-05;-0.01307655137447989
1.26130e-05;-0.013101437316636388
1.26133e-05;-0.0131260112658692
1.26135e-05;-0.013147221827065065
1.26138e-05;-0.013168432388261073
1.26140e-05;-0.013189251641692774
1.26143e-05;-0.013205852466585183
1.26145e-05;-0.013222453291477703
1.26148e-05;-0.013238284921776023
1.26150e-05;-0.013245824377155737
1.26153e-05;-0.013253363832535503
1.26155e-05;-0.013260903287915269
1.26158e-05;-0.013268442743294985
1.26160e-05;-0.01327598219867475
1.26163e-05;-0.013283521654054517
1.26165e-05;-0.013289963160300396
1.26168e-05;-0.013284568407763883
1.26170e-05;-0.013279173655227372
1.26173e-05;-0.013273778902690898
1.26175e-05;-0.013268384150154387
1.26178e-05;-0.013262989397617874
1.26180e-05;-0.013257594645081399
1.26183e-05;-0.013251306224250652
1.26185e-05;-0.01323538376039344
1.26188e-05;-0.013219461296536339
1.26190e-05;-0.013203538832679128
1.26193e-05;-0.013187616368821917
1.26195e-05;-0.013171693904964815
1.26198e-05;-0.013155771441107604
1.26200e-05;-0.013136192238819205
1.26202e-05;-0.013114017734878554
1.26205e-05;-0.013091843230937752
1.26208e-05;-0.013069668726996948
1.26210e-05;-0.013047494223056297
1.26213e-05;-0.013025319719115495
1.26215e-05;-0.013003002096960255
1.26218e-05;-0.012979141612598607
1.26220e-05;-0.01295528112823712
1.26223e-05;-0.012931446890931368
1.26225e-05;-0.012907895605664492
1.26228e-05;-0.012884421440888813
1.26230e-05;-0.012861778660793475
1.26233e-05;-0.012839263558394728
1.26235e-05;-0.012818124864257537
1.26238e-05;-0.012797162191415213
1.26240e-05;-0.01277809708699026
1.26243e-05;-0.012759258956352966
1.26245e-05;-0.012742867679039734
1.26248e-05;-0.012726763459135948
1.26250e-05;-0.012713753814091233
1.26253e-05;-0.01270113518693324
1.26255e-05;-0.012692731863342485
1.26258e-05;-0.012684328539751787
1.26260e-05;-0.012676403618824234
1.26263e-05;-0.012673636038573322
1.26265e-05;-0.012670868458322429
1.26268e-05;-0.012668828799056724
1.26270e-05;-0.012674636371411602
1.26273e-05;-0.012680443943766443
1.26275e-05;-0.012686251516121322
1.26278e-05;-0.012692059088476202
1.26280e-05;-0.012697866660831043
1.26283e-05;-0.012704499763704202
1.26285e-05;-0.012720032361603656
1.26288e-05;-0.012735564959503006
1.26290e-05;-0.01275109755740246
1.26293e-05;-0.012766630155301915
1.26295e-05;-0.012782162753201263
1.26298e-05;-0.012798260701842293
1.26300e-05;-0.012820453320518888
1.26303e-05;-0.012842645939195483
1.26305e-05;-0.012864838557871926
1.26308e-05;-0.01288703117654852
1.26310e-05;-0.012909223795225116
1.26313e-05;-0.01293141641390156
1.26315e-05;-0.01295369740745434
1.26318e-05;-0.012976931111723272
1.26320e-05;-0.013000164815992046
1.26323e-05;-0.013023398520260979
1.26325e-05;-0.013046632224529911
1.26328e-05;-0.013069865928798687
1.26330e-05;-0.01309309963306762
1.26333e-05;-0.013116030363037958
1.26335e-05;-0.013135694928759973
1.26338e-05;-0.01315535949448212
1.26340e-05;-0.013174727779431997
1.26343e-05;-0.013190902058585235
1.26345e-05;-0.01320661835823659
1.26348e-05;-0.013217397485715189
1.26350e-05;-0.013228176613193716
1.26353e-05;-0.013238263672217263
1.26355e-05;-0.01324089000187769
1.26358e-05;-0.013243516331538101
1.26360e-05;-0.013245446666226023
1.26363e-05;-0.013239873942380371
1.26365e-05;-0.013234301218534755
1.26368e-05;-0.013227746338291194
1.26370e-05;-0.013210603483660247
1.26373e-05;-0.013193460629029416
1.26375e-05;-0.013176317774398469
1.26378e-05;-0.013159174919767522
1.26380e-05;-0.01314094746089317
1.26383e-05;-0.013111027605596556
1.26385e-05;-0.013081107750299945
1.26388e-05;-0.013051187895003334
1.26390e-05;-0.013021268039706924
1.26393e-05;-0.01299064237577974
1.26395e-05;-0.012952407858801477
1.26398e-05;-0.012914173341823472
1.26400e-05;-0.012875627773516016
1.26403e-05;-0.012833728967867927
1.26405e-05;-0.01279165394328183
1.26408e-05;-0.012747679219614923
1.26410e-05;-0.012703606188074635
1.26413e-05;-0.01265843407326011
1.26415e-05;-0.012612820515680325
1.26418e-05;-0.012567018140925501
1.26420e-05;-0.012521281973266596
1.26423e-05;-0.01247586517432849
1.26425e-05;-0.012431017145714315
1.26428e-05;-0.012386963232755035
1.26430e-05;-0.012343911567769757
1.26433e-05;-0.012302108151074449
1.26435e-05;-0.012261830991140994
1.26438e-05;-0.012223363210031533
1.26440e-05;-0.012187098056763249
1.26443e-05;-0.012154172078460517
1.26445e-05;-0.01212164486566873
1.26448e-05;-0.012093416478432135
1.26450e-05;-0.012065473725571572
1.26453e-05;-0.012040610206797062
1.26455e-05;-0.012016050821829322
1.26458e-05;-0.011994770100999504
1.26460e-05;-0.011973927621674277
1.26463e-05;-0.011957809532316266
1.26465e-05;-0.011941691442958362
1.26468e-05;-0.011926172819490245
1.26470e-05;-0.011917116638774674
1.26473e-05;-0.011908060458059101
