Time(s);Current(A)
0.00000e+00;2.1128769706082886e-20
2.50000e-10;4.5008822795145337e-14
5.00000e-10;1.0669815484171435e-14
7.50000e-10;-7.11477898407114e-08
1.00000e-09;-4.2828749095112385e-07
1.25000e-09;-1.1206435586666085e-06
1.50000e-09;-1.802893195749006e-06
1.75000e-09;-2.51777644725248e-06
2.00000e-09;-4.339687460337382e-06
2.25000e-09;-8.52948906971051e-06
2.50000e-09;-1.5602662401634612e-05
2.75000e-09;-2.5556685418312674e-05
3.00000e-09;-3.83611080545075e-05
3.25000e-09;-5.388173983310603e-05
3.50000e-09;-7.173726207254225e-05
3.75000e-09;-9.178944841922189e-05
4.00000e-09;-0.00011454627875427686
4.25000e-09;-0.00014063247934558942
4.50000e-09;-0.0001702058339045031
4.75000e-09;-0.00020309961511503645
5.00000e-09;-0.00023912963710121015
5.25000e-09;-0.00027804675145317735
5.50000e-09;-0.000319447003268108
5.75000e-09;-0.0003630787296167767
6.00000e-09;-0.00040909506136129566
6.25000e-09;-0.00045772225140729183
6.50000e-09;-0.0005096451226713071
6.75000e-09;-0.0005626794322019378
7.00000e-09;-0.0006183220325068096
7.25000e-09;-0.0006751404220734248
7.50000e-09;-0.0007343060705010022
7.75000e-09;-0.0007945298378279395
8.00000e-09;-0.0008547536051548774
8.25000e-09;-0.0009149773724818151
8.50000e-09;-0.0009754251534791065
8.75000e-09;-0.0010368324248378085
9.00000e-09;-0.0010982396961965104
9.25000e-09;-0.001159646967555212
9.50000e-09;-0.0012210542389139139
9.75000e-09;-0.0012797923865736879
1.00000e-08;-0.0013373273221474243
1.02500e-08;-0.001394862257721161
1.05000e-08;-0.0014482111694579553
1.07500e-08;-0.001499673066937946
1.10000e-08;-0.0015511349644179372
1.12500e-08;-0.0015960488123040082
1.15000e-08;-0.0016380108702769558
1.17500e-08;-0.0016799729282499034
1.20000e-08;-0.0017135197946939813
1.22500e-08;-0.0017432731838414018
1.25000e-08;-0.0017730265729888227
1.27500e-08;-0.0017938063077752413
1.30000e-08;-0.0018105408162623266
1.32500e-08;-0.0018272753247494122
1.35000e-08;-0.0018361594169698757
1.37500e-08;-0.0018415046264715594
1.40000e-08;-0.0018390206840368834
1.42500e-08;-0.0018330074446134494
1.45000e-08;-0.0018269942051900153
1.47500e-08;-0.0018122584444833555
1.50000e-08;-0.0017935906655517973
1.52500e-08;-0.0017749228866202392
1.55000e-08;-0.001748286814813926
1.57500e-08;-0.001718058722789202
1.60000e-08;-0.0016878306307644782
1.62500e-08;-0.0016508152854910732
1.65000e-08;-0.0016107403198849395
1.67500e-08;-0.0015706653542788063
1.70000e-08;-0.0015253264371507395
1.72500e-08;-0.0014776145876276513
1.75000e-08;-0.001429902738104564
1.77500e-08;-0.0013779545257891208
1.80000e-08;-0.0013240966069603941
1.82500e-08;-0.0012702386881316683
1.85000e-08;-0.0012163807693029425
1.87500e-08;-0.0011621939228208644
1.90000e-08;-0.001106598220743085
1.92500e-08;-0.0010510025186653055
1.95000e-08;-0.0009954068165875251
1.97500e-08;-0.0009398111145097457
2.00000e-08;-0.0008866342857234311
2.02500e-08;-0.000834547858846945
2.05000e-08;-0.0007824614319704596
2.07500e-08;-0.0007339701814599612
2.10000e-08;-0.0006870995975587788
2.12500e-08;-0.000643152879129343
2.15000e-08;-0.000602809240453938
2.17500e-08;-0.0005659529437656612
2.20000e-08;-0.0005326699386029069
2.22500e-08;-0.0005029181100913815
2.25000e-08;-0.0004767037471754645
2.27500e-08;-0.00045410654817698885
2.30000e-08;-0.0004352252078172146
2.32500e-08;-0.000420157413321886
2.35000e-08;-0.00040899810857569215
2.37500e-08;-0.000401791940613107
2.40000e-08;-0.0003984586287169667
2.42500e-08;-0.00039883767770364014
2.45000e-08;-0.0004027988983830987
2.47500e-08;-0.0004102581136402599
2.50000e-08;-0.00042114306344179925
2.52500e-08;-0.0004353808441545708
2.55000e-08;-0.00045289678814594857
2.57500e-08;-0.00047358479058835
2.60000e-08;-0.0004972604615773469
2.62500e-08;-0.0005245419584622763
2.65000e-08;-0.0005530397307535794
2.67500e-08;-0.0005847012542348133
2.70000e-08;-0.000617788962523617
2.72500e-08;-0.0006535447625003529
2.75000e-08;-0.0006905033093437327
2.77500e-08;-0.0007299465062486028
2.80000e-08;-0.000770509756519586
2.82500e-08;-0.0008110730067905686
2.85000e-08;-0.0008532224584097389
2.87500e-08;-0.0008960869524354466
2.90000e-08;-0.0009389514464611538
2.92500e-08;-0.000981815940486861
2.95000e-08;-0.0010246804345125685
2.97500e-08;-0.0010655998922856021
3.00000e-08;-0.0011056425487594181
3.02500e-08;-0.0011456852052332336
3.05000e-08;-0.0011857278617070492
3.07500e-08;-0.0012257705181808645
3.10000e-08;-0.0012616735471790855
3.12500e-08;-0.0012957104768982364
3.15000e-08;-0.0013260251457870482
3.17500e-08;-0.0013546618597649513
3.20000e-08;-0.001376941100693735
3.22500e-08;-0.0013963544615539338
3.25000e-08;-0.0014076631436022583
3.27500e-08;-0.001415318324127293
3.30000e-08;-0.0014150431532272258
3.32500e-08;-0.0014111930657037654
3.35000e-08;-0.0013995971048505725
3.37500e-08;-0.0013845093881034972
3.40000e-08;-0.0013608054850982958
3.42500e-08;-0.0013332174985470706
3.45000e-08;-0.001296699456198772
3.47500e-08;-0.001256155841312071
3.50000e-08;-0.0012094623413852626
3.52500e-08;-0.001156215741897797
3.55000e-08;-0.0010960109854253064
3.57500e-08;-0.0010334378663586507
3.60000e-08;-0.0009656776950776091
3.62500e-08;-0.0008921354784307579
3.65000e-08;-0.0008138570519455493
3.67500e-08;-0.0007313046585857517
3.70000e-08;-0.0006449789243565987
3.72500e-08;-0.0005553804131068514
3.75000e-08;-0.0004630088500851452
3.77500e-08;-0.0003682897353578336
3.80000e-08;-0.0002715064228460332
3.82500e-08;-0.0001729467905153883
3.85000e-08;-7.306564700723165e-05
3.87500e-08;2.7553343883935147e-05
3.90000e-08;0.00012834244078885638
3.92500e-08;0.00022826486578042155
3.95000e-08;0.0003277966044500331
3.97500e-08;0.0004256982215678099
4.00000e-08;0.0005213608871920806
4.02500e-08;0.0006145118688793682
4.05000e-08;0.0007045837276982832
4.07500e-08;0.0007909353455179907
4.10000e-08;0.0008729105874983938
4.12500e-08;0.0009498535374925648
4.15000e-08;0.0010211115393738424
4.17500e-08;0.0010845611519929776
4.20000e-08;0.0011453154562790719
4.22500e-08;0.0011995739088838271
4.25000e-08;0.0012509041018297247
4.27500e-08;0.0012956540277152817
4.30000e-08;0.0013374376404024224
4.32500e-08;0.0013718872257034928
4.35000e-08;0.001403030710806296
4.37500e-08;0.0014267226931286734
4.40000e-08;0.0014470556186159831
4.42500e-08;0.0014612624109188734
4.45000e-08;0.0014727076086613058
4.47500e-08;0.0014783518569868198
4.50000e-08;0.0014813811000760784
4.52500e-08;0.001478515228874597
4.55000e-08;0.001472991903930518
4.57500e-08;0.001460747231787773
4.60000e-08;0.001445472649046612
4.62500e-08;0.0014301980663054506
4.65000e-08;0.0014088079691712077
4.67500e-08;0.0013846610643127577
4.70000e-08;0.0013605141594543076
4.72500e-08;0.0013311731945141402
4.75000e-08;0.0012994908034840472
4.77500e-08;0.001267808412453954
4.80000e-08;0.001232150643736506
4.82500e-08;0.0011947008177674986
4.85000e-08;0.0011572509917984915
4.87500e-08;0.0011198011658294844
4.90000e-08;0.0010819969053607297
4.92500e-08;0.001042674538940136
4.95000e-08;0.0010033521725195424
4.97500e-08;0.0009640298060989477
5.00000e-08;0.0009247074396783541
5.02500e-08;0.000887389969714606
5.05000e-08;0.0008509762853824836
5.07500e-08;0.0008145626010503612
5.10000e-08;0.0007812098100691485
5.12500e-08;0.0007492368366944979
5.15000e-08;0.000720592358618872
5.17500e-08;0.000693448330212814
5.20000e-08;0.0006663043018067559
5.22500e-08;0.0006389486892726233
5.25000e-08;0.000610686824315623
5.27500e-08;0.0005824249593586217
5.30000e-08;0.0005541630944016213
5.32500e-08;0.0005251188148129364
5.35000e-08;0.0004957218311732888
5.37500e-08;0.0004663248475336412
5.40000e-08;0.0004356659496005108
5.42500e-08;0.00040443819435662
5.45000e-08;0.00037100713352653794
5.47500e-08;0.000336582846375924
5.50000e-08;0.00030090606008183
5.52500e-08;0.0002640816770438372
5.55000e-08;0.00022659875405938267
5.57500e-08;0.0001885456417368812
5.60000e-08;0.00014962729910028672
5.62500e-08;0.00010947560996568364
5.65000e-08;6.80537513270614e-05
5.67500e-08;2.5582911722521386e-05
5.70000e-08;-1.7661043279391033e-05
5.72500e-08;-6.140229402666266e-05
5.75000e-08;-0.00010537644394881617
5.77500e-08;-0.00014939793019530886
5.80000e-08;-0.00019373608277512922
5.82500e-08;-0.00023821698511197748
5.85000e-08;-0.00028269788744882574
5.87500e-08;-0.00032686622084806085
5.90000e-08;-0.00037089365155192435
5.92500e-08;-0.00041492108225578785
5.95000e-08;-0.00045708200627984815
5.97500e-08;-0.0004984015292865251
6.00000e-08;-0.000539721052293203
6.02500e-08;-0.0005789680854661772
6.05000e-08;-0.0006172808626445392
6.07500e-08;-0.000653303993031567
6.10000e-08;-0.0006882949754169192
6.12500e-08;-0.0007202336838607037
6.15000e-08;-0.0007507964602344015
6.17500e-08;-0.0007785495298301379
6.20000e-08;-0.0008050360140087889
6.22500e-08;-0.0008315224981874412
6.25000e-08;-0.0008574015580791873
6.27500e-08;-0.0008830067976741621
6.30000e-08;-0.0009086120372691381
6.32500e-08;-0.0009342172768641129
6.35000e-08;-0.000959822516459089
6.37500e-08;-0.0009854277560540638
6.40000e-08;-0.0010111331787295396
6.42500e-08;-0.0010368837628538165
6.45000e-08;-0.0010626343469780923
6.47500e-08;-0.0010883849311023692
6.50000e-08;-0.001114135515226645
6.52500e-08;-0.001139886099350922
6.55000e-08;-0.0011668467198437484
6.57500e-08;-0.0011943528116400484
6.60000e-08;-0.0012218589034363484
6.62500e-08;-0.0012493649952326471
6.65000e-08;-0.0012768710870289472
6.67500e-08;-0.0013043771788252459
6.70000e-08;-0.0013318832706215459
6.72500e-08;-0.001359389362417846
6.75000e-08;-0.0013869120116436085
6.77500e-08;-0.0014145055792823213
6.80000e-08;-0.0014420991469210325
6.82500e-08;-0.001469692714559745
6.85000e-08;-0.0014972862821984562
6.87500e-08;-0.001524879849837169
6.90000e-08;-0.0015524734174758817
6.92500e-08;-0.001580066985114593
6.95000e-08;-0.0016076605527533057
6.97500e-08;-0.0016306282425855565
7.00000e-08;-0.0016515106367503572
7.02500e-08;-0.001672393030915158
7.05000e-08;-0.0016932754250799575
7.07500e-08;-0.0017141578192447582
7.10000e-08;-0.0017350402134095576
7.12500e-08;-0.0017559226075743583
7.15000e-08;-0.0017768050017391579
7.17500e-08;-0.0017976873959039586
7.20000e-08;-0.001818569790068759
7.22500e-08;-0.0018337278024541427
7.25000e-08;-0.0018463053254658569
7.27500e-08;-0.0018588828484775704
7.30000e-08;-0.0018714603714892846
7.32500e-08;-0.0018840378945009987
7.35000e-08;-0.0018966154175127123
7.37500e-08;-0.0019091929405244267
7.40000e-08;-0.0019217704635361402
7.42500e-08;-0.0019343479865478544
7.45000e-08;-0.001946925509559568
7.47500e-08;-0.0019563961032313015
7.50000e-08;-0.0019644661267706584
7.52500e-08;-0.0019725361503100144
7.55000e-08;-0.0019806061738493713
7.57500e-08;-0.0019886761973887277
7.60000e-08;-0.001996746220928084
7.62500e-08;-0.002004816244467441
7.65000e-08;-0.0020128862680067975
7.67500e-08;-0.002020956291546154
7.70000e-08;-0.0020290263150855104
7.72500e-08;-0.0020370963386248673
7.75000e-08;-0.0020451663621642233
7.77500e-08;-0.00205323638570358
7.80000e-08;-0.002061306409242937
7.82500e-08;-0.002069376432782293
7.85000e-08;-0.00207744645632165
7.87500e-08;-0.0020855164798610063
7.90000e-08;-0.0020935865034003628
7.92500e-08;-0.0021016565269397196
7.95000e-08;-0.002108726422726618
7.97500e-08;-0.0021115125936089106
8.00000e-08;-0.0021142987644912027
8.02500e-08;-0.002117084935373495
8.05000e-08;-0.0021198711062557873
8.07500e-08;-0.0021226572771380794
8.10000e-08;-0.0021254434480203715
8.12500e-08;-0.0021282296189026636
8.15000e-08;-0.002131015789784956
8.17500e-08;-0.0021338019606672483
8.20000e-08;-0.0021365881315495404
8.22500e-08;-0.002139374302431833
8.25000e-08;-0.002142160473314125
8.27500e-08;-0.002144946644196417
8.30000e-08;-0.0021477328150787097
8.32500e-08;-0.0021505189859610018
8.35000e-08;-0.002153305156843294
8.37500e-08;-0.002156091327725586
8.40000e-08;-0.0021588774986078785
8.42500e-08;-0.0021616636694901706
8.45000e-08;-0.002159876253855775
8.47500e-08;-0.0021560271149016043
8.50000e-08;-0.0021521779759474326
8.52500e-08;-0.0021483288369932613
8.55000e-08;-0.00214447969803909
8.57500e-08;-0.0021406305590849187
8.60000e-08;-0.0021367814201307474
8.62500e-08;-0.002132932281176576
8.65000e-08;-0.002129083142222405
8.67500e-08;-0.0021252340032682335
8.70000e-08;-0.0021213848643140618
8.72500e-08;-0.0021175357253598905
8.75000e-08;-0.002113686586405719
8.77500e-08;-0.0021094552218005828
8.80000e-08;-0.0021035867168039298
8.82500e-08;-0.002097718211807277
8.85000e-08;-0.002091849706810624
8.87500e-08;-0.0020859812018139716
8.90000e-08;-0.0020801126968173185
8.92500e-08;-0.0020742441918206655
8.95000e-08;-0.002068375686824013
8.97500e-08;-0.00206250718182736
9.00000e-08;-0.0020566386768307073
9.02500e-08;-0.0020507701718340543
9.05000e-08;-0.0020449016668374017
9.07500e-08;-0.0020390331618407487
9.10000e-08;-0.002033164656844096
9.12500e-08;-0.0020262306744203936
9.15000e-08;-0.0020188163863000493
9.17500e-08;-0.002011402098179705
9.20000e-08;-0.002003987810059361
9.22500e-08;-0.001996573521939017
9.25000e-08;-0.001989159233818673
9.27500e-08;-0.001981744945698329
9.30000e-08;-0.0019743306575779845
9.32500e-08;-0.001957824744871984
9.35000e-08;-0.0019372204261656652
9.37500e-08;-0.0019166161074593475
9.40000e-08;-0.0018960117887530288
9.42500e-08;-0.0018754074700467111
9.45000e-08;-0.0018548031513403924
9.47500e-08;-0.0018341988326340737
9.50000e-08;-0.001813594513927756
9.52500e-08;-0.0017834619669361718
9.55000e-08;-0.0017490341977201302
9.57500e-08;-0.0017146064285040866
9.60000e-08;-0.001680178659288043
9.62500e-08;-0.0016457508900720012
9.65000e-08;-0.0016113231208559576
9.67500e-08;-0.0015768953516399158
9.70000e-08;-0.001536866718318331
9.72500e-08;-0.0014943132760540914
9.75000e-08;-0.0014517598337898496
9.77500e-08;-0.0014092063915256078
9.80000e-08;-0.0013666529492613682
9.82500e-08;-0.0013240995069971264
9.85000e-08;-0.0012815460647328867
9.87500e-08;-0.0012384061510936897
9.90000e-08;-0.0011950018625037375
9.92500e-08;-0.0011515975739137831
9.95000e-08;-0.0011081932853238287
9.97500e-08;-0.0010647889967338767
1.00000e-07;-0.0010250022441537728
1.00250e-07;-0.000986846237668551
1.00500e-07;-0.0009486902311833273
1.00750e-07;-0.0009105342246981035
1.01000e-07;-0.0008723782182128817
1.01250e-07;-0.0008389595113205614
1.01500e-07;-0.0008076763278315682
1.01750e-07;-0.0007784400701716757
1.02000e-07;-0.0007501265445297192
1.02250e-07;-0.0007218130188877613
1.02500e-07;-0.000691135809138551
1.02750e-07;-0.0006593930761666461
1.03000e-07;-0.0006276503431947394
1.03250e-07;-0.0005947121536483236
1.03500e-07;-0.0005612350652118393
1.03750e-07;-0.0005268319954351944
1.04000e-07;-0.0004920115032886595
1.04250e-07;-0.00045511649517885087
1.04500e-07;-0.0004150454183998958
1.04750e-07;-0.00037396416845316744
1.05000e-07;-0.00033109508984861883
1.05250e-07;-0.00028653022538835236
1.05500e-07;-0.00024089875202232942
1.05750e-07;-0.00019431380355020136
1.06000e-07;-0.00014644528828742007
1.06250e-07;-9.688180166035138e-05
1.06500e-07;-4.5599445673438036e-05
1.06750e-07;7.125187622470366e-06
1.07000e-07;6.0951946870722894e-05
1.07250e-07;0.00011554072023884257
1.07500e-07;0.00017061240624451982
1.07750e-07;0.00022580985069788965
1.08000e-07;0.0002815641280524108
1.08250e-07;0.0003375694196543642
1.08500e-07;0.00039357471125631757
1.08750e-07;0.0004492951243582705
1.09000e-07;0.0005048871173145462
1.09250e-07;0.000560479110270819
1.09500e-07;0.0006138306385581276
1.09750e-07;0.0006661721896123967
1.10000e-07;0.000718513740666663
1.10250e-07;0.0007682604416082853
1.10500e-07;0.0008168374121929733
1.10750e-07;0.0008625108588445049
1.11000e-07;0.0009068754283203768
1.11250e-07;0.0009473685656830762
1.11500e-07;0.0009861165033344273
1.11750e-07;0.0010202665110231276
1.12000e-07;0.0010523438216299649
1.12250e-07;0.0010844211322368006
1.12500e-07;0.0011130876442695945
1.12750e-07;0.0011402166052068546
1.13000e-07;0.0011673455661441162
1.13250e-07;0.0011902881020306795
1.13500e-07;0.0012113434427975852
1.13750e-07;0.001232398783564492
1.14000e-07;0.0012500007703492454
1.14250e-07;0.0012660460225209008
1.14500e-07;0.0012820912746925564
1.14750e-07;0.001293189266751494
1.15000e-07;0.001302057087476339
1.15250e-07;0.0013109249082011837
1.15500e-07;0.0013197927289260287
1.15750e-07;0.0013286605496508732
1.16000e-07;0.001337528370375718
1.16250e-07;0.0013463961911005632
1.16500e-07;0.0013552640118254077
1.16750e-07;0.0013627006401816532
1.17000e-07;0.0013640072172742374
1.17250e-07;0.001365313794366822
1.17500e-07;0.0013666203714594065
1.17750e-07;0.0013679269485519909
1.18000e-07;0.0013692335256445753
1.18250e-07;0.0013705401027371597
1.18500e-07;0.001371846679829744
1.18750e-07;0.0013731532569223285
1.19000e-07;0.0013724116046343812
1.19250e-07;0.0013707466327016124
1.19500e-07;0.0013690816607688436
1.19750e-07;0.0013674166888360748
1.20000e-07;0.0013657517169033057
1.20250e-07;0.001364086744970537
1.20500e-07;0.001362421773037768
1.20750e-07;0.0013600826014715567
1.21000e-07;0.001357439508004798
1.21250e-07;0.0013547964145380392
1.21500e-07;0.0013521533210712805
1.21750e-07;0.0013495102276045215
1.22000e-07;0.0013468671341377628
1.22250e-07;0.001344224040671004
1.22500e-07;0.0013371336529547462
1.22750e-07;0.0013280384731063732
1.23000e-07;0.0013189432932580003
1.23250e-07;0.001306271720535392
1.23500e-07;0.0012919879485982983
1.23750e-07;0.0012777041766612062
1.24000e-07;0.0012590675561980804
1.24250e-07;0.0012384687187131623
1.24500e-07;0.001217869881228246
1.24750e-07;0.001192587167102423
1.25000e-07;0.0011651930120620366
1.25250e-07;0.0011377988570216533
1.25500e-07;0.001106729557022344
1.25750e-07;0.0010740035414371796
1.26000e-07;0.0010412775258520118
1.26250e-07;0.0010048492432564924
1.26500e-07;0.0009667520187477697
1.26750e-07;0.000928654794239043
1.27000e-07;0.000887890220287892
1.27250e-07;0.0008459232340663203
1.27500e-07;0.0008039562478447485
1.27750e-07;0.0007602073065678951
1.28000e-07;0.0007156550792312146
1.28250e-07;0.0006711028518945341
1.28500e-07;0.0006265506245578489
1.28750e-07;0.0005819983972211684
1.29000e-07;0.0005374461698844879
1.29250e-07;0.0004928939425478074
1.29500e-07;0.00044834171521112215
1.29750e-07;0.000405198217155689
1.30000e-07;0.0003626897590191081
1.30250e-07;0.00032135985632661315
1.30500e-07;0.0002815539368689806
1.30750e-07;0.00024338743313288456
1.31000e-07;0.00020714933061564234
1.31250e-07;0.00017312857115882194
1.31500e-07;0.00014160837577329024
1.31750e-07;0.00011229155207436674
1.32000e-07;8.360551801777284e-05
1.32250e-07;5.381009275733769e-05
1.32500e-07;2.2230857384514543e-05
1.32750e-07;-1.0979354984833498e-05
1.33000e-07;-4.5484863849107284e-05
1.33250e-07;-8.095002729548604e-05
1.33500e-07;-0.00011704282814666535
1.33750e-07;-0.00015380276509409791
1.34000e-07;-0.00019203994815998238
1.34250e-07;-0.00023270281007502247
1.34500e-07;-0.00027606178660076415
1.34750e-07;-0.0003218627440826089
1.35000e-07;-0.0003697406196104301
1.35250e-07;-0.00041933038389949784
1.35500e-07;-0.00047068678662401766
1.35750e-07;-0.0005226156744662407
1.36000e-07;-0.0005768936689817651
1.36250e-07;-0.0006322306153704776
1.36500e-07;-0.0006906754907387187
1.36750e-07;-0.000750521386866042
1.37000e-07;-0.0008103672829933653
1.37250e-07;-0.0008723183130447892
1.37500e-07;-0.0009352183146936026
1.37750e-07;-0.0009981183163424161
1.38000e-07;-0.0010610183179912362
1.38250e-07;-0.0011239183196400497
1.38500e-07;-0.0011868325162323477
1.38750e-07;-0.001249753111751599
1.39000e-07;-0.0013126737072708438
1.39250e-07;-0.0013755943027900883
1.39500e-07;-0.001438514898309333
1.39750e-07;-0.0014980678284104811
1.40000e-07;-0.0015561026513761429
1.40250e-07;-0.0016141374743418046
1.40500e-07;-0.0016678946362435223
1.40750e-07;-0.001719723474817912
1.41000e-07;-0.0017715523133923015
1.41250e-07;-0.0018168675265149835
1.41500e-07;-0.001859246467755398
1.41750e-07;-0.001901625408995808
1.42000e-07;-0.0019388543434273981
1.42250e-07;-0.001973761710507852
1.42500e-07;-0.002008669077588302
1.42750e-07;-0.0020361224632787812
1.43000e-07;-0.0020602156748037973
1.43250e-07;-0.0020843088863288163
1.43500e-07;-0.0021084020978538328
1.43750e-07;-0.002132495309378849
1.44000e-07;-0.002156588520903868
