Time(s);Current(A)
1.40000e-05;0.004898733123710094
1.40003e-05;0.004870595850865573
1.40005e-05;0.00484515134608164
1.40008e-05;0.004827104293646063
1.40010e-05;0.004809057241210608
1.40013e-05;0.004791010188775031
1.40015e-05;0.004772963136339454
1.40018e-05;0.004754916083904
1.40020e-05;0.004736869031468423
1.40023e-05;0.004718821979032846
1.40025e-05;0.004700774926597391
1.40028e-05;0.004682727874161814
1.40030e-05;0.0046646808217262374
1.40033e-05;0.004646633769290783
1.40035e-05;0.0046334809778874175
1.40038e-05;0.004633773482162704
1.40040e-05;0.004634065986437989
1.40043e-05;0.004634358490713276
1.40045e-05;0.004634650994988563
1.40048e-05;0.004634943499263848
1.40050e-05;0.004635236003539134
1.40053e-05;0.0046355285078144215
1.40055e-05;0.004635821012089709
1.40058e-05;0.004636113516364993
1.40060e-05;0.00463640602064028
1.40063e-05;0.0046366985249155675
1.40065e-05;0.004636991029190852
1.40068e-05;0.004637283533466139
1.40070e-05;0.004646382524974319
1.40073e-05;0.004658158719502549
1.40075e-05;0.004669934914030857
1.40078e-05;0.004681711108559166
1.40080e-05;0.004693487303087395
1.40083e-05;0.004705263497615704
1.40085e-05;0.004717039692144013
1.40088e-05;0.0047288158866722425
1.40090e-05;0.0047405920812005516
1.40093e-05;0.004752368275728861
1.40095e-05;0.00476414447025709
1.40098e-05;0.004775920664785398
1.40100e-05;0.004787696859313707
1.40103e-05;0.004799220353173637
1.40105e-05;0.004810049639025184
1.40108e-05;0.0048208789248767306
1.40110e-05;0.004831708210728204
1.40113e-05;0.0048425374965797505
1.40115e-05;0.004853366782431297
1.40118e-05;0.00486419606828277
1.40120e-05;0.004876955081419037
1.40123e-05;0.004895015355309022
1.40125e-05;0.004913075629198883
1.40128e-05;0.004931135903088868
1.40130e-05;0.004949196176978852
1.40133e-05;0.0049672564508687145
1.40135e-05;0.004985316724758698
1.40138e-05;0.005010386489484059
1.40140e-05;0.005054712414893853
1.40143e-05;0.0050990383403033464
1.40145e-05;0.00514336426571314
1.40148e-05;0.005187690191122934
1.40150e-05;0.005232016116532428
1.40153e-05;0.005276342041942221
1.40155e-05;0.005320667967352016
1.40158e-05;0.005364993892761509
1.40160e-05;0.0054093198181713025
1.40163e-05;0.005460679758333093
1.40165e-05;0.005531363230191115
1.40168e-05;0.005602046702049617
1.40170e-05;0.005672730173908118
1.40173e-05;0.00574341364576614
1.40175e-05;0.005814097117624642
1.40178e-05;0.005884780589483144
1.40180e-05;0.005955464061341165
1.40183e-05;0.0060261475331996675
1.40185e-05;0.006096831005058169
1.40188e-05;0.0061682596970596484
1.40190e-05;0.006241735624612404
1.40193e-05;0.006315211552165161
1.40195e-05;0.006388687479717419
1.40198e-05;0.006462163407270175
1.40200e-05;0.006535639334822932
1.40203e-05;0.00660911526237519
1.40205e-05;0.006682591189927946
1.40208e-05;0.0067560671174807015
1.40210e-05;0.006809676115923388
1.40213e-05;0.006857245498201746
1.40215e-05;0.006904814880480104
1.40218e-05;0.006952384262758141
1.40220e-05;0.006999953645036499
1.40223e-05;0.007047523027314857
1.40225e-05;0.007095092409593215
1.40228e-05;0.007142661791871251
1.40230e-05;0.007177053932460214
1.40233e-05;0.007175246142210626
1.40235e-05;0.007173438351961049
1.40238e-05;0.00717163056171146
1.40240e-05;0.007169822771461872
1.40243e-05;0.007168014981212296
1.40245e-05;0.007166207190962707
1.40248e-05;0.007164399400713118
1.40250e-05;0.007162591610463542
1.40253e-05;0.007160783820213954
1.40255e-05;0.007146441972014138
1.40258e-05;0.00709766711866567
1.40260e-05;0.007048892265316873
1.40263e-05;0.007000117411968074
1.40265e-05;0.006951342558619606
1.40268e-05;0.006902567705270809
1.40270e-05;0.00685379285192201
1.40273e-05;0.006805017998573543
1.40275e-05;0.006756243145224745
1.40278e-05;0.0067074682918759464
1.40280e-05;0.0066533408486195355
1.40283e-05;0.00658450900902082
1.40285e-05;0.006515677169422105
1.40288e-05;0.006446845329823855
1.40290e-05;0.00637801349022514
1.40293e-05;0.006309181650626425
1.40295e-05;0.006240349811028176
1.40298e-05;0.006171517971429461
1.40300e-05;0.00610516893433877
1.40303e-05;0.006045640541599579
1.40305e-05;0.005986112148859985
1.40308e-05;0.005926583756120391
1.40310e-05;0.005867055363380797
1.40313e-05;0.0058075269706416065
1.40315e-05;0.0057479985779020125
1.40318e-05;0.0056884701851624185
1.40320e-05;0.005636249872140558
1.40323e-05;0.005604105989879685
1.40325e-05;0.005571962107618812
1.40328e-05;0.005539818225358157
1.40330e-05;0.005507674343097285
1.40333e-05;0.005475530460836412
1.40335e-05;0.0054433865785757565
1.40338e-05;0.005411242696314884
1.40340e-05;0.005379098814054011
1.40343e-05;0.005346954931793356
1.40345e-05;0.005314811049532483
1.40348e-05;0.005282667167271611
1.40350e-05;0.005250523285010956
1.40353e-05;0.005223605249540137
1.40355e-05;0.005211043427373327
1.40358e-05;0.005198481605206602
1.40360e-05;0.0051859197830397925
1.40363e-05;0.0051733579608729836
1.40365e-05;0.005160796138706259
1.40368e-05;0.005148234316539449
1.40370e-05;0.005135672494372639
1.40373e-05;0.005123110672205914
1.40375e-05;0.005110548850039105
1.40378e-05;0.005097987027872296
1.40380e-05;0.005085425205705571
1.40383e-05;0.005072863383538761
1.40385e-05;0.0050625882347457565
1.40388e-05;0.005058594933093411
1.40390e-05;0.00505460163144104
1.40393e-05;0.0050506083297886676
1.40395e-05;0.005046615028136295
1.40398e-05;0.005042621726483951
1.40400e-05;0.005038628424831579
1.40403e-05;0.005034635123179207
1.40405e-05;0.005030641821526862
1.40408e-05;0.0050266485198744906
1.40410e-05;0.005022655218222118
1.40413e-05;0.005018661916569774
1.40415e-05;0.005014668614917402
1.40418e-05;0.00501067531326503
1.40420e-05;0.005006682011612685
1.40423e-05;0.0050026887099603136
1.40425e-05;0.004998695408307941
1.40428e-05;0.004994702106655597
1.40430e-05;0.004990708805003225
1.40433e-05;0.004986715503350852
1.40435e-05;0.004982186943329337
1.40438e-05;0.004976187945380273
1.40440e-05;0.004970188947431209
1.40443e-05;0.004964189949482186
1.40445e-05;0.004958190951533123
1.40448e-05;0.004952191953584059
1.40450e-05;0.004946192955635035
1.40453e-05;0.004940193957685971
1.40455e-05;0.004934194959736907
1.40458e-05;0.004928195961787884
1.40460e-05;0.004922196963838821
1.40463e-05;0.004916197965889757
1.40465e-05;0.004910198967940734
1.40468e-05;0.00490419996999167
1.40470e-05;0.004898200972042606
1.40473e-05;0.004892201974093583
1.40475e-05;0.0048862029761445195
1.40478e-05;0.004880203978195456
1.40480e-05;0.004874204980246392
1.40483e-05;0.004868205982297369
1.40485e-05;0.004861735028737283
1.40488e-05;0.004853967539764269
1.40490e-05;0.004846200050791308
1.40493e-05;0.004838432561818293
1.40495e-05;0.00483066507284528
1.40498e-05;0.004822897583872318
1.40500e-05;0.004815130094899304
1.40503e-05;0.00480736260592629
1.40505e-05;0.004799595116953328
1.40508e-05;0.004793022917933475
1.40510e-05;0.004789734366182359
1.40513e-05;0.004786445814431267
1.40515e-05;0.004783157262680152
1.40518e-05;0.004779868710929036
1.40520e-05;0.004776580159177943
1.40523e-05;0.004773291607426827
1.40525e-05;0.004770003055675712
1.40528e-05;0.00476671450392462
1.40530e-05;0.004769882242143733
1.40533e-05;0.004790786412323641
1.40535e-05;0.004811690582503409
1.40538e-05;0.0048325947526833175
1.40540e-05;0.004853498922863226
1.40543e-05;0.004874403093042994
1.40545e-05;0.0048953072632229025
1.40548e-05;0.004916211433402811
1.40550e-05;0.004937115603582579
1.40553e-05;0.004958019773762487
1.40555e-05;0.004978923943942397
1.40558e-05;0.005007102271651285
1.40560e-05;0.005055263840618093
1.40563e-05;0.005103425409584902
1.40565e-05;0.005151586978551711
1.40568e-05;0.005199748547518193
1.40570e-05;0.005247910116485001
1.40573e-05;0.00529607168545181
1.40575e-05;0.005344233254418292
1.40578e-05;0.0053923948233851006
1.40580e-05;0.005440556392351909
1.40583e-05;0.005488717961318391
1.40585e-05;0.0055388648549469024
1.40588e-05;0.005594465743974021
1.40590e-05;0.005650066633000763
1.40593e-05;0.005705667522027882
1.40595e-05;0.005761268411055001
1.40598e-05;0.005816869300081742
1.40600e-05;0.005872470189108861
1.40603e-05;0.0059280710781359795
1.40605e-05;0.005974419854603384
1.40608e-05;0.006017955956381732
1.40610e-05;0.00606149205816008
1.40613e-05;0.006105028159938133
1.40615e-05;0.006148564261716481
1.40618e-05;0.00619210036349483
1.40620e-05;0.006235636465272883
1.40623e-05;0.006275967785443694
1.40625e-05;0.0063074950724600065
1.40628e-05;0.006339022359476105
1.40630e-05;0.006370549646492417
1.40633e-05;0.00640207693350873
1.40635e-05;0.006433604220524828
1.40638e-05;0.006463966864101472
1.40640e-05;0.00649113005114335
1.40643e-05;0.006518293238185045
1.40645e-05;0.006545456425226924
1.40648e-05;0.0065726196122688025
1.40650e-05;0.006599782799310681
1.40653e-05;0.0066267734366112115
1.40655e-05;0.006652819365595467
1.40658e-05;0.006677572243248112
1.40660e-05;0.006702325120900589
1.40663e-05;0.006727077998553235
1.40665e-05;0.00675183087620588
1.40668e-05;0.006776583753858357
1.40670e-05;0.006801336631511002
1.40673e-05;0.0068260895091636475
1.40675e-05;0.006850842386816125
1.40678e-05;0.00687559526446877
1.40680e-05;0.006900348142121415
1.40683e-05;0.006925101019773892
1.40685e-05;0.006949853897426537
1.40688e-05;0.006970576758882063
1.40690e-05;0.006990074481269245
1.40693e-05;0.007009572203656559
1.40695e-05;0.007029069926043872
1.40698e-05;0.007048567648431054
1.40700e-05;0.007068065370818368
1.40703e-05;0.007087563093205682
1.40705e-05;0.007107060815592863
1.40708e-05;0.007126558537980178
1.40710e-05;0.007146056260367491
1.40713e-05;0.007165553982754673
1.40715e-05;0.007185051705141987
1.40718e-05;0.007199424626898113
1.40720e-05;0.0071997189248316894
1.40723e-05;0.007200013222765269
1.40725e-05;0.007200307520698847
1.40728e-05;0.007200601818632424
1.40730e-05;0.007200896116566003
1.40733e-05;0.007201190414499582
1.40735e-05;0.007201484712433161
1.40738e-05;0.007201779010366738
1.40740e-05;0.007176295975355961
1.40743e-05;0.007142976540657018
1.40745e-05;0.0071096571059583
1.40748e-05;0.0070763376712593565
1.40750e-05;0.0070430182365604135
1.40753e-05;0.007009698801861696
1.40755e-05;0.006976379367162753
1.40758e-05;0.006943059932463809
1.40760e-05;0.0069020270502812104
1.40763e-05;0.00683980412904649
1.40765e-05;0.006777581207811771
1.40768e-05;0.006715358286577472
1.40770e-05;0.006653135365342753
1.40773e-05;0.0065909124441080325
1.40775e-05;0.006528689522873735
1.40778e-05;0.006466466601639014
1.40780e-05;0.006404243680404294
1.40783e-05;0.006333883093804229
1.40785e-05;0.006261048628370659
1.40788e-05;0.00618821416293709
1.40790e-05;0.006115379697504014
1.40793e-05;0.006042545232070444
1.40795e-05;0.005969710766636875
1.40798e-05;0.005896876301203799
1.40800e-05;0.005824041835770229
1.40803e-05;0.005755021741557943
1.40805e-05;0.005696480317917194
1.40808e-05;0.0056379388942760485
1.40810e-05;0.005579397470634903
1.40813e-05;0.005520856046994155
1.40815e-05;0.00546231462335301
1.40818e-05;0.005403773199711865
1.40820e-05;0.00534523177607072
1.40823e-05;0.0052927045994416435
1.40825e-05;0.005256699494084026
1.40828e-05;0.005220694388726409
1.40830e-05;0.005184689283369036
1.40833e-05;0.005148684178011419
1.40835e-05;0.0051126790726538016
1.40838e-05;0.005076673967296429
1.40840e-05;0.005040668861938812
1.40843e-05;0.005009576925888691
1.40845e-05;0.004991982229529249
1.40848e-05;0.004974387533169687
1.40850e-05;0.004956792836810125
1.40853e-05;0.004939198140450682
1.40855e-05;0.004921603444091121
1.40858e-05;0.004904008747731559
1.40860e-05;0.004886414051372116
1.40863e-05;0.004868819355012555
1.40865e-05;0.004851224658652993
1.40868e-05;0.00483362996229355
1.40870e-05;0.004816035265933989
1.40873e-05;0.004798484296134196
1.40875e-05;0.004792102901765602
1.40878e-05;0.004785721507396965
1.40880e-05;0.004779340113028329
1.40883e-05;0.004772958718659735
1.40885e-05;0.0047665773242910985
1.40888e-05;0.004760195929922462
1.40890e-05;0.004753814535553868
1.40893e-05;0.004747433141185232
1.40895e-05;0.004741051746816595
1.40898e-05;0.004734670352448001
1.40900e-05;0.004728288958079365
1.40903e-05;0.004721907563710728
1.40905e-05;0.0047199863126386925
1.40908e-05;0.004719624574104885
1.40910e-05;0.004719262835571075
1.40913e-05;0.0047189010970372655
1.40915e-05;0.004718539358503459
1.40918e-05;0.004718177619969649
1.40920e-05;0.0047178158814358395
1.40923e-05;0.0047174541429020325
1.40925e-05;0.004717092404368223
1.40928e-05;0.004716730665834413
1.40930e-05;0.004716368927300606
1.40933e-05;0.004716007188766797
1.40935e-05;0.004715645450232986
1.40938e-05;0.004715283711699179
1.40940e-05;0.004718077880686975
1.40943e-05;0.004730815001477715
1.40945e-05;0.004743552122268369
1.40948e-05;0.004756289243059109
1.40950e-05;0.0047690263638498495
1.40953e-05;0.004781763484640503
1.40955e-05;0.0047945006054312435
1.40958e-05;0.004807237726221983
1.40960e-05;0.004819974847012637
1.40963e-05;0.004832711967803377
1.40965e-05;0.004845449088594117
1.40968e-05;0.004858186209384771
1.40970e-05;0.004870923330175511
1.40973e-05;0.004883660450966251
1.40975e-05;0.004896397571756905
1.40978e-05;0.0049145316851249305
1.40980e-05;0.004934552885304984
1.40983e-05;0.004954574085484902
1.40985e-05;0.004974595285664956
1.40988e-05;0.0049946164858450095
1.40990e-05;0.005014637686025064
1.40993e-05;0.005034658886204981
1.40995e-05;0.005054680086385035
1.40998e-05;0.0050747012865650885
1.41000e-05;0.005094722486745007
1.41003e-05;0.005110610318641538
1.41005e-05;0.005125052896599655
1.41008e-05;0.005139495474557674
1.41010e-05;0.005153938052515791
1.41013e-05;0.005168380630473908
1.41015e-05;0.005182823208431927
1.41018e-05;0.005197265786390044
1.41020e-05;0.00521170836434816
1.41023e-05;0.005226150942306179
1.41025e-05;0.005240593520264296
1.41028e-05;0.005234986465723291
1.41030e-05;0.005222368951831172
1.41033e-05;0.0052097514379389675
1.41035e-05;0.005197133924046762
1.41038e-05;0.005184516410154644
1.41040e-05;0.005171898896262439
1.41043e-05;0.005159281382370234
1.41045e-05;0.005146663868478115
1.41048e-05;0.005134046354585911
1.41050e-05;0.005121428840693706
1.41053e-05;0.005101113028052386
1.41055e-05;0.005056543078388536
1.41058e-05;0.0050119731287246875
1.41060e-05;0.00496740317906114
1.41063e-05;0.00492283322939729
1.41065e-05;0.004878263279733441
1.41068e-05;0.004833693330069893
1.41070e-05;0.004789123380406044
1.41073e-05;0.004744553430742194
1.41075e-05;0.004699983481078345
1.41078e-05;0.004655413531414797
1.41080e-05;0.0046005917834835075
1.41083e-05;0.004542185440420788
1.41085e-05;0.004483779097358465
1.41088e-05;0.004425372754295747
1.41090e-05;0.0043669664112330284
1.41093e-05;0.004308560068170705
1.41095e-05;0.004250153725107986
1.41098e-05;0.004193228956385922
1.41100e-05;0.0041409720121074
1.41103e-05;0.004088715067828524
1.41105e-05;0.004036458123549648
1.41108e-05;0.003984201179271126
1.41110e-05;0.00393194423499225
1.41113e-05;0.003879687290713374
1.41115e-05;0.0038274303464348523
1.41118e-05;0.0037945651828114138
1.41120e-05;0.0037684804571878373
1.41123e-05;0.003742395731564438
1.41125e-05;0.003716311005940862
1.41128e-05;0.003690226280317286
1.41130e-05;0.0036641415546938864
1.41133e-05;0.00363805682907031
1.41135e-05;0.003611972103446734
1.41138e-05;0.0035858873778233345
1.41140e-05;0.0035598026521997585
1.41143e-05;0.003533717926576182
1.41145e-05;0.0035144798293577917
1.41148e-05;0.00351681261019192
1.41150e-05;0.0035191453910260483
1.41153e-05;0.0035214781718601604
1.41155e-05;0.003523810952694289
1.41158e-05;0.003526143733528417
1.41160e-05;0.003528476514362529
1.41163e-05;0.0035308092951966577
1.41165e-05;0.003533142076030786
1.41168e-05;0.003535474856864914
1.41170e-05;0.0035378076376990264
1.41173e-05;0.0035401404185331545
1.41175e-05;0.003553431445366826
1.41178e-05;0.0035705540804943925
1.41180e-05;0.0035876767156220748
1.41183e-05;0.0036047993507497575
1.41185e-05;0.0036219219858773235
1.41188e-05;0.0036390446210050062
1.41190e-05;0.0036561672561326885
1.41193e-05;0.003673289891260255
1.41195e-05;0.0036904125263879373
1.41198e-05;0.0037074133685131285
1.41200e-05;0.0037240304915505925
1.41203e-05;0.003740647614588169
1.41205e-05;0.003757264737625746
1.41208e-05;0.0037738818606632097
1.41210e-05;0.0037904989837007864
1.41213e-05;0.003807116106738363
1.41215e-05;0.0038237332297758274
1.41218e-05;0.003840350352813404
1.41220e-05;0.003856967475850981
1.41223e-05;0.003867605886955849
1.41225e-05;0.0038761538100178486
1.41228e-05;0.0038847017330798485
1.41230e-05;0.00389324965614179
1.41233e-05;0.0039017975792037898
1.41235e-05;0.003910345502265789
1.41238e-05;0.003918893425327731
1.41240e-05;0.0039274413483897305
1.41243e-05;0.00393598927145173
1.41245e-05;0.003944537194513671
1.41248e-05;0.003953085117575672
1.41250e-05;0.003961633040637671
1.41253e-05;0.003970180963699671
1.41255e-05;0.003978728886761612
1.41258e-05;0.0039872768098236115
1.41260e-05;0.003995824732885612
1.41263e-05;0.004004372655947553
1.41265e-05;0.004012920579009553
1.41268e-05;0.004021468502071552
1.41270e-05;0.004030016425133494
1.41273e-05;0.004035418649644178
1.41275e-05;0.004039720964126807
1.41278e-05;0.004044023278609407
1.41280e-05;0.004048325593092037
1.41283e-05;0.004052627907574666
1.41285e-05;0.004056930222057266
1.41288e-05;0.0040612325365398955
1.41290e-05;0.004065534851022524
1.41293e-05;0.004069837165505125
1.41295e-05;0.004074139479987754
1.41298e-05;0.004078441794470383
1.41300e-05;0.004082744108952983
1.41303e-05;0.0040870464234356125
1.41305e-05;0.004091348737918242
1.41308e-05;0.004095651052400842
1.41310e-05;0.0040999533668834715
1.41313e-05;0.004104255681366101
1.41315e-05;0.004108557995848701
1.41318e-05;0.00411286031033133
1.41320e-05;0.00411716262481396
1.41323e-05;0.00411231717610545
1.41325e-05;0.004104273163927993
1.41328e-05;0.004096229151750536
1.41330e-05;0.004088185139573133
1.41333e-05;0.004080141127395675
1.41335e-05;0.004072097115218218
1.41338e-05;0.004064053103040761
1.41340e-05;0.004056009090863358
1.41343e-05;0.0040479650786859
1.41345e-05;0.004039921066508443
1.41348e-05;0.00403187705433104
1.41350e-05;0.004023833042153583
1.41353e-05;0.004015789029976125
1.41355e-05;0.003994661343968808
1.41358e-05;0.003968958882655052
1.41360e-05;0.003943256421341295
1.41363e-05;0.003917553960027713
1.41365e-05;0.0038918514987139573
1.41368e-05;0.003866149037400201
1.41370e-05;0.003840446576086619
1.41373e-05;0.0038147441147728628
1.41375e-05;0.003789041653459106
1.41378e-05;0.0037633391921455244
1.41380e-05;0.003737636730831768
1.41383e-05;0.0037119342695180117
1.41385e-05;0.0036862318082044295
1.41388e-05;0.0036570793812735272
1.41390e-05;0.003626720655735671
1.41393e-05;0.0035963619301980203
1.41395e-05;0.0035660032046601637
1.41398e-05;0.0035356444791223075
1.41400e-05;0.003505285753584657
1.41403e-05;0.0034749270280468
1.41405e-05;0.0034463538716154227
1.41408e-05;0.003423406300685654
1.41410e-05;0.0034004587297557292
1.41413e-05;0.003377511158825804
1.41415e-05;0.0033545635878960353
1.41418e-05;0.0033316160169661107
1.41420e-05;0.003308668446036186
1.41423e-05;0.003285720875106261
1.41425e-05;0.0032743779713931094
1.41428e-05;0.003267092700553147
1.41430e-05;0.0032598074297131847
1.41433e-05;0.0032619884232941037
1.41435e-05;0.0032674793459736198
1.41438e-05;0.0032729702686531362
1.41440e-05;0.003288138149428796
1.41443e-05;0.0033066896294538907
1.41445e-05;0.003325241109478986
1.41448e-05;0.003354413298855545
1.41450e-05;0.003387299075067363
1.41453e-05;0.003420184851279181
1.41455e-05;0.0034682710030917406
1.41458e-05;0.0035216720461094457
1.41460e-05;0.0035750730891271508
1.41463e-05;0.0036284741321444946
1.41465e-05;0.0036818751751621997
1.41468e-05;0.0037352762181799047
1.41470e-05;0.0037886772611972486
1.41473e-05;0.00384661303493398
1.41475e-05;0.003918835858831978
1.41478e-05;0.003991058682729485
1.41480e-05;0.004063281506627483
1.41483e-05;0.004135504330525481
1.41485e-05;0.004207727154422989
1.41488e-05;0.004279949978320987
1.41490e-05;0.004352172802218984
1.41493e-05;0.004425131386371974
1.41495e-05;0.004498347232965156
1.41498e-05;0.004571563079558337
1.41500e-05;0.004644778926151022
1.41503e-05;0.004717994772744203
1.41505e-05;0.004791210619337385
