Time(s);Current(A)
3.05000e-06;-0.0032245609934905763
3.05025e-06;-0.0032007712854879317
3.05050e-06;-0.0031767483444915786
3.05075e-06;-0.0031526272122748356
3.05100e-06;-0.0031285426413616042
3.05125e-06;-0.00310463022023694
3.05150e-06;-0.00308102991507038
3.05175e-06;-0.0030578912166216977
3.05200e-06;-0.0030353703399419356
3.05225e-06;-0.0030136238990037837
3.05250e-06;-0.0029928080349632537
3.05275e-06;-0.002973078398683249
3.05300e-06;-0.0029545907220773107
3.05325e-06;-0.0029375303604967187
3.05350e-06;-0.0029223084008292944
3.05375e-06;-0.0029096133808296717
3.05400e-06;-0.002899987551886374
3.05425e-06;-0.0028935813050835393
3.05450e-06;-0.0028913245774300177
3.05475e-06;-0.0028908547251911237
3.05500e-06;-0.0028941832245280782
3.05525e-06;-0.0028998283198987834
3.05550e-06;-0.002910071686222654
3.05575e-06;-0.002923119515493021
3.05600e-06;-0.002937228571385689
3.05625e-06;-0.00295903539633806
3.05650e-06;-0.0029808422212904313
3.05675e-06;-0.0030079052488348906
3.05700e-06;-0.003038174008612039
3.05725e-06;-0.0030684427683891876
3.05750e-06;-0.003103820975224903
3.05775e-06;-0.003142315408811634
3.05800e-06;-0.0031808098423984302
3.05825e-06;-0.0032231398202205814
3.05850e-06;-0.0032678090776974314
3.05875e-06;-0.003314796163397168
3.05900e-06;-0.0033631968811846124
3.05925e-06;-0.0034132776321390166
3.05950e-06;-0.00346438302709838
3.05975e-06;-0.0035167430415837917
3.06000e-06;-0.0035698682423769387
3.06025e-06;-0.003623621259119527
3.06050e-06;-0.0036777571777367756
3.06075e-06;-0.0037317178834945777
3.06100e-06;-0.0037855717277869485
3.06125e-06;-0.0038384681563719955
3.06150e-06;-0.0038907806618034687
3.06175e-06;-0.003941487037304626
3.06200e-06;-0.003991213842022917
3.06225e-06;-0.004038559400574746
3.06250e-06;-0.00408445264874536
3.06275e-06;-0.00412512349794391
3.06300e-06;-0.004162609231572183
3.06325e-06;-0.004200094965200456
3.06350e-06;-0.004237580698828729
3.06375e-06;-0.004268816547096254
3.06400e-06;-0.0042962406208743465
3.06425e-06;-0.004323664694652439
3.06450e-06;-0.004351088768430485
3.06475e-06;-0.004375034689783319
3.06500e-06;-0.004394412397203267
3.06525e-06;-0.004412297748756796
3.06550e-06;-0.004427142220753887
3.06575e-06;-0.00444013207519398
3.06600e-06;-0.004450309316108548
3.06625e-06;-0.004458771157801061
3.06650e-06;-0.0044672329994935875
3.06675e-06;-0.004472204757220716
3.06700e-06;-0.004475047929820586
3.06725e-06;-0.004477891102420461
3.06750e-06;-0.00447794976690052
3.06775e-06;-0.0044763101735079075
3.06800e-06;-0.004473105162046276
3.06825e-06;-0.004468945409766753
3.06850e-06;-0.004463341724190748
3.06875e-06;-0.004456857390764998
3.06900e-06;-0.004448961664606832
3.06925e-06;-0.004440205136929653
3.06950e-06;-0.004430507246890034
3.06975e-06;-0.004419811184847256
3.07000e-06;-0.004408551344884699
3.07025e-06;-0.004396845644429006
3.07050e-06;-0.004384756779321801
3.07075e-06;-0.00437234051607989
3.07100e-06;-0.00435965313614486
3.07125e-06;-0.004346756656684035
3.07150e-06;-0.004333765731934984
3.07175e-06;-0.004320874065716558
3.07200e-06;-0.004308270176262193
3.07225e-06;-0.0042960766915574565
3.07250e-06;-0.004284381551680285
3.07275e-06;-0.004273268977749504
3.07300e-06;-0.004262822563121585
3.07325e-06;-0.004253015859210351
3.07350e-06;-0.0042429504632661
3.07375e-06;-0.0042305623122704805
3.07400e-06;-0.004214126263915283
3.07425e-06;-0.0041932341483174535
3.07450e-06;-0.00416812860640032
3.07475e-06;-0.00413913070446615
3.07500e-06;-0.004106560478967624
3.07525e-06;-0.004070669802012239
3.07550e-06;-0.004031163720860431
3.07575e-06;-0.003987017302022796
3.07600e-06;-0.003937418899594835
3.07625e-06;-0.0038823805603006812
3.07650e-06;-0.0038223228856916853
3.07675e-06;-0.0037577149484643675
3.07700e-06;-0.003687937408972997
3.07725e-06;-0.0036160173037169787
3.07750e-06;-0.0035394760768007304
3.07775e-06;-0.00346011645040324
3.07800e-06;-0.003376854125688141
3.07825e-06;-0.003288896122456993
3.07850e-06;-0.0031975596247172597
3.07875e-06;-0.0031034069748921804
3.07900e-06;-0.0030065270458288257
3.07925e-06;-0.00290858520576132
3.07950e-06;-0.0028089166910517755
3.07975e-06;-0.002708195085929857
3.08000e-06;-0.0026063209663406963
3.08025e-06;-0.0025033771655060535
3.08050e-06;-0.0024002280418131644
3.08075e-06;-0.0022974936232657292
3.08100e-06;-0.0021957942271174304
3.08125e-06;-0.0020957327028166424
3.08150e-06;-0.0019977776291715973
3.08175e-06;-0.0019022182719587912
3.08200e-06;-0.0018093961043737397
3.08225e-06;-0.0017198551626183048
3.08250e-06;-0.0016342397561693197
3.08275e-06;-0.0015532061622990348
3.08300e-06;-0.0014774103972394952
3.08325e-06;-0.001407475298163364
3.08350e-06;-0.001343731291138765
3.08375e-06;-0.0012860318837448097
3.08400e-06;-0.0012341371603923916
3.08425e-06;-0.0011880684093585033
3.08450e-06;-0.001148005595112789
3.08475e-06;-0.0011141496099755105
3.08500e-06;-0.0010867013267955165
3.08525e-06;-0.0010658408242479112
3.08550e-06;-0.001051564878594463
3.08575e-06;-0.0010435716064382526
3.08600e-06;-0.0010415005631088461
3.08625e-06;-0.0010451550504208696
3.08650e-06;-0.0010544376974188604
3.08675e-06;-0.0010692643076157663
3.08700e-06;-0.0010912035123486815
3.08725e-06;-0.0011162070787553487
3.08750e-06;-0.001147417396196831
3.08775e-06;-0.0011824131807142086
3.08800e-06;-0.001222615310858332
3.08825e-06;-0.001265992765716532
3.08850e-06;-0.0013138566966119077
3.08875e-06;-0.0013644569072822894
3.08900e-06;-0.0014188866000010712
3.08925e-06;-0.001475651875077103
3.08950e-06;-0.0015353932739869355
3.08975e-06;-0.0015969497962557374
3.09000e-06;-0.0016603343027892402
3.09025e-06;-0.0017248336879785052
3.09050e-06;-0.0017901887453781202
3.09075e-06;-0.0018560656730704516
3.09100e-06;-0.001921865515782228
3.09125e-06;-0.0019876183447416038
3.09150e-06;-0.0020526793974650044
3.09175e-06;-0.002116436617649317
3.09200e-06;-0.0021784619364031118
3.09225e-06;-0.0022374077182797966
3.09250e-06;-0.0022949194483992854
3.09275e-06;-0.00234837691348506
3.09300e-06;-0.002399361702171097
3.09325e-06;-0.0024467258107614036
3.09350e-06;-0.00249006201594071
3.09375e-06;-0.0025318500567501996
3.09400e-06;-0.002573723123585702
3.09425e-06;-0.002615811104131688
3.09450e-06;-0.0026577522905776025
3.09475e-06;-0.002699603948020351
3.09500e-06;-0.002740403822119892
3.09525e-06;-0.0027805622187066677
3.09550e-06;-0.00282000168576457
3.09575e-06;-0.0028598522791934517
3.09600e-06;-0.0029002210382667007
3.09625e-06;-0.0029419313363281113
3.09650e-06;-0.0029844598324519616
3.09675e-06;-0.003027494153566119
3.09700e-06;-0.0030708369748661344
3.09725e-06;-0.0031142237802741337
3.09750e-06;-0.0031579296311136894
3.09775e-06;-0.0032016354819533193
3.09800e-06;-0.0032465541268470893
3.09825e-06;-0.0032922124488982568
3.09850e-06;-0.0033385335137709176
3.09875e-06;-0.003385258782246629
3.09900e-06;-0.0034317882529431216
3.09925e-06;-0.0034781983075323542
3.09950e-06;-0.0035246083621216654
3.09975e-06;-0.0035708728278169132
3.10000e-06;-0.0036170484995582796
3.10025e-06;-0.003663224171299568
3.10050e-06;-0.0037088938011134573
3.10075e-06;-0.0037542547984326788
3.10100e-06;-0.0037979637474701566
3.10125e-06;-0.00384066512034692
3.10150e-06;-0.0038833664932236833
3.10175e-06;-0.003923644775179098
3.10200e-06;-0.003962445225841871
3.10225e-06;-0.004001245676504643
3.10250e-06;-0.004037371919508003
3.10275e-06;-0.004071867176349127
3.10300e-06;-0.004102590427419788
3.10325e-06;-0.0041310131506336195
3.10350e-06;-0.004159435873847403
3.10375e-06;-0.0041825274161893375
3.10400e-06;-0.004202367497411693
3.10425e-06;-0.004222207578634048
3.10450e-06;-0.00424204765985637
3.10475e-06;-0.004255576896395367
3.10500e-06;-0.004265257179651247
3.10525e-06;-0.004274937462907109
3.10550e-06;-0.004284617746162988
3.10575e-06;-0.004288875590342857
3.10600e-06;-0.00428982631547111
3.10625e-06;-0.004290777040599363
3.10650e-06;-0.0042882680047474555
3.10675e-06;-0.004283648877608002
3.10700e-06;-0.004276322520162665
3.10725e-06;-0.004267345036204651
3.10750e-06;-0.004255878560657108
3.10775e-06;-0.0042428940613218405
3.10800e-06;-0.004228338937427443
3.10825e-06;-0.004211880051573106
3.10850e-06;-0.004193956013951495
3.10875e-06;-0.0041746589126599
3.10900e-06;-0.004154079904472939
3.10925e-06;-0.004132314710582461
3.10950e-06;-0.0041094987858626315
3.10975e-06;-0.004085828170418279
3.11000e-06;-0.004061505703496634
3.11025e-06;-0.00403669437617647
3.11050e-06;-0.004011534091877262
3.11075e-06;-0.003986162333516436
3.11100e-06;-0.003960716358336122
3.11125e-06;-0.003935336252498869
3.11150e-06;-0.003910186459530249
3.11175e-06;-0.0038854696810766624
3.11200e-06;-0.003861392911560005
3.11225e-06;-0.0038384648134623016
3.11250e-06;-0.0038160718606476034
3.11275e-06;-0.003794762291679326
3.11300e-06;-0.0037749731226066232
3.11325e-06;-0.0037565965345761447
3.11350e-06;-0.0037391316573295455
3.11375e-06;-0.0037212716814744415
3.11400e-06;-0.00370190375132416
3.11425e-06;-0.0036807778105649312
3.11450e-06;-0.0036580757560853226
3.11475e-06;-0.0036340317837256736
3.11500e-06;-0.003608879920069993
3.11525e-06;-0.0035828072132969785
3.11550e-06;-0.0035556301835904555
3.11575e-06;-0.0035266602634515675
3.11600e-06;-0.0034953306181904342
3.11625e-06;-0.003461614861348787
3.11650e-06;-0.0034257571923734663
3.11675e-06;-0.003388034446899832
3.11700e-06;-0.0033487231713137298
3.11725e-06;-0.003307645613939573
3.11750e-06;-0.0032658336541215673
3.11775e-06;-0.0032219001941509945
3.11800e-06;-0.0031766728416213067
3.11825e-06;-0.003129836538979248
3.11850e-06;-0.003081186630222317
3.11875e-06;-0.0030313853717581136
3.11900e-06;-0.0029807362301210645
3.11925e-06;-0.002929524216299325
3.11950e-06;-0.0028778890720058702
3.11975e-06;-0.002825772349164056
3.12000e-06;-0.002773163186213774
3.12025e-06;-0.0027202629025581677
3.12050e-06;-0.002667379083305398
3.12075e-06;-0.0026148319587962223
3.12100e-06;-0.0025629415265410265
3.12125e-06;-0.0025120165597400427
3.12150e-06;-0.0024622747235210534
3.12175e-06;-0.0024138092234752156
3.12200e-06;-0.002366743347567402
3.12225e-06;-0.0023213331067260413
3.12250e-06;-0.002277901294770295
3.12275e-06;-0.0022367782737518715
3.12300e-06;-0.002198294687816538
3.12325e-06;-0.002162766581167602
3.12350e-06;-0.00213038035219405
3.12375e-06;-0.0021011060345256113
3.12400e-06;-0.0020748589102879103
3.12425e-06;-0.002052642868792373
3.12450e-06;-0.0020321916071304263
3.12475e-06;-0.0020168543482050987
3.12500e-06;-0.0020046360945180676
3.12525e-06;-0.0019924178408310365
3.12550e-06;-0.0019863925626727504
3.12575e-06;-0.0019841443499776313
3.12600e-06;-0.001981896137282508
3.12625e-06;-0.0019852520364271047
3.12650e-06;-0.0019920258559531375
3.12675e-06;-0.0019987996754791816
3.12700e-06;-0.0020099974449506166
3.12725e-06;-0.0020238933598404653
3.12750e-06;-0.0020410322673453797
3.12775e-06;-0.0020601490601732243
3.12800e-06;-0.0020820116257971484
3.12825e-06;-0.0021055488248100437
3.12850e-06;-0.002131442973034619
3.12875e-06;-0.002158774613047181
3.12900e-06;-0.0021881007726999766
3.12925e-06;-0.0022186433801191694
3.12950e-06;-0.002250730651958492
3.12975e-06;-0.0022837600070672297
3.13000e-06;-0.002317744030013302
3.13025e-06;-0.002352310300200799
3.13050e-06;-0.002387309432202765
3.13075e-06;-0.0024225725645066584
3.13100e-06;-0.002457763239821287
3.13125e-06;-0.0024929097239727695
3.13150e-06;-0.002527423691871079
3.13175e-06;-0.0025615518912025415
3.13200e-06;-0.0025943999447435757
3.13225e-06;-0.002626467243632736
3.13250e-06;-0.002656649503801581
3.13275e-06;-0.0026856820880813564
3.13300e-06;-0.0027122360214399113
3.13325e-06;-0.0027372782377333826
3.13350e-06;-0.0027584743280829526
3.13375e-06;-0.0027773246850442425
3.13400e-06;-0.0027961750420055324
3.13425e-06;-0.002809097966493041
3.13450e-06;-0.0028184057789267386
3.13475e-06;-0.0028277135913604362
3.13500e-06;-0.0028370214037941183
3.13525e-06;-0.002839248172549599
3.13550e-06;-0.002837156247424029
3.13575e-06;-0.0028350643222984626
3.13600e-06;-0.0028329723971728927
3.13625e-06;-0.0028256879742390452
3.13650e-06;-0.0028152366723067012
3.13675e-06;-0.0028015912609178663
3.13700e-06;-0.002785997777805114
3.13725e-06;-0.0027681393991208893
3.13750e-06;-0.0027474645605254843
3.13775e-06;-0.002724553825188602
3.13800e-06;-0.0026995451789829056
3.13825e-06;-0.0026725955878804377
3.13850e-06;-0.0026438665799291302
3.13875e-06;-0.0026135200852638553
3.13900e-06;-0.002581718242218556
3.13925e-06;-0.002548623100921274
3.13950e-06;-0.0025143997486191923
3.13975e-06;-0.002479226116363284
3.14000e-06;-0.002443297974958176
3.14025e-06;-0.002406822804304517
3.14050e-06;-0.0023700109386795014
3.14075e-06;-0.002333073202653265
3.14100e-06;-0.0022962201951207484
3.14125e-06;-0.0022596627406519616
3.14150e-06;-0.0022236134628880536
3.14175e-06;-0.002188292809516315
3.14200e-06;-0.002153932693344211
3.14225e-06;-0.0021207721853449654
3.14250e-06;-0.0020890521770288457
3.14275e-06;-0.002059013792736812
3.14300e-06;-0.0020308979557661293
3.14325e-06;-0.0020049419420088872
3.14350e-06;-0.0019813392584932094
3.14375e-06;-0.0019601931447526923
3.14400e-06;-0.0019423393952413613
3.14425e-06;-0.0019259204692892227
3.14450e-06;-0.0019135760678844693
3.14475e-06;-0.0019037166990585116
3.14500e-06;-0.0018938573302325539
3.14525e-06;-0.0018890854255051897
3.14550e-06;-0.0018874163402310487
3.14575e-06;-0.0018857472549569077
3.14600e-06;-0.0018889660757591934
3.14625e-06;-0.0018951660065537374
3.14650e-06;-0.0019013659373482814
3.14675e-06;-0.0019120632633463411
3.14700e-06;-0.0019255035286665598
3.14725e-06;-0.0019389437939868013
3.14750e-06;-0.001956403108218766
3.14775e-06;-0.0019763136207107935
3.14800e-06;-0.001996224133202854
3.14825e-06;-0.0020193928480105017
3.14850e-06;-0.0020445487244631832
3.14875e-06;-0.0020697046009159076
3.14900e-06;-0.002096983544288954
3.14925e-06;-0.0021255573357854096
3.14950e-06;-0.002155385746807498
3.14975e-06;-0.002185979344137651
3.15000e-06;-0.0022173644726106345
3.15025e-06;-0.002249232352053451
3.15050e-06;-0.0022814199967725493
3.15075e-06;-0.0023138026647685386
3.15100e-06;-0.0023460355738574024
3.15125e-06;-0.002378177145721888
3.15150e-06;-0.0024096802717193896
3.15175e-06;-0.0024407940127074653
3.15200e-06;-0.0024703246673057192
3.15225e-06;-0.002498889805263252
3.15250e-06;-0.0025274549432207855
3.15275e-06;-0.00255421092223267
3.15300e-06;-0.0025787332617999525
3.15325e-06;-0.0026013800601168862
3.15350e-06;-0.0026226462187539244
3.15375e-06;-0.0026438946806231806
3.15400e-06;-0.0026667179050736205
3.15425e-06;-0.002690359062968947
3.15450e-06;-0.0027155907072193
3.15475e-06;-0.0027417923813131025
3.15500e-06;-0.0027679940554069054
3.15525e-06;-0.002795140442335805
3.15550e-06;-0.002822863004999062
3.15575e-06;-0.0028529459734048255
3.15600e-06;-0.0028844685417200823
3.15625e-06;-0.002916547072319201
3.15650e-06;-0.002952658360091869
3.15675e-06;-0.002988769647864537
3.15700e-06;-0.0030271136604705057
3.15725e-06;-0.003066819401024488
3.15750e-06;-0.0031065251415784705
3.15775e-06;-0.0031468058220936626
3.15800e-06;-0.00319125691725742
3.15825e-06;-0.0032357080124212527
3.15850e-06;-0.0032801591075850857
3.15875e-06;-0.0033264396573647313
3.15900e-06;-0.00337383598256056
3.15925e-06;-0.003421232307756389
3.15950e-06;-0.0034692575576911007
3.15975e-06;-0.003517666385745966
3.16000e-06;-0.003566075213800831
3.16025e-06;-0.0036146173858560005
3.16050e-06;-0.0036632408837642323
3.16075e-06;-0.0037118643816725465
3.16100e-06;-0.0037594083523940177
3.16125e-06;-0.0038062939247678054
3.16150e-06;-0.0038516957920450186
3.16175e-06;-0.0038961927548456406
3.16200e-06;-0.003938930936314709
3.16225e-06;-0.003980596445657785
3.16250e-06;-0.004020516045270281
3.16275e-06;-0.004057949451244865
3.16300e-06;-0.004092901668264836
3.16325e-06;-0.004125029125813428
3.16350e-06;-0.004153739346103629
3.16375e-06;-0.0041781548171142
3.16400e-06;-0.004195997545380423
3.16425e-06;-0.004210908485461317
3.16450e-06;-0.004219441619610147
3.16475e-06;-0.004224084961136533
3.16500e-06;-0.004222443056557537
3.16525e-06;-0.004216967811141368
3.16550e-06;-0.004203141258947015
3.16575e-06;-0.004184221285623262
3.16600e-06;-0.004165301312299509
3.16625e-06;-0.0041394452333808115
3.16650e-06;-0.004106115214181886
3.16675e-06;-0.004067725827502638
3.16700e-06;-0.004024538774986586
3.16725e-06;-0.0039768036098000266
3.16750e-06;-0.003924671506857549
3.16775e-06;-0.0038681821897835786
3.16800e-06;-0.0038074565124228237
3.16825e-06;-0.0037427997376448413
3.16850e-06;-0.0036746024868814925
3.16875e-06;-0.0036032648513844895
3.16900e-06;-0.003529186834199757
3.16925e-06;-0.003452760628637466
3.16950e-06;-0.0033743172612444
3.16975e-06;-0.0032941172020784166
3.17000e-06;-0.0032124721944560386
3.17025e-06;-0.0031298094235854023
3.17050e-06;-0.0030466093310977304
3.17075e-06;-0.0029633585330384004
3.17100e-06;-0.0028805433562029085
3.17125e-06;-0.002798645178359281
3.17150e-06;-0.002718107033421715
3.17175e-06;-0.002639328072646656
3.17200e-06;-0.0025627389864956353
3.17225e-06;-0.0024888432532157202
3.17250e-06;-0.0024181774552445414
3.17275e-06;-0.002351281671469589
3.17300e-06;-0.002288696358233599
3.17325e-06;-0.0022309236781132688
3.17350e-06;-0.002178138763605213
3.17375e-06;-0.0021300106807178166
3.17400e-06;-0.002087506378425764
3.17425e-06;-0.002047402114963638
3.17450e-06;-0.0020114349141919356
3.17475e-06;-0.001982432240827459
3.17500e-06;-0.0019561383269937065
3.17525e-06;-0.0019360284581108815
3.17550e-06;-0.0019196902079767412
3.17575e-06;-0.001908907680657681
3.17600e-06;-0.001901513561491837
3.17625e-06;-0.0018991702078991546
3.17650e-06;-0.0018999072915093012
3.17675e-06;-0.0019056325904972427
3.17700e-06;-0.001914400177630002
3.17725e-06;-0.0019280168511511017
3.17750e-06;-0.0019445909587272492
3.17775e-06;-0.0019652661174362753
3.17800e-06;-0.001988442487159208
3.17825e-06;-0.0020150494639266767
3.17850e-06;-0.002043748751140062
3.17875e-06;-0.002075485229978485
3.17900e-06;-0.002109074077123923
3.17925e-06;-0.0021452587935332575
3.17950e-06;-0.002183026717901639
3.17975e-06;-0.002222568030699158
3.18000e-06;-0.0022631909244199546
3.18025e-06;-0.0023048131750194128
3.18050e-06;-0.0023470449284879263
3.18075e-06;-0.002389675773896523
3.18100e-06;-0.0024325500235261996
3.18125e-06;-0.0024751933074633856
3.18150e-06;-0.0025176957265551467
3.18175e-06;-0.0025590981299567434
3.18200e-06;-0.002599829639172873
3.18225e-06;-0.002638622743143893
3.18250e-06;-0.002676233623243066
3.18275e-06;-0.002710365676002656
3.18300e-06;-0.0027423760089943356
3.18325e-06;-0.002774386341986015
3.18350e-06;-0.0028001901143668495
3.18375e-06;-0.002822208535808166
3.18400e-06;-0.002844226957249483
3.18425e-06;-0.002866245378690762
3.18450e-06;-0.0028882638001320785
3.18475e-06;-0.002902527993169158
3.18500e-06;-0.002912062920254187
3.18525e-06;-0.0029215978473392324
3.18550e-06;-0.0029311327744242777
3.18575e-06;-0.0029406677015093225
3.18600e-06;-0.002944301428636766
3.18625e-06;-0.002944336042792456
3.18650e-06;-0.002944370656948146
3.18675e-06;-0.0029403874032944703
3.18700e-06;-0.0029339536717285938
3.18725e-06;-0.002927519940162717
3.18750e-06;-0.0029179740531539095
3.18775e-06;-0.0029065300777723754
3.18800e-06;-0.0028931022126684088
3.18825e-06;-0.0028784643829325336
3.18850e-06;-0.002862500199805453
3.18875e-06;-0.0028449109628899145
3.18900e-06;-0.0028260590598063635
3.18925e-06;-0.0028060319744682097
3.18950e-06;-0.002784961206794122
3.18975e-06;-0.002763046027896503
3.19000e-06;-0.0027404907026279514
3.19025e-06;-0.0027174530648404215
3.19050e-06;-0.0026940644103749666
3.19075e-06;-0.002670452619673805
3.19100e-06;-0.002646745460341529
3.19125e-06;-0.0026230737053148214
3.19150e-06;-0.0025995962451365855
3.19175e-06;-0.002576513968071456
3.19200e-06;-0.0025540313463467317
3.19225e-06;-0.0025323232271033053
3.19250e-06;-0.002511547924857955
3.19275e-06;-0.002491861901803248
3.19300e-06;-0.002473421186257466
3.19325e-06;-0.00245641755347881
3.19350e-06;-0.002441313207282892
3.19375e-06;-0.0024289072981491253
3.19400e-06;-0.0024198336539357147
3.19425e-06;-0.0024153304099783584
3.19450e-06;-0.0024128040810793942
