Time(s);Current(A)
1.00000e-05;-0.0029594716805768978
1.00003e-05;-0.0029692606330581858
1.00005e-05;-0.002979049585539408
1.00008e-05;-0.002988838538020696
1.00010e-05;-0.0029986274905019843
1.00013e-05;-0.003008416442983206
1.00015e-05;-0.003018205395464494
1.00018e-05;-0.003031487087582527
1.00020e-05;-0.003045746280961576
1.00023e-05;-0.0030600054743407214
1.00025e-05;-0.0030742646677198665
1.00028e-05;-0.0030885238610989154
1.00030e-05;-0.003102783054478061
1.00033e-05;-0.003118030203361267
1.00035e-05;-0.0031358011108923284
1.00038e-05;-0.0031535720184235104
1.00040e-05;-0.0031713429259546924
1.00042e-05;-0.003189113833485754
1.00045e-05;-0.003206884741016936
1.00048e-05;-0.003224655648548118
1.00050e-05;-0.0032424265560791793
1.00053e-05;-0.0032603895689082897
1.00055e-05;-0.00327840634559917
1.00057e-05;-0.0032964231222899288
1.00060e-05;-0.0033144398989808093
1.00063e-05;-0.0033324566756716893
1.00065e-05;-0.003350473452362448
1.00068e-05;-0.0033684902290533284
1.00070e-05;-0.0033857875416917864
1.00073e-05;-0.003401246964246075
1.00075e-05;-0.0034167063868002587
1.00078e-05;-0.0034321658093545474
1.00080e-05;-0.0034452279178784997
1.00083e-05;-0.0034576190982106335
1.00085e-05;-0.0034700102785428515
1.00088e-05;-0.0034824783557776957
1.00090e-05;-0.0034951428681983037
1.00093e-05;-0.003507807380618998
1.00095e-05;-0.003521232216350012
1.00098e-05;-0.003536599318227836
1.00100e-05;-0.0035519664201057637
1.00103e-05;-0.0035673335219836913
1.00105e-05;-0.0035827006238615153
1.00108e-05;-0.0035993197943395543
1.00110e-05;-0.003619137407404797
1.00113e-05;-0.0036389550204699054
1.00115e-05;-0.003658772633535148
1.00118e-05;-0.003678590246600391
1.00120e-05;-0.0036999808821441037
1.00123e-05;-0.0037253898455064795
1.00125e-05;-0.0037507988088688556
1.00127e-05;-0.0037762077722310592
1.00130e-05;-0.003801616735593435
1.00133e-05;-0.003827025698955811
1.00135e-05;-0.0038524346623180147
1.00138e-05;-0.0038778436256803905
1.00140e-05;-0.0039062618263627944
1.00142e-05;-0.003935522212144123
1.00145e-05;-0.00396478259792565
1.00148e-05;-0.003994042983707176
1.00150e-05;-0.004023303369488505
1.00153e-05;-0.004052563755270031
1.00155e-05;-0.004081824141051558
1.00157e-05;-0.004110963626548789
1.00160e-05;-0.0041397942690503025
1.00163e-05;-0.004168624911551815
1.00165e-05;-0.004196861358371141
1.00168e-05;-0.004223579916493673
1.00170e-05;-0.0042502984746163874
1.00173e-05;-0.004275917713958183
1.00175e-05;-0.004298728714193407
1.00178e-05;-0.004321539714428785
1.00180e-05;-0.004344350714664164
1.00183e-05;-0.004365607633582043
1.00185e-05;-0.004382894610381412
1.00188e-05;-0.004400181587180781
1.00190e-05;-0.004417468563980033
1.00193e-05;-0.004432869918184247
1.00195e-05;-0.004443454399244752
1.00198e-05;-0.004454038880305186
1.00200e-05;-0.004464623361365691
1.00203e-05;-0.004475207842426196
1.00205e-05;-0.004485792323486629
1.00208e-05;-0.004496376804547134
1.00210e-05;-0.0045069612856076385
1.00212e-05;-0.0045175457666680715
1.00215e-05;-0.004528130247728576
1.00218e-05;-0.004538714728789081
1.00220e-05;-0.004549299209849515
1.00223e-05;-0.00455988369091002
1.00225e-05;-0.004570468171970525
1.00227e-05;-0.004576198301999719
1.00230e-05;-0.004580569861178106
1.00233e-05;-0.004584941420356494
1.00235e-05;-0.004589312979534852
1.00238e-05;-0.00459368453871324
1.00240e-05;-0.004598056097891628
1.00242e-05;-0.004602427657069985
1.00245e-05;-0.004606799216248373
1.00248e-05;-0.0046111707754267605
1.00250e-05;-0.0046155423346051485
1.00253e-05;-0.004619913893783506
1.00255e-05;-0.004624285452961894
1.00258e-05;-0.004628657012140282
1.00260e-05;-0.004632425312021227
1.00263e-05;-0.00463465256995842
1.00265e-05;-0.004636879827895613
1.00268e-05;-0.004639107085832791
1.00270e-05;-0.004641167213952692
1.00273e-05;-0.004642800404502602
1.00275e-05;-0.004644433595052501
1.00278e-05;-0.004646066785602411
1.00280e-05;-0.004647567104181181
1.00283e-05;-0.004648727997770435
1.00285e-05;-0.004649227577373672
1.00288e-05;-0.004648037812784597
1.00290e-05;-0.004645161225912634
1.00293e-05;-0.004637975606588164
1.00295e-05;-0.0046287079661182645
1.00297e-05;-0.004614121747175132
1.00300e-05;-0.004599535528231901
1.00303e-05;-0.004582585321396827
1.00305e-05;-0.0045595962445243166
1.00308e-05;-0.004536607167651649
1.00310e-05;-0.004509906045360345
1.00312e-05;-0.004473722404171916
1.00315e-05;-0.004437538762983241
1.00318e-05;-0.004401355121794567
1.00320e-05;-0.0043651714806061375
1.00323e-05;-0.00431869039714352
1.00325e-05;-0.00426932740324089
1.00327e-05;-0.004219964409338594
1.00330e-05;-0.004170601415435964
1.00333e-05;-0.004118548128930854
1.00335e-05;-0.004059622418312358
1.00338e-05;-0.0040006967076942615
1.00340e-05;-0.003940610062207487
1.00343e-05;-0.003877557777676192
1.00345e-05;-0.003814049627982371
1.00348e-05;-0.0037490928739236274
1.00350e-05;-0.003683172971195963
1.00353e-05;-0.0036165109138878984
1.00355e-05;-0.0035494791030560822
1.00358e-05;-0.003482476181085822
1.00360e-05;-0.0034159003538807874
1.00363e-05;-0.0033501469815529696
1.00365e-05;-0.003285574316468831
1.00368e-05;-0.0032224381661181663
1.00370e-05;-0.0031609512872345464
1.00373e-05;-0.0031014292917643004
1.00375e-05;-0.003044282363619061
1.00378e-05;-0.0029899368448862403
1.00380e-05;-0.002938819550458971
1.00382e-05;-0.0028913455268033783
1.00385e-05;-0.0028477840523597055
1.00388e-05;-0.002807970360324055
1.00390e-05;-0.0027714529435600333
1.00393e-05;-0.0027380397048616494
1.00395e-05;-0.0027078409250875755
1.00397e-05;-0.0026810239076452674
1.00400e-05;-0.002657756159592654
1.00403e-05;-0.0026381977790540887
1.00405e-05;-0.0026228780439390208
1.00408e-05;-0.002611388782997277
1.00410e-05;-0.0026020274605045375
1.00412e-05;-0.002598102013462757
1.00415e-05;-0.0025941765664209493
1.00418e-05;-0.0025933281464552618
1.00420e-05;-0.002600340074119552
1.00423e-05;-0.002607352001783795
1.00425e-05;-0.002614363929448086
1.00428e-05;-0.0026213758571123763
1.00430e-05;-0.002636659914903672
1.00433e-05;-0.002654259065856064
1.00435e-05;-0.002671858216808456
1.00438e-05;-0.002689457367760729
1.00440e-05;-0.0027088925704148842
1.00443e-05;-0.002733018016049011
1.00445e-05;-0.002757143461682974
1.00448e-05;-0.0027821871660660045
1.00450e-05;-0.0028095765868833
1.00453e-05;-0.00283696600770041
1.00455e-05;-0.0028647389679219014
1.00458e-05;-0.002893491689768005
1.00460e-05;-0.002922244411613914
1.00463e-05;-0.0029510023081633532
1.00465e-05;-0.0029797734236303055
1.00467e-05;-0.0030082288494423155
1.00470e-05;-0.003035877837622178
1.00473e-05;-0.0030629358943319077
1.00475e-05;-0.0030884844008598734
1.00478e-05;-0.0031129653682733602
1.00480e-05;-0.0031347192785814433
1.00482e-05;-0.003156473188889379
1.00485e-05;-0.0031767247539975334
1.00488e-05;-0.0031931385382729855
1.00490e-05;-0.0032095523225483267
1.00493e-05;-0.0032248376785503218
1.00495e-05;-0.0032372404344685915
1.00497e-05;-0.0032476385436216227
1.00500e-05;-0.0032538361169085176
1.00503e-05;-0.003262837038682533
1.00505e-05;-0.0032680013737472306
1.00508e-05;-0.0032683460925641665
1.00510e-05;-0.003268690811381105
1.00513e-05;-0.0032690355301980435
1.00515e-05;-0.0032693802490149793
1.00518e-05;-0.003268455794698024
1.00520e-05;-0.0032609971386329257
1.00523e-05;-0.003253538482567878
1.00525e-05;-0.0032460798265027796
1.00528e-05;-0.0032386211704376815
1.00530e-05;-0.0032308705083928693
1.00533e-05;-0.003216918830563842
1.00535e-05;-0.003202967152734815
1.00538e-05;-0.0031890154749058823
1.00540e-05;-0.003175063797076855
1.00543e-05;-0.003161112119247828
1.00545e-05;-0.00314698725756432
1.00548e-05;-0.0031291846773045797
1.00550e-05;-0.0031113820970448394
1.00552e-05;-0.0030935795167852196
1.00555e-05;-0.0030757769365254792
1.00558e-05;-0.003057974356265739
1.00560e-05;-0.0030401508027444965
1.00563e-05;-0.0030218818627055174
1.00565e-05;-0.0030036285034020825
1.00567e-05;-0.002985706015360982
1.00570e-05;-0.0029678358348227156
1.00573e-05;-0.0029510764522618664
1.00575e-05;-0.0029343680526321397
1.00578e-05;-0.002918782708830735
1.00580e-05;-0.0029041008586444517
1.00582e-05;-0.0028904507829446884
1.00585e-05;-0.002878130076747267
1.00588e-05;-0.0028680123760740023
1.00590e-05;-0.002861395670771767
1.00593e-05;-0.0028588710547318773
1.00595e-05;-0.0028603151924193487
1.00598e-05;-0.0028656621470624258
1.00600e-05;-0.002876240225280194
1.00603e-05;-0.002887144190078855
1.00605e-05;-0.0029049686564190987
1.00608e-05;-0.002923288053689011
1.00610e-05;-0.0029521177648679496
1.00613e-05;-0.0029809474760468884
1.00615e-05;-0.0030103307047226304
1.00618e-05;-0.0030514683869966143
1.00620e-05;-0.0030926060692705983
1.00623e-05;-0.003134129463751643
1.00625e-05;-0.0031838438120305825
1.00628e-05;-0.0032338661887286015
1.00630e-05;-0.0032904298324668456
1.00633e-05;-0.0033472061930350018
1.00635e-05;-0.003408618364047554
1.00637e-05;-0.003472649821772182
1.00640e-05;-0.0035389162465844924
1.00643e-05;-0.0036070367521425875
1.00645e-05;-0.003676672035029599
1.00648e-05;-0.003747625021821202
1.00650e-05;-0.0038198024628320155
1.00652e-05;-0.003892937220239208
1.00655e-05;-0.003966587088296238
1.00658e-05;-0.004040303771304951
1.00660e-05;-0.0041136419584818645
1.00663e-05;-0.004186159387374894
1.00665e-05;-0.004257440031395517
1.00667e-05;-0.004327156114180109
1.00670e-05;-0.004395045224645103
1.00673e-05;-0.004460735777545802
1.00675e-05;-0.004523665961000903
1.00678e-05;-0.004581864774349517
1.00680e-05;-0.004639699471773184
1.00683e-05;-0.0046898018323197725
1.00685e-05;-0.004739601478441449
1.00688e-05;-0.004782972705080005
1.00690e-05;-0.004826199914624283
1.00693e-05;-0.004866368788589751
1.00695e-05;-0.0049063058013861
1.00698e-05;-0.004941319028799198
1.00700e-05;-0.004976332256212059
1.00703e-05;-0.005011037463932312
1.00705e-05;-0.005039201589911259
1.00708e-05;-0.005067365715890015
1.00710e-05;-0.005095356150174996
1.00713e-05;-0.0051196580814370125
1.00715e-05;-0.005143960012698864
1.00718e-05;-0.00516826194396088
1.00720e-05;-0.005189888315581753
1.00722e-05;-0.005209280713368511
1.00725e-05;-0.005228673111155401
1.00728e-05;-0.005247799091827788
1.00730e-05;-0.005261267459806627
1.00733e-05;-0.005274735827785557
1.00735e-05;-0.005288204195764487
1.00737e-05;-0.005301672563743327
1.00740e-05;-0.005315140931722258
1.00743e-05;-0.005328609299701188
1.00745e-05;-0.005342077667680027
1.00748e-05;-0.005355546035658958
1.00750e-05;-0.005369014403637888
1.00752e-05;-0.00538221061972668
1.00755e-05;-0.005389627439880274
1.00758e-05;-0.005397044260033868
1.00760e-05;-0.005404461080187462
1.00763e-05;-0.005411877900341006
1.00765e-05;-0.0054192947204946
1.00768e-05;-0.005426711540648194
1.00770e-05;-0.005434128360801737
1.00773e-05;-0.005441545180955331
1.00775e-05;-0.005448962001108925
1.00778e-05;-0.0054562585277928045
1.00780e-05;-0.005461000511901889
1.00783e-05;-0.005465742496010973
1.00785e-05;-0.005470276605959422
1.00788e-05;-0.00547039631673036
1.00790e-05;-0.005470516027501297
1.00793e-05;-0.005470635738272233
1.00795e-05;-0.005470755449043171
1.00798e-05;-0.005470875159814108
1.00800e-05;-0.005470994870585044
1.00803e-05;-0.005466643695668337
1.00805e-05;-0.005458559529159866
1.00808e-05;-0.005450475362651449
1.00810e-05;-0.005442391196142978
1.00813e-05;-0.005434307029634507
1.00815e-05;-0.00542622286312609
1.00818e-05;-0.005417740550757409
1.00820e-05;-0.0054008032444970485
1.00822e-05;-0.0053838659382368015
1.00825e-05;-0.00536692863197644
1.00828e-05;-0.005349991325716078
1.00830e-05;-0.005333054019455832
1.00833e-05;-0.005316116713195471
1.00835e-05;-0.005299179406935109
1.00837e-05;-0.005282242100674863
1.00840e-05;-0.005262237938915911
1.00843e-05;-0.0052396730886065945
1.00845e-05;-0.005217108238297278
1.00848e-05;-0.005194543387988116
1.00850e-05;-0.0051719785376788
1.00853e-05;-0.0051494136873694845
1.00855e-05;-0.005126848837060321
1.00858e-05;-0.005104283986751005
1.00860e-05;-0.0050817278513304535
1.00863e-05;-0.0050593567845964105
1.00865e-05;-0.005036985717862216
1.00868e-05;-0.005014614651128021
1.00870e-05;-0.004992366052325441
1.00873e-05;-0.004972718172799422
1.00875e-05;-0.0049530702932734025
1.00878e-05;-0.004933422413747517
1.00880e-05;-0.004913923797248408
1.00883e-05;-0.0048975949185476745
1.00885e-05;-0.004881297630625875
1.00888e-05;-0.0048656712019770456
1.00890e-05;-0.004849926930055053
1.00893e-05;-0.004831680147732452
1.00895e-05;-0.004813433365409727
1.00898e-05;-0.004795069322695314
1.00900e-05;-0.0047742151476046655
1.00903e-05;-0.004753360972513876
1.00905e-05;-0.004732506797423086
1.00907e-05;-0.004711438146388674
1.00910e-05;-0.004685814901223922
1.00913e-05;-0.00466019165605917
1.00915e-05;-0.004634568410894591
1.00918e-05;-0.004608681968575046
1.00920e-05;-0.00457720629235141
1.00922e-05;-0.004545730616127988
1.00925e-05;-0.004514254939904352
1.00928e-05;-0.004482779263680716
1.00930e-05;-0.004451303587457081
1.00933e-05;-0.004419594772612473
1.00935e-05;-0.00438293504449767
1.00938e-05;-0.004346275316382866
1.00940e-05;-0.004309615588268311
1.00943e-05;-0.004272955860153508
1.00945e-05;-0.004236296132038703
1.00948e-05;-0.004199565212109446
1.00950e-05;-0.004161322468448439
1.00953e-05;-0.004123079724787433
1.00955e-05;-0.0040848590398739944
1.00958e-05;-0.004047106792768953
1.00960e-05;-0.0040093545456639105
1.00963e-05;-0.003971684737891715
1.00965e-05;-0.003935765605249267
1.00968e-05;-0.003899933789645005
1.00970e-05;-0.003865956231740217
1.00973e-05;-0.0038320961419000435
1.00975e-05;-0.003800730594570856
1.00978e-05;-0.0037695247864283116
1.00980e-05;-0.003741711186983386
1.00983e-05;-0.003714105958933037
1.00985e-05;-0.00369092568929698
1.00988e-05;-0.0036680197945269458
1.00990e-05;-0.003650940502661716
1.00992e-05;-0.0036341586426381516
1.00995e-05;-0.0036236930216211965
1.00998e-05;-0.0036136008967306184
1.01000e-05;-0.0036114403059677347
1.01003e-05;-0.0036092797152048363
1.01005e-05;-0.003607777407023605
1.01007e-05;-0.003620254335555659
1.01010e-05;-0.0036327312640877982
1.01013e-05;-0.003645208192619937
1.01015e-05;-0.0036576851211520757
1.01018e-05;-0.0036701620496841303
1.01020e-05;-0.003691885871081804
1.01023e-05;-0.0037213304386023507
1.01025e-05;-0.0037507750061226974
1.01028e-05;-0.0037802195736432436
1.01030e-05;-0.0038096641411637902
1.01033e-05;-0.003839533786804831
1.01035e-05;-0.0038784303577183246
1.01038e-05;-0.003917494897964712
1.01040e-05;-0.00396012642164809
1.01043e-05;-0.004002885648725061
1.01045e-05;-0.004048356774938731
1.01048e-05;-0.004093919636920258
1.01050e-05;-0.00414143059240298
1.01053e-05;-0.004188981944711815
1.01055e-05;-0.00423740077312597
1.01058e-05;-0.004286020377066994
1.01060e-05;-0.004334552449372166
1.01063e-05;-0.0043827076419063445
1.01065e-05;-0.004430203712165139
1.01068e-05;-0.004476777242452548
1.01070e-05;-0.0045221663155863194
1.01073e-05;-0.004566073535419263
1.01075e-05;-0.004608175225472693
1.01077e-05;-0.00464808468536409
1.01080e-05;-0.004684344332822882
1.01083e-05;-0.0047203272546933114
1.01085e-05;-0.004750433653901415
1.01088e-05;-0.0047801404756564895
1.01090e-05;-0.0048013619022825365
1.01092e-05;-0.004822583328908439
1.01095e-05;-0.0048432994915517105
1.01098e-05;-0.004853285908298905
1.01100e-05;-0.004863272325046101
1.01103e-05;-0.004872477554993038
1.01105e-05;-0.0048650935639601815
1.01108e-05;-0.004857709572927326
1.01110e-05;-0.004850325581894521
1.01113e-05;-0.004842941590861665
1.01115e-05;-0.00483555759982881
1.01118e-05;-0.0048272426179716875
1.01120e-05;-0.004799157188750264
1.01123e-05;-0.00477107175952884
1.01125e-05;-0.004742986330307607
1.01128e-05;-0.004714900901086184
1.01130e-05;-0.00468681547186476
1.01133e-05;-0.00465818273440933
1.01135e-05;-0.004617927402664579
1.01138e-05;-0.004577672070919829
1.01140e-05;-0.004537166665579884
1.01143e-05;-0.004491350717182963
1.01145e-05;-0.004445534768786042
1.01148e-05;-0.0043995654562511
1.01150e-05;-0.0043503393150267945
1.01153e-05;-0.004301113173802489
1.01155e-05;-0.004251842360125032
1.01158e-05;-0.004201622885764685
1.01160e-05;-0.004151427525943063
1.01162e-05;-0.004101744260555388
1.01165e-05;-0.004052137401502178
1.01168e-05;-0.004004153101320908
1.01170e-05;-0.003956261039512332
1.01173e-05;-0.003910408768483427
1.01175e-05;-0.0038663727897982436
1.01177e-05;-0.003824478896353069
1.01180e-05;-0.0037851242080953135
1.01183e-05;-0.003749912414948286
1.01185e-05;-0.0037150094512432173
1.01188e-05;-0.003686664765100309
1.01190e-05;-0.0036586632373245063
1.01193e-05;-0.0036379489934505525
1.01195e-05;-0.0036175880437987235
1.01198e-05;-0.0036047296222569292
1.01200e-05;-0.0035923251414617463
1.01203e-05;-0.003589560510399013
1.01205e-05;-0.0035867958793362608
1.01208e-05;-0.0035847536499074976
1.01210e-05;-0.0035980522843471327
1.01213e-05;-0.003611350918786857
1.01215e-05;-0.003624649553226582
1.01218e-05;-0.003637948187666217
1.01220e-05;-0.0036520381224218416
1.01223e-05;-0.0036829320479992854
1.01225e-05;-0.00371382597357652
1.01228e-05;-0.003744719899153964
1.01230e-05;-0.003775613824731408
1.01233e-05;-0.0038069601947600287
1.01235e-05;-0.003847914639317457
1.01238e-05;-0.0038890655445923917
1.01240e-05;-0.003934388474101069
1.01243e-05;-0.003979831834946072
1.01245e-05;-0.004027898674809928
1.01247e-05;-0.004077421740092439
1.01250e-05;-0.0041281429017281795
1.01253e-05;-0.004179770346563848
1.01255e-05;-0.0042319957858850425
1.01258e-05;-0.004284510444375292
1.01260e-05;-0.0043370046572781835
1.01262e-05;-0.004389168885488399
1.01265e-05;-0.004440696216334612
1.01268e-05;-0.004491278303217492
1.01270e-05;-0.00454059433633317
1.01273e-05;-0.004588252227267613
1.01275e-05;-0.004632958737647523
1.01278e-05;-0.004677356687339571
1.01280e-05;-0.0047152020667018185
1.01283e-05;-0.0047530474460643225
1.01285e-05;-0.0047905901773209365
1.01288e-05;-0.004821705897369272
1.01290e-05;-0.004852648389936402
1.01293e-05;-0.004879912237426553
1.01295e-05;-0.00490717608491652
1.01298e-05;-0.004934135523440436
1.01300e-05;-0.00495463055726339
1.01303e-05;-0.004975125591086205
1.01305e-05;-0.004995620624909158
1.01308e-05;-0.005015838807493534
1.01310e-05;-0.005030177799098182
1.01313e-05;-0.005044516790702927
1.01315e-05;-0.005058855782307673
1.01318e-05;-0.005072847542356144
1.01320e-05;-0.0050794655205713655
1.01323e-05;-0.005086083498786588
1.01325e-05;-0.005092701477001766
1.01328e-05;-0.005099319455216989
1.01330e-05;-0.005105937433432212
1.01332e-05;-0.005112555411647389
1.01335e-05;-0.005119173389862611
1.01338e-05;-0.005125791368077834
1.01340e-05;-0.00513211160207032
1.01343e-05;-0.005132108963323025
1.01345e-05;-0.00513210632457573
1.01347e-05;-0.0051321036858284355
1.01350e-05;-0.005132101047081141
1.01353e-05;-0.005132098408333846
1.01355e-05;-0.005132095769586551
1.01358e-05;-0.005132093130839257
1.01360e-05;-0.0051320904920919615
1.01363e-05;-0.005131991050812978
1.01365e-05;-0.005129835918635187
1.01368e-05;-0.005127680786457383
1.01370e-05;-0.005125525654279578
1.01373e-05;-0.0051233705221017875
1.01375e-05;-0.005121215389923983
1.01378e-05;-0.005119060257746178
1.01380e-05;-0.005116905125568388
1.01383e-05;-0.0051147499933905825
1.01385e-05;-0.005112652397778336
1.01388e-05;-0.005111776644117345
1.01390e-05;-0.005110900890456347
1.01393e-05;-0.00511002513679535
1.01395e-05;-0.005109149383134358
1.01398e-05;-0.005108273629473361
1.01400e-05;-0.005107397875812363
1.01403e-05;-0.005106522122151372
1.01405e-05;-0.005105646368490375
1.01408e-05;-0.005104890841206459
1.01410e-05;-0.005106688431749169
1.01413e-05;-0.005108486022291893
1.01415e-05;-0.005110283612834617
1.01417e-05;-0.005112081203377328
1.01420e-05;-0.005113878793920052
1.01423e-05;-0.005115676384462775
1.01425e-05;-0.005117473975005487
1.01428e-05;-0.00511927156554821
1.01430e-05;-0.005121069156090933
1.01432e-05;-0.005122866746633645
1.01435e-05;-0.0051246643371763686
1.01438e-05;-0.005126461927719092
1.01440e-05;-0.005128259518261816
1.01443e-05;-0.005130802692386677
1.01445e-05;-0.005133968395791512
1.01448e-05;-0.005137134099196345
1.01450e-05;-0.005140299802601158
1.01453e-05;-0.005143465506005993
1.01455e-05;-0.005146631209410828
