Time(s);Current(A)
7.30000e-06;-0.000973420621495749
7.30025e-06;-0.000975834842439796
7.30050e-06;-0.0009833779308199286
7.30075e-06;-0.000991803547944814
7.30100e-06;-0.0010051490538161522
7.30125e-06;-0.0010193411292847999
7.30150e-06;-0.0010391176900978129
7.30175e-06;-0.001059855178231095
7.30200e-06;-0.001080592666364307
7.30225e-06;-0.0011073780878295006
7.30250e-06;-0.0011352041825190636
7.30275e-06;-0.001163030277208532
7.30300e-06;-0.0011958586502942485
7.30325e-06;-0.0012295477698370011
7.30350e-06;-0.0012632368893796396
7.30375e-06;-0.0013004796729988383
7.30400e-06;-0.0013383339387310364
7.30425e-06;-0.0013761882044631061
7.30450e-06;-0.001416202810574927
7.30475e-06;-0.0014565891483619767
7.30500e-06;-0.0014969754861488896
7.30525e-06;-0.001537808585412017
7.30550e-06;-0.001578718559316646
7.30575e-06;-0.0016196285332211364
7.30600e-06;-0.0016591612739934314
7.30625e-06;-0.0016984570330454696
7.30650e-06;-0.0017377527920975078
7.30675e-06;-0.0017745565498029432
7.30700e-06;-0.0018109315066380046
7.30725e-06;-0.0018442556129831661
7.30750e-06;-0.0018770547567931025
7.30775e-06;-0.0019058395034076301
7.30800e-06;-0.001933933489155176
7.30825e-06;-0.0019563145299073934
7.30850e-06;-0.0019777125391740977
7.30875e-06;-0.001990032208905887
7.30900e-06;-0.002000789760744878
7.30925e-06;-0.002011547312583832
7.30950e-06;-0.0020113814900452136
7.30975e-06;-0.0020093360728407074
7.31000e-06;-0.002007290655636208
7.31025e-06;-0.0019937707456656253
7.31050e-06;-0.001978276409601962
7.31075e-06;-0.001962782073538299
7.31100e-06;-0.0019375940000634728
7.31125e-06;-0.0019107379166405736
7.31150e-06;-0.001878564994217537
7.31175e-06;-0.0018421715808557948
7.31200e-06;-0.001802054126419446
7.31225e-06;-0.001758292340318587
7.31250e-06;-0.0017109302493588112
7.31275e-06;-0.0016601490437068488
7.31300e-06;-0.0016062520139199028
7.31325e-06;-0.0015495642683564168
7.31350e-06;-0.0014904118692423572
7.31375e-06;-0.001429120796569505
7.31400e-06;-0.001365998936184809
7.31425e-06;-0.0013012909720955174
7.31450e-06;-0.0012352186341360576
7.31475e-06;-0.0011680900790330992
7.31500e-06;-0.0011002896937764267
7.31525e-06;-0.0010322154381960864
7.31550e-06;-0.0009642660005880989
7.31575e-06;-0.0008968398054560744
7.31600e-06;-0.0008303241513524225
7.31625e-06;-0.0007650664892521006
7.31650e-06;-0.0007014000934404867
7.31675e-06;-0.0006397120969519048
7.31700e-06;-0.0005804375156967735
7.31725e-06;-0.0005240199080254377
7.31750e-06;-0.0004709030662353729
7.31775e-06;-0.00042153071587151667
7.31800e-06;-0.00037609428977327053
7.31825e-06;-0.0003337709629680445
7.31850e-06;-0.000293034702473348
7.31875e-06;-0.00025313933742890127
7.31900e-06;-0.00021421992786658272
7.31925e-06;-0.00017657861528878028
7.31950e-06;-0.0001405245431214183
7.31975e-06;-0.00010636685632328086
7.32000e-06;-7.425656608190382e-05
7.32025e-06;-4.370939598121922e-05
7.32050e-06;-1.3800658494046156e-05
7.32075e-06;1.590575968686443e-05
7.32100e-06;4.5293971666611864e-05
7.32125e-06;7.414345952907046e-05
7.32150e-06;0.00010222929427805026
7.32175e-06;0.00012932660389815143
7.32200e-06;0.00015497142608325603
7.32225e-06;0.0001803921231399444
7.32250e-06;0.00020528587283244264
7.32275e-06;0.00023008895022705105
7.32300e-06;0.00025438010308389565
7.32325e-06;0.0002785831686338504
7.32350e-06;0.0003027862341838052
7.32375e-06;0.0003253718089799935
7.32400e-06;0.00034767906071527346
7.32425e-06;0.0003699863124505534
7.32450e-06;0.00039139536470614457
7.32475e-06;0.00041264986298486674
7.32500e-06;0.00043334655502732844
7.32525e-06;0.0004539472648587403
7.32550e-06;0.00047383661281969185
7.32575e-06;0.0004929710578767004
7.32600e-06;0.0005112843381197905
7.32625e-06;0.0005288324177269189
7.32650e-06;0.0005457793559688715
7.32675e-06;0.0005621691973413845
7.32700e-06;0.0005779102626507207
7.32725e-06;0.0005928851349137393
7.32750e-06;0.000606975402657189
7.32775e-06;0.0006200626714988249
7.32800e-06;0.0006318547292299152
7.32825e-06;0.0006413977510112401
7.32850e-06;0.0006473713678705143
7.32875e-06;0.0006491250852700622
7.32900e-06;0.0006466749118080793
7.32925e-06;0.0006401598936706875
7.32950e-06;0.0006297240537017991
7.32975e-06;0.0006155115963035202
7.33000e-06;0.0005975578011134889
7.33025e-06;0.0005754834407475623
7.33050e-06;0.0005486799360510253
7.33075e-06;0.0005169581693111126
7.33100e-06;0.00048054665730501076
7.33125e-06;0.00043975086378937643
7.33150e-06;0.0003948795051065813
7.33175e-06;0.0003462412153659335
7.33200e-06;0.00029407652465971297
7.33225e-06;0.00023836625892663363
7.33250e-06;0.0001789475595390421
7.33275e-06;0.00011592043047325946
7.33300e-06;4.964635959510477e-05
7.33325e-06;-1.9464910153124547e-05
7.33350e-06;-9.100168776682832e-05
7.33375e-06;-0.00016455227409859456
7.33400e-06;-0.00023974776342901175
7.33425e-06;-0.00031693938489429403
7.33450e-06;-0.00039443427066702323
7.33475e-06;-0.0004735615541413152
7.33500e-06;-0.0005529697257280076
7.33525e-06;-0.0006324666685620643
7.33550e-06;-0.0007119788863426394
7.33575e-06;-0.0007899687082746901
7.33600e-06;-0.000867696570209963
7.33625e-06;-0.0009425857138965006
7.33650e-06;-0.0010169863968303812
7.33675e-06;-0.0010872974939425462
7.33700e-06;-0.0011569048924152726
7.33725e-06;-0.0012207117913695697
7.33750e-06;-0.001283520593255264
7.33775e-06;-0.0013388696306506913
7.33800e-06;-0.0013929350597907566
7.33825e-06;-0.0014403311485907157
7.33850e-06;-0.0014865796381158848
7.33875e-06;-0.0015284594897148375
7.33900e-06;-0.0015695876259324316
7.33925e-06;-0.0016043255566853304
7.33950e-06;-0.0016379639191477662
7.33975e-06;-0.0016716022816100882
7.34000e-06;-0.0016979847099533305
7.34025e-06;-0.001723118603312783
7.34050e-06;-0.0017432270922269728
7.34075e-06;-0.0017624708553658885
7.34100e-06;-0.001781714618504739
7.34125e-06;-0.001795286556978645
7.34150e-06;-0.0018078825395799328
7.34175e-06;-0.0018204785221811782
7.34200e-06;-0.0018271960852151178
7.34225e-06;-0.0018329021434093772
7.34250e-06;-0.001838608201603617
7.34275e-06;-0.001840456232429302
7.34300e-06;-0.0018416404090829297
7.34325e-06;-0.0018428245857365533
7.34350e-06;-0.0018403614684436248
7.34375e-06;-0.001837270758064431
7.34400e-06;-0.0018341800476852476
7.34425e-06;-0.0018282454127994281
7.34450e-06;-0.0018218214213154814
7.34475e-06;-0.0018153974298315348
7.34500e-06;-0.0018075332666076633
7.34525e-06;-0.0017994212917623333
7.34550e-06;-0.0017913093169170033
7.34575e-06;-0.0017821133147811771
7.34600e-06;-0.0017727307831134282
7.34625e-06;-0.001763348251445679
7.34650e-06;-0.0017541131835110777
7.34675e-06;-0.0017449034897911344
7.34700e-06;-0.0017356937960711911
7.34725e-06;-0.0017279605672533085
7.34750e-06;-0.0017204813950533438
7.34775e-06;-0.0017130022228533793
7.34800e-06;-0.0017055230506533895
7.34825e-06;-0.001698043878453425
7.34850e-06;-0.0016911730686461626
7.34875e-06;-0.0016844069402923878
7.34900e-06;-0.0016776408119386133
7.34925e-06;-0.0016708746835848158
7.34950e-06;-0.0016641085552310413
7.34975e-06;-0.00165690169687952
7.35000e-06;-0.001649619001728561
7.35025e-06;-0.0016423363065776269
7.35050e-06;-0.0016350536114266927
7.35075e-06;-0.0016277709162757338
7.35100e-06;-0.0016204882211247997
7.35125e-06;-0.0016132055259738655
7.35150e-06;-0.0016059228308229066
7.35175e-06;-0.0015975124180292238
7.35200e-06;-0.0015889079578661819
7.35225e-06;-0.0015803034977031106
7.35250e-06;-0.0015716990375400687
7.35275e-06;-0.0015630945773769977
7.35300e-06;-0.0015544901172139557
7.35325e-06;-0.0015458856570509138
7.35350e-06;-0.0015372811968878426
7.35375e-06;-0.0015282503864275183
7.35400e-06;-0.0015191462134955343
7.35425e-06;-0.0015100420405635192
7.35450e-06;-0.0015009378676315351
7.35475e-06;-0.001491833694699551
7.35500e-06;-0.0014827295217675362
7.35525e-06;-0.0014736253488355521
7.35550e-06;-0.001464521175903568
7.35575e-06;-0.0014564554154981848
7.35600e-06;-0.001448568335652071
7.35625e-06;-0.001440681255805957
7.35650e-06;-0.0014327941759598164
7.35675e-06;-0.0014249070961137025
7.35700e-06;-0.0014170200162675617
7.35725e-06;-0.0014091329364214478
7.35750e-06;-0.0014012458565753338
7.35775e-06;-0.001395036383620202
7.35800e-06;-0.0013891155779622985
7.35825e-06;-0.0013831947723043953
7.35850e-06;-0.0013766263900061042
7.35875e-06;-0.0013699465786242361
7.35900e-06;-0.0013632667672423683
7.35925e-06;-0.0013565869558604777
7.35950e-06;-0.0013499071444786096
7.35975e-06;-0.0013432273330967416
7.36000e-06;-0.001336547521714851
7.36025e-06;-0.001328007022425975
7.36050e-06;-0.0013191463529280423
7.36075e-06;-0.0013102856834300795
7.36100e-06;-0.0013014250139321468
7.36125e-06;-0.0012925643444342142
7.36150e-06;-0.0012837036749362514
7.36175e-06;-0.0012748430054383187
7.36200e-06;-0.0012638069439609024
7.36225e-06;-0.0012523965608672142
7.36250e-06;-0.001240986177773526
7.36275e-06;-0.001229575794679799
7.36300e-06;-0.001218165411586111
7.36325e-06;-0.0012067550284924227
7.36350e-06;-0.0011953446453986957
7.36375e-06;-0.0011839342623050076
7.36400e-06;-0.0011725238792113194
7.36425e-06;-0.0011604526462592325
7.36450e-06;-0.0011482677002892868
7.36475e-06;-0.0011360827543193408
7.36500e-06;-0.0011238978083493538
7.36525e-06;-0.0011117128623794078
7.36550e-06;-0.001099527916409462
7.36575e-06;-0.001087342970439475
7.36600e-06;-0.001075158024469529
7.36625e-06;-0.001062973078499542
7.36650e-06;-0.0010527592996899579
7.36675e-06;-0.0010428847013519015
7.36700e-06;-0.0010330101030138117
7.36725e-06;-0.0010231355046757555
7.36750e-06;-0.001013260906337699
7.36775e-06;-0.0010033863079996093
7.36800e-06;-0.000995494251607161
7.36825e-06;-0.0009912328866617367
7.36850e-06;-0.000986971521716298
7.36875e-06;-0.0009827101567708738
7.36900e-06;-0.0009784487918254494
7.36925e-06;-0.0009741874268800106
7.36950e-06;-0.0009699260619345863
7.36975e-06;-0.0009705288163197067
7.37000e-06;-0.000971968544007299
7.37025e-06;-0.0009734082716948864
7.37050e-06;-0.0009781476742306444
7.37075e-06;-0.000983454854727198
7.37100e-06;-0.0009887620352237515
7.37125e-06;-0.000999367596924487
7.37150e-06;-0.0010108848557511302
7.37175e-06;-0.0010224021145777734
7.37200e-06;-0.0010339193734044557
7.37225e-06;-0.001045436632231099
7.37250e-06;-0.0010569538910577421
7.37275e-06;-0.0010684711498844244
7.37300e-06;-0.0010799884087110676
7.37325e-06;-0.0010965866978268966
7.37350e-06;-0.0011140592843050625
7.37375e-06;-0.0011315318707831692
7.37400e-06;-0.0011490044572612758
7.37425e-06;-0.0011664770437394417
7.37450e-06;-0.0011839496302175484
7.37475e-06;-0.0012014222166957143
7.37500e-06;-0.001218894803173821
7.37525e-06;-0.0012374122127456536
7.37550e-06;-0.00125610940594859
7.37575e-06;-0.0012748065991514629
7.37600e-06;-0.0012928276244550956
7.37625e-06;-0.0013107323009521386
7.37650e-06;-0.0013286369774491212
7.37675e-06;-0.001345061057145724
7.37700e-06;-0.0013612303692453944
7.37725e-06;-0.0013773996813450102
7.37750e-06;-0.0013911515682215273
7.37775e-06;-0.0014044874866083498
7.37800e-06;-0.001417823404995127
7.37825e-06;-0.001425751751474338
7.37850e-06;-0.0014327496122872542
7.37875e-06;-0.0014397474731001466
7.37900e-06;-0.001446745333913063
7.37925e-06;-0.0014537431947259554
7.37950e-06;-0.0014607410555388478
7.37975e-06;-0.0014595808346031403
7.38000e-06;-0.001457016845347563
7.38025e-06;-0.0014544528560919857
7.38050e-06;-0.0014518888668363997
7.38075e-06;-0.0014493248775808223
7.38100e-06;-0.001446760888325245
7.38125e-06;-0.0014361997853622422
7.38150e-06;-0.00142426261199226
7.38175e-06;-0.0014123254386222777
7.38200e-06;-0.001400388265252255
7.38225e-06;-0.0013884510918822728
7.38250e-06;-0.0013765139185122905
7.38275e-06;-0.0013620844970624994
7.38300e-06;-0.0013430909432853408
7.38325e-06;-0.0013240973895081178
7.38350e-06;-0.0013051038357309592
7.38375e-06;-0.0012861102819538006
7.38400e-06;-0.0012671167281765776
7.38425e-06;-0.001248123174399419
7.38450e-06;-0.0012268644649086713
7.38475e-06;-0.001205215988076983
7.38500e-06;-0.0011831686241646027
7.38525e-06;-0.0011610526234005307
7.38550e-06;-0.0011389726774198297
7.38575e-06;-0.001116898935417581
7.38600e-06;-0.0010952924157330431
7.38625e-06;-0.0010737662914045954
7.38650e-06;-0.0010531395998351597
7.38675e-06;-0.0010326676744535886
7.38700e-06;-0.0010135718896357106
7.38725e-06;-0.0009947128985380517
7.38750e-06;-0.000977722970529022
7.38775e-06;-0.000961054653853672
7.38800e-06;-0.0009468652525269598
7.38825e-06;-0.0009331024003498893
7.38850e-06;-0.0009236886522875666
7.38875e-06;-0.000915023258404825
7.38900e-06;-0.0009063578645220542
7.38925e-06;-0.0009032598225150032
7.38950e-06;-0.0009011197596538586
7.38975e-06;-0.0008989796967927068
7.39000e-06;-0.0009015163267100381
7.39025e-06;-0.0009048576792771148
7.39050e-06;-0.0009122080903509793
7.39075e-06;-0.000920248343656787
7.39100e-06;-0.000933051428889696
7.39125e-06;-0.0009466740588116255
7.39150e-06;-0.0009602966887335088
7.39175e-06;-0.000978976308284351
7.39200e-06;-0.0009985260884991774
7.39225e-06;-0.0010180758687140037
7.39250e-06;-0.0010421556394618497
7.39275e-06;-0.0010670148896745589
7.39300e-06;-0.001091874139887268
7.39325e-06;-0.0011202735791583374
7.39350e-06;-0.0011492821818818166
7.39375e-06;-0.001178290784605296
7.39400e-06;-0.001209669964509431
7.39425e-06;-0.0012414570517189536
7.39450e-06;-0.0012732441389284763
7.39475e-06;-0.0013062863563865013
7.39500e-06;-0.0013395445452128436
7.39525e-06;-0.001372802734039186
7.39550e-06;-0.0014058553874242783
7.39575e-06;-0.0014388726741446536
7.39600e-06;-0.0014718899608651406
7.39625e-06;-0.001503261970809884
7.39650e-06;-0.0015343508765293032
7.39675e-06;-0.0015654397822488278
7.39700e-06;-0.0015933686136654268
7.39725e-06;-0.0016207536883107076
7.39750e-06;-0.001648138762956081
7.39775e-06;-0.0016679003176151112
7.39800e-06;-0.0016863500864689818
7.39825e-06;-0.0017047998553229146
7.39850e-06;-0.0017232496241767852
7.39875e-06;-0.0017416993930306557
7.39900e-06;-0.0017601491618845888
7.39925e-06;-0.0017740224461858115
7.39950e-06;-0.0017795146703289146
7.39975e-06;-0.0017850068944720362
7.40000e-06;-0.0017904991186151393
7.40025e-06;-0.0017959913427582608
7.40050e-06;-0.001801483566901364
7.40075e-06;-0.001806975791044467
7.40100e-06;-0.0018019276748989794
7.40125e-06;-0.0017950658731075756
7.40150e-06;-0.0017882040713161716
7.40175e-06;-0.0017813422695247443
7.40200e-06;-0.0017744804677333403
7.40225e-06;-0.0017676186659419362
7.40250e-06;-0.001760756864150509
7.40275e-06;-0.0017459392998298074
7.40300e-06;-0.0017297527804369084
7.40325e-06;-0.0017135662610439544
7.40350e-06;-0.0016973797416510554
7.40375e-06;-0.0016811932222581562
7.40400e-06;-0.0016650067028652021
7.40425e-06;-0.0016488201834723032
7.40450e-06;-0.001629593902455651
7.40475e-06;-0.0016098445669766597
7.40500e-06;-0.0015895520756208238
7.40525e-06;-0.0015691661229543527
7.40550e-06;-0.0015486246281643079
7.40575e-06;-0.001528056369103925
7.40600e-06;-0.001507744466506515
7.40625e-06;-0.0014874766753917674
7.40650e-06;-0.001467996328693525
7.40675e-06;-0.0014486514782501559
7.40700e-06;-0.0014305998324363853
7.40725e-06;-0.0014127707094832684
7.40750e-06;-0.0013962018154348207
7.40775e-06;-0.0013808446039997484
7.40800e-06;-0.0013665663008658748
7.40825e-06;-0.0013525027924443111
7.40850e-06;-0.0013372854834574183
7.40875e-06;-0.0013202427568798673
7.40900e-06;-0.0013007951937507635
7.40925e-06;-0.0012809819462600892
7.40950e-06;-0.001258492450525031
7.40975e-06;-0.001235542450395391
7.41000e-06;-0.0012125924502657509
7.41025e-06;-0.0011864665501337183
7.41050e-06;-0.001159794170088662
7.41075e-06;-0.0011281439123563704
7.41100e-06;-0.0010956371068220963
7.41125e-06;-0.0010631303012879321
7.41150e-06;-0.001026712528439982
7.41175e-06;-0.000989621791998542
7.41200e-06;-0.0009501331144843118
7.41225e-06;-0.0009102318211357908
7.41250e-06;-0.0008673151609631652
7.41275e-06;-0.0008238796439631308
7.41300e-06;-0.0007783006303569744
7.41325e-06;-0.0007312509273667647
7.41350e-06;-0.0006831583801580795
7.41375e-06;-0.0006343143266190497
7.41400e-06;-0.00058496028487001
7.41425e-06;-0.0005351417766905079
7.41450e-06;-0.0004847803721079928
7.41475e-06;-0.0004339690389917006
7.41500e-06;-0.0003829826348960409
7.41525e-06;-0.00033213004204794963
7.41550e-06;-0.0002817215158258664
7.41575e-06;-0.0002320672658156101
7.41600e-06;-0.00018344620798515908
7.41625e-06;-0.00013601456006802552
7.41650e-06;-8.985085691368247e-05
7.41675e-06;-4.514097692623572e-05
7.41700e-06;-2.184721473958299e-06
7.41725e-06;3.869681157733815e-05
7.41750e-06;7.718168529932729e-05
7.41775e-06;0.00011294801166010233
7.41800e-06;0.00014571649493838623
7.41825e-06;0.00017540042587850475
7.41850e-06;0.00020210037841650202
7.41875e-06;0.00022586269298273062
7.41900e-06;0.00024661968245525464
7.41925e-06;0.00026428015413593116
7.41950e-06;0.00027875184674590374
7.41975e-06;0.0002899425756358726
7.42000e-06;0.00029778678793342177
7.42025e-06;0.00030233964625302
7.42050e-06;0.00030377356017438937
7.42075e-06;0.00030222697034857276
7.42100e-06;0.0002977669436369823
7.42125e-06;0.0002904457442066157
7.42150e-06;0.00028031499370723595
7.42175e-06;0.0002674263968274898
7.42200e-06;0.00025184830792318656
7.42225e-06;0.0002337246744122495
7.42250e-06;0.00021327290646666055
7.42275e-06;0.00019068914263073176
7.42300e-06;0.00016612473657413531
7.42325e-06;0.00013972181784605256
7.42350e-06;0.00011162208058134067
7.42375e-06;8.196726644071323e-05
7.42400e-06;5.090954538853222e-05
7.42425e-06;1.8648423700246754e-05
7.42450e-06;-1.4570588946733993e-05
7.42475e-06;-4.851534161982449e-05
7.42500e-06;-8.310724792024093e-05
7.42525e-06;-0.00011779302571166855
7.42550e-06;-0.0001525410861549057
7.42575e-06;-0.00018729986362907668
7.42600e-06;-0.0002220586411031299
7.42625e-06;-0.00025580011870829177
7.42650e-06;-0.0002893665486284344
7.42675e-06;-0.00032112146778329496
7.42700e-06;-0.00035256467868405615
7.42725e-06;-0.00038139080147917047
7.42750e-06;-0.000409766599617029
7.42775e-06;-0.0004348245630813165
7.42800e-06;-0.00045931162380895106
7.42825e-06;-0.00048198276004008094
7.42850e-06;-0.0005043414285425011
7.42875e-06;-0.0005275184644806533
7.42900e-06;-0.0005508363176247128
7.42925e-06;-0.0005741541707687724
7.42950e-06;-0.0005974278907390403
7.42975e-06;-0.0006206940166751015
7.43000e-06;-0.0006439601426112415
7.43025e-06;-0.0006678749070138366
7.43050e-06;-0.0006919012832090885
7.43075e-06;-0.0007159276594044219
7.43100e-06;-0.00074251844900321
7.43125e-06;-0.0007695504994766479
7.43150e-06;-0.0007965825499501773
7.43175e-06;-0.0008236146004236152
7.43200e-06;-0.0008506466508970531
7.43225e-06;-0.0008786662374713677
7.43250e-06;-0.0009084943299780403
7.43275e-06;-0.0009383224224847128
7.43300e-06;-0.0009681505149914865
7.43325e-06;-0.000997978607498159
7.43350e-06;-0.0010278067000048315
7.43375e-06;-0.001058598629451512
7.43400e-06;-0.0010895564071698603
7.43425e-06;-0.0011205141848883132
7.43450e-06;-0.0011514719626066615
7.43475e-06;-0.0011824297403250097
7.43500e-06;-0.0012133875180434625
7.43525e-06;-0.0012443452957618109
7.43550e-06;-0.0012727696467320652
7.43575e-06;-0.0013007580687289493
7.43600e-06;-0.0013287464907257387
7.43625e-06;-0.001356734912722528
7.43650e-06;-0.0013847233347194122
7.43675e-06;-0.0014127117567162015
7.43700e-06;-0.0014407001787129906
7.43725e-06;-0.0014639859132968246
7.43750e-06;-0.0014864624523125945
7.43775e-06;-0.0015089389913283645
7.43800e-06;-0.001526772872750324
7.43825e-06;-0.001543807887988152
7.43850e-06;-0.001560842903226038
7.43875e-06;-0.0015725308517121818
7.43900e-06;-0.0015832987257096715
7.43925e-06;-0.0015940665997071976
7.43950e-06;-0.0015991984389548092
7.43975e-06;-0.0016033604807356584
7.44000e-06;-0.0016075225225165217
7.44025e-06;-0.0016059226523328673
7.44050e-06;-0.0016033313248792142
7.44075e-06;-0.0016007399974255524
7.44100e-06;-0.001592736148392884
7.44125e-06;-0.0015838009620018085
7.44150e-06;-0.0015748657756107028
7.44175e-06;-0.001560996977138026
7.44200e-06;-0.0015462792476862702
7.44225e-06;-0.0015315615182344645
7.44250e-06;-0.0015125752202596794
7.44275e-06;-0.0014928544259370225
7.44300e-06;-0.0014731336316144326
7.44325e-06;-0.0014505330566491341
