Time(s);Current(A)
8.25000e-06;0.007757642621981534
8.25025e-06;0.007725692852939628
8.25050e-06;0.007693270021657829
8.25075e-06;0.00766078091495696
8.25100e-06;0.0076279476032501785
8.25125e-06;0.00759511429154362
8.25150e-06;0.00756249649712342
8.25175e-06;0.007530998003496706
8.25200e-06;0.007499406769394717
8.25225e-06;0.0074673338825701095
8.25250e-06;0.007434787882734756
8.25275e-06;0.007399784744649787
8.25300e-06;0.00736478160656458
8.25325e-06;0.007329535864966344
8.25350e-06;0.007293030148778978
8.25375e-06;0.007256524432591365
8.25400e-06;0.007220018716403751
8.25425e-06;0.007182003900453292
8.25450e-06;0.007143216710050034
8.25475e-06;0.007104429519646778
8.25500e-06;0.0070653691720520264
8.25525e-06;0.007024890167668939
8.25550e-06;0.006984411163285852
8.25575e-06;0.006943969450573759
8.25600e-06;0.006903721414189177
8.25625e-06;0.006863473377804594
8.25650e-06;0.006823247370572271
8.25675e-06;0.006783135772945142
8.25700e-06;0.006743024175317741
8.25725e-06;0.006703282136142226
8.25750e-06;0.006665459418962627
8.25775e-06;0.006627636701782772
8.25800e-06;0.006590394386351654
8.25825e-06;0.0065561664190896185
8.25850e-06;0.00652193845182735
8.25875e-06;0.0064884936347116996
8.25900e-06;0.006459116150638657
8.25925e-06;0.006429738666565416
8.25950e-06;0.006401271795970243
8.25975e-06;0.006377534246188604
8.26000e-06;0.0063542409635080855
8.26025e-06;0.006333255006272988
8.26050e-06;0.006312419619170845
8.26075e-06;0.006292366226273796
8.26100e-06;0.0062723128333767465
8.26125e-06;0.006252653033012412
8.26150e-06;0.006235037376954418
8.26175e-06;0.006217421720896425
8.26200e-06;0.006200015563162473
8.26225e-06;0.006183697446411491
8.26250e-06;0.006167379329660509
8.26275e-06;0.006151061212909637
8.26300e-06;0.0061347430961586555
8.26325e-06;0.006118925059624838
8.26350e-06;0.006103362969843977
8.26375e-06;0.00608780088006301
8.26400e-06;0.0060722387902820436
8.26425e-06;0.006056774673692657
8.26450e-06;0.00604181938622212
8.26475e-06;0.006026864098751583
8.26500e-06;0.006011908811281046
8.26525e-06;0.0059969535238106105
8.26550e-06;0.005981998236340073
8.26575e-06;0.005967042948869536
8.26600e-06;0.0059520876613991
8.26625e-06;0.005937132373928563
8.26650e-06;0.005923723505270925
8.26675e-06;0.005911106111381162
8.26700e-06;0.005898488717491314
8.26725e-06;0.005885871323601466
8.26750e-06;0.005873253929711704
8.26775e-06;0.005860636535821855
8.26800e-06;0.005848019141932008
8.26825e-06;0.005835401748042246
8.26850e-06;0.005823213896085355
8.26875e-06;0.005813256893609497
8.26900e-06;0.005803471801224511
8.26925e-06;0.005794717497426683
8.26950e-06;0.005786835049784464
8.26975e-06;0.005780027510776575
8.27000e-06;0.005775179168576407
8.27025e-06;0.005774118791492672
8.27050e-06;0.005778368359702087
8.27075e-06;0.005788239563206367
8.27100e-06;0.005803505173849539
8.27125e-06;0.005823936071725869
8.27150e-06;0.005849305103864402
8.27175e-06;0.005879443012028439
8.27200e-06;0.005914607517795873
8.27225e-06;0.005956173253984887
8.27250e-06;0.00600594895313843
8.27275e-06;0.006057228837391808
8.27300e-06;0.006117228946529956
8.27325e-06;0.006182783029441927
8.27350e-06;0.006253452748486726
8.27375e-06;0.006328836201555757
8.27400e-06;0.006408797776853511
8.27425e-06;0.006493573947859669
8.27450e-06;0.00658328065219162
8.27475e-06;0.006677557846404744
8.27500e-06;0.006775834554575381
8.27525e-06;0.006877539560672936
8.27550e-06;0.0069821022040673945
8.27575e-06;0.007088974260730715
8.27600e-06;0.007197775527876791
8.27625e-06;0.007308357289788483
8.27650e-06;0.007420496004846297
8.27675e-06;0.007533671277184286
8.27700e-06;0.007647228612588496
8.27725e-06;0.007760514688272067
8.27750e-06;0.007872875955893695
8.27775e-06;0.00798367280783375
8.27800e-06;0.008092372166178093
8.27825e-06;0.008198584345190383
8.27850e-06;0.008301874713151988
8.27875e-06;0.008401620258931349
8.27900e-06;0.008497115971338863
8.27925e-06;0.008587656989556465
8.27950e-06;0.008672538932977812
8.27975e-06;0.008751060520549688
8.28000e-06;0.008822568589534117
8.28025e-06;0.008886573996662733
8.28050e-06;0.008942816505162505
8.28075e-06;0.00899115365663094
8.28100e-06;0.00903146266685744
8.28125e-06;0.009062262942888838
8.28150e-06;0.009079087285199305
8.28175e-06;0.009095911627509772
8.28200e-06;0.00910866416046672
8.28225e-06;0.009100269529220032
8.28250e-06;0.009091874897973288
8.28275e-06;0.009080266215921777
8.28300e-06;0.009051965185524457
8.28325e-06;0.009021274405626101
8.28350e-06;0.00897817233121161
8.28375e-06;0.008932845086867428
8.28400e-06;0.008875961300993777
8.28425e-06;0.008817083688880999
8.28450e-06;0.008747851031329702
8.28475e-06;0.008676921151653416
8.28500e-06;0.008597176656201966
8.28525e-06;0.008516038384559728
8.28550e-06;0.008427661460164167
8.28575e-06;0.00833819961881743
8.28600e-06;0.008243103202046664
8.28625e-06;0.008147272530324127
8.28650e-06;0.008047628465420868
8.28675e-06;0.007947641444962333
8.28700e-06;0.00784587326609702
8.28725e-06;0.007744157942160093
8.28750e-06;0.0076427171231804435
8.28775e-06;0.007541728127375247
8.28800e-06;0.0074430856999009865
8.28825e-06;0.007345044976540963
8.28850e-06;0.007251011567802829
8.28875e-06;0.0071615605956480925
8.28900e-06;0.007073663768905813
8.28925e-06;0.006993838481221015
8.28950e-06;0.006915967547744318
8.28975e-06;0.006848246659562256
8.29000e-06;0.006781823874887412
8.29025e-06;0.0067232163254575756
8.29050e-06;0.006670183868870817
8.29075e-06;0.006617151412284418
8.29100e-06;0.00656637445017082
8.29125e-06;0.006527311521762435
8.29150e-06;0.006488248593354316
8.29175e-06;0.006449185664945931
8.29200e-06;0.00641183582265842
8.29225e-06;0.006384026155223137
8.29250e-06;0.006359556818728334
8.29275e-06;0.006336198801586874
8.29300e-06;0.006318612482190099
8.29325e-06;0.006301026162793206
8.29350e-06;0.006284705680085245
8.29375e-06;0.00627495938934196
8.29400e-06;0.006266034229608778
8.29425e-06;0.006261373658614742
8.29450e-06;0.00625727629710636
8.29475e-06;0.00625610399481556
8.29500e-06;0.00625551407413947
8.29525e-06;0.006257948784180151
8.29550e-06;0.006260992792001073
8.29575e-06;0.006267201221114124
8.29600e-06;0.0062738537293656905
8.29625e-06;0.006282812586872204
8.29650e-06;0.0062919614364185285
8.29675e-06;0.006302267501577047
8.29700e-06;0.006313458972125557
8.29725e-06;0.006324869268092289
8.29750e-06;0.006337416045817424
8.29775e-06;0.006350104246188807
8.29800e-06;0.00636356129225813
8.29825e-06;0.006377173629148466
8.29850e-06;0.006390551844408046
8.29875e-06;0.006403338748137087
8.29900e-06;0.006416125651866128
8.29925e-06;0.006428764090637472
8.29950e-06;0.006440539818249104
8.29975e-06;0.0064518125636965845
8.30000e-06;0.006463132112739152
8.30025e-06;0.006475817872984685
8.30050e-06;0.0064909980497315275
8.30075e-06;0.006508885787387764
8.30100e-06;0.006529277591971097
8.30125e-06;0.006551969969498855
8.30150e-06;0.0065767595011731236
8.30175e-06;0.00660348992363093
8.30200e-06;0.006632341755711536
8.30225e-06;0.006663979311751363
8.30250e-06;0.006698945778467786
8.30275e-06;0.006737210790914285
8.30300e-06;0.006778484557400219
8.30325e-06;0.006822476354913243
8.30350e-06;0.006868894980226504
8.30375e-06;0.006917479963729054
8.30400e-06;0.006968388682904609
8.30425e-06;0.0070223292566118315
8.30450e-06;0.0070768680383377055
8.30475e-06;0.007134848669634577
8.30500e-06;0.007194848500491373
8.30525e-06;0.0072565221606021284
8.30550e-06;0.007319524910245437
8.30575e-06;0.007383529649026561
8.30600e-06;0.00744834193421662
8.30625e-06;0.007513957708259205
8.30650e-06;0.007580324385422602
8.30675e-06;0.007647164591669675
8.30700e-06;0.007714099909296758
8.30725e-06;0.0077807505090625945
8.30750e-06;0.007846737342679318
8.30775e-06;0.00791169278995124
8.30800e-06;0.007975331890401182
8.30825e-06;0.008037489528298455
8.30850e-06;0.00809796952929839
8.30875e-06;0.008156434982621726
8.30900e-06;0.0082124868310972
8.30925e-06;0.008265723825064445
8.30950e-06;0.008315745495817088
8.30975e-06;0.008362145961340654
8.31000e-06;0.008404489120140156
8.31025e-06;0.008442351244674476
8.31050e-06;0.008475460029773778
8.31075e-06;0.008503711298266351
8.31100e-06;0.00852705505947281
8.31125e-06;0.008544624222177784
8.31150e-06;0.008553751804290712
8.31175e-06;0.008562879386403701
8.31200e-06;0.008569515794697002
8.31225e-06;0.008563214155716325
8.31250e-06;0.008556912516735604
8.31275e-06;0.008548619206816427
8.31300e-06;0.008529982045114572
8.31325e-06;0.008509878553871792
8.31350e-06;0.008482159600083512
8.31375e-06;0.008453079801056864
8.31400e-06;0.008416932377968313
8.31425e-06;0.008379547412745695
8.31450e-06;0.008335735204868355
8.31475e-06;0.008290870409513429
8.31500e-06;0.008240538943613485
8.31525e-06;0.008189354205193932
8.31550e-06;0.008133737949344333
8.31575e-06;0.008077464803724111
8.31600e-06;0.008017780065207303
8.31625e-06;0.007957645646283675
8.31650e-06;0.00789517578760748
8.31675e-06;0.007832502290846857
8.31700e-06;0.00776877118857442
8.31725e-06;0.0077050913247562434
8.31750e-06;0.0076416775706506755
8.31775e-06;0.007578568089511243
8.31800e-06;0.0075170388666354095
8.31825e-06;0.00745607371787008
8.31850e-06;0.007398038118802666
8.31875e-06;0.007340850717279328
8.31900e-06;0.007288068476024283
8.31925e-06;0.007236758579095497
8.31950e-06;0.007193095382829799
8.31975e-06;0.007149432186564102
8.32000e-06;0.007108004028232628
8.32025e-06;0.0070781836614699995
8.32050e-06;0.007048363294707371
8.32075e-06;0.007018542927944943
8.32100e-06;0.006991325215292596
8.32125e-06;0.006977624528897428
8.32150e-06;0.006963923842502352
8.32175e-06;0.006950223156107184
8.32200e-06;0.006938537911583481
8.32225e-06;0.006937319974486532
8.32250e-06;0.006937288153106448
8.32275e-06;0.006943416488478083
8.32300e-06;0.006950412795001649
8.32325e-06;0.006962487534701996
8.32350e-06;0.006978090012756434
8.32375e-06;0.006997170240922615
8.32400e-06;0.007019589408509105
8.32425e-06;0.007045057219367505
8.32450e-06;0.0070732570577586255
8.32475e-06;0.007103977780231889
8.32500e-06;0.0071370651025319835
8.32525e-06;0.007172364034634851
8.32550e-06;0.007209719901808021
8.32575e-06;0.007248970345915819
8.32600e-06;0.007289897614541443
8.32625e-06;0.00733218793686819
8.32650e-06;0.007375512507510233
8.32675e-06;0.007419607454155952
8.32700e-06;0.007464245623834024
8.32725e-06;0.0075091982119309805
8.32750e-06;0.0075542378253686746
8.32775e-06;0.007599131628657198
8.32800e-06;0.0076436118253373365
8.32825e-06;0.00768735139749722
8.32850e-06;0.007730012973526656
8.32875e-06;0.007771300802722278
8.32900e-06;0.007810940836140031
8.32925e-06;0.007848464189440199
8.32950e-06;0.007883167131215521
8.32975e-06;0.007917282127700325
8.33000e-06;0.00794804165597255
8.33025e-06;0.007977031836173631
8.33050e-06;0.008004794402235536
8.33075e-06;0.008031400299639311
8.33100e-06;0.00805669429825463
8.33125e-06;0.008080381006471269
8.33150e-06;0.008101994675121512
8.33175e-06;0.008123186331378644
8.33200e-06;0.008141965049483672
8.33225e-06;0.008159439503613787
8.33250e-06;0.008175965104947983
8.33275e-06;0.008191602180903403
8.33300e-06;0.00820617986055646
8.33325e-06;0.008219420939260966
8.33350e-06;0.00823228406387671
8.33375e-06;0.00824318426329001
8.33400e-06;0.008253787633034903
8.33425e-06;0.008262849401685911
8.33450e-06;0.008271714562033298
8.33475e-06;0.008279558626417945
8.33500e-06;0.008287135859877396
8.33525e-06;0.00829332729235344
8.33550e-06;0.008299518724829442
8.33575e-06;0.008305443852673988
8.33600e-06;0.008309985912870388
8.33625e-06;0.008314411962889911
8.33650e-06;0.008318235507719995
8.33675e-06;0.008321971462235093
8.33700e-06;0.008325252511665441
8.33725e-06;0.008328421836453695
8.33750e-06;0.008331010913211126
8.33775e-06;0.00833359998996854
8.33800e-06;0.008336127339988978
8.33825e-06;0.00833833410882953
8.33850e-06;0.008340557869439323
8.33875e-06;0.008342869877730806
8.33900e-06;0.008345202561847712
8.33925e-06;0.008347659167653525
8.33950e-06;0.008350220775226435
8.33975e-06;0.008352858256528001
8.34000e-06;0.008355221162722744
8.34025e-06;0.008356508231398437
8.34050e-06;0.008356041318955877
8.34075e-06;0.008353687716730611
8.34100e-06;0.008349438431765131
8.34125e-06;0.008343135240580113
8.34150e-06;0.008336353498017571
8.34175e-06;0.008327086372738922
8.34200e-06;0.008317209949681215
8.34225e-06;0.008304169105330161
8.34250e-06;0.008290409193363442
8.34275e-06;0.008272914764460577
8.34300e-06;0.008254673173880992
8.34325e-06;0.008232551158325442
8.34350e-06;0.008210429142769744
8.34375e-06;0.008187541094147606
8.34400e-06;0.00816067461095614
8.34425e-06;0.00813380812776449
8.34450e-06;0.00810628778725744
8.34475e-06;0.008075371603070714
8.34500e-06;0.008044068968910493
8.34525e-06;0.008010759285706796
8.34550e-06;0.007977200891119748
8.34575e-06;0.007942350800377636
8.34600e-06;0.00790776475872232
8.34625e-06;0.00787455007042146
8.34650e-06;0.007845534401531224
8.34675e-06;0.007812319803654241
8.34700e-06;0.007780729726233585
8.34725e-06;0.007733157973847399
8.34750e-06;0.007705087292915934
8.34775e-06;0.007659225538014122
8.34800e-06;0.007630340386849365
8.34825e-06;0.007591192534874563
8.34850e-06;0.007562995233749481
8.34875e-06;0.007526639053131805
8.34900e-06;0.007503178227291509
8.34925e-06;0.007472883162710549
8.34950e-06;0.007444744390706359
8.34975e-06;0.007420095858487552
8.35000e-06;0.00739967714133231
8.35025e-06;0.007383386087145417
8.35050e-06;0.0073713634852307
8.35075e-06;0.007364066018954081
8.35100e-06;0.0073615153311568935
8.35125e-06;0.00736346138598156
8.35150e-06;0.007369508235522937
8.35175e-06;0.007380318050952333
8.35200e-06;0.007396644747921871
8.35225e-06;0.007418200561665468
8.35250e-06;0.007444850388590846
8.35275e-06;0.007476656385490913
8.35300e-06;0.0075138800103468845
8.35325e-06;0.00755629267322523
8.35350e-06;0.00760067890999033
8.35375e-06;0.007651623884636302
8.35400e-06;0.0077040793331888254
8.35425e-06;0.0077628762206891026
8.35450e-06;0.007826065526054188
8.35475e-06;0.007890466355681995
8.35500e-06;0.007959850316571032
8.35525e-06;0.008032414314972198
8.35550e-06;0.008106014485440008
8.35575e-06;0.008183058145425073
8.35600e-06;0.00826076853151155
8.35625e-06;0.008340997946771055
8.35650e-06;0.008422467144647287
8.35675e-06;0.008504838059712918
8.35700e-06;0.008587665493787427
8.35725e-06;0.008670436001242399
8.35750e-06;0.008752601981057087
8.35775e-06;0.008833875510605545
8.35800e-06;0.008913991481511887
8.35825e-06;0.008992427935287641
8.35850e-06;0.009068700775454127
8.35875e-06;0.009142375675149935
8.35900e-06;0.00921294927634883
8.35925e-06;0.00927935380844302
8.35950e-06;0.009340853694657335
8.35975e-06;0.009400805785383236
8.36000e-06;0.009454822664393306
8.36025e-06;0.00950571255935489
8.36050e-06;0.009554536253366476
8.36075e-06;0.00960149628461155
8.36100e-06;0.009646293185066929
8.36125e-06;0.009688248829646556
8.36150e-06;0.009726909892363994
8.36175e-06;0.009764540168523978
8.36200e-06;0.009798212548942817
8.36225e-06;0.009829771262437842
8.36250e-06;0.009859893499489927
8.36275e-06;0.009888718313233274
8.36300e-06;0.009916072109971724
8.36325e-06;0.009941532777934373
8.36350e-06;0.009964827483831942
8.36375e-06;0.009987451693771505
8.36400e-06;0.010007501477591755
8.36425e-06;0.010026175476872465
8.36450e-06;0.010043911934206106
8.36475e-06;0.010060693391393559
8.36500e-06;0.010076385245453255
8.36525e-06;0.010091556536145102
8.36550e-06;0.010104997849203148
8.36575e-06;0.010118030402074873
8.36600e-06;0.010129499234917823
8.36625e-06;0.010140158714947974
8.36650e-06;0.01015029521136691
8.36675e-06;0.010159924075762519
8.36700e-06;0.010168976996849008
8.36725e-06;0.010177756549463079
8.36750e-06;0.010185627622202442
8.36775e-06;0.01019328962945517
8.36800e-06;0.010200163576607784
8.36825e-06;0.010206686177399163
8.36850e-06;0.010213049567511531
8.36875e-06;0.010219300044759865
8.36900e-06;0.010225415574446077
8.36925e-06;0.010231460338534807
8.36950e-06;0.01023726992875522
8.36975e-06;0.01024303169564952
8.37000e-06;0.010248655212615662
8.37025e-06;0.010254347456191673
8.37050e-06;0.01026014310155399
8.37075e-06;0.010266282379965855
8.37100e-06;0.010272421658377679
8.37125e-06;0.01027864882830787
8.37150e-06;0.010285168086330178
8.37175e-06;0.010291687344352443
8.37200e-06;0.010298412400652131
8.37225e-06;0.010305821382174054
8.37250e-06;0.010313230363695929
8.37275e-06;0.010320639345217854
8.37300e-06;0.010328048326739779
8.37325e-06;0.010335457308261652
8.37350e-06;0.010343130826020081
8.37375e-06;0.010351683471663632
8.37400e-06;0.010360236117307128
8.37425e-06;0.010368788762950679
8.37450e-06;0.010377341408594231
8.37475e-06;0.010385894054237725
8.37500e-06;0.010394631027926628
8.37525e-06;0.010403980575253192
8.37550e-06;0.010413330122579693
8.37575e-06;0.010422679669906258
8.37600e-06;0.010432029217232823
8.37625e-06;0.010441378764559387
8.37650e-06;0.01045072831188589
8.37675e-06;0.010460077859212455
8.37700e-06;0.010469353463490835
8.37725e-06;0.010478383334343602
8.37750e-06;0.01048741320519643
8.37775e-06;0.010496443076049258
8.37800e-06;0.010505472946902026
8.37825e-06;0.010514502817754854
8.37850e-06;0.010523532688607682
8.37875e-06;0.010532562559460447
8.37900e-06;0.010541404206749271
8.37925e-06;0.010549553554182252
8.37950e-06;0.010557406221062696
8.37975e-06;0.010564865922804095
8.38000e-06;0.01057149196474198
8.38025e-06;0.010576373709326781
8.38050e-06;0.0105787307870295
8.38075e-06;0.010578392967235875
8.38100e-06;0.010575479605014872
8.38125e-06;0.010570113204105504
8.38150e-06;0.010562414836442456
8.38175e-06;0.01055246787539269
8.38200e-06;0.010540142304501482
8.38225e-06;0.010524645426513856
8.38250e-06;0.010505516060831383
8.38275e-06;0.010485340398324381
8.38300e-06;0.010461058140523206
8.38325e-06;0.010433842045946468
8.38350e-06;0.010403827847673047
8.38375e-06;0.010372786201859205
8.38400e-06;0.01033833006056639
8.38425e-06;0.010302788308228198
8.38450e-06;0.010263638766820375
8.38475e-06;0.010223763797256084
8.38500e-06;0.010181081653564688
8.38525e-06;0.010136751148713265
8.38550e-06;0.010091055119703372
8.38575e-06;0.010044262825554843
8.38600e-06;0.009996557443426016
8.38625e-06;0.009948007599629
8.38650e-06;0.009898713321703497
8.38675e-06;0.00984892432571841
8.38700e-06;0.009798962348803095
8.38725e-06;0.0097491501290505
8.38750e-06;0.009699809188168578
8.38775e-06;0.009651252069851029
8.38800e-06;0.00960373799099511
8.38825e-06;0.009557454502140112
8.38850e-06;0.009512608700435205
8.38875e-06;0.009469502651942857
8.38900e-06;0.009428482377819467
8.38925e-06;0.009390244895172586
8.38950e-06;0.009355250449431647
8.38975e-06;0.009321305316400024
8.39000e-06;0.009291329669168352
8.39025e-06;0.00926318225665864
8.39050e-06;0.00923594653564929
8.39075e-06;0.009209469180444104
8.39100e-06;0.009183984453491273
8.39125e-06;0.009159916371028379
8.39150e-06;0.009137563232253745
8.39175e-06;0.009115780849797006
8.39200e-06;0.009096144922413393
8.39225e-06;0.009077432218112531
8.39250e-06;0.009059089025126725
8.39275e-06;0.009041037781771543
8.39300e-06;0.00902344254659961
8.39325e-06;0.009006576729084816
8.39350e-06;0.008990640868510678
8.39375e-06;0.0089750274922571
8.39400e-06;0.008960624767727242
8.39425e-06;0.00894672925380976
8.39450e-06;0.00893301279990401
8.39475e-06;0.008919445638003771
8.39500e-06;0.008906149986786797
8.39525e-06;0.008893319331009784
8.39550e-06;0.008881098981846967
8.39575e-06;0.00886909782292889
8.39600e-06;0.00885792957337386
8.39625e-06;0.008847180271368563
8.39650e-06;0.008836669364791523
8.39675e-06;0.00882624548805111
8.39700e-06;0.008816198511892004
8.39725e-06;0.00880661858324927
8.39750e-06;0.008797622472839772
8.39775e-06;0.008788891544927725
8.39800e-06;0.008781041892607632
8.39825e-06;0.008773432469923336
8.39850e-06;0.008766621397494314
8.39875e-06;0.008759810325065339
8.39900e-06;0.00875322336164647
8.39925e-06;0.008747523568012273
8.39950e-06;0.008742457258492117
8.39975e-06;0.008738062526349044
8.40000e-06;0.008734151954836778
8.40025e-06;0.008730209204059987
8.40050e-06;0.008725771843028233
8.40075e-06;0.008720750379300351
8.40100e-06;0.008715203794505053
8.40125e-06;0.008709215856011563
8.40150e-06;0.008703139487448872
