Time(s);Current(A)
7.50000e-06;9.196496262369067e-05
7.50025e-06;8.496108318970334e-05
7.50050e-06;7.891018890352764e-05
7.50075e-06;7.384472393558515e-05
7.50100e-06;6.979712670507801e-05
7.50125e-06;6.679030298395737e-05
7.50150e-06;6.480752822933314e-05
7.50175e-06;6.379011917475029e-05
7.50200e-06;6.36860257411904e-05
7.50225e-06;6.447188657299911e-05
7.50250e-06;6.613491294052259e-05
7.50275e-06;6.866268038377286e-05
7.50300e-06;7.204276376732799e-05
7.50325e-06;7.625675885653135e-05
7.50350e-06;8.126144574681418e-05
7.50375e-06;8.698731277423876e-05
7.50400e-06;9.336902395081733e-05
7.50425e-06;0.00010035921572337234
7.50450e-06;0.00010808419640085472
7.50475e-06;0.0001160917588291019
7.50500e-06;0.00012471292425158262
7.50525e-06;0.00013366275957068496
7.50550e-06;0.0001431513317327877
7.50575e-06;0.00015292847253642282
7.50600e-06;0.00016270561334009106
7.50625e-06;0.00017278270308399298
7.50650e-06;0.0001830204572772619
7.50675e-06;0.00019325821147049612
7.50700e-06;0.00020349596566373034
7.50725e-06;0.00021364235214885874
7.50750e-06;0.00022327580087401472
7.50775e-06;0.0002329092495991707
7.50800e-06;0.0002425426983243593
7.50825e-06;0.00025217614704951526
7.50850e-06;0.00026077833190152507
7.50875e-06;0.0002688281312637499
7.50900e-06;0.0002768779306259474
7.50925e-06;0.0002838316641384367
7.50950e-06;0.00029019830167385146
7.50975e-06;0.0002952974407234305
7.51000e-06;0.00029971765773362306
7.51025e-06;0.00030276579770668525
7.51050e-06;0.0003050789992552169
7.51075e-06;0.00030602941984841263
7.51100e-06;0.00030624988136412315
7.51125e-06;0.0003050865438720398
7.51150e-06;0.0003031819892069447
7.51175e-06;0.0002997965241717882
7.51200e-06;0.0002956178252986408
7.51225e-06;0.0002900153381564724
7.51250e-06;0.0002836502140202629
7.51275e-06;0.0002759897694856817
7.51300e-06;0.00026763550040113276
7.51325e-06;0.000258095360199479
7.51350e-06;0.00024792002078753483
7.51375e-06;0.00023662059461458342
7.51400e-06;0.0002247190633625047
7.51425e-06;0.00021185184357115592
7.51450e-06;0.00019846736301789707
7.51475e-06;0.0001843202531395375
7.51500e-06;0.00016976464900066027
7.51525e-06;0.000154637525352995
7.51550e-06;0.0001392042733788221
7.51575e-06;0.0001233032244369325
7.51600e-06;0.00010715160504091527
7.51625e-06;9.099998564489803e-05
7.51650e-06;7.475281844771561e-05
7.51675e-06;5.845447209045074e-05
7.51700e-06;4.2156125733185874e-05
7.51725e-06;2.6083210149434693e-05
7.51750e-06;1.0338204162807869e-05
7.51775e-06;-5.03489640891096e-06
7.51800e-06;-1.9943787045429577e-05
7.51825e-06;-3.428492953906134e-05
7.51850e-06;-4.795136842479977e-05
7.51875e-06;-6.0836054505674725e-05
7.51900e-06;-7.283194325870446e-05
7.51925e-06;-8.390612254678886e-05
7.51950e-06;-9.4299803836878e-05
7.51975e-06;-0.00010450074734366646
7.52000e-06;-0.00011482475969706331
7.52025e-06;-0.00012521469256490138
7.52050e-06;-0.00013552424180585354
7.52075e-06;-0.00014579073441482295
7.52100e-06;-0.0001560572270237576
7.52125e-06;-0.000166116258756983
7.52150e-06;-0.00017606416628585672
7.52175e-06;-0.00018601207381469673
7.52200e-06;-0.0001966587158434185
7.52225e-06;-0.00020767962755126478
7.52250e-06;-0.0002187005392590737
7.52275e-06;-0.00022972145096688266
7.52300e-06;-0.0002407423626747289
7.52325e-06;-0.00025176327438253786
7.52350e-06;-0.00026278418609034676
7.52375e-06;-0.0002744174790488352
7.52400e-06;-0.00028637878748982704
7.52425e-06;-0.00029834009593085936
7.52450e-06;-0.0003103014043718512
7.52475e-06;-0.00032226271281284296
7.52500e-06;-0.00033422402125387533
7.52525e-06;-0.00034618532969486716
7.52550e-06;-0.00035814274771661577
7.52575e-06;-0.0003700980818768497
7.52600e-06;-0.00038205341603704323
7.52625e-06;-0.0003940087501972367
7.52650e-06;-0.0004059640843574707
7.52675e-06;-0.00041791941851766415
7.52700e-06;-0.0004296339253852323
7.52725e-06;-0.0004399964292921199
7.52750e-06;-0.00045035893319897246
7.52775e-06;-0.000460721437105825
7.52800e-06;-0.0004710839410127126
7.52825e-06;-0.0004814464449195651
7.52850e-06;-0.0004918089488264528
7.52875e-06;-0.0005008534384654935
7.52900e-06;-0.0005091919478258218
7.52925e-06;-0.000516247048280852
7.52950e-06;-0.0005226147044503113
7.52975e-06;-0.0005269189715983936
7.53000e-06;-0.0005275255462208437
7.53025e-06;-0.0005267434971926408
7.53050e-06;-0.0005234773190488597
7.53075e-06;-0.0005173021239212422
7.53100e-06;-0.0005087613046143478
7.53125e-06;-0.0004978825419468107
7.53150e-06;-0.000484470141950906
7.53175e-06;-0.00046817147045586434
7.53200e-06;-0.0004488229238367137
7.53225e-06;-0.0004265281894541388
7.53250e-06;-0.0004014766103134419
7.53275e-06;-0.0003738602249902761
7.53300e-06;-0.00034387108831111926
7.53325e-06;-0.000311662547144621
7.53350e-06;-0.00027724800780112304
7.53375e-06;-0.00024054258761649393
7.53400e-06;-0.00020157982663699628
7.53425e-06;-0.00016056069648176763
7.53450e-06;-0.00011773977967993846
7.53475e-06;-7.33733623622055e-05
7.53500e-06;-2.771771373829672e-05
7.53525e-06;1.8995169321739284e-05
7.53550e-06;6.662094544622616e-05
7.53575e-06;0.00011527300295707516
7.53600e-06;0.00016431101823396728
7.53625e-06;0.00021368732734092368
7.53650e-06;0.0002632448399283384
7.53675e-06;0.0003128023525155852
7.53700e-06;0.00036126838254042613
7.53725e-06;0.00040914977157720077
7.53750e-06;0.0004570311606139754
7.53775e-06;0.0005029749751841562
7.53800e-06;0.000547880948666102
7.53825e-06;0.0005904197000265237
7.53850e-06;0.0006316904741173262
7.53875e-06;0.0006697574640085798
7.53900e-06;0.0007061083810796839
7.53925e-06;0.0007388876885574043
7.53950e-06;0.0007697539014674455
7.53975e-06;0.0007984291956219955
7.54000e-06;0.0008259309475236705
7.54025e-06;0.0008509839731246287
7.54050e-06;0.0008747253646120483
7.54075e-06;0.0008984667560995483
7.54100e-06;0.0009185142138125764
7.54125e-06;0.0009365830553159498
7.54150e-06;0.000954651896819262
7.54175e-06;0.0009701257448237027
7.54200e-06;0.000984209612250712
7.54225e-06;0.0009982934796776736
7.54250e-06;0.0010101070057595394
7.54275e-06;0.0010207044477259105
7.54300e-06;0.0010313018896922453
7.54325e-06;0.0010380959720144723
7.54350e-06;0.0010428528253276178
7.54375e-06;0.0010476096786407475
7.54400e-06;0.0010523665319538769
7.54425e-06;0.0010571233852670226
7.54450e-06;0.0010618802385801522
7.54475e-06;0.0010666370918932817
7.54500e-06;0.0010713939452064274
7.54525e-06;0.0010753988350715763
7.54550e-06;0.001075182206701536
7.54575e-06;0.0010749655783314962
7.54600e-06;0.0010747489499614567
7.54625e-06;0.0010745323215914163
7.54650e-06;0.0010743156932213765
7.54675e-06;0.001074099064851337
7.54700e-06;0.0010738824364812966
7.54725e-06;0.0010736658081112569
7.54750e-06;0.001072587307330136
7.54775e-06;0.001071047153788783
7.54800e-06;0.0010695070002474355
7.54825e-06;0.0010679668467060877
7.54850e-06;0.0010664266931647347
7.54875e-06;0.0010647029189826567
7.54900e-06;0.001061948299637587
7.54925e-06;0.0010591936802925078
7.54950e-06;0.001056439060947438
7.54975e-06;0.0010536844416023589
7.55000e-06;0.001050929822257289
7.55025e-06;0.001044482797952936
7.55050e-06;0.0010360579763327212
7.55075e-06;0.0010276331547125351
7.55100e-06;0.001016474230030607
7.55125e-06;0.0010038508122184751
7.55150e-06;0.0009912273944063861
7.55175e-06;0.0009749987393800278
7.55200e-06;0.0009568389775103073
7.55225e-06;0.0009386792156406482
7.55250e-06;0.0009170870485011266
7.55275e-06;0.0008936563501050301
7.55300e-06;0.000870225651709013
7.55325e-06;0.0008440061540389574
7.55350e-06;0.0008162928657962453
7.55375e-06;0.000788579577553627
7.55400e-06;0.0007580769720085032
7.55425e-06;0.0007260802984145846
7.55450e-06;0.0006940836248206662
7.55475e-06;0.0006599863336557026
7.55500e-06;0.0006247638691041876
7.55525e-06;0.0005895414045526726
7.55550e-06;0.0005543189400010382
7.55575e-06;0.0005188627919038773
7.55600e-06;0.00048209474579961767
7.55625e-06;0.00044532669969523357
7.55650e-06;0.000408558653590974
7.55675e-06;0.00037179060748671446
7.55700e-06;0.0003356652029189263
7.55725e-06;0.0002998840224328433
7.55750e-06;0.0002651676934304027
7.55775e-06;0.000231021740762246
7.55800e-06;0.00019789373274301826
7.55825e-06;0.0001661809792471157
7.55850e-06;0.0001359580915066989
7.55875e-06;0.00010746128703666396
7.55900e-06;8.092677692525153e-05
7.55925e-06;5.645711214745814e-05
7.55950e-06;3.364778692091225e-05
7.55975e-06;1.1672293375665298e-05
7.56000e-06;-9.992016069337052e-06
7.56025e-06;-3.1348202245573064e-05
7.56050e-06;-5.222648575335282e-05
7.56075e-06;-7.24513652610958e-05
7.56100e-06;-9.184737563749805e-05
7.56125e-06;-0.00011013884017027921
7.56150e-06;-0.00012800496136786423
7.56175e-06;-0.00014572931494876955
7.56200e-06;-0.00016337773221864038
7.56225e-06;-0.00018080913983410898
7.56250e-06;-0.00019812430854396576
7.56275e-06;-0.00021543947725376385
7.56300e-06;-0.00023275464596356194
7.56325e-06;-0.0002499477844092853
7.56350e-06;-0.00026645584569287
7.56375e-06;-0.00028296390697645467
7.56400e-06;-0.0002994719682600953
7.56425e-06;-0.00031598002954368
7.56450e-06;-0.0003321055954146737
7.56475e-06;-0.0003480262816995284
7.56500e-06;-0.00036394696798432906
7.56525e-06;-0.00037986765426912975
7.56550e-06;-0.0003957883405539844
7.56575e-06;-0.0004117090268387851
7.56600e-06;-0.0004273769033628928
7.56625e-06;-0.00044162550742530887
7.56650e-06;-0.00045587411148767667
7.56675e-06;-0.00047012271555009277
7.56700e-06;-0.0004843713196124606
7.56725e-06;-0.0004986199236748284
7.56750e-06;-0.0005128685277372445
7.56775e-06;-0.0005233401195392412
7.56800e-06;-0.0005317885950281522
7.56825e-06;-0.0005402370705170919
7.56850e-06;-0.0005486855460060029
7.56875e-06;-0.000557134021494914
7.56900e-06;-0.0005655824969838536
7.56925e-06;-0.0005740309724727646
7.56950e-06;-0.0005824794479616757
7.56975e-06;-0.0005909279234506153
7.57000e-06;-0.0005993763989395264
7.57025e-06;-0.0006078248744284374
7.57050e-06;-0.0006162733499173771
7.57075e-06;-0.0006247218254062881
7.57100e-06;-0.0006316151088142242
7.57125e-06;-0.0006297775533226865
7.57150e-06;-0.0006279399978311488
7.57175e-06;-0.0006261024423396047
7.57200e-06;-0.000624264886848067
7.57225e-06;-0.0006224273313565293
7.57250e-06;-0.0006205897758649854
7.57275e-06;-0.0006187522203734477
7.57300e-06;-0.0006169146648819099
7.57325e-06;-0.0006150771093903659
7.57350e-06;-0.0006132395538988282
7.57375e-06;-0.0006114019984072905
7.57400e-06;-0.0006095644429157466
7.57425e-06;-0.0006077268874242088
7.57450e-06;-0.0006022588741779464
7.57475e-06;-0.0005948462449759131
7.57500e-06;-0.0005874336157739049
7.57525e-06;-0.0005800209865718715
7.57550e-06;-0.0005726083573698633
7.57575e-06;-0.000565195728167855
7.57600e-06;-0.0005577830989658217
7.57625e-06;-0.0005497586800940848
7.57650e-06;-0.0005414065626141729
7.57675e-06;-0.0005330544451342328
7.57700e-06;-0.0005247023276543209
7.57725e-06;-0.0005163502101744091
7.57750e-06;-0.0005079980926944688
7.57775e-06;-0.000499645975214557
7.57800e-06;-0.0004922288660784907
7.57825e-06;-0.00048531258418428136
7.57850e-06;-0.0004783963022900954
7.57875e-06;-0.00047148002039590955
7.57900e-06;-0.0004645637385017002
7.57925e-06;-0.00045784496152523156
7.57950e-06;-0.0004522349759572428
7.57975e-06;-0.0004466249903892731
7.58000e-06;-0.00044101500482130336
7.58025e-06;-0.00043540501925331464
7.58050e-06;-0.0004297950336853449
7.58075e-06;-0.0004239816473317988
7.58100e-06;-0.0004180593115179408
7.58125e-06;-0.0004121369757041028
7.58150e-06;-0.00040621463989026486
7.58175e-06;-0.0004002923040764068
7.58200e-06;-0.00039436996826256886
7.58225e-06;-0.00038844763244873085
7.58250e-06;-0.00038252529663487285
7.58275e-06;-0.00037660296082103485
7.58300e-06;-0.0003706806250071969
7.58325e-06;-0.00036475828919333884
7.58350e-06;-0.00035819604594508684
7.58375e-06;-0.0003512910431080788
7.58400e-06;-0.0003443860402710941
7.58425e-06;-0.00033748103743410946
7.58450e-06;-0.0003305760345971014
7.58475e-06;-0.0003236710317601167
7.58500e-06;-0.000316766028923132
7.58525e-06;-0.00030986102608612396
7.58550e-06;-0.0003029560232491393
7.58575e-06;-0.00029605102041215463
7.58600e-06;-0.0002891460175751466
7.58625e-06;-0.00028236409824628856
7.58650e-06;-0.00027564810728511924
7.58675e-06;-0.0002689321163239271
7.58700e-06;-0.00026221612536275773
7.58725e-06;-0.00025550013440158836
7.58750e-06;-0.0002487841434403963
7.58775e-06;-0.0002422856857195528
7.58800e-06;-0.00023700845828828436
7.58825e-06;-0.00023173123085703384
7.58850e-06;-0.0002264540034257833
7.58875e-06;-0.00022117677599451489
7.58900e-06;-0.00021589954856326434
7.58925e-06;-0.00021062232113201382
7.58950e-06;-0.00020625742034003643
7.58975e-06;-0.0002023811975768259
7.59000e-06;-0.00019850497481361536
7.59025e-06;-0.000195322108091346
7.59050e-06;-0.00019251063013350534
7.59075e-06;-0.00018969915217566466
7.59100e-06;-0.00018688767421781447
7.59125e-06;-0.0001840761962599738
7.59150e-06;-0.00018126471830213315
7.59175e-06;-0.00017845324034428296
7.59200e-06;-0.0001756417623864423
7.59225e-06;-0.0001730160663195492
7.59250e-06;-0.0001714333486596109
7.59275e-06;-0.0001698506309996726
7.59300e-06;-0.00016826791333972893
7.59325e-06;-0.00016668519567979064
7.59350e-06;-0.00016510247801985233
7.59375e-06;-0.00016351976035990868
7.59400e-06;-0.00016193704269997037
7.59425e-06;-0.00016035432504003208
7.59450e-06;-0.00015924375491282615
7.59475e-06;-0.00015838608557314636
7.59500e-06;-0.00015752841623346657
7.59525e-06;-0.00015667074689378388
7.59550e-06;-0.00015581307755410407
7.59575e-06;-0.00015495540821442428
7.59600e-06;-0.0001540977388747416
7.59625e-06;-0.0001532400695350618
7.59650e-06;-0.00015244383077149762
7.59675e-06;-0.00015199246288892428
7.59700e-06;-0.00015154109500635095
7.59725e-06;-0.00015108972712377607
7.59750e-06;-0.00015063835924120273
7.59775e-06;-0.0001501869913586294
7.59800e-06;-0.00014973562347605455
7.59825e-06;-0.00014928425559348118
7.59850e-06;-0.00014883288771090785
7.59875e-06;-0.00014846064800762667
7.59900e-06;-0.00014813079246918766
7.59925e-06;-0.00014806850015001695
7.59950e-06;-0.00014814952521400877
7.59975e-06;-0.0001491055191040543
7.60000e-06;-0.0001513458005435513
7.60025e-06;-0.00015480024893990135
7.60050e-06;-0.00015940456249836644
7.60075e-06;-0.0001650915543509211
7.60100e-06;-0.000171794033904577
7.60125e-06;-0.00017948600262046816
7.60150e-06;-0.0001882924352541325
7.60175e-06;-0.0001984501466864403
7.60200e-06;-0.00021007907273222067
7.60225e-06;-0.00022312606500398557
7.60250e-06;-0.000237481991755897
7.60275e-06;-0.00025337723932595234
7.60300e-06;-0.0002698596843881463
7.60325e-06;-0.0002876549806867862
7.60350e-06;-0.000306153491740408
7.60375e-06;-0.0003260715362824695
7.60400e-06;-0.00034674993878921584
7.60425e-06;-0.00036889526174302135
7.60450e-06;-0.00039182632498038864
7.60475e-06;-0.00041475738821767825
7.60500e-06;-0.0004390146937242727
7.60525e-06;-0.00046398238674951896
7.60550e-06;-0.0004889500797747652
7.60575e-06;-0.0005139177728000961
7.60600e-06;-0.0005388854658253423
7.60625e-06;-0.0005641213522323996
7.60650e-06;-0.0005895008935625252
7.60675e-06;-0.0006148804348925646
7.60700e-06;-0.0006402599762226041
7.60725e-06;-0.0006656395175527296
7.60750e-06;-0.0006878269678692825
7.60775e-06;-0.000708304608698426
7.60800e-06;-0.0007287822495276388
7.60825e-06;-0.0007492598903567822
7.60850e-06;-0.0007697375311859257
7.60875e-06;-0.0007902151720151385
7.60900e-06;-0.0008106928128442819
7.60925e-06;-0.0008311704536734947
7.60950e-06;-0.000851038185753569
7.60975e-06;-0.0008631492562619924
7.61000e-06;-0.0008752603267704569
7.61025e-06;-0.0008873713972788804
7.61050e-06;-0.0008994824677873039
7.61075e-06;-0.0009115935382957684
7.61100e-06;-0.0009237046088041918
7.61125e-06;-0.0009358156793126153
7.61150e-06;-0.0009479267498210798
7.61175e-06;-0.000957291446094973
7.61200e-06;-0.0009638498215044684
7.61225e-06;-0.0009704081969139861
7.61250e-06;-0.0009769665723234815
7.61275e-06;-0.000983524947732977
7.61300e-06;-0.0009900833231424946
7.61325e-06;-0.00099664169855199
7.61350e-06;-0.0010032000739615076
7.61375e-06;-0.001009758449371003
7.61400e-06;-0.0010163168247804984
7.61425e-06;-0.0010228752001900162
7.61450e-06;-0.0010279692303163837
7.61475e-06;-0.001030806079277396
7.61500e-06;-0.0010336429282384184
7.61525e-06;-0.0010364797771994308
7.61550e-06;-0.0010393166261604434
7.61575e-06;-0.0010421534751214657
7.61600e-06;-0.001044990324082478
7.61625e-06;-0.0010478271730434907
7.61650e-06;-0.0010506640220045128
7.61675e-06;-0.0010535008709655254
7.61700e-06;-0.001056337719926538
7.61725e-06;-0.0010588177965651312
7.61750e-06;-0.0010604343164409558
7.61775e-06;-0.0010620508363167855
7.61800e-06;-0.00106366735619261
7.61825e-06;-0.0010652838760684346
7.61850e-06;-0.0010665616603098167
7.61875e-06;-0.0010670195450536264
7.61900e-06;-0.001067477429797436
7.61925e-06;-0.0010679353145412473
7.61950e-06;-0.001068393199285057
7.61975e-06;-0.0010669709048763514
7.62000e-06;-0.0010609976929210519
7.62025e-06;-0.001053328028950056
7.62050e-06;-0.0010415521534859742
7.62075e-06;-0.0010282624061671854
7.62100e-06;-0.0010113083771882416
7.62125e-06;-0.0009927775543539265
7.62150e-06;-0.0009704301490338174
7.62175e-06;-0.0009459988215062638
7.62200e-06;-0.0009165234224459891
7.62225e-06;-0.0008851054055279275
7.62250e-06;-0.0008489853400400063
7.62275e-06;-0.0008112361010026425
7.62300e-06;-0.0007695434959933399
7.62325e-06;-0.000726381315537117
7.62350e-06;-0.0006796620715541519
7.62375e-06;-0.0006313546405368681
7.62400e-06;-0.0005792030501839901
7.62425e-06;-0.0005257508505895325
7.62450e-06;-0.00046915056512836
7.62475e-06;-0.0004116450111856063
7.62500e-06;-0.0003519482818904483
7.62525e-06;-0.00029164522105114065
7.62550e-06;-0.0002298745527978381
7.62575e-06;-0.00016762219727155467
7.62600e-06;-0.00010420393207226596
7.62625e-06;-4.065301040645248e-05
7.62650e-06;2.3158955894822533e-05
7.62675e-06;8.665412769131119e-05
7.62700e-06;0.00014944957391199596
7.62725e-06;0.000211181329539026
7.62750e-06;0.00027158075550908904
7.62775e-06;0.00033045480260162686
7.62800e-06;0.00038753461460743437
7.62825e-06;0.00044243757967274904
7.62850e-06;0.0004947522939707464
7.62875e-06;0.0005440713490309156
7.62900e-06;0.0005899863039210764
7.62925e-06;0.0006317186801472192
7.62950e-06;0.0006696531948410708
7.62975e-06;0.000706315655565251
7.63000e-06;0.0007386761379106996
7.63025e-06;0.0007680763617768047
7.63050e-06;0.0007956744808233542
7.63075e-06;0.000818910658917718
7.63100e-06;0.0008401719115360096
7.63125e-06;0.0008566529159585401
7.63150e-06;0.0008713891643491507
7.63175e-06;0.0008819022828173757
7.63200e-06;0.0008909334031042198
7.63225e-06;0.0008963773910064553
7.63250e-06;0.0009003217931985379
7.63275e-06;0.0009006364929172676
7.63300e-06;0.0008994377632347445
7.63325e-06;0.0008945758228378113
7.63350e-06;0.000888181192128763
7.63375e-06;0.000878076730245235
7.63400e-06;0.0008679722683617755
7.63425e-06;0.000856407318346569
7.63450e-06;0.0008413073003804873
7.63475e-06;0.000826207282414508
7.63500e-06;0.0008098656433418212
7.63525e-06;0.0007905186974227248
7.63550e-06;0.0007711717515037595
7.63575e-06;0.0007510261050670599
7.63600e-06;0.000728947227855615
7.63625e-06;0.0007068683506443196
7.63650e-06;0.0006847894734328747
7.63675e-06;0.0006627105962214298
7.63700e-06;0.0006402342253649936
7.63725e-06;0.000617653688661725
7.63750e-06;0.0005950731519584562
7.63775e-06;0.0005724926152553406
7.63800e-06;0.0005506154662543117
7.63825e-06;0.000530440846202133
7.63850e-06;0.000510266226150091
7.63875e-06;0.0004909611648904249
7.63900e-06;0.000473760844746241
7.63925e-06;0.0004574403789485331
7.63950e-06;0.00044324957434719654
7.63975e-06;0.00042905876974586
7.64000e-06;0.00041545268737071386
7.64025e-06;0.0004032619076996409
7.64050e-06;0.0003915997579216532
7.64075e-06;0.00038121714102926655
7.64100e-06;0.00037144286373948704
7.64125e-06;0.0003631410543093646
7.64150e-06;0.00035532194043549843
7.64175e-06;0.0003486711767553164
7.64200e-06;0.0003424783369047591
7.64225e-06;0.0003373938880226909
7.64250e-06;0.00033230943914065714
7.64275e-06;0.0003278448421623793
7.64300e-06;0.00032488057822525375
7.64325e-06;0.0003219163142881482
7.64350e-06;0.00031945488463457886
