Time(s);Current(A)
7.50000e-06;-0.0008367010722869644
7.50025e-06;-0.0008334770796896488
7.50050e-06;-0.0008295211386844431
7.50075e-06;-0.000824923363968512
7.50100e-06;-0.0008197318474659129
7.50125e-06;-0.0008139767754968082
7.50150e-06;-0.0008076864016098225
7.50175e-06;-0.0008008890577137326
7.50200e-06;-0.0007936141534686451
7.50225e-06;-0.0007859138244625326
7.50250e-06;-0.0007778759826461483
7.50275e-06;-0.0007695861251164707
7.50300e-06;-0.0007611036076507262
7.50325e-06;-0.0007524764290708811
7.50350e-06;-0.0007437514971405706
7.50375e-06;-0.0007349756766378331
7.50400e-06;-0.0007261964318893044
7.50425e-06;-0.0007174756879963934
7.50450e-06;-0.0007088975678585924
7.50475e-06;-0.0007005447558410463
7.50500e-06;-0.0006926393433037427
7.50525e-06;-0.0006847965885913879
7.50550e-06;-0.0006776785799845978
7.50575e-06;-0.000670669591807194
7.50600e-06;-0.0006643258733985954
7.50625e-06;-0.0006584776413018436
7.50650e-06;-0.0006528803976625641
7.50675e-06;-0.0006473880085137983
7.50700e-06;-0.0006419070587468644
7.50725e-06;-0.0006366026659147978
7.50750e-06;-0.0006313248317806214
7.50775e-06;-0.0006263748385003189
7.50800e-06;-0.0006214741609050148
7.50825e-06;-0.000616839621575239
7.50850e-06;-0.0006122901978722824
7.50875e-06;-0.0006076956687568088
7.50900e-06;-0.0006030933345275332
7.50925e-06;-0.0005984902666471455
7.50950e-06;-0.000593887088406771
7.50975e-06;-0.0005894035205960082
7.51000e-06;-0.0005849379452660488
7.51025e-06;-0.0005805931440881245
7.51050e-06;-0.0005762665104447655
7.51075e-06;-0.0005718804426285501
7.51100e-06;-0.0005674854343861567
7.51125e-06;-0.000563090426143778
7.51150e-06;-0.0005587881573049023
7.51175e-06;-0.0005544998388543397
7.51200e-06;-0.000550211520403777
7.51225e-06;-0.0005459232019531998
7.51250e-06;-0.0005417947814976187
7.51275e-06;-0.0005376904138074579
7.51300e-06;-0.0005335860461172831
7.51325e-06;-0.0005294816784271223
7.51350e-06;-0.0005255837365481667
7.51375e-06;-0.0005217168464132429
7.51400e-06;-0.0005178499562783322
7.51425e-06;-0.0005142966134497765
7.51450e-06;-0.0005107904361895346
7.51475e-06;-0.0005072842589293046
7.51500e-06;-0.0005039766059734758
7.51525e-06;-0.0005008245487937447
7.51550e-06;-0.0004978374268993937
7.51575e-06;-0.0004950387333523137
7.51600e-06;-0.0004924605348777375
7.51625e-06;-0.0004903064421200135
7.51650e-06;-0.000489008113958149
7.51675e-06;-0.0004888899369895715
7.51700e-06;-0.0004900125649749261
7.51725e-06;-0.0004923344720587701
7.51750e-06;-0.0004962783006882352
7.51775e-06;-0.0005004426513729674
7.51800e-06;-0.0005059892513497123
7.51825e-06;-0.0005127198366819258
7.51850e-06;-0.0005214066577693287
7.51875e-06;-0.0005303656607950249
7.51900e-06;-0.0005417722504225447
7.51925e-06;-0.0005535470199410691
7.51950e-06;-0.0005679108189362659
7.51975e-06;-0.0005826640744637325
7.52000e-06;-0.000597417329991249
7.52025e-06;-0.0006149251165669448
7.52050e-06;-0.0006328472553622014
7.52075e-06;-0.0006507693941575187
7.52100e-06;-0.0006708955979820348
7.52125e-06;-0.0006913533497981734
7.52150e-06;-0.0007131104736290418
7.52175e-06;-0.0007350630563850992
7.52200e-06;-0.0007578974118830861
7.52225e-06;-0.0007808644086497908
7.52250e-06;-0.0008045080088300742
7.52275e-06;-0.0008282533875422664
7.52300e-06;-0.0008523613922904856
7.52325e-06;-0.0008765239453084446
7.52350e-06;-0.0009005506969757017
7.52375e-06;-0.0009245570206318503
7.52400e-06;-0.0009479368821330284
7.52425e-06;-0.0009712225076355745
7.52450e-06;-0.0009935241805049864
7.52475e-06;-0.0010156778416256693
7.52500e-06;-0.001036421931275023
7.52525e-06;-0.0010569539851703177
7.52550e-06;-0.0010760913935995947
7.52575e-06;-0.0010939071000231743
7.52600e-06;-0.0011103280721911227
7.52625e-06;-0.0011256446551994172
7.52650e-06;-0.0011407472934963907
7.52675e-06;-0.0011563368365075548
7.52700e-06;-0.001172515091131694
7.52725e-06;-0.0011892626297945808
7.52750e-06;-0.0012060841781372856
7.52775e-06;-0.0012231037110870355
7.52800e-06;-0.0012401530260069524
7.52825e-06;-0.0012572956917062646
7.52850e-06;-0.0012750355764998514
7.52875e-06;-0.0012941744482761767
7.52900e-06;-0.0013135105675703433
7.52925e-06;-0.0013342538802944763
7.52950e-06;-0.0013552088710539682
7.52975e-06;-0.0013771655064009501
7.53000e-06;-0.0013992728148210672
7.53025e-06;-0.0014213801232411095
7.53050e-06;-0.0014450381508603724
7.53075e-06;-0.0014689294464772787
7.53100e-06;-0.0014928207420941042
7.53125e-06;-0.0015180069909534394
7.53150e-06;-0.0015433880340412166
7.53175e-06;-0.0015691770040128596
7.53200e-06;-0.0015950273366653887
7.53225e-06;-0.0016208776693180053
7.53250e-06;-0.0016470050691078225
7.53275e-06;-0.0016731741469116024
7.53300e-06;-0.0016993432247152935
7.53325e-06;-0.0017253856422924788
7.53350e-06;-0.0017514090069184383
7.53375e-06;-0.0017766754459829757
7.53400e-06;-0.0018018280240015814
7.53425e-06;-0.0018258348919660676
7.53450e-06;-0.0018496694157109487
7.53475e-06;-0.0018722226304374284
7.53500e-06;-0.0018945831033774126
7.53525e-06;-0.001915179322480533
7.53550e-06;-0.00193551015249205
7.53575e-06;-0.0019528573836527158
7.53600e-06;-0.0019697558049129337
7.53625e-06;-0.0019866542261731514
7.53650e-06;-0.002000476662512094
7.53675e-06;-0.002013836391712705
7.53700e-06;-0.002026153703017293
7.53725e-06;-0.0020366903140974554
7.53750e-06;-0.0020472269251776178
7.53775e-06;-0.002054667751189198
7.53800e-06;-0.0020616428916117807
7.53825e-06;-0.0020686180320343634
7.53850e-06;-0.002072997970191396
7.53875e-06;-0.002076987523270405
7.53900e-06;-0.0020792588148478373
7.53925e-06;-0.002081271635762232
7.53950e-06;-0.002081532093047472
7.53975e-06;-0.002081528949833783
7.54000e-06;-0.0020797579604226388
7.54025e-06;-0.002077721041536633
7.54050e-06;-0.0020745354779919374
7.54075e-06;-0.0020705588379884067
7.54100e-06;-0.0020659091514196207
7.54125e-06;-0.0020606118037179368
7.54150e-06;-0.002054688772296282
7.54175e-06;-0.0020481619432351442
7.54200e-06;-0.0020410552264801397
7.54225e-06;-0.002033428456444673
7.54250e-06;-0.002025397017564351
7.54275e-06;-0.002017069474976519
7.54300e-06;-0.0020085107430500675
7.54325e-06;-0.0019997677566893726
7.54350e-06;-0.0019908848754932188
7.54375e-06;-0.001981907146830015
7.54400e-06;-0.001972880549390655
7.54425e-06;-0.0019638734461590633
7.54450e-06;-0.0019549889188831757
7.54475e-06;-0.0019463259643376259
7.54500e-06;-0.0019381132496484152
7.54525e-06;-0.0019299636532515816
7.54550e-06;-0.0019223361634635385
7.54575e-06;-0.0019152037233649457
7.54600e-06;-0.0019085788840361728
7.54625e-06;-0.0019020371670480948
7.54650e-06;-0.001894523799299803
7.54675e-06;-0.0018852276089906482
7.54700e-06;-0.0018740138688673794
7.54725e-06;-0.0018610129970309903
7.54750e-06;-0.001846381106428019
7.54775e-06;-0.0018302743100049796
7.54800e-06;-0.0018128345536525866
7.54825e-06;-0.0017939152752553596
7.54850e-06;-0.0017729748841065745
7.54875e-06;-0.0017485977144749158
7.54900e-06;-0.0017237448477023536
7.54925e-06;-0.001696000130631463
7.54950e-06;-0.0016661440375060589
7.54975e-06;-0.0016338942733539498
7.55000e-06;-0.0016013223722523308
7.55025e-06;-0.001566025387339781
7.55050e-06;-0.0015303184798289029
7.55075e-06;-0.0014914975522244158
7.55100e-06;-0.001452208196015078
7.55125e-06;-0.0014109451665235632
7.55150e-06;-0.0013683654202345504
7.55175e-06;-0.0013245434265309786
7.55200e-06;-0.0012805576434083497
7.55225e-06;-0.0012355471773667734
7.55250e-06;-0.001190382572695474
7.55275e-06;-0.0011444966624890277
7.55300e-06;-0.0010982373254572512
7.55325e-06;-0.001051916076929428
7.55350e-06;-0.0010058119089047593
7.55375e-06;-0.0009602039548811699
7.55400e-06;-0.0009153677864394735
7.55425e-06;-0.0008715079536743799
7.55450e-06;-0.0008287319348738997
7.55475e-06;-0.0007871848482966207
7.55500e-06;-0.0007471158680188664
7.55525e-06;-0.0007088149849912179
7.55550e-06;-0.0006725760973045379
7.55575e-06;-0.0006386930954390303
7.55600e-06;-0.0006074536464892205
7.55625e-06;-0.000579007212739722
7.55650e-06;-0.0005532717209970082
7.55675e-06;-0.0005301395986691866
7.55700e-06;-0.0005096326741609986
7.55725e-06;-0.0004918338425073171
7.55750e-06;-0.00047683217665132725
7.55775e-06;-0.00046471678491081543
7.55800e-06;-0.0004555728619760259
7.55825e-06;-0.000449399074308625
7.55850e-06;-0.0004460489267433148
7.55875e-06;-0.0004453600804116194
7.55900e-06;-0.00044725122866860105
7.55925e-06;-0.000451679245167387
7.55950e-06;-0.0004586049523466651
7.55975e-06;-0.00046798922704730195
7.56000e-06;-0.00048079327436365314
7.56025e-06;-0.0004940634860025358
7.56050e-06;-0.0005110002076196016
7.56075e-06;-0.0005284884665104092
7.56100e-06;-0.0005490684323819748
7.56125e-06;-0.0005701134703929712
7.56150e-06;-0.0005938265951130602
7.56175e-06;-0.0006179410686031046
7.56200e-06;-0.0006442883207096278
7.56225e-06;-0.0006709714400681226
7.56250e-06;-0.0006992448367568749
7.56275e-06;-0.0007277574520017105
7.56300e-06;-0.0007571704342496266
7.56325e-06;-0.0007867188548205175
7.56350e-06;-0.0008165723983591137
7.56375e-06;-0.0008464718402290431
7.56400e-06;-0.00087623049698044
7.56425e-06;-0.000905655035886977
7.56450e-06;-0.0009345174774767755
7.56475e-06;-0.0009625865546713243
7.56500e-06;-0.0009896507639518101
7.56525e-06;-0.001015508023637718
7.56550e-06;-0.0010399573274539305
7.56575e-06;-0.0010619997755166412
7.56600e-06;-0.0010837083808619798
7.56625e-06;-0.0011019425157323855
7.56650e-06;-0.0011196540010027962
7.56675e-06;-0.001133573420761525
7.56700e-06;-0.001146922416469454
7.56725e-06;-0.0011553341931741436
7.56750e-06;-0.0011630032853301626
7.56775e-06;-0.0011706723774861556
7.56800e-06;-0.0011721881100776853
7.56825e-06;-0.001172778219344028
7.56850e-06;-0.0011733683286103687
7.56875e-06;-0.0011698687123998192
7.56900e-06;-0.001163792265149843
7.56925e-06;-0.001155516483462918
7.56950e-06;-0.0011451069700534789
7.56975e-06;-0.001132629570327441
7.57000e-06;-0.0011181503777435524
7.57025e-06;-0.0011017429033123268
7.57050e-06;-0.0010835031210321949
7.57075e-06;-0.00106355075898862
7.57100e-06;-0.001042015010521183
7.57125e-06;-0.0010190261291530857
7.57150e-06;-0.0009947142824361273
7.57175e-06;-0.000969209673296652
7.57200e-06;-0.0009426424616756648
7.57225e-06;-0.0009151477077758443
7.57250e-06;-0.0008868743651934003
7.57275e-06;-0.000857986319130153
7.57300e-06;-0.000828653501538855
7.57325e-06;-0.0007990463090759971
7.57350e-06;-0.0007693351155652735
7.57375e-06;-0.00073969024423345
7.57400e-06;-0.0007102822130827736
7.57425e-06;-0.0006812843533744856
7.57450e-06;-0.0006528788140166338
7.57475e-06;-0.0006252570016159572
7.57500e-06;-0.0005986141563472875
7.57525e-06;-0.0005731458635621444
7.57550e-06;-0.0005490474986148599
7.57575e-06;-0.0005272859291041831
7.57600e-06;-0.0005058484259394763
7.57625e-06;-0.0004866733763139951
7.57650e-06;-0.00046899248862427065
7.57675e-06;-0.00045285959883780585
7.57700e-06;-0.00043693345894293295
7.57725e-06;-0.0004224787701964516
7.57750e-06;-0.0004093399823593367
7.57775e-06;-0.00039817473670033523
7.57800e-06;-0.0003872815949659214
7.57825e-06;-0.0003782225177667734
7.57850e-06;-0.0003704115704947588
7.57875e-06;-0.00036354655272971927
7.57900e-06;-0.0003575877447624606
7.57925e-06;-0.00035256515465462715
7.57950e-06;-0.00034851563546657355
7.57975e-06;-0.0003454760832443164
7.58000e-06;-0.00034347940451121114
7.58025e-06;-0.0003424749513467276
7.58050e-06;-0.00034228752601060973
7.58075e-06;-0.0003427626656206014
7.58100e-06;-0.0003438510099647889
7.58125e-06;-0.00034581030324820546
7.58150e-06;-0.00034788863688495127
7.58175e-06;-0.0003510170276501333
7.58200e-06;-0.00035430337397764674
7.58225e-06;-0.0003584873297920852
7.58250e-06;-0.00036280630912804865
7.58275e-06;-0.0003676330003321288
7.58300e-06;-0.00037253606444151384
7.58325e-06;-0.00037779190089359246
7.58350e-06;-0.0003831008033667814
7.58375e-06;-0.00038867389613541595
7.58400e-06;-0.00039428672991006456
7.58425e-06;-0.00039998338964889005
7.58450e-06;-0.0004056926589657764
7.58475e-06;-0.0004111566864245676
7.58500e-06;-0.000416583823208987
7.58525e-06;-0.00042170811387386256
7.58550e-06;-0.00042653836866158717
7.58575e-06;-0.0004310478033563097
7.58600e-06;-0.0004352161062376463
7.58625e-06;-0.00043942559799622677
7.58650e-06;-0.0004446078326698567
7.58675e-06;-0.00045147713602522064
7.58700e-06;-0.00046015395227873713
7.58725e-06;-0.000470526103677408
7.58750e-06;-0.0004830708727586204
7.58775e-06;-0.0004959094600399146
7.58800e-06;-0.0005104795018941654
7.58825e-06;-0.0005265751170853423
7.58850e-06;-0.0005445780857152844
7.58875e-06;-0.0005657823458333197
7.58900e-06;-0.0005874293092657509
7.58925e-06;-0.00061256318994422
7.58950e-06;-0.0006382215925362507
7.58975e-06;-0.0006666961528709243
7.59000e-06;-0.0006955943356616507
7.59025e-06;-0.0007278100719175846
7.59050e-06;-0.0007605248534241925
7.59075e-06;-0.0007932396349308005
7.59100e-06;-0.0008293731715923077
7.59125e-06;-0.000866020976837901
7.59150e-06;-0.0009045863437050209
7.59175e-06;-0.0009434401610917052
7.59200e-06;-0.0009834668083256724
7.59225e-06;-0.0010236698792923354
7.59250e-06;-0.0010648101769059144
7.59275e-06;-0.001106091457479372
7.59300e-06;-0.0011478606919377212
7.59325e-06;-0.0011897033271930282
7.59350e-06;-0.0012311678032473153
7.59375e-06;-0.0012725753944450953
7.59400e-06;-0.001312757687091606
7.59425e-06;-0.0013527556633649042
7.59450e-06;-0.0013910001122862034
7.59475e-06;-0.0014289807856552237
7.59500e-06;-0.001464617671404631
7.59525e-06;-0.0014999019912972761
7.59550e-06;-0.0015289777944867357
7.59575e-06;-0.0015607082138044002
7.59600e-06;-0.0015906583318968672
7.59625e-06;-0.001616421169736191
7.59650e-06;-0.0016395105267231875
7.59675e-06;-0.001660692409246856
7.59700e-06;-0.0016790348731097206
7.59725e-06;-0.0016940908365715894
7.59750e-06;-0.0017087761088736705
7.59775e-06;-0.0017209783283112714
7.59800e-06;-0.001728896004840108
7.59825e-06;-0.0017356791449795687
7.59850e-06;-0.0017378720041369778
7.59875e-06;-0.0017400056884039428
7.59900e-06;-0.0017390648708659811
7.59925e-06;-0.0017355986081540804
7.59950e-06;-0.0017299329529127327
7.59975e-06;-0.0017223586729645806
7.60000e-06;-0.001712340689231731
7.60025e-06;-0.001700398816429899
7.60050e-06;-0.0016868677084388214
7.60075e-06;-0.001671643932398112
7.60100e-06;-0.0016548625808702026
7.60125e-06;-0.0016366350646486061
7.60150e-06;-0.001617056326747879
7.60175e-06;-0.0015961456621485688
7.60200e-06;-0.0015738877511989999
7.60225e-06;-0.0015506797243641035
7.60250e-06;-0.0015268123714438737
7.60275e-06;-0.0015023016975338208
7.60300e-06;-0.001477313189197594
7.60325e-06;-0.001451997782298646
7.60350e-06;-0.0014264957060190972
7.60375e-06;-0.0014009000199045457
7.60400e-06;-0.0013752821408343826
7.60425e-06;-0.0013499715722971493
7.60450e-06;-0.001325231433138697
7.60475e-06;-0.0013011525097243624
7.60500e-06;-0.0012779195103925609
7.60525e-06;-0.0012557076306003866
7.60550e-06;-0.0012346856550659515
7.60575e-06;-0.001214992680142365
7.60600e-06;-0.0011969428015802148
7.60625e-06;-0.001180551116813356
7.60650e-06;-0.0011647022870810413
7.60675e-06;-0.001150525018508294
7.60700e-06;-0.0011376315594460278
7.60725e-06;-0.0011260110984365455
7.60750e-06;-0.0011149399449507382
7.60775e-06;-0.001105622295271578
7.60800e-06;-0.001097836623602283
7.60825e-06;-0.0010915326757176935
7.60850e-06;-0.0010857269960026501
7.60875e-06;-0.0010816043126683338
7.60900e-06;-0.0010785675025831564
7.60925e-06;-0.0010761215679843692
7.60950e-06;-0.0010751582311962513
7.60975e-06;-0.0010747850400500164
7.61000e-06;-0.0010758926154218816
7.61025e-06;-0.0010775365104024686
7.61050e-06;-0.0010805261140746452
7.61075e-06;-0.001083922606065336
7.61100e-06;-0.0010883400436597199
7.61125e-06;-0.001093130216166664
7.61150e-06;-0.001098855638109454
7.61175e-06;-0.0011049165894817718
7.61200e-06;-0.0011118194359895
7.61225e-06;-0.001118987348756112
7.61250e-06;-0.0011268203536852373
7.61275e-06;-0.0011348006545078971
7.61300e-06;-0.0011431505434659622
7.61325e-06;-0.00115158960615414
7.61350e-06;-0.001160252419497277
7.61375e-06;-0.0011689444432084616
7.61400e-06;-0.0011777097602424379
7.61425e-06;-0.0011864234241894525
7.61450e-06;-0.0011950074825673443
7.61475e-06;-0.0012034294325254653
7.61500e-06;-0.0012114446274332769
7.61525e-06;-0.0012192922566747824
7.61550e-06;-0.0012265842838572695
7.61575e-06;-0.0012333816325469148
7.61600e-06;-0.0012394866100929659
7.61625e-06;-0.0012448336822397988
7.61650e-06;-0.0012495971773453546
7.61675e-06;-0.00125289638756593
7.61700e-06;-0.0012555579293140333
7.61725e-06;-0.001256619462426116
7.61750e-06;-0.0012569031526853398
7.61775e-06;-0.0012552351151490907
7.61800e-06;-0.001253567077612847
7.61825e-06;-0.0012509899169940507
7.61850e-06;-0.0012461316262174205
7.61875e-06;-0.0012412733354408068
7.61900e-06;-0.0012340593523020905
7.61925e-06;-0.0012262000607932754
7.61950e-06;-0.0012177973934061818
7.61975e-06;-0.0012077462082497451
7.62000e-06;-0.0011967083173390698
7.62025e-06;-0.0011847202228215058
7.62050e-06;-0.0011717864377936975
7.62075e-06;-0.0011579223516956388
7.62100e-06;-0.0011431949616751368
7.62125e-06;-0.0011276950053336686
7.62150e-06;-0.0011115131533158118
7.62175e-06;-0.0010947395961435065
7.62200e-06;-0.001077461067483116
7.62225e-06;-0.0010597529237680791
7.62250e-06;-0.001041670549768493
7.62275e-06;-0.001023275850495657
7.62300e-06;-0.001004663373181069
7.62325e-06;-0.0009859423485712917
7.62350e-06;-0.0009672220740660823
7.62375e-06;-0.0009486114073480922
7.62400e-06;-0.0009302171622082809
7.62425e-06;-0.0009121389356566366
7.62450e-06;-0.0008944638006417199
7.62475e-06;-0.0008772830010196875
7.62500e-06;-0.0008607081446366924
7.62525e-06;-0.0008448600039437071
7.62550e-06;-0.0008298594596650166
7.62575e-06;-0.000815827085506626
7.62600e-06;-0.0008029021467172047
7.62625e-06;-0.0007913179951765389
7.62650e-06;-0.0007814204305662279
7.62675e-06;-0.0007734863325145498
7.62700e-06;-0.0007675936134006807
7.62725e-06;-0.000764010758319287
7.62750e-06;-0.0007625807125059649
7.62775e-06;-0.0007622837254253107
7.62800e-06;-0.0007648297576174963
7.62825e-06;-0.0007685871326605661
7.62850e-06;-0.0007753839539139634
7.62875e-06;-0.0007834377084195302
7.62900e-06;-0.0007946453024901138
7.62925e-06;-0.0008072663786974212
7.62950e-06;-0.0008234340997876021
7.62975e-06;-0.0008396018208778379
7.63000e-06;-0.0008570335359129284
7.63025e-06;-0.0008776368068813507
7.63050e-06;-0.0008991959004762682
7.63075e-06;-0.0009231533005931754
7.63100e-06;-0.0009479285329607488
7.63125e-06;-0.0009747558326953263
7.63150e-06;-0.0010022204608610872
7.63175e-06;-0.0010312842444471124
7.63200e-06;-0.0010608195905284275
7.63225e-06;-0.0010915381597063536
7.63250e-06;-0.0011225968364297126
7.63275e-06;-0.0011545088954872166
7.63300e-06;-0.0011865684660741628
7.63325e-06;-0.0012189981658599503
7.63350e-06;-0.0012513561584221004
7.63375e-06;-0.001283534226489979
7.63400e-06;-0.0013154306243359662
7.63425e-06;-0.001346620268113873
7.63450e-06;-0.0013773398090855587
7.63475e-06;-0.001406879789545317
7.63500e-06;-0.0014357229841268496
7.63525e-06;-0.001462817835374816
7.63550e-06;-0.001488972514184952
7.63575e-06;-0.001512768155212343
7.63600e-06;-0.0015357701898511178
7.63625e-06;-0.0015564309499287
7.63650e-06;-0.0015760695435636084
7.63675e-06;-0.0015953468731202524
7.63700e-06;-0.001614432917063667
7.63725e-06;-0.001633038995874657
7.63750e-06;-0.0016512734843019637
7.63775e-06;-0.0016685755950930528
7.63800e-06;-0.0016855256554288041
7.63825e-06;-0.0017014602317923597
7.63850e-06;-0.001717098094449732
7.63875e-06;-0.0017328233597067924
7.63900e-06;-0.001748548624963853
7.63925e-06;-0.0017642038185121775
7.63950e-06;-0.001779683191326475
7.63975e-06;-0.0017951625641407728
7.64000e-06;-0.0018100354136119782
7.64025e-06;-0.0018247421146522463
7.64050e-06;-0.0018394530532140157
7.64075e-06;-0.001854174624371292
7.64100e-06;-0.0018688961955286678
7.64125e-06;-0.0018835082605197576
7.64150e-06;-0.0018978455576348187
7.64175e-06;-0.0019121828547497826
7.64200e-06;-0.0019265201518648435
7.64225e-06;-0.0019408574489799045
7.64250e-06;-0.001954563821617251
7.64275e-06;-0.0019680973614803476
7.64300e-06;-0.0019816309013434437
