Time(s);Current(A)
9.50000e-06;0.006733672432005075
9.50025e-06;0.006779768472612563
9.50050e-06;0.006818776673565235
9.50075e-06;0.006857784874518172
9.50100e-06;0.006896793075471109
9.50125e-06;0.0069358012764237816
9.50150e-06;0.006974809477376719
9.50175e-06;0.007013817678329656
9.50200e-06;0.007052825879282328
9.50225e-06;0.0070918340802352655
9.50250e-06;0.007129032975438909
9.50275e-06;0.007135412927210807
9.50300e-06;0.007141792878982749
9.50325e-06;0.007148172830754689
9.50350e-06;0.007154552782526631
9.50375e-06;0.007160932734298529
9.50400e-06;0.007167312686070471
9.50425e-06;0.007173692637842412
9.50450e-06;0.0071800725896143105
9.50475e-06;0.007186452541386252
9.50500e-06;0.007175376824620138
9.50525e-06;0.007150330722272463
9.50550e-06;0.0071252846199246185
9.50575e-06;0.007100238517576775
9.50600e-06;0.0070751924152291
9.50625e-06;0.007050146312881256
9.50650e-06;0.007025100210533411
9.50675e-06;0.007000054108185737
9.50700e-06;0.006975008005837893
9.50725e-06;0.0069499619034900486
9.50750e-06;0.006924084089786499
9.50775e-06;0.0068840392591179595
9.50800e-06;0.006843994428449419
9.50825e-06;0.00680394959778115
9.50850e-06;0.00676390476711261
9.50875e-06;0.006723859936444069
9.50900e-06;0.0066838151057758005
9.50925e-06;0.00664377027510726
9.50950e-06;0.006603725444438721
9.50975e-06;0.006563680613770452
9.51000e-06;0.006523635783101911
9.51025e-06;0.006489353193037132
9.51050e-06;0.0064596823268310245
9.51075e-06;0.0064300114606247166
9.51100e-06;0.006400340594418408
9.51125e-06;0.006370669728212301
9.51150e-06;0.006340998862005992
9.51175e-06;0.006311327995799683
9.51200e-06;0.0062816571295933755
9.51225e-06;0.006251986263387268
9.51250e-06;0.006222315397180959
9.51275e-06;0.006206511618487369
9.51300e-06;0.0062018061577452785
9.51325e-06;0.006197100697003156
9.51350e-06;0.006192395236261033
9.51375e-06;0.006187689775518943
9.51400e-06;0.006182984314776821
9.51425e-06;0.006178278854034699
9.51450e-06;0.006173573393292608
9.51475e-06;0.006168867932550485
9.51500e-06;0.006164162471808363
9.51525e-06;0.006172477408447972
9.51550e-06;0.006191213027142951
9.51575e-06;0.006209948645837931
9.51600e-06;0.006228684264532784
9.51625e-06;0.006247419883227764
9.51650e-06;0.006266155501922744
9.51675e-06;0.0062848911206175966
9.51700e-06;0.006303626739312576
9.51725e-06;0.0063223623580075565
9.51750e-06;0.0063410979767024095
9.51775e-06;0.006359833595397389
9.51800e-06;0.006379022363875516
9.51825e-06;0.006405929892747409
9.51850e-06;0.006432837421619484
9.51875e-06;0.0064597449504915595
9.51900e-06;0.0064866524793634524
9.51925e-06;0.0065135600082355275
9.51950e-06;0.0065404675371076035
9.51975e-06;0.0065673750659794965
9.52000e-06;0.006594282594851572
9.52025e-06;0.006621190123723647
9.52050e-06;0.006648097652595722
9.52075e-06;0.006675005181467615
9.52100e-06;0.0066929367518945215
9.52125e-06;0.0067036845470208
9.52150e-06;0.006714432342147005
9.52175e-06;0.006725180137273284
9.52200e-06;0.006735927932399562
9.52225e-06;0.006746675727525768
9.52250e-06;0.006757423522652046
9.52275e-06;0.0067681713177783235
9.52300e-06;0.006778919112904529
9.52325e-06;0.006789666908030807
9.52350e-06;0.006800414703157086
9.52375e-06;0.006811162498283291
9.52400e-06;0.00682191029340957
9.52425e-06;0.006832658088535848
9.52450e-06;0.006830606277401281
9.52475e-06;0.006818310491109908
9.52500e-06;0.006806014704818535
9.52525e-06;0.006793718918527245
9.52550e-06;0.006781423132235873
9.52575e-06;0.0067691273459445
9.52600e-06;0.0067568315596532105
9.52625e-06;0.006744535773361838
9.52650e-06;0.006732239987070465
9.52675e-06;0.006719944200779176
9.52700e-06;0.006707648414487803
9.52725e-06;0.0066953526281964305
9.52750e-06;0.006683056841905141
9.52775e-06;0.006670761055613768
9.52800e-06;0.006653836552587878
9.52825e-06;0.00663320752472963
9.52850e-06;0.006612578496871241
9.52875e-06;0.0065919494690128535
9.52900e-06;0.006571320441154465
9.52925e-06;0.006550691413296217
9.52950e-06;0.006530062385437829
9.52975e-06;0.00650943335757944
9.53000e-06;0.006488804329721192
9.53025e-06;0.006468175301862804
9.53050e-06;0.006447546274004416
9.53075e-06;0.0064269172461461676
9.53100e-06;0.006412731037800435
9.53125e-06;0.006403701244557816
9.53150e-06;0.006394671451315259
9.53175e-06;0.006385641658072641
9.53200e-06;0.006376611864830022
9.53225e-06;0.006367582071587464
9.53250e-06;0.006358552278344846
9.53275e-06;0.006349522485102227
9.53300e-06;0.00634049269185967
9.53325e-06;0.006331462898617052
9.53350e-06;0.006322433105374433
9.53375e-06;0.0063134033121318755
9.53400e-06;0.0063169000964421965
9.53425e-06;0.006330422341432076
9.53450e-06;0.006343944586421864
9.53475e-06;0.006357466831411743
9.53500e-06;0.0063709890764016225
9.53525e-06;0.00638451132139141
9.53550e-06;0.006398033566381289
9.53575e-06;0.006411555811371168
9.53600e-06;0.0064250780563609566
9.53625e-06;0.006438600301350836
9.53650e-06;0.006452122546340715
9.53675e-06;0.006465644791330502
9.53700e-06;0.006479849808876879
9.53725e-06;0.006505684883361241
9.53750e-06;0.006531519957845604
9.53775e-06;0.006557355032329791
9.53800e-06;0.006583190106814153
9.53825e-06;0.006609025181298515
9.53850e-06;0.0066348602557827025
9.53875e-06;0.006660695330267065
9.53900e-06;0.006686530404751427
9.53925e-06;0.006712365479235614
9.53950e-06;0.006738200553719977
9.53975e-06;0.006764035628204339
9.54000e-06;0.006789870702688526
9.54025e-06;0.0068118793504445205
9.54050e-06;0.006830825574282039
9.54075e-06;0.006849771798119428
9.54100e-06;0.006868718021956947
9.54125e-06;0.006887664245794465
9.54150e-06;0.006906610469631854
9.54175e-06;0.0069255566934693725
9.54200e-06;0.00694450291730689
9.54225e-06;0.006961982742343569
9.54250e-06;0.006954484554727965
9.54275e-06;0.006946986367112363
9.54300e-06;0.00693948817949681
9.54325e-06;0.006931989991881208
9.54350e-06;0.006924491804265605
9.54375e-06;0.006916993616650053
9.54400e-06;0.00690949542903445
9.54425e-06;0.006901997241418847
9.54450e-06;0.006874969567381935
9.54475e-06;0.006832311758344024
9.54500e-06;0.0067896539493061125
9.54525e-06;0.00674699614026849
9.54550e-06;0.006704338331230578
9.54575e-06;0.006661680522192667
9.54600e-06;0.006619022713154756
9.54625e-06;0.006576364904117134
9.54650e-06;0.006533707095079223
9.54675e-06;0.006489798567963338
9.54700e-06;0.006424585841762897
9.54725e-06;0.0063593731155620154
9.54750e-06;0.006294160389361134
9.54775e-06;0.006228947663160694
9.54800e-06;0.006163734936959812
9.54825e-06;0.006098522210758931
9.54850e-06;0.006033309484558491
9.54875e-06;0.005968096758357609
9.54900e-06;0.0059028840321567275
9.54925e-06;0.0058379516671709375
9.54950e-06;0.005773243685127512
9.54975e-06;0.0057085357030840864
9.55000e-06;0.0056438277210411
9.55025e-06;0.005579119738997675
9.55050e-06;0.00551441175695425
9.55075e-06;0.005458317465286179
9.55100e-06;0.005409117013042891
9.55125e-06;0.005359916560799603
9.55150e-06;0.005310716108556648
9.55175e-06;0.005261515656313359
9.55200e-06;0.005212315204070071
9.55225e-06;0.0051732968373726426
9.55250e-06;0.005142427551929643
9.55275e-06;0.005111558266486643
9.55300e-06;0.005080688981043853
9.55325e-06;0.0050498196956008535
9.55350e-06;0.005018950410157854
9.55375e-06;0.004988081124715064
9.55400e-06;0.004957211839272065
9.55425e-06;0.004926342553829065
9.55450e-06;0.004895473268386066
9.55475e-06;0.004864603982943276
9.55500e-06;0.004833734697500276
9.55525e-06;0.004802865412057277
9.55550e-06;0.004771996126614487
9.55575e-06;0.004748009807265473
9.55600e-06;0.004729532167815979
9.55625e-06;0.004711054528366609
9.55650e-06;0.004692576888917116
9.55675e-06;0.004674099249467621
9.55700e-06;0.0046556216100182525
9.55725e-06;0.004637143970568758
9.55750e-06;0.0046186663311192635
9.55775e-06;0.004600188691669895
9.55800e-06;0.0045817110522204
9.55825e-06;0.004563233412770906
9.55850e-06;0.004544755773321537
9.55875e-06;0.004526278133872043
9.55900e-06;0.004507800494422549
9.55925e-06;0.004494875251960304
9.55950e-06;0.004486393788134015
9.55975e-06;0.0044779123243077245
9.56000e-06;0.004469430860481492
9.56025e-06;0.004460949396655202
9.56050e-06;0.004452467932828913
9.56075e-06;0.00444398646900268
9.56100e-06;0.004435505005176391
9.56125e-06;0.004427023541350101
9.56150e-06;0.0044185420775238685
9.56175e-06;0.004410060613697578
9.56200e-06;0.004401579149871289
9.56225e-06;0.004393097686045056
9.56250e-06;0.004384616222218767
9.56275e-06;0.004376134758392477
9.56300e-06;0.004367653294566245
9.56325e-06;0.0043591718307399545
9.56350e-06;0.004350690366913665
9.56375e-06;0.004342208903087375
9.56400e-06;0.004333727439261143
9.56425e-06;0.004325902278896153
9.56450e-06;0.004329256312215117
9.56475e-06;0.004332610345534058
9.56500e-06;0.004335964378853021
9.56525e-06;0.004339318412171986
9.56550e-06;0.004342672445490927
9.56575e-06;0.00434602647880989
9.56600e-06;0.004349380512128854
9.56625e-06;0.004352734545447795
9.56650e-06;0.004356088578766759
9.56675e-06;0.004359442612085722
9.56700e-06;0.004362796645404663
9.56725e-06;0.004366150678723628
9.56750e-06;0.004369504712042591
9.56775e-06;0.004372858745361532
9.56800e-06;0.004376212778680496
9.56825e-06;0.0043795668119994595
9.56850e-06;0.0043829208453184006
9.56875e-06;0.004386274878637364
9.56900e-06;0.004389628911956328
9.56925e-06;0.004392982945275269
9.56950e-06;0.0043973668378510964
9.56975e-06;0.004402574963019723
9.57000e-06;0.004407783088188315
9.57025e-06;0.004412991213356942
9.57050e-06;0.004418199338525569
9.57075e-06;0.004423407463694161
9.57100e-06;0.004428615588862788
9.57125e-06;0.004433823714031415
9.57150e-06;0.004439031839200006
9.57175e-06;0.0044442399643686336
9.57200e-06;0.00444944808953726
9.57225e-06;0.004457742151267836
9.57250e-06;0.00446850599658957
9.57275e-06;0.004479269841911377
9.57300e-06;0.004490033687233184
9.57325e-06;0.004500797532554918
9.57350e-06;0.004511561377876725
9.57375e-06;0.0045223252231985315
9.57400e-06;0.0045330890685202655
9.57425e-06;0.004543852913842073
9.57450e-06;0.00455461675916388
9.57475e-06;0.004565380604485614
9.57500e-06;0.00458267926229316
9.57525e-06;0.004605207960422933
9.57550e-06;0.004627736658552552
9.57575e-06;0.004650265356682325
9.57600e-06;0.004672794054812098
9.57625e-06;0.004695322752941718
9.57650e-06;0.00471785145107149
9.57675e-06;0.004740380149201263
9.57700e-06;0.004762908847330883
9.57725e-06;0.004785437545460655
9.57750e-06;0.004809461792945521
9.57775e-06;0.004835708063364574
9.57800e-06;0.004861954333783805
9.57825e-06;0.004888200604203036
9.57850e-06;0.00491444687462209
9.57875e-06;0.004940693145041321
9.57900e-06;0.004966939415460552
9.57925e-06;0.0049931856858796055
9.57950e-06;0.0050194319562988365
9.57975e-06;0.005045678226718068
9.58000e-06;0.005070138942842693
9.58025e-06;0.005089218104670192
9.58050e-06;0.005108297266497692
9.58075e-06;0.005127376428325192
9.58100e-06;0.005146455590152562
9.58125e-06;0.005165534751980061
9.58150e-06;0.005184613913807561
9.58175e-06;0.005203693075634931
9.58200e-06;0.0052227722374624305
9.58225e-06;0.00524185139928993
9.58250e-06;0.005260930561117301
9.58275e-06;0.0052800097229448
9.58300e-06;0.005299088884772299
9.58325e-06;0.0053173652264421785
9.58350e-06;0.005330646084469037
9.58375e-06;0.005343926942495897
9.58400e-06;0.005357207800522667
9.58425e-06;0.005370488658549527
9.58450e-06;0.005383769516576387
9.58475e-06;0.005397050374603156
9.58500e-06;0.005410331232630016
9.58525e-06;0.005423612090656876
9.58550e-06;0.005436892948683645
9.58575e-06;0.005450173806710505
9.58600e-06;0.0054634546647373645
9.58625e-06;0.005476735522764134
9.58650e-06;0.005489996567473406
9.58675e-06;0.005502564299956555
9.58700e-06;0.0055151320324396185
9.58725e-06;0.005527699764922767
9.58750e-06;0.005540267497405916
9.58775e-06;0.005552835229888979
9.58800e-06;0.005565402962372128
9.58825e-06;0.005577970694855276
9.58850e-06;0.00559053842733834
9.58875e-06;0.005603106159821489
9.58900e-06;0.005615593751522392
9.58925e-06;0.005625277038293571
9.58950e-06;0.005634960325064684
9.58975e-06;0.005644643611835862
9.59000e-06;0.00565432689860704
9.59025e-06;0.005664010185378153
9.59050e-06;0.005673693472149331
9.59075e-06;0.005683376758920509
9.59100e-06;0.005693060045691622
9.59125e-06;0.0057027433324628
9.59150e-06;0.00571258836859483
9.59175e-06;0.005728093376062889
9.59200e-06;0.005743598383531053
9.59225e-06;0.005759103390999217
9.59250e-06;0.005774608398467276
9.59275e-06;0.00579011340593544
9.59300e-06;0.005805618413403604
9.59325e-06;0.005821123420871662
9.59350e-06;0.005837311380651037
9.59375e-06;0.005877397366907637
9.59400e-06;0.0059174833531639645
9.59425e-06;0.005957569339420564
9.59450e-06;0.005997655325677163
9.59475e-06;0.006037741311933491
9.59500e-06;0.006077827298190091
9.59525e-06;0.00611791328444669
9.59550e-06;0.006158673702376468
9.59575e-06;0.006223033990658703
9.59600e-06;0.006287394278940938
9.59625e-06;0.006351754567222738
9.59650e-06;0.006416114855504973
9.59675e-06;0.006480475143787209
9.59700e-06;0.006544835432069008
9.59725e-06;0.006609195720351243
9.59750e-06;0.006673556008633479
9.59775e-06;0.006738159358434765
9.59800e-06;0.006811267973581012
9.59825e-06;0.006884376588727755
9.59850e-06;0.006957485203874498
9.59875e-06;0.007030593819020745
9.59900e-06;0.007103702434167488
9.59925e-06;0.0071768110493142315
9.59950e-06;0.0072499196644604785
9.59975e-06;0.007323028279607222
9.60000e-06;0.007395693655725202
9.60025e-06;0.007452849108393533
9.60050e-06;0.007510004561062251
9.60075e-06;0.00756716001373097
9.60100e-06;0.007624315466399301
9.60125e-06;0.00768147091906802
9.60150e-06;0.007738626371736738
9.60175e-06;0.007795781824405069
9.60200e-06;0.007831430668049123
9.60225e-06;0.007847837219052594
9.60250e-06;0.007864243770055953
9.60275e-06;0.007880650321059425
9.60300e-06;0.007897056872062895
9.60325e-06;0.007913463423066255
9.60350e-06;0.007929869974069727
9.60375e-06;0.007944712538441409
9.60400e-06;0.007904827717861168
9.60425e-06;0.007864942897280654
9.60450e-06;0.007825058076700142
9.60475e-06;0.0077851732561199
9.60500e-06;0.007745288435539387
9.60525e-06;0.007705403614958875
9.60550e-06;0.007665518794378633
9.60575e-06;0.00762563397379812
9.60600e-06;0.007584472721579767
9.60625e-06;0.007498646275794869
9.60650e-06;0.007412819830010552
9.60675e-06;0.007326993384225653
9.60700e-06;0.007241166938440756
9.60725e-06;0.007155340492656439
9.60750e-06;0.00706951404687154
9.60775e-06;0.006983687601086642
9.60800e-06;0.006897861155302326
9.60825e-06;0.00681164942456769
9.60850e-06;0.006711955713007184
9.60875e-06;0.006612262001447354
9.60900e-06;0.006512568289886848
9.60925e-06;0.0064128745783263415
9.60950e-06;0.006313180866766511
9.60975e-06;0.006213487155206005
9.61000e-06;0.0061214873201456965
9.61025e-06;0.0060363713142854315
9.61050e-06;0.00595125530842459
9.61075e-06;0.005866139302563747
9.61100e-06;0.005781023296703482
9.61125e-06;0.005695907290842639
9.61150e-06;0.00561178626046294
9.61175e-06;0.005562481644224885
9.61200e-06;0.005513177027986495
9.61225e-06;0.005463872411748105
9.61250e-06;0.00541456779551005
9.61275e-06;0.00536526317927166
9.61300e-06;0.00531595856303327
9.61325e-06;0.005266653946795215
9.61350e-06;0.005217349330556825
9.61375e-06;0.005168044714318435
9.61400e-06;0.00511874009808038
9.61425e-06;0.005085633356139479
9.61450e-06;0.005067019100538027
9.61475e-06;0.005048404844936576
9.61500e-06;0.005029790589335251
9.61525e-06;0.005011176333733799
9.61550e-06;0.004992562078132348
9.61575e-06;0.004973947822531023
9.61600e-06;0.004955333566929571
9.61625e-06;0.0049367193113281195
9.61650e-06;0.004918105055726794
9.61675e-06;0.00489998292897345
9.61700e-06;0.004899081489705793
9.61725e-06;0.004898180050438142
9.61750e-06;0.004897278611170485
9.61775e-06;0.004896377171902827
9.61800e-06;0.004895475732635176
9.61825e-06;0.004894574293367519
9.61850e-06;0.004893672854099862
9.61875e-06;0.004892771414832211
9.61900e-06;0.004891869975564554
9.61925e-06;0.0048909685362968965
9.61950e-06;0.004890067097029246
9.61975e-06;0.00489145645499066
9.62000e-06;0.0048948954243358605
9.62025e-06;0.004898334393681037
9.62050e-06;0.004901773363026238
9.62075e-06;0.0049052123323714385
9.62100e-06;0.004908651301716616
9.62125e-06;0.004912090271061816
9.62150e-06;0.004915529240407016
9.62175e-06;0.004918968209752194
9.62200e-06;0.004922407179097394
9.62225e-06;0.004925846148442595
9.62250e-06;0.004929382418539581
9.62275e-06;0.004936323459251324
9.62300e-06;0.004943264499963068
9.62325e-06;0.004950205540674811
9.62350e-06;0.0049571465813865075
9.62375e-06;0.004964087622098251
9.62400e-06;0.004971028662809995
9.62425e-06;0.004977969703521691
9.62450e-06;0.004984910744233435
9.62475e-06;0.004991851784945178
9.62500e-06;0.004998792825656875
9.62525e-06;0.005005733866368618
9.62550e-06;0.005012674907080361
9.62575e-06;0.005019615947792058
9.62600e-06;0.005026556988503801
9.62625e-06;0.005033498029215545
9.62650e-06;0.005040439069927242
9.62675e-06;0.005047380110638985
9.62700e-06;0.005055988809796996
9.62725e-06;0.005066089588521394
9.62750e-06;0.00507619036724586
9.62775e-06;0.005086291145970326
9.62800e-06;0.005096391924694723
9.62825e-06;0.00510649270341919
9.62850e-06;0.005116593482143656
9.62875e-06;0.005126694260868053
9.62900e-06;0.005136795039592519
9.62925e-06;0.005146895818316986
9.62950e-06;0.005156996597041383
9.62975e-06;0.005167097375765849
9.63000e-06;0.005177198154490315
9.63025e-06;0.005187298933214713
9.63050e-06;0.005197399711939179
9.63075e-06;0.005207500490663645
9.63100e-06;0.005217601269388042
9.63125e-06;0.005227450785717828
9.63150e-06;0.005228508069670661
9.63175e-06;0.005229565353623494
9.63200e-06;0.00523062263757632
9.63225e-06;0.005231679921529152
9.63250e-06;0.005232737205481985
9.63275e-06;0.00523379448943481
9.63300e-06;0.0052348517733876426
9.63325e-06;0.005235909057340476
9.63350e-06;0.005236966341293301
9.63375e-06;0.005238023625246133
9.63400e-06;0.005239080909198966
9.63425e-06;0.0052401381931517915
9.63450e-06;0.005241195477104624
9.63475e-06;0.005242252761057457
9.63500e-06;0.005243310045010282
9.63525e-06;0.005244367328963115
9.63550e-06;0.005245424612915947
9.63575e-06;0.005246230508423
9.63600e-06;0.005238239760732793
9.63625e-06;0.005230249013042586
9.63650e-06;0.005222258265352434
9.63675e-06;0.005214267517662227
9.63700e-06;0.00520627676997202
9.63725e-06;0.005198286022281867
9.63750e-06;0.00519029527459166
9.63775e-06;0.005182304526901454
9.63800e-06;0.005174313779211301
9.63825e-06;0.005166323031521094
9.63850e-06;0.0051583322838308875
9.63875e-06;0.005150341536140735
9.63900e-06;0.005142350788450528
9.63925e-06;0.0051343600407603215
9.63950e-06;0.005126369293070168
9.63975e-06;0.0051183785453799615
9.64000e-06;0.005110387797689755
9.64025e-06;0.005102455309034081
9.64050e-06;0.005096561434120667
9.64075e-06;0.005090667559207213
9.64100e-06;0.005084773684293759
9.64125e-06;0.0050788798093803445
9.64150e-06;0.0050729859344668905
9.64175e-06;0.0050670920595534364
9.64200e-06;0.005061198184640022
9.64225e-06;0.005055304309726568
9.64250e-06;0.005049410434813114
9.64275e-06;0.0050435165598997
9.64300e-06;0.005037622684986246
9.64325e-06;0.005031728810072792
9.64350e-06;0.005025834935159378
9.64375e-06;0.005019941060245924
9.64400e-06;0.00501404718533247
9.64425e-06;0.0050081533104190555
9.64450e-06;0.005002259435505601
9.64475e-06;0.004996365560592147
9.64500e-06;0.004990471685678733
9.64525e-06;0.004984577810765279
9.64550e-06;0.004978683935851825
9.64575e-06;0.004972847310822334
9.64600e-06;0.0049690139871052166
9.64625e-06;0.004965180663388099
9.64650e-06;0.004961347339671008
9.64675e-06;0.004957514015953891
9.64700e-06;0.004953680692236773
9.64725e-06;0.004949847368519682
9.64750e-06;0.004946014044802565
9.64775e-06;0.0049421807210854474
9.64800e-06;0.004938347397368356
9.64825e-06;0.004934514073651239
9.64850e-06;0.0049306807499341215
9.64875e-06;0.004926847426217004
9.64900e-06;0.004923014102499913
9.64925e-06;0.004919180778782796
9.64950e-06;0.004915347455065678
9.64975e-06;0.004911514131348587
9.65000e-06;0.00490768080763147
9.65025e-06;0.004903847483914352
9.65050e-06;0.004900014160197261
9.65075e-06;0.004896180836480144
9.65100e-06;0.0048923475127630265
