Time(s);Current(A)
3.75000e-06;-0.0031146731411626186
3.75025e-06;-0.0031119959062569317
3.75050e-06;-0.0031093186713512444
3.75075e-06;-0.0031066414364455614
3.75100e-06;-0.0031039642015398745
3.75125e-06;-0.003101286966634187
3.75150e-06;-0.0030986097317285
3.75175e-06;-0.0030959324968228173
3.75200e-06;-0.00309325526191713
3.75225e-06;-0.0030905780270114426
3.75250e-06;-0.00308754727867517
3.75275e-06;-0.0030839264870028645
3.75300e-06;-0.003080305695330559
3.75325e-06;-0.0030766849036582534
3.75350e-06;-0.003073064111985954
3.75375e-06;-0.0030694433203136483
3.75400e-06;-0.0030658225286413427
3.75425e-06;-0.003062201736969043
3.75450e-06;-0.0030585809452967376
3.75475e-06;-0.003054960153624432
3.75500e-06;-0.0030513393619521325
3.75525e-06;-0.0030474590114745676
3.75550e-06;-0.0030431454357498066
3.75575e-06;-0.003038831860025046
3.75600e-06;-0.003034518284300293
3.75625e-06;-0.003030204708575532
3.75650e-06;-0.0030258911328507714
3.75675e-06;-0.0030215775571260177
3.75700e-06;-0.003017263981401257
3.75725e-06;-0.0030129504056764967
3.75750e-06;-0.0030087951665238974
3.75775e-06;-0.0030049042042874403
3.75800e-06;-0.003001013242050983
3.75825e-06;-0.0029971222798145254
3.75850e-06;-0.002993231317578075
3.75875e-06;-0.0029893403553416173
3.75900e-06;-0.00298544939310516
3.75925e-06;-0.002981558430868709
3.75950e-06;-0.0029776674686322517
3.75975e-06;-0.002973875139977898
3.76000e-06;-0.0029702474389806475
3.76025e-06;-0.0029666197379834033
3.76050e-06;-0.002962992036986153
3.76075e-06;-0.0029593643359889024
3.76100e-06;-0.0029557366349916583
3.76125e-06;-0.002952108933994408
3.76150e-06;-0.0029475592110237495
3.76175e-06;-0.0029414705566461288
3.76200e-06;-0.002935381902268498
3.76225e-06;-0.0029292932478908675
3.76250e-06;-0.0029232045935132364
3.76275e-06;-0.002917115939135616
3.76300e-06;-0.0029110272847579855
3.76325e-06;-0.0029036803716570516
3.76350e-06;-0.002894233320030955
3.76375e-06;-0.002884786268404842
3.76400e-06;-0.0028753392167787293
3.76425e-06;-0.0028658921651526165
3.76450e-06;-0.0028564451135265198
3.76475e-06;-0.002846998061900407
3.76500e-06;-0.0028375510102742942
3.76525e-06;-0.0028281039586481975
3.76550e-06;-0.002817890395566699
3.76575e-06;-0.0028063974610748
3.76600e-06;-0.00279490452658292
3.76625e-06;-0.0027834115920910207
3.76650e-06;-0.0027719186575991214
3.76675e-06;-0.0027604257231072225
3.76700e-06;-0.0027489327886153427
3.76725e-06;-0.0027374398541234433
3.76750e-06;-0.002725946919631544
3.76775e-06;-0.0027146912554395428
3.76800e-06;-0.0027038316151243675
3.76825e-06;-0.0026929719748091927
3.76850e-06;-0.0026821123344940175
3.76875e-06;-0.002671252694178861
3.76900e-06;-0.002661177081593126
3.76925e-06;-0.0026524100765369834
3.76950e-06;-0.0026436430714808553
3.76975e-06;-0.0026348760664247125
3.77000e-06;-0.0026261090613685697
3.77025e-06;-0.002617881101482018
3.77050e-06;-0.0026105528528444547
3.77075e-06;-0.0026032246042068915
3.77100e-06;-0.0025958963555693278
3.77125e-06;-0.002588568106931777
3.77150e-06;-0.002581239858294214
3.77175e-06;-0.0025739116096566506
3.77200e-06;-0.0025665833610190995
3.77225e-06;-0.0025592551123815362
3.77250e-06;-0.00255154223301719
3.77275e-06;-0.002543774235773364
3.77300e-06;-0.0025360062385295515
3.77325e-06;-0.0025282382412857253
3.77350e-06;-0.0025204702440418995
3.77375e-06;-0.0025127022467980866
3.77400e-06;-0.002504934249554261
3.77425e-06;-0.002497166252310435
3.77450e-06;-0.0024890817509258187
3.77475e-06;-0.0024804689777897307
3.77500e-06;-0.0024718562046536427
3.77525e-06;-0.0024632434315175547
3.77550e-06;-0.0024546306583814815
3.77575e-06;-0.0024460178852453935
3.77600e-06;-0.0024374051121093055
3.77625e-06;-0.0024287923389732322
3.77650e-06;-0.0024201795658371442
3.77675e-06;-0.0024115667927010562
3.77700e-06;-0.002403525605242515
3.77725e-06;-0.0023955663264519536
3.77750e-06;-0.0023876070476613782
3.77775e-06;-0.0023796477688708033
3.77800e-06;-0.002371688490080242
3.77825e-06;-0.002363729211289667
3.77850e-06;-0.0023557699324990916
3.77875e-06;-0.00234781065370853
3.77900e-06;-0.002339851374917955
3.77925e-06;-0.002333245607973931
3.77950e-06;-0.002328898964945342
3.77975e-06;-0.0023245523219167607
3.78000e-06;-0.002320205678888172
3.78025e-06;-0.002315859035859583
3.78050e-06;-0.0023115123928310016
3.78075e-06;-0.0023071657498024128
3.78100e-06;-0.0023028191067738235
3.78125e-06;-0.0022984724637452347
3.78150e-06;-0.002294125820716653
3.78175e-06;-0.0022897791776880644
3.78200e-06;-0.0022854325346594755
3.78225e-06;-0.002281085891630894
3.78250e-06;-0.0022767392486023053
3.78275e-06;-0.002272392605573716
3.78300e-06;-0.0022711587396604337
3.78325e-06;-0.0022703709371060233
3.78350e-06;-0.0022695831345516133
3.78375e-06;-0.002268795331997203
3.78400e-06;-0.002268007529442794
3.78425e-06;-0.0022672197268883837
3.78450e-06;-0.0022664319243339737
3.78475e-06;-0.002265644121779565
3.78500e-06;-0.0022648563192251545
3.78525e-06;-0.0022640685166707445
3.78550e-06;-0.002263280714116334
3.78575e-06;-0.0022624929115619254
3.78600e-06;-0.002261705109007515
3.78625e-06;-0.002260917306453105
3.78650e-06;-0.0022606019685477625
3.78675e-06;-0.0022610752134617496
3.78700e-06;-0.002261548458375736
3.78725e-06;-0.0022620217032897224
3.78750e-06;-0.0022624949482037094
3.78775e-06;-0.002262968193117696
3.78800e-06;-0.002263441438031683
3.78825e-06;-0.002263922272167999
3.78850e-06;-0.0022644157733479834
3.78875e-06;-0.0022649092745279683
3.78900e-06;-0.0022654027757079524
3.78925e-06;-0.002265896276887937
3.78950e-06;-0.002266389778067922
3.78975e-06;-0.0022668832792479064
3.79000e-06;-0.002266699408065075
3.79025e-06;-0.0022653849460355664
3.79050e-06;-0.002264070484006058
3.79075e-06;-0.0022627560219765515
3.79100e-06;-0.002261441559947043
3.79125e-06;-0.0022601270979175346
3.79150e-06;-0.0022588126358880282
3.79175e-06;-0.0022559460719669905
3.79200e-06;-0.002250488920817989
3.79225e-06;-0.002245031769668987
3.79250e-06;-0.0022395746185199946
3.79275e-06;-0.002234117467370993
3.79300e-06;-0.002228660316221991
3.79325e-06;-0.0022232031650729982
3.79350e-06;-0.0022162001429210875
3.79375e-06;-0.002206616933412856
3.79400e-06;-0.0021970337239046243
3.79425e-06;-0.002187450514396409
3.79450e-06;-0.002177867304888177
3.79475e-06;-0.002168284095379945
3.79500e-06;-0.0021587008858717296
3.79525e-06;-0.0021481200861731397
3.79550e-06;-0.002135874225424082
3.79575e-06;-0.0021236283646750456
3.79600e-06;-0.0021113825039259884
3.79625e-06;-0.0020991366431769307
3.79650e-06;-0.0020868907824278735
3.79675e-06;-0.002074644921678837
3.79700e-06;-0.0020621752723343875
3.79725e-06;-0.0020493321011997964
3.79750e-06;-0.0020364889300652275
3.79775e-06;-0.002023825196060886
3.79800e-06;-0.002011460957560291
3.79825e-06;-0.001999096719059696
3.79850e-06;-0.0019871024624170527
3.79875e-06;-0.0019757257362864084
3.79900e-06;-0.001964349010155764
3.79925e-06;-0.0019535828529541545
3.79950e-06;-0.001943835786108658
3.79975e-06;-0.0019340887192631617
3.80000e-06;-0.001924922896707924
3.80025e-06;-0.0019167272192462004
3.80050e-06;-0.0019085315417844769
3.80075e-06;-0.001900296786266342
3.80100e-06;-0.0018919968062198623
3.80125e-06;-0.0018836968261733687
3.80150e-06;-0.001875396846126875
3.80175e-06;-0.0018670968660803955
3.80200e-06;-0.0018587968860339019
3.80225e-06;-0.001850496905987408
3.80250e-06;-0.001841922685840438
3.80275e-06;-0.0018328907361425926
3.80300e-06;-0.001823858786444732
3.80325e-06;-0.0018148268367468715
3.80350e-06;-0.0018057948870490261
3.80375e-06;-0.0017967629373511654
3.80400e-06;-0.0017877309876533048
3.80425e-06;-0.0017783131355380711
3.80450e-06;-0.0017682511801720726
3.80475e-06;-0.0017581892248060742
3.80500e-06;-0.0017481272694400759
3.80525e-06;-0.0017380653140740944
3.80550e-06;-0.001728003358708096
3.80575e-06;-0.0017179414033420977
3.80600e-06;-0.001707598398398805
3.80625e-06;-0.0016972151188345175
3.80650e-06;-0.0016868318392702299
3.80675e-06;-0.0016764485597059423
3.80700e-06;-0.0016660652801416724
3.80725e-06;-0.0016556820005773848
3.80750e-06;-0.0016454905026520423
3.80775e-06;-0.0016356191042428514
3.80800e-06;-0.0016257477058336438
3.80825e-06;-0.0016161225718735186
3.80850e-06;-0.001606908473773915
3.80875e-06;-0.0015979948696239277
3.80900e-06;-0.0015895828148840352
3.80925e-06;-0.0015811707601441427
3.80950e-06;-0.0015737244121375204
3.80975e-06;-0.001567889909038198
3.81000e-06;-0.0015620554059388757
3.81025e-06;-0.0015562209028395634
3.81050e-06;-0.001550386399740241
3.81075e-06;-0.0015445518966409188
3.81100e-06;-0.0015387173935415964
3.81125e-06;-0.001532882890442284
3.81150e-06;-0.0015283236165834348
3.81175e-06;-0.001525892806456027
3.81200e-06;-0.0015234619963286232
3.81225e-06;-0.0015210311862012154
3.81250e-06;-0.0015186003760738077
3.81275e-06;-0.0015161695659464038
3.81300e-06;-0.001513738755818996
3.81325e-06;-0.0015113079456915881
3.81350e-06;-0.0015099214169182601
3.81375e-06;-0.001510277880633694
3.81400e-06;-0.0015106343443491285
3.81425e-06;-0.001510990808064563
3.81450e-06;-0.0015113472717799969
3.81475e-06;-0.0015117037354954316
3.81500e-06;-0.0015120601992108654
3.81525e-06;-0.0015124166629263006
3.81550e-06;-0.0015127731266417345
3.81575e-06;-0.0015145603835978827
3.81600e-06;-0.0015165526743278746
3.81625e-06;-0.0015185449650578597
3.81650e-06;-0.0015205372557878516
3.81675e-06;-0.0015225295465178365
3.81700e-06;-0.0015245218372478217
3.81725e-06;-0.0015265141279778135
3.81750e-06;-0.0015285064187077987
3.81775e-06;-0.00153061632385412
3.81800e-06;-0.0015329225372495918
3.81825e-06;-0.0015352287506450557
3.81850e-06;-0.0015375349640405196
3.81875e-06;-0.0015398411774359916
3.81900e-06;-0.0015418005108095091
3.81925e-06;-0.0015437101360086143
3.81950e-06;-0.001545619761207726
3.81975e-06;-0.0015475293864068314
3.82000e-06;-0.0015494209122998857
3.82025e-06;-0.0015512822289448617
3.82050e-06;-0.0015531435455898314
3.82075e-06;-0.0015550048622348074
3.82100e-06;-0.0015568661788797772
3.82125e-06;-0.0015587274955247469
3.82150e-06;-0.001560588812169723
3.82175e-06;-0.0015624501288146928
3.82200e-06;-0.0015643114454596625
3.82225e-06;-0.0015671894675687687
3.82250e-06;-0.0015702131843542213
3.82275e-06;-0.001573236901139674
3.82300e-06;-0.0015762606179251367
3.82325e-06;-0.0015792843347105891
3.82350e-06;-0.0015823080514960417
3.82375e-06;-0.0015853317682815045
3.82400e-06;-0.0015883554850669571
3.82425e-06;-0.0015918207687606342
3.82450e-06;-0.0015960230643727784
3.82475e-06;-0.0016002253599849082
3.82500e-06;-0.0016044276555970524
3.82525e-06;-0.0016086299512091823
3.82550e-06;-0.0016128322468213121
3.82575e-06;-0.0016170345424334563
3.82600e-06;-0.0016212368380455861
3.82625e-06;-0.001625439133657716
3.82650e-06;-0.0016297088841776587
3.82675e-06;-0.0016340912225525119
3.82700e-06;-0.001638473560927365
3.82725e-06;-0.0016428558993022329
3.82750e-06;-0.001647238237677086
3.82775e-06;-0.0016516205760519391
3.82800e-06;-0.0016560029144268072
3.82825e-06;-0.0016603852528016604
3.82850e-06;-0.0016647675911765135
3.82875e-06;-0.0016688928700877381
3.82900e-06;-0.0016725890953608504
3.82925e-06;-0.0016762853206339755
3.82950e-06;-0.0016797676592321586
3.82975e-06;-0.0016828930031695854
3.83000e-06;-0.0016859999410620606
3.83025e-06;-0.0016890761577336765
3.83050e-06;-0.0016928589789820974
3.83075e-06;-0.0016978211820749872
3.83100e-06;-0.0017036386120153108
3.83125e-06;-0.0017108834867385664
3.83150e-06;-0.001719009147414395
3.83175e-06;-0.0017286049131466238
3.83200e-06;-0.0017382006788788525
3.83225e-06;-0.0017492525721255262
3.83250e-06;-0.0017627348633769406
3.83275e-06;-0.001776217154628355
3.83300e-06;-0.0017896994458798151
3.83325e-06;-0.0018071580178773599
3.83350e-06;-0.0018251863939692334
3.83375e-06;-0.001843214770061046
3.83400e-06;-0.0018620846525836106
3.83425e-06;-0.0018831673170112652
3.83450e-06;-0.0019055989973230244
3.83475e-06;-0.0019280306776347839
3.83500e-06;-0.0019513828491984136
3.83525e-06;-0.001976271397267116
3.83550e-06;-0.0020016352312883464
3.83575e-06;-0.0020277923571190852
3.83600e-06;-0.0020542423658690026
3.83625e-06;-0.002081181220585721
3.83650e-06;-0.002108369385617727
3.83675e-06;-0.002135973670314008
3.83700e-06;-0.0021636418963892393
3.83725e-06;-0.0021914168459474127
3.83750e-06;-0.0022190001022173006
3.83775e-06;-0.002246263406436043
3.83800e-06;-0.002273110960842849
3.83825e-06;-0.0022992645942138444
3.83850e-06;-0.002324865435608916
3.83875e-06;-0.002349543621191077
3.83900e-06;-0.002373443170008539
3.83925e-06;-0.0023960431092655225
3.83950e-06;-0.0024175945145865387
3.83975e-06;-0.0024373958295067256
3.84000e-06;-0.0024555575234736374
3.84025e-06;-0.0024709825536157063
3.84050e-06;-0.002486407583757775
3.84075e-06;-0.0024997029792502568
3.84100e-06;-0.0025094438372785894
3.84125e-06;-0.0025191846953069217
3.84150e-06;-0.002525533083720655
3.84175e-06;-0.002526219158017288
3.84200e-06;-0.002526905232313924
3.84225e-06;-0.0025275913066105573
3.84250e-06;-0.0025282773809071906
3.84275e-06;-0.0025289634552038264
3.84300e-06;-0.0025254189451352806
3.84325e-06;-0.002514813237681096
3.84350e-06;-0.0025042075302268755
3.84375e-06;-0.002493601822772691
3.84400e-06;-0.002482996115318506
3.84425e-06;-0.0024723904078642854
3.84450e-06;-0.0024591505278627013
3.84475e-06;-0.0024415139946569932
3.84500e-06;-0.002423877461451226
3.84525e-06;-0.002404940612408511
3.84550e-06;-0.002383833428018284
3.84575e-06;-0.0023627262436279853
3.84600e-06;-0.002340693406733104
3.84625e-06;-0.0023171155787727713
3.84650e-06;-0.0022935377508125185
3.84675e-06;-0.002269523193638413
3.84700e-06;-0.0022447796990606233
3.84725e-06;-0.002219935058468043
3.84750e-06;-0.0021949215967590205
3.84775e-06;-0.0021700191819467966
3.84800e-06;-0.0021453021136471455
3.84825e-06;-0.0021209209774762424
3.84850e-06;-0.002097100539985221
3.84875e-06;-0.0020736849482511067
3.84900e-06;-0.002051296537280542
3.84925e-06;-0.0020299075253789305
3.84950e-06;-0.0020096811563267026
3.84975e-06;-0.001991077670232826
3.85000e-06;-0.0019738633365942184
3.85025e-06;-0.0019579324974704627
3.85050e-06;-0.0019441439175072687
3.85075e-06;-0.0019317379717276705
3.85100e-06;-0.0019216397574664367
3.85125e-06;-0.0019129665941629741
3.85150e-06;-0.0019066719595041309
3.85175e-06;-0.0019022148543984857
3.85200e-06;-0.0019008247390405457
3.85225e-06;-0.0018994346236826103
3.85250e-06;-0.0019010890434201968
3.85275e-06;-0.0019078250456053497
3.85300e-06;-0.0019145610477904799
3.85325e-06;-0.0019212970499756098
3.85350e-06;-0.0019280330521607627
3.85375e-06;-0.0019347690543458926
3.85400e-06;-0.0019493728952654503
3.85425e-06;-0.001965104203536083
3.85450e-06;-0.001980835511806663
3.85475e-06;-0.0019965668200772955
3.85500e-06;-0.0020122981283478753
3.85525e-06;-0.0020298054494581105
3.85550e-06;-0.0020502770838014463
3.85575e-06;-0.0020714315736897926
3.85600e-06;-0.0020937258063115816
3.85625e-06;-0.0021165278189702297
3.85650e-06;-0.002140177358768728
3.85675e-06;-0.0021641314270173916
3.85700e-06;-0.0021885937785929683
3.85725e-06;-0.0022131433189928515
3.85750e-06;-0.0022378383847966774
3.85775e-06;-0.0022624029072532133
3.85800e-06;-0.002286749541998811
3.85825e-06;-0.00231074332152214
3.85850e-06;-0.002334148156314237
3.85875e-06;-0.0023569601158236414
3.85900e-06;-0.0023787825171461396
3.85925e-06;-0.0023997634307302007
3.85950e-06;-0.002419339831248618
3.85975e-06;-0.002437826480502747
3.86000e-06;-0.0024544942442053185
3.86025e-06;-0.002469514783193059
3.86050e-06;-0.002481785967046449
3.86075e-06;-0.0024940571508997966
3.86100e-06;-0.0025042041666692447
3.86125e-06;-0.0025108057691292144
3.86150e-06;-0.0025174073715891615
3.86175e-06;-0.002520684182268794
3.86200e-06;-0.002518411638771403
3.86225e-06;-0.0025161390952740193
3.86250e-06;-0.0025138665517766357
3.86275e-06;-0.0025115940082792443
3.86300e-06;-0.0025093214647818607
3.86325e-06;-0.0025029920021687087
3.86350e-06;-0.0024898912039269146
3.86375e-06;-0.0024767904056851205
3.86400e-06;-0.0024636896074432817
3.86425e-06;-0.0024505888092014876
3.86450e-06;-0.0024374880109596935
3.86475e-06;-0.002421936053830182
3.86500e-06;-0.0024022929085272507
3.86525e-06;-0.002382649763224319
3.86550e-06;-0.002361847124320612
3.86575e-06;-0.0023391091941022337
3.86600e-06;-0.002316371263883855
3.86625e-06;-0.0022928696427252527
3.86650e-06;-0.0022680933578318988
3.86675e-06;-0.0022433170729385453
3.86700e-06;-0.0022182475852734413
3.86725e-06;-0.0021926887177816596
3.86750e-06;-0.0021671492595078294
3.86775e-06;-0.0021416421968342607
3.86800e-06;-0.0021163737148857916
3.86825e-06;-0.002091503444022532
3.86850e-06;-0.0020669557587247775
3.86875e-06;-0.002043243260344831
3.86900e-06;-0.0020203853974744457
3.86925e-06;-0.0019985487607555134
3.86950e-06;-0.0019778996201342026
3.86975e-06;-0.001958604507886426
3.87000e-06;-0.0019408398276712156
3.87025e-06;-0.0019252052522383736
3.87050e-06;-0.0019114024113982555
3.87075e-06;-0.0018992000895706538
3.87100e-06;-0.0018896691671726827
3.87125e-06;-0.0018817690334440604
3.87150e-06;-0.0018765908217215374
3.87175e-06;-0.0018734910028599847
3.87200e-06;-0.0018738601946506064
3.87225e-06;-0.001874229386441227
3.87250e-06;-0.0018779548580159628
3.87275e-06;-0.0018872822398652517
3.87300e-06;-0.0018966096217145406
3.87325e-06;-0.0019059370035638611
3.87350e-06;-0.00191526438541315
3.87375e-06;-0.001928241040460416
3.87400e-06;-0.001947308636173321
3.87425e-06;-0.001966376231886162
3.87450e-06;-0.0019854438275990023
3.87475e-06;-0.0020045114233119073
3.87500e-06;-0.0020256613271685225
3.87525e-06;-0.002050286776609896
3.87550e-06;-0.002075772686845728
3.87575e-06;-0.002102694777756103
3.87600e-06;-0.0021299996166438857
3.87625e-06;-0.0021518355484336504
3.87650e-06;-0.002182332245710723
3.87675e-06;-0.002211211262510477
3.87700e-06;-0.002244412499058983
3.87725e-06;-0.0022758675642847947
3.87750e-06;-0.002306786108052504
3.87775e-06;-0.002336729319822071
3.87800e-06;-0.0023671595230941706
3.87825e-06;-0.002396625666971383
3.87850e-06;-0.0024246909246675575
3.87875e-06;-0.00245207963004404
3.87900e-06;-0.0024773388514062705
3.87925e-06;-0.002507644864410476
3.87950e-06;-0.002531029323871334
3.87975e-06;-0.0025538139041751387
3.88000e-06;-0.002574570128452664
3.88025e-06;-0.002593082609344905
3.88050e-06;-0.0026103762633422705
3.88075e-06;-0.0026250728828156682
3.88100e-06;-0.002638938098587114
3.88125e-06;-0.002650151561195505
3.88150e-06;-0.0026587137281808546
3.88175e-06;-0.0026649790942402823
3.88200e-06;-0.0026683850744092545
3.88225e-06;-0.0026686217079534215
3.88250e-06;-0.002668858341497589
3.88275e-06;-0.0026671759678297247
3.88300e-06;-0.002661404639445047
3.88325e-06;-0.00265563331106035
3.88350e-06;-0.002648499153392231
3.88375e-06;-0.0026373063551067737
3.88400e-06;-0.0026236530109424354
3.88425e-06;-0.0026099996667781435
3.88450e-06;-0.0025948617271516934
3.88475e-06;-0.002576560462458292
3.88500e-06;-0.002558259197764952
3.88525e-06;-0.0025387204148697748
3.88550e-06;-0.00251654477065582
3.88575e-06;-0.0024943691264418654
3.88600e-06;-0.0024713247330965743
3.88625e-06;-0.0024464292389136696
3.88650e-06;-0.002421533744730765
3.88675e-06;-0.0023962851732506813
3.88700e-06;-0.0023702842767819227
3.88725e-06;-0.0023441455381232818
3.88750e-06;-0.0023177130900564214
3.88775e-06;-0.002291378250769916
3.88800e-06;-0.0022652513929229405
3.88825e-06;-0.002239423273719939
3.88850e-06;-0.0022142316965685213
3.88875e-06;-0.002189598590377419
3.88900e-06;-0.0021661554549444405
3.88925e-06;-0.002144012625465073
3.88950e-06;-0.0021246404432911387
3.88975e-06;-0.00210526826111727
3.89000e-06;-0.002085896078943401
3.89025e-06;-0.002066523896769467
3.89050e-06;-0.002050851057129454
3.89075e-06;-0.00203599351287619
3.89100e-06;-0.0020211359686228753
3.89125e-06;-0.0020062784243696113
3.89150e-06;-0.0019926470311912364
3.89175e-06;-0.001981628278647432
3.89200e-06;-0.0019706095261036653
3.89225e-06;-0.001959590773559898
3.89250e-06;-0.0019485720210160936
3.89275e-06;-0.0019375532684723265
3.89300e-06;-0.0019290609979564345
3.89325e-06;-0.001921125536960866
3.89350e-06;-0.0019131900759653245
3.89375e-06;-0.0019052546149697558
