Time(s);Current(A)
2.50000e-06;-0.009830632766478914
2.50025e-06;-0.009793341271084168
2.50050e-06;-0.009744525067013197
2.50075e-06;-0.009695708862942146
2.50100e-06;-0.009646892658871092
2.50125e-06;-0.009598076454800123
2.50150e-06;-0.009548778500981304
2.50175e-06;-0.009483070381973041
2.50200e-06;-0.009417362262964777
2.50225e-06;-0.009351654143956625
2.50250e-06;-0.009285946024948361
2.50275e-06;-0.009215801890231013
2.50300e-06;-0.009141700485219841
2.50325e-06;-0.009067599080208544
2.50350e-06;-0.008993497675197247
2.50375e-06;-0.00891934196052943
2.50400e-06;-0.008843336259553773
2.50425e-06;-0.008767351395601931
2.50450e-06;-0.00869210643724343
2.50475e-06;-0.008617928249604423
2.50500e-06;-0.008545190160232596
2.50525e-06;-0.008474262938374012
2.50550e-06;-0.008405585607122812
2.50575e-06;-0.008339641576016788
2.50600e-06;-0.008276916117239222
2.50625e-06;-0.008217896285935744
2.50650e-06;-0.008163066213862206
2.50675e-06;-0.008112832665156028
2.50700e-06;-0.00806736639366117
2.50725e-06;-0.008028529310977197
2.50750e-06;-0.007989957823984154
2.50775e-06;-0.007960433501384982
2.50800e-06;-0.007931189861066418
2.50825e-06;-0.007911507289774494
2.50850e-06;-0.007892184893101463
2.50875e-06;-0.007885131366362175
2.50900e-06;-0.0078780778396229
2.50925e-06;-0.007871577519224963
2.50950e-06;-0.007883921437960299
2.50975e-06;-0.007896265356695615
2.51000e-06;-0.007908609275430951
2.51025e-06;-0.007920953194166287
2.51050e-06;-0.007933297112901624
2.51075e-06;-0.007956854568958288
2.51100e-06;-0.00799041537059438
2.51125e-06;-0.008023976172230475
2.51150e-06;-0.008057536973866512
2.51175e-06;-0.008091097775502607
2.51200e-06;-0.008125071847795857
2.51225e-06;-0.008173123436033061
2.51250e-06;-0.008221175024270347
2.51275e-06;-0.008269226612507632
2.51300e-06;-0.008317278200744918
2.51325e-06;-0.008365329788982122
2.51350e-06;-0.00841351368147488
2.51375e-06;-0.008466204342676753
2.51400e-06;-0.008518895003878538
2.51425e-06;-0.008571585665080412
2.51450e-06;-0.008624276326282286
2.51475e-06;-0.008676966987484162
2.51500e-06;-0.008729539740436741
2.51525e-06;-0.008778096105509468
2.51550e-06;-0.008826652470582196
2.51575e-06;-0.008875002714239438
2.51600e-06;-0.00891633170569229
2.51625e-06;-0.008957660697145145
2.51650e-06;-0.008998503885362538
2.51675e-06;-0.009022798831705255
2.51700e-06;-0.009047093778047972
2.51725e-06;-0.00907138872439069
2.51750e-06;-0.009095683670733365
2.51775e-06;-0.009119978617076082
2.51800e-06;-0.009144273563418799
2.51825e-06;-0.009168568509761475
2.51850e-06;-0.009192187936127505
2.51875e-06;-0.009192796671845338
2.51900e-06;-0.009193405407563172
2.51925e-06;-0.009194014143281004
2.51950e-06;-0.009194622878998837
2.51975e-06;-0.00919523161471667
2.52000e-06;-0.009195840350434503
2.52025e-06;-0.009196449086152336
2.52050e-06;-0.009196539974019093
2.52075e-06;-0.009178991062745643
2.52100e-06;-0.009161442151472163
2.52125e-06;-0.009143893240198684
2.52150e-06;-0.009126344328925205
2.52175e-06;-0.009108795417651755
2.52200e-06;-0.009091246506378275
2.52225e-06;-0.00907342154770092
2.52250e-06;-0.009046193400909506
2.52275e-06;-0.009018965254118048
2.52300e-06;-0.00899173710732659
2.52325e-06;-0.008964508960535132
2.52350e-06;-0.00893728081374372
2.52375e-06;-0.008910052666952262
2.52400e-06;-0.008882763961315354
2.52425e-06;-0.008853412399053823
2.52450e-06;-0.008824060836792241
2.52475e-06;-0.008794741484045241
2.52500e-06;-0.008766519305625858
2.52525e-06;-0.008738297127206427
2.52550e-06;-0.008710233927930027
2.52575e-06;-0.00868758614197585
2.52600e-06;-0.008664938356021711
2.52625e-06;-0.008642290570067533
2.52650e-06;-0.008619642784113356
2.52675e-06;-0.008596994998159217
2.52700e-06;-0.00857434721220504
2.52725e-06;-0.008551699426250862
2.52750e-06;-0.008529045172718236
2.52775e-06;-0.008506170609717178
2.52800e-06;-0.008483296046716082
2.52825e-06;-0.008460421483714986
2.52850e-06;-0.00843754692071393
2.52875e-06;-0.008414672357712833
2.52900e-06;-0.008391797794711737
2.52925e-06;-0.008368923231710679
2.52950e-06;-0.008345877939093818
2.52975e-06;-0.008317016968908469
2.53000e-06;-0.00828815599872312
2.53025e-06;-0.00825929502853782
2.53050e-06;-0.008230434058352469
2.53075e-06;-0.00820157308816712
2.53100e-06;-0.00817271211798182
2.53125e-06;-0.008141559739938256
2.53150e-06;-0.00810836324824747
2.53175e-06;-0.008075166756556682
2.53200e-06;-0.008041970264865951
2.53225e-06;-0.008008773773175165
2.53250e-06;-0.007975577281484379
2.53275e-06;-0.00794234354596751
2.53300e-06;-0.00790784114898659
2.53325e-06;-0.007873338752005668
2.53350e-06;-0.007838839112931288
2.53375e-06;-0.007804433418277698
2.53400e-06;-0.007770027723624107
2.53425e-06;-0.007735673287075119
2.53450e-06;-0.007703064889770163
2.53475e-06;-0.007670456492465151
2.53500e-06;-0.007637909583636942
2.53525e-06;-0.007607457198092216
2.53550e-06;-0.00757707073005383
2.53575e-06;-0.007548929654308605
2.53600e-06;-0.00752085267664832
2.53625e-06;-0.007495009660493517
2.53650e-06;-0.007470947729574657
2.53675e-06;-0.007448984553375967
2.53700e-06;-0.007429830488415458
2.53725e-06;-0.007415894410239556
2.53750e-06;-0.007402171828554559
2.53775e-06;-0.007395721721233422
2.53800e-06;-0.007389480070472954
2.53825e-06;-0.007390339215548038
2.53850e-06;-0.007391466125453639
2.53875e-06;-0.007401714088623844
2.53900e-06;-0.007411962051794066
2.53925e-06;-0.0074226836577351
2.53950e-06;-0.007449539275496662
2.53975e-06;-0.00747639489325827
2.54000e-06;-0.007503250511019878
2.54025e-06;-0.007530106128781485
2.54050e-06;-0.007556961746543048
2.54075e-06;-0.00759321768934009
2.54100e-06;-0.007637859451634649
2.54125e-06;-0.0076825012139291335
2.54150e-06;-0.007727142976223692
2.54175e-06;-0.007771784738518252
2.54200e-06;-0.007816767935108375
2.54225e-06;-0.007873381637435388
2.54250e-06;-0.007929995339762401
2.54275e-06;-0.007986609042089414
2.54300e-06;-0.00804322274441633
2.54325e-06;-0.008099836446743343
2.54350e-06;-0.008156524585984471
2.54375e-06;-0.008215748319826743
2.54400e-06;-0.008274972053669116
2.54425e-06;-0.00833419578751149
2.54450e-06;-0.008393419521353763
2.54475e-06;-0.008452643255196136
2.54500e-06;-0.008511712147862081
2.54525e-06;-0.008565506581535305
2.54550e-06;-0.008619301015208436
2.54575e-06;-0.008672867999066223
2.54600e-06;-0.008718687207092155
2.54625e-06;-0.00876450641511801
2.54650e-06;-0.008810017879736613
2.54675e-06;-0.008845046473972194
2.54700e-06;-0.008880075068207772
2.54725e-06;-0.008914584842116421
2.54750e-06;-0.008931421690758575
2.54775e-06;-0.008948258539400728
2.54800e-06;-0.008965095388042852
2.54825e-06;-0.008981932236685006
2.54850e-06;-0.008998769085327159
2.54875e-06;-0.009015605933969283
2.54900e-06;-0.009031728135114348
2.54925e-06;-0.009023506818563886
2.54950e-06;-0.009015285502013422
2.54975e-06;-0.009007064185462973
2.55000e-06;-0.00899884286891251
2.55025e-06;-0.008990621552362046
2.55050e-06;-0.008982400235811597
2.55075e-06;-0.008973788481313246
2.55100e-06;-0.00895187697675327
2.55125e-06;-0.008930259566757467
2.55150e-06;-0.008913323844025068
2.55175e-06;-0.0088947886144331
2.55200e-06;-0.008860019334501095
2.55225e-06;-0.008825250054569148
2.55250e-06;-0.008783869314727322
2.55275e-06;-0.008745441048311552
2.55300e-06;-0.008709141791723768
2.55325e-06;-0.008672303318744327
2.55350e-06;-0.008633704231706249
2.55375e-06;-0.008594317233102998
2.55400e-06;-0.008554930234499814
2.55425e-06;-0.008514249140434953
2.55450e-06;-0.008472777067040756
2.55475e-06;-0.008431304993646629
2.55500e-06;-0.008393141640525677
2.55525e-06;-0.008355497779314502
2.55550e-06;-0.008318677131278332
2.55575e-06;-0.008288659064253837
2.55600e-06;-0.00825864099722929
2.55625e-06;-0.008228622930204745
2.55650e-06;-0.00819860486318025
2.55675e-06;-0.008168586796155702
2.55700e-06;-0.008138568729131157
2.55725e-06;-0.00811712897384165
2.55750e-06;-0.008096949463516395
2.55775e-06;-0.00807676995319114
2.55800e-06;-0.008056590442865885
2.55825e-06;-0.008036410932540665
2.55850e-06;-0.008016231422215409
2.55875e-06;-0.00800376410989944
2.55900e-06;-0.007995713291903185
2.55925e-06;-0.007987662473906915
2.55950e-06;-0.007979611655910646
2.55975e-06;-0.007971560837914378
2.56000e-06;-0.007963510019918123
2.56025e-06;-0.007955459201921854
2.56050e-06;-0.007947408383925585
2.56075e-06;-0.007939357565929329
2.56100e-06;-0.00793130674793306
2.56125e-06;-0.007929425470784294
2.56150e-06;-0.00793107726450263
2.56175e-06;-0.00793272905822097
2.56200e-06;-0.007934380851939309
2.56225e-06;-0.007936032645657648
2.56250e-06;-0.007937684439375984
2.56275e-06;-0.007939336233094323
2.56300e-06;-0.007940988026812663
2.56325e-06;-0.007942639820530999
2.56350e-06;-0.007944291614249338
2.56375e-06;-0.007948032314619132
2.56400e-06;-0.007952969255587168
2.56425e-06;-0.007957906196555196
2.56450e-06;-0.007962843137523233
2.56475e-06;-0.00796778007849127
2.56500e-06;-0.007972717019459298
2.56525e-06;-0.007977267849655452
2.56550e-06;-0.007981597568304839
2.56575e-06;-0.007985927286954218
2.56600e-06;-0.007990257005603605
2.56625e-06;-0.007994586724252992
2.56650e-06;-0.00799891644290238
2.56675e-06;-0.008003745447260185
2.56700e-06;-0.008008860374320258
2.56725e-06;-0.008013975301380333
2.56750e-06;-0.0080190902284404
2.56775e-06;-0.008024205155500473
2.56800e-06;-0.008029320082560548
2.56825e-06;-0.008034435009620622
2.56850e-06;-0.008039549936680688
2.56875e-06;-0.008044664863740761
2.56900e-06;-0.008053232415957968
2.56925e-06;-0.008063777160588604
2.56950e-06;-0.00807432190521926
2.56975e-06;-0.008084866649849913
2.57000e-06;-0.008095411394480551
2.57025e-06;-0.008105956139111204
2.57050e-06;-0.00811650088374186
2.57075e-06;-0.008127045628372515
2.57100e-06;-0.008137590373003151
2.57125e-06;-0.008151299015103966
2.57150e-06;-0.008166819505809933
2.57175e-06;-0.008182339996515872
2.57200e-06;-0.008197860487221839
2.57225e-06;-0.008213380977927806
2.57250e-06;-0.008228901468633773
2.57275e-06;-0.008244421959339714
2.57300e-06;-0.00825994245004568
2.57325e-06;-0.008275462940751648
2.57350e-06;-0.008290983431457588
2.57375e-06;-0.008306503922163555
2.57400e-06;-0.008321058812924694
2.57425e-06;-0.008335060739839882
2.57450e-06;-0.008349062666755095
2.57475e-06;-0.008363064593670306
2.57500e-06;-0.008377066520585518
2.57525e-06;-0.008391068447500706
2.57550e-06;-0.008405070374415919
2.57575e-06;-0.00841907230133113
2.57600e-06;-0.00843307422824632
2.57625e-06;-0.00844707615516153
2.57650e-06;-0.008461078082076743
2.57675e-06;-0.008472898154732157
2.57700e-06;-0.008483468759086283
2.57725e-06;-0.008494039363440425
2.57750e-06;-0.008504609967794568
2.57775e-06;-0.008515180572148694
2.57800e-06;-0.008525751176502838
2.57825e-06;-0.008536321780856981
2.57850e-06;-0.008546892385211106
2.57875e-06;-0.00855746298956525
2.57900e-06;-0.008568033593919392
2.57925e-06;-0.008581019937033776
2.57950e-06;-0.008595389685566524
2.57975e-06;-0.008609759434099295
2.58000e-06;-0.008624129182632067
2.58025e-06;-0.008638498931164815
2.58050e-06;-0.008652868679697587
2.58075e-06;-0.00866723842823036
2.58100e-06;-0.00868160817676313
2.58125e-06;-0.008695977925295879
2.58150e-06;-0.008710347673828651
2.58175e-06;-0.008726719855465321
2.58200e-06;-0.00874423875745581
2.58225e-06;-0.00876175765944633
2.58250e-06;-0.00877927656143685
2.58275e-06;-0.00879679546342734
2.58300e-06;-0.00881431436541786
2.58325e-06;-0.00883183326740838
2.58350e-06;-0.008849352169398899
2.58375e-06;-0.008866871071389388
2.58400e-06;-0.008883207492691239
2.58425e-06;-0.008898866750460824
2.58450e-06;-0.008914526008230382
2.58475e-06;-0.008930185265999967
2.58500e-06;-0.008945844523769552
2.58525e-06;-0.008961503781539136
2.58550e-06;-0.008977163039308693
2.58575e-06;-0.008992822297078278
2.58600e-06;-0.009008481554847863
2.58625e-06;-0.009021159508431652
2.58650e-06;-0.009032130177919763
2.58675e-06;-0.009043100847407875
2.58700e-06;-0.009050120000826941
2.58725e-06;-0.009054876265215507
2.58750e-06;-0.009059632529604074
2.58775e-06;-0.00905614859063819
2.58800e-06;-0.009047945787961783
2.58825e-06;-0.00903974298528536
2.58850e-06;-0.009031540182608938
2.58875e-06;-0.00902333737993253
2.58900e-06;-0.009015134577256109
2.58925e-06;-0.00900445838246804
2.58950e-06;-0.008978050659224609
2.58975e-06;-0.008951642935981224
2.59000e-06;-0.008925235212737793
2.59025e-06;-0.008898827489494363
2.59050e-06;-0.008872419766250977
2.59075e-06;-0.008846012043007547
2.59100e-06;-0.008810326751195929
2.59125e-06;-0.008769328534477563
2.59150e-06;-0.008728330317759127
2.59175e-06;-0.008687332101040692
2.59200e-06;-0.008646333884322257
2.59225e-06;-0.008605335667603891
2.59250e-06;-0.008559378217285607
2.59275e-06;-0.008510580794886483
2.59300e-06;-0.008461783372487442
2.59325e-06;-0.00841298595008832
2.59350e-06;-0.008364188527689196
2.59375e-06;-0.008315391105290072
2.59400e-06;-0.008265812775828942
2.59425e-06;-0.008215787249394759
2.59450e-06;-0.008166526245976621
2.59475e-06;-0.008117703056986348
2.59500e-06;-0.008070236289350175
2.59525e-06;-0.008023546294716978
2.59550e-06;-0.007979547626394395
2.59575e-06;-0.007937090182421965
2.59600e-06;-0.007894632738449538
2.59625e-06;-0.007856814150887377
2.59650e-06;-0.00782165206708283
2.59675e-06;-0.0077864899832782225
2.59700e-06;-0.007753709014599093
2.59725e-06;-0.007722291623646638
2.59750e-06;-0.007690874232694131
2.59775e-06;-0.007660290203564649
2.59800e-06;-0.007630183410335248
2.59825e-06;-0.007600076617105899
2.59850e-06;-0.0075699698238764985
2.59875e-06;-0.007539863030647098
2.59900e-06;-0.007509756237417749
2.59925e-06;-0.007479609858779651
2.59950e-06;-0.0074492117048648
2.59975e-06;-0.00741881355095
2.60000e-06;-0.007388415397035149
2.60025e-06;-0.007358017243120298
2.60050e-06;-0.0073276190892054465
2.60075e-06;-0.007297220935290647
2.60100e-06;-0.007265875824512496
2.60125e-06;-0.007233988426100666
2.60150e-06;-0.00720210102768889
2.60175e-06;-0.00717021362927706
2.60200e-06;-0.007138326230865229
2.60225e-06;-0.007106438832453399
2.60250e-06;-0.007074493102889742
2.60275e-06;-0.0070425139692043125
2.60300e-06;-0.007010534835518882
2.60325e-06;-0.006978555701833506
2.60350e-06;-0.006946576568148077
2.60375e-06;-0.006914597434462647
2.60400e-06;-0.006883535412559464
2.60425e-06;-0.0068529985871012555
2.60450e-06;-0.0068224617616430465
2.60475e-06;-0.006793229935322177
2.60500e-06;-0.006764745434377611
2.60525e-06;-0.0067373246626874685
2.60550e-06;-0.006710513049917507
2.60575e-06;-0.006690427945663672
2.60600e-06;-0.006674194867333722
2.60625e-06;-0.006657961789003771
2.60650e-06;-0.0066417287106738205
2.60675e-06;-0.006625495632343897
2.60700e-06;-0.006609262554013947
2.60725e-06;-0.006593029475683997
2.60750e-06;-0.0065767963973540735
2.60775e-06;-0.006560563319024123
2.60800e-06;-0.006544330240694172
2.60825e-06;-0.00652809716236425
2.60850e-06;-0.006511864084034299
2.60875e-06;-0.006495631005704348
2.60900e-06;-0.006479397927374398
2.60925e-06;-0.006463164849044475
2.60950e-06;-0.006446931770714525
2.60975e-06;-0.006430698692384574
2.61000e-06;-0.006414465614054651
2.61025e-06;-0.0063995436824639245
2.61050e-06;-0.006392961044164782
2.61075e-06;-0.0063863784058656396
2.61100e-06;-0.006379795767566508
2.61125e-06;-0.006373213129267365
2.61150e-06;-0.0063666304909682225
2.61175e-06;-0.006360047852669091
2.61200e-06;-0.006353465214369948
2.61225e-06;-0.0063468825760708055
2.61250e-06;-0.006340299937771674
2.61275e-06;-0.006333717299472532
2.61300e-06;-0.0063271346611733885
2.61325e-06;-0.006320552022874246
2.61350e-06;-0.006313969384575115
2.61375e-06;-0.0063073867462759715
2.61400e-06;-0.006300804107976829
2.61425e-06;-0.006294221469677698
2.61450e-06;-0.006287638831378555
2.61475e-06;-0.006281056193079412
2.61500e-06;-0.0062762547461446445
2.61525e-06;-0.006272473322494647
2.61550e-06;-0.006268691898844642
2.61575e-06;-0.006264910475194637
2.61600e-06;-0.006261129051544639
2.61625e-06;-0.006257347627894635
2.61650e-06;-0.00625356620424463
2.61675e-06;-0.006249784780594632
2.61700e-06;-0.006246003356944627
2.61725e-06;-0.006242221933294622
2.61750e-06;-0.006238440509644618
2.61775e-06;-0.006234096770460361
2.61800e-06;-0.006229431013692915
2.61825e-06;-0.006224765256925469
2.61850e-06;-0.00622009950015803
2.61875e-06;-0.006215433743390584
2.61900e-06;-0.006210767986623137
2.61925e-06;-0.006206102229855699
2.61950e-06;-0.006201436473088253
2.61975e-06;-0.006196770716320806
2.62000e-06;-0.00619210495955336
2.62025e-06;-0.006187439202785922
2.62050e-06;-0.006181597634994529
2.62075e-06;-0.006175082723144236
2.62100e-06;-0.006168567811293953
2.62125e-06;-0.00616205289944366
2.62150e-06;-0.0061555379875933664
2.62175e-06;-0.006149023075743072
2.62200e-06;-0.0061425081638927905
2.62225e-06;-0.006135993252042496
2.62250e-06;-0.006129478340192203
2.62275e-06;-0.006122592385628512
2.62300e-06;-0.006115493948445079
2.62325e-06;-0.006108395511261647
2.62350e-06;-0.006101297074078226
2.62375e-06;-0.0060941986368947924
2.62400e-06;-0.006087100199711359
2.62425e-06;-0.006080001762527926
2.62450e-06;-0.006072903325344505
2.62475e-06;-0.006065804888161072
2.62500e-06;-0.006059073150931853
2.62525e-06;-0.00605255140938269
2.62550e-06;-0.0060460296678335156
2.62575e-06;-0.006039765629562769
2.62600e-06;-0.006033817351773606
2.62625e-06;-0.006028157553470274
2.62650e-06;-0.006022828098578065
2.62675e-06;-0.006018271475677031
2.62700e-06;-0.006015777968497435
2.62725e-06;-0.006016785786412193
2.62750e-06;-0.006021913751395371
2.62775e-06;-0.006031111359286145
2.62800e-06;-0.006044174058246275
2.62825e-06;-0.0060619731226468744
2.62850e-06;-0.006081694110995001
2.62875e-06;-0.006106157836526788
2.62900e-06;-0.006133337554544366
2.62925e-06;-0.00616810466506513
2.62950e-06;-0.006207216798349474
2.62975e-06;-0.006246328931633884
2.63000e-06;-0.006295688081589635
2.63025e-06;-0.006350915323999818
2.63050e-06;-0.006406142566409908
2.63075e-06;-0.0064613698088200906
2.63100e-06;-0.006516597051230273
2.63125e-06;-0.006582441866109627
2.63150e-06;-0.006654366977224606
2.63175e-06;-0.006726292088339585
2.63200e-06;-0.006798217199454441
2.63225e-06;-0.00687014231056942
2.63250e-06;-0.00694735354661196
2.63275e-06;-0.007027591953468815
2.63300e-06;-0.007107830360325534
2.63325e-06;-0.007190072160956976
2.63350e-06;-0.007273461232083754
2.63375e-06;-0.007356850303210392
2.63400e-06;-0.007439783285922926
2.63425e-06;-0.007522455083446822
2.63450e-06;-0.007605126880970718
2.63475e-06;-0.007685424324255726
2.63500e-06;-0.007764362061526916
2.63525e-06;-0.007840382204864054
2.63550e-06;-0.00791473154864063
2.63575e-06;-0.007983570523197002
2.63600e-06;-0.008049253910416908
2.63625e-06;-0.008114937297636703
2.63650e-06;-0.008171711316975904
2.63675e-06;-0.008223383266501579
2.63700e-06;-0.008275055216027253
2.63725e-06;-0.008312975028978575
2.63750e-06;-0.008343019495235684
2.63775e-06;-0.008373063961492793
2.63800e-06;-0.008403108427749854
2.63825e-06;-0.008433152894006963
2.63850e-06;-0.008463197360264072
2.63875e-06;-0.008493241826521183
2.63900e-06;-0.008504673283280485
2.63925e-06;-0.008505445748833088
2.63950e-06;-0.008506218214385691
2.63975e-06;-0.008506990679938292
2.64000e-06;-0.008507763145490895
2.64025e-06;-0.008508535611043496
2.64050e-06;-0.008509308076596098
2.64075e-06;-0.008495749046357033
2.64100e-06;-0.008473982891545098
2.64125e-06;-0.008452216736733163
2.64150e-06;-0.008430450581921264
2.64175e-06;-0.008408684427109328
2.64200e-06;-0.008386918272297393
2.64225e-06;-0.00836339246966326
2.64250e-06;-0.008328674770007136
2.64275e-06;-0.00829395707035101
2.64300e-06;-0.008259239370694888
2.64325e-06;-0.008224521671038822
2.64350e-06;-0.008189803971382697
2.64375e-06;-0.008155086271726572
2.64400e-06;-0.008118142816877762
2.64425e-06;-0.008079924753264982
2.64450e-06;-0.008041706689652204
2.64475e-06;-0.008003742874850367
2.64500e-06;-0.007965924659062956
2.64525e-06;-0.00792929142434053
2.64550e-06;-0.007893336785024924
2.64575e-06;-0.00786425130506133
2.64600e-06;-0.007839099541949977
2.64625e-06;-0.007813947778838624
2.64650e-06;-0.007788796015727313
2.64675e-06;-0.00776364425261596
2.64700e-06;-0.0077384924895046074
