Time(s);Current(A)
1.05000e-05;0.005964542205817647
1.05002e-05;0.005951216156182453
1.05005e-05;0.005937890106547168
1.05008e-05;0.005924564056911883
1.05010e-05;0.005911238007276689
1.05013e-05;0.005897911957641404
1.05015e-05;0.005884671928889152
1.05017e-05;0.005872255266731087
1.05020e-05;0.005859838604572936
1.05023e-05;0.005847421942414785
1.05025e-05;0.00583500528025672
1.05028e-05;0.005822588618098569
1.05030e-05;0.005810171955940418
1.05033e-05;0.005797755293782268
1.05035e-05;0.005785338631624202
1.05038e-05;0.005772921969466051
1.05040e-05;0.0057605053073079004
1.05043e-05;0.005748088645149835
1.05045e-05;0.005735671982991684
1.05048e-05;0.005723255320833533
1.05050e-05;0.005710838658675468
1.05053e-05;0.005698421996517317
1.05055e-05;0.005686005334359166
1.05058e-05;0.005673588672201101
1.05060e-05;0.00566117201004295
1.05063e-05;0.005649959092633886
1.05065e-05;0.005650268065953487
1.05068e-05;0.00565057703927309
1.05070e-05;0.005650886012592693
1.05073e-05;0.0056511949859122945
1.05075e-05;0.0056515039592318975
1.05078e-05;0.0056518129325515
1.05080e-05;0.005652121905871101
1.05083e-05;0.005652430879190704
1.05085e-05;0.005652739852510307
1.05087e-05;0.005653048825829908
1.05090e-05;0.005653357799149511
1.05093e-05;0.005653666772469114
1.05095e-05;0.005653975745788715
1.05098e-05;0.005654284719108318
1.05100e-05;0.005654593692427921
1.05102e-05;0.005654902665747522
1.05105e-05;0.005661066394972442
1.05108e-05;0.005671222044320189
1.05110e-05;0.0056813776936678675
1.05113e-05;0.0056915333430156145
1.05115e-05;0.0057016889923633615
1.05118e-05;0.0057118446417111085
1.05120e-05;0.005722000291058787
1.05123e-05;0.005732155940406534
1.05125e-05;0.005742311589754281
1.05128e-05;0.005752467239101959
1.05130e-05;0.005762622888449706
1.05133e-05;0.005772778537797453
1.05135e-05;0.005782934187145132
1.05138e-05;0.005793089836492879
1.05140e-05;0.005803245485840627
1.05143e-05;0.005813401135188304
1.05145e-05;0.005823059022912271
1.05148e-05;0.005827952482757609
1.05150e-05;0.005832845942602915
1.05153e-05;0.005837739402448253
1.05155e-05;0.005842632862293592
1.05158e-05;0.005847526322138897
1.05160e-05;0.005852419781984235
1.05163e-05;0.005857313241829574
1.05165e-05;0.005862206701674879
1.05168e-05;0.005867100161520217
1.05170e-05;0.005871993621365556
1.05172e-05;0.005876887081210861
1.05175e-05;0.0058817805410561995
1.05178e-05;0.005886674000901538
1.05180e-05;0.005891567460746843
1.05183e-05;0.0058964609205921815
1.05185e-05;0.00590135438043752
1.05187e-05;0.005906247840282826
1.05190e-05;0.005911141300128164
1.05193e-05;0.005916034759973502
1.05195e-05;0.005920928219818808
1.05198e-05;0.005925821679664146
1.05200e-05;0.005930715139509484
1.05203e-05;0.005935608599354823
1.05205e-05;0.00594006644397007
1.05208e-05;0.0059403547077094675
1.05210e-05;0.005940642971448865
1.05213e-05;0.00594093123518826
1.05215e-05;0.005941219498927657
1.05218e-05;0.005941507762667055
1.05220e-05;0.00594179602640645
1.05223e-05;0.005942084290145848
1.05225e-05;0.005942372553885245
1.05228e-05;0.0059426608176246405
1.05230e-05;0.005942949081364038
1.05233e-05;0.005943237345103435
1.05235e-05;0.005943525608842831
1.05238e-05;0.005943813872582228
1.05240e-05;0.005944102136321626
1.05243e-05;0.005944390400061021
1.05245e-05;0.005944678663800418
1.05248e-05;0.005944966927539815
1.05250e-05;0.005945255191279211
1.05253e-05;0.005945543455018608
1.05255e-05;0.005945831718758006
1.05257e-05;0.005946119982497401
1.05260e-05;0.0059464082462367986
1.05263e-05;0.005946696509976196
1.05265e-05;0.005947907950947437
1.05268e-05;0.005957955772896367
1.05270e-05;0.0059680035948452975
1.05272e-05;0.005978051416794159
1.05275e-05;0.00598809923874309
1.05278e-05;0.00599814706069202
1.05280e-05;0.006008194882640882
1.05283e-05;0.006018242704589812
1.05285e-05;0.006028290526538742
1.05288e-05;0.006038338348487673
1.05290e-05;0.006048386170436535
1.05293e-05;0.006058433992385465
1.05295e-05;0.006068481814334395
1.05298e-05;0.006078529636283257
1.05300e-05;0.006088577458232187
1.05303e-05;0.006099687932471298
1.05305e-05;0.006120969801932293
1.05308e-05;0.006142251671393432
1.05310e-05;0.006163533540854571
1.05313e-05;0.006184815410315566
1.05315e-05;0.006206097279776705
1.05318e-05;0.006227379149237844
1.05320e-05;0.0062486610186988385
1.05323e-05;0.0062699428881599776
1.05325e-05;0.006291224757621117
1.05328e-05;0.006312506627082112
1.05330e-05;0.006333788496543251
1.05333e-05;0.00635507036600439
1.05335e-05;0.006376352235465384
1.05338e-05;0.006397634104926523
1.05340e-05;0.006418016475689897
1.05342e-05;0.006429789109434941
1.05345e-05;0.006441561743180065
1.05348e-05;0.00645333437692519
1.05350e-05;0.006465107010670234
1.05353e-05;0.006476879644415358
1.05355e-05;0.006488652278160483
1.05357e-05;0.006500424911905527
1.05360e-05;0.006512197545650651
1.05363e-05;0.006523970179395776
1.05365e-05;0.00653574281314082
1.05368e-05;0.006547515446885944
1.05370e-05;0.006559288080631069
1.05373e-05;0.006571060714376193
1.05375e-05;0.006582833348121237
1.05378e-05;0.006594605981866361
1.05380e-05;0.006606378615611485
1.05383e-05;0.006618151249356529
1.05385e-05;0.006629923883101654
1.05388e-05;0.006641696516846778
1.05390e-05;0.006645024043091791
1.05393e-05;0.0066425934822125715
1.05395e-05;0.006640162921333351
1.05398e-05;0.006637732360454148
1.05400e-05;0.006635301799574928
1.05403e-05;0.0066328712386957075
1.05405e-05;0.006630440677816505
1.05408e-05;0.006628010116937285
1.05410e-05;0.0066255795560580645
1.05413e-05;0.006623148995178861
1.05415e-05;0.006620718434299641
1.05418e-05;0.006618287873420421
1.05420e-05;0.006615857312541218
1.05423e-05;0.006613426751661998
1.05425e-05;0.006610996190782778
1.05427e-05;0.006608565629903574
1.05430e-05;0.006606135069024354
1.05433e-05;0.006603704508145134
1.05435e-05;0.006601273947265931
1.05438e-05;0.0065986230672237575
1.05440e-05;0.00659386335694167
1.05442e-05;0.0065891036466596145
1.05445e-05;0.006584343936377527
1.05448e-05;0.00657958422609544
1.05450e-05;0.006574824515813385
1.05453e-05;0.0065700648055312975
1.05455e-05;0.00656530509524921
1.05458e-05;0.006560545384967123
1.05460e-05;0.006555785674685068
1.05463e-05;0.0065510259644029805
1.05465e-05;0.006546266254120893
1.05468e-05;0.006541506543838838
1.05470e-05;0.006536746833556751
1.05473e-05;0.006531987123274663
1.05475e-05;0.006527227412992609
1.05478e-05;0.006522467702710521
1.05480e-05;0.006517707992428434
1.05483e-05;0.0065129482821463785
1.05485e-05;0.006508188571864292
1.05488e-05;0.006503428861582204
1.05490e-05;0.006498669151300149
1.05493e-05;0.0064939094410180614
1.05495e-05;0.006489149730735975
1.05498e-05;0.006484390020453919
1.05500e-05;0.006479594955577438
1.05503e-05;0.006474461486919706
1.05505e-05;0.006469328018262009
1.05508e-05;0.0064641945496042765
1.05510e-05;0.006459061080946545
1.05512e-05;0.006453927612288847
1.05515e-05;0.0064487941436311156
1.05518e-05;0.006443660674973383
1.05520e-05;0.006438527206315686
1.05523e-05;0.006433393737657955
1.05525e-05;0.006428260269000222
1.05527e-05;0.006423126800342525
1.05530e-05;0.006417993331684793
1.05533e-05;0.006412859863027061
1.05535e-05;0.006407726394369363
1.05538e-05;0.006402592925711632
1.05540e-05;0.006397459457053899
1.05543e-05;0.006392325988396168
1.05545e-05;0.006387192519738471
1.05548e-05;0.006382059051080738
1.05550e-05;0.006376925582423007
1.05553e-05;0.006371792113765309
1.05555e-05;0.0063666586451075775
1.05558e-05;0.006361525176449845
1.05560e-05;0.006356391707792148
1.05563e-05;0.006352183361271677
1.05565e-05;0.006356830011815399
1.05568e-05;0.00636147666235909
1.05570e-05;0.006366123312902813
1.05573e-05;0.006370769963446535
1.05575e-05;0.006375416613990226
1.05578e-05;0.006380063264533949
1.05580e-05;0.006384709915077671
1.05583e-05;0.006389356565621362
1.05585e-05;0.006394003216165085
1.05588e-05;0.006398649866708807
1.05590e-05;0.006403296517252498
1.05593e-05;0.006407943167796221
1.05595e-05;0.0064125898183399425
1.05597e-05;0.006417236468883634
1.05600e-05;0.006421883119427356
1.05603e-05;0.0064265297699710785
1.05605e-05;0.006436766967178343
1.05608e-05;0.006450815939994532
1.05610e-05;0.006464864912810723
1.05612e-05;0.006478913885626817
1.05615e-05;0.006492962858443007
1.05618e-05;0.006507011831259197
1.05620e-05;0.006521060804075291
1.05623e-05;0.006535109776891482
1.05625e-05;0.006549158749707671
1.05628e-05;0.006563207722523861
1.05630e-05;0.006577256695339956
1.05633e-05;0.006591305668156145
1.05635e-05;0.006605354640972335
1.05638e-05;0.00661940361378843
1.05640e-05;0.00663345258660462
1.05643e-05;0.006647501559420809
1.05645e-05;0.006660864306614672
1.05648e-05;0.006667658703934747
1.05650e-05;0.006674453101254822
1.05653e-05;0.006681247498574851
1.05655e-05;0.0066880418958949256
1.05658e-05;0.006694836293215001
1.05660e-05;0.006701630690535029
1.05663e-05;0.006708425087855105
1.05665e-05;0.006715219485175179
1.05668e-05;0.006722013882495209
1.05670e-05;0.006728808279815283
1.05673e-05;0.006720398143247752
1.05675e-05;0.00670162117228801
1.05678e-05;0.00668284420132814
1.05680e-05;0.006664067230368271
1.05682e-05;0.006645290259408529
1.05685e-05;0.00662651328844866
1.05688e-05;0.006607736317488791
1.05690e-05;0.006588959346529049
1.05693e-05;0.006570182375569179
1.05695e-05;0.00655140540460931
1.05697e-05;0.006530380084764325
1.05700e-05;0.0064878342305032775
1.05703e-05;0.0064452883762422305
1.05705e-05;0.006402742521981471
1.05708e-05;0.006360196667720425
1.05710e-05;0.006317650813459378
1.05713e-05;0.006275104959198331
1.05715e-05;0.006232559104937572
1.05718e-05;0.006190013250676525
1.05720e-05;0.006147467396415479
1.05723e-05;0.006101041337310374
1.05725e-05;0.006051969656752018
1.05728e-05;0.006002897976193663
1.05730e-05;0.00595382629563564
1.05733e-05;0.005904754615077285
1.05735e-05;0.00585568293451893
1.05738e-05;0.005806611253960907
1.05740e-05;0.005757539573402552
1.05743e-05;0.005708467892844196
1.05745e-05;0.0056612179866247616
1.05748e-05;0.0056314055687003255
1.05750e-05;0.0056015931507758885
1.05753e-05;0.0055717807328516545
1.05755e-05;0.0055419683149272175
1.05758e-05;0.005512155897002781
1.05760e-05;0.0054823434790785466
1.05763e-05;0.0054525310611541105
1.05765e-05;0.005422718643229674
1.05767e-05;0.0053929062253054395
1.05770e-05;0.005363093807381003
1.05773e-05;0.0053332813894565664
1.05775e-05;0.005303468971532332
1.05778e-05;0.005292153811337244
1.05780e-05;0.005293450547637237
1.05782e-05;0.005294747283937221
1.05785e-05;0.005296044020237214
1.05788e-05;0.005297340756537207
1.05790e-05;0.005298637492837191
1.05793e-05;0.005299934229137184
1.05795e-05;0.005301230965437178
1.05798e-05;0.0053025277017371706
1.05800e-05;0.005303824438037155
1.05803e-05;0.0053051211743371475
1.05805e-05;0.005306417910637141
1.05808e-05;0.005309442605737937
1.05810e-05;0.005329006814397196
1.05813e-05;0.005348571023056455
1.05815e-05;0.005368135231715581
1.05818e-05;0.00538769944037484
1.05820e-05;0.005407263649034099
1.05823e-05;0.005426827857693225
1.05825e-05;0.005446392066352484
1.05828e-05;0.005465956275011742
1.05830e-05;0.005485520483670869
1.05833e-05;0.005505084692330127
1.05835e-05;0.00552456507786447
1.05838e-05;0.005543243133093855
1.05840e-05;0.005561921188323367
1.05843e-05;0.00558059924355288
1.05845e-05;0.005599277298782265
1.05848e-05;0.005617955354011777
1.05850e-05;0.0056366334092412896
1.05853e-05;0.005655311464470675
1.05855e-05;0.005673989519700187
1.05858e-05;0.0056926675749296995
1.05860e-05;0.005711345630159085
1.05863e-05;0.005730001591991351
1.05865e-05;0.005748446082321323
1.05867e-05;0.005766890572651171
1.05870e-05;0.005785335062981144
1.05873e-05;0.005803779553311116
1.05875e-05;0.005822224043640964
1.05878e-05;0.005840668533970936
1.05880e-05;0.005859113024300909
1.05883e-05;0.005877557514630882
1.05885e-05;0.00589600200496073
1.05888e-05;0.005914446495290702
1.05890e-05;0.005932890985620675
1.05893e-05;0.005951335475950522
1.05895e-05;0.0059697799662804946
1.05898e-05;0.005988224456610468
1.05900e-05;0.006010903336204484
1.05903e-05;0.006036469329116826
1.05905e-05;0.0060620353220291676
1.05908e-05;0.006087601314941336
1.05910e-05;0.0061131673078536775
1.05913e-05;0.006138733300766019
1.05915e-05;0.006164299293678188
1.05918e-05;0.00618986528659053
1.05920e-05;0.006215431279502872
1.05923e-05;0.00624099727241504
1.05925e-05;0.006266563265327382
1.05928e-05;0.0062921292582397235
1.05930e-05;0.006317695251151893
1.05933e-05;0.006343261244064234
1.05935e-05;0.006368271872263321
1.05938e-05;0.006387966712717747
1.05940e-05;0.006407661553172308
1.05943e-05;0.006427356393626868
1.05945e-05;0.006447051234081294
1.05948e-05;0.006466746074535855
1.05950e-05;0.006486440914990415
1.05952e-05;0.006506135755444841
1.05955e-05;0.006525830595899402
1.05958e-05;0.006545525436353962
1.05960e-05;0.006565220276808388
1.05963e-05;0.006584915117262949
1.05965e-05;0.006589870798743485
1.05968e-05;0.006584776950167762
1.05970e-05;0.006579683101592074
1.05973e-05;0.006574589253016351
1.05975e-05;0.006569495404440629
1.05978e-05;0.006564401555864941
1.05980e-05;0.006559307707289219
1.05983e-05;0.006554213858713497
1.05985e-05;0.006549120010137808
1.05988e-05;0.006544026161562086
1.05990e-05;0.006538932312986364
1.05993e-05;0.006531317000059497
1.05995e-05;0.0064995669717274225
1.05998e-05;0.006467816943395348
1.06000e-05;0.006436066915063488
1.06003e-05;0.006404316886731414
1.06005e-05;0.00637256685839934
1.06008e-05;0.006340816830067481
1.06010e-05;0.006309066801735406
1.06013e-05;0.006277316773403332
1.06015e-05;0.0062455667450714725
1.06018e-05;0.0062138167167393975
1.06020e-05;0.006176523105618544
1.06023e-05;0.006135449740038354
1.06025e-05;0.006094376374457886
1.06028e-05;0.006053303008877418
1.06030e-05;0.006012229643297229
1.06033e-05;0.005971156277716761
1.06035e-05;0.005930082912136292
1.06037e-05;0.005889009546556103
1.06040e-05;0.005847936180975635
1.06043e-05;0.0058068628153951675
1.06045e-05;0.005767025951710803
1.06048e-05;0.005739024520621622
1.06050e-05;0.0057110230895324405
1.06053e-05;0.00568302165844326
1.06055e-05;0.005655020227354268
1.06058e-05;0.005627018796265087
1.06060e-05;0.0055990173651759055
1.06063e-05;0.005571015934086914
1.06065e-05;0.0055430145029977335
1.06068e-05;0.005515013071908552
1.06070e-05;0.005487011640819561
1.06073e-05;0.005459010209730379
1.06075e-05;0.005431008778641199
1.06078e-05;0.005403927833142076
1.06080e-05;0.00538565750507426
1.06083e-05;0.005367387177006444
1.06085e-05;0.005349116848938751
1.06088e-05;0.005330846520870935
1.06090e-05;0.005312576192803118
1.06093e-05;0.0052943058647354265
1.06095e-05;0.00527603553666761
1.06098e-05;0.005257765208599794
1.06100e-05;0.005239494880532101
1.06103e-05;0.005221224552464285
1.06105e-05;0.005202954224396469
1.06108e-05;0.005184683896328777
1.06110e-05;0.005166716005457334
1.06113e-05;0.005151642954510032
1.06115e-05;0.005136569903562833
1.06118e-05;0.005121496852615531
1.06120e-05;0.005106423801668229
1.06122e-05;0.005091350750721029
1.06125e-05;0.005076277699773727
1.06128e-05;0.0050612046488264254
1.06130e-05;0.005046131597879226
1.06133e-05;0.005031058546931924
1.06135e-05;0.005015985495984622
1.06138e-05;0.00500091244503732
1.06140e-05;0.0049894800096693045
1.06143e-05;0.004980529837758102
1.06145e-05;0.004971579665846898
1.06148e-05;0.004962629493935756
1.06150e-05;0.004953679322024552
1.06153e-05;0.004944729150113348
1.06155e-05;0.004935778978202206
1.06158e-05;0.004926828806291002
1.06160e-05;0.004917878634379798
1.06163e-05;0.004908928462468656
1.06165e-05;0.004899978290557452
1.06168e-05;0.004893153106706362
1.06170e-05;0.004906667683806953
1.06173e-05;0.004920182260907635
1.06175e-05;0.004933696838008317
1.06178e-05;0.004947211415108907
1.06180e-05;0.00496072599220959
1.06183e-05;0.004974240569310271
1.06185e-05;0.004987755146410862
1.06188e-05;0.005001269723511543
1.06190e-05;0.005014784300612226
1.06193e-05;0.005028298877712816
1.06195e-05;0.005041813454813498
1.06198e-05;0.005057502521816605
1.06200e-05;0.00509400516685693
1.06203e-05;0.005130507811897502
1.06205e-05;0.005167010456938075
1.06207e-05;0.0052035131019784
1.06210e-05;0.005240015747018972
1.06213e-05;0.0052765183920595446
1.06215e-05;0.005313021037099869
1.06218e-05;0.0053495236821404415
1.06220e-05;0.005386026327181014
1.06222e-05;0.005422528972221339
1.06225e-05;0.005459031617261912
1.06228e-05;0.0054957342690644525
1.06230e-05;0.00553435132679024
1.06233e-05;0.005572968384515766
1.06235e-05;0.005611585442241553
1.06238e-05;0.00565020249996734
1.06240e-05;0.005688819557692865
1.06243e-05;0.0057274366154186525
1.06245e-05;0.00576605367314444
1.06248e-05;0.005804670730869965
1.06250e-05;0.005843287788595752
1.06253e-05;0.00588033768424991
1.06255e-05;0.005902387165298941
1.06258e-05;0.00592443664634812
1.06260e-05;0.0059464861273973
1.06263e-05;0.005968535608446331
1.06265e-05;0.005990585089495511
1.06268e-05;0.006012634570544691
1.06270e-05;0.006034684051593722
1.06273e-05;0.006056733532642902
1.06275e-05;0.006078783013692081
1.06278e-05;0.006099013751353702
1.06280e-05;0.006101836012015076
1.06283e-05;0.006104658272676451
1.06285e-05;0.0061074805333378055
1.06288e-05;0.00611030279399918
1.06290e-05;0.006113125054660554
1.06292e-05;0.00611594731532191
1.06295e-05;0.006118769575983284
1.06298e-05;0.006121591836644659
1.06300e-05;0.006124414097306014
1.06303e-05;0.006127236357967389
1.06305e-05;0.0061300586186287635
1.06307e-05;0.006132880879290118
1.06310e-05;0.006135703139951493
1.06313e-05;0.006138525400612867
1.06315e-05;0.006135122095301643
1.06318e-05;0.0061274740422043745
1.06320e-05;0.006119825989107053
1.06323e-05;0.006112177936009732
1.06325e-05;0.006104529882912463
1.06328e-05;0.006096881829815142
1.06330e-05;0.0060892337767178215
1.06333e-05;0.006081585723620552
1.06335e-05;0.006073937670523231
1.06338e-05;0.00606628961742591
1.06340e-05;0.006058641564328641
1.06343e-05;0.00605099351123132
1.06345e-05;0.006043345458133999
1.06348e-05;0.0060356974050367294
1.06350e-05;0.006028128315645045
1.06353e-05;0.006021315043628967
1.06355e-05;0.006014501771612936
1.06358e-05;0.006007688499596858
1.06360e-05;0.006000875227580781
1.06363e-05;0.00599406195556475
1.06365e-05;0.005987248683548672
1.06368e-05;0.0059804354115325946
1.06370e-05;0.005973622139516563
1.06373e-05;0.005966808867500486
1.06375e-05;0.005959995595484408
1.06377e-05;0.005953182323468377
1.06380e-05;0.005946369051452299
1.06383e-05;0.005939555779436222
1.06385e-05;0.0059327425074201905
1.06388e-05;0.005925929235404113
1.06390e-05;0.005919115963388035
1.06392e-05;0.005912302691372004
1.06395e-05;0.005905489419355927
1.06398e-05;0.005898676147339849
1.06400e-05;0.005891862875323771
1.06403e-05;0.00588504960330774
1.06405e-05;0.005878236331291663
1.06408e-05;0.005871423059275585
1.06410e-05;0.005864609787259554
1.06413e-05;0.0058577965152434765
1.06415e-05;0.005850983243227399
1.06418e-05;0.005844169971211368
1.06420e-05;0.00583735669919529
1.06423e-05;0.005830543427179213
1.06425e-05;0.005823730155163181
1.06428e-05;0.005816916883147104
1.06430e-05;0.0058101036111310265
1.06433e-05;0.005803290339114995
1.06435e-05;0.005796477067098917
1.06438e-05;0.00578966379508284
1.06440e-05;0.005782850523066809
1.06443e-05;0.005776037251050731
1.06445e-05;0.005769223979034653
1.06448e-05;0.005762410707018622
1.06450e-05;0.005755597435002545
1.06453e-05;0.005748983533381486
1.06455e-05;0.005744277946570126
1.06458e-05;0.005739572359758735
1.06460e-05;0.005734866772947343
1.06462e-05;0.005730161186135984
1.06465e-05;0.0057254555993245925
1.06468e-05;0.0057207500125132016
1.06470e-05;0.005716044425701842
1.06473e-05;0.005711338838890451
1.06475e-05;0.00570663325207906
1.06477e-05;0.0057019276652677
1.06480e-05;0.005697222078456308
1.06483e-05;0.005692516491644917
1.06485e-05;0.005687810904833526
1.06488e-05;0.005683105318022167
1.06490e-05;0.005678399731210776
1.06493e-05;0.005673694144399384
1.06495e-05;0.005668988557588024
1.06498e-05;0.005664282970776633
1.06500e-05;0.005659577383965242
1.06503e-05;0.0056548717971538825
1.06505e-05;0.0056501662103424916
1.06508e-05;0.0056454606235311
1.06510e-05;0.005640755036719741
