Time(s);Current(A)
9.50000e-06;0.006450183924869104
9.50025e-06;0.006428469972734342
9.50050e-06;0.006406756020599726
9.50075e-06;0.006385042068464964
9.50100e-06;0.006363328116330201
9.50125e-06;0.006341614164195586
9.50150e-06;0.006319900212060824
9.50175e-06;0.0062981862599260615
9.50200e-06;0.006276472307791446
9.50225e-06;0.006254758355656683
9.50250e-06;0.006233044403521921
9.50275e-06;0.006211522520219698
9.50300e-06;0.006197852443293149
9.50325e-06;0.006184182366366599
9.50350e-06;0.0061705122894400504
9.50375e-06;0.006156842212513594
9.50400e-06;0.006143172135587044
9.50425e-06;0.006129502058660495
9.50450e-06;0.006115831981734038
9.50475e-06;0.006102161904807489
9.50500e-06;0.00608849182788094
9.50525e-06;0.006074821750954483
9.50550e-06;0.006061151674027934
9.50575e-06;0.006047481597101384
9.50600e-06;0.0060338115201749275
9.50625e-06;0.006020141443248379
9.50650e-06;0.0060064550756552555
9.50675e-06;0.005992102742854726
9.50700e-06;0.0059777504100541
9.50725e-06;0.005963398077253473
9.50750e-06;0.005949045744452943
9.50775e-06;0.005934693411652316
9.50800e-06;0.00592034107885169
9.50825e-06;0.00590598874605116
9.50850e-06;0.005891636413250533
9.50875e-06;0.005877284080449906
9.50900e-06;0.005862931747649377
9.50925e-06;0.00584857941484875
9.50950e-06;0.0058342270820481235
9.50975e-06;0.005819874749247594
9.51000e-06;0.005805522416446968
9.51025e-06;0.0057910892344013075
9.51050e-06;0.0057733509215264584
9.51075e-06;0.005755612608651489
9.51100e-06;0.005737874295776519
9.51125e-06;0.005720135982901669
9.51150e-06;0.0057023976700267
9.51175e-06;0.00568465935715173
9.51200e-06;0.00566692104427676
9.51225e-06;0.00564918273140191
9.51250e-06;0.005631444418526941
9.51275e-06;0.005615036478051876
9.51300e-06;0.005599837636753097
9.51325e-06;0.005584638795454216
9.51350e-06;0.005569439954155334
9.51375e-06;0.005554241112856556
9.51400e-06;0.005539042271557675
9.51425e-06;0.0055238434302587935
9.51450e-06;0.005508644588960015
9.51475e-06;0.005493445747661134
9.51500e-06;0.005478642644913975
9.51525e-06;0.0054800174012104436
9.51550e-06;0.005481392157506922
9.51575e-06;0.0054827669138034
9.51600e-06;0.005484141670099869
9.51625e-06;0.005485516426396347
9.51650e-06;0.005486891182692826
9.51675e-06;0.005488265938989294
9.51700e-06;0.005506310678138677
9.51725e-06;0.005539505808665756
9.51750e-06;0.005572700939192611
9.51775e-06;0.00560589606971969
9.51800e-06;0.005639091200246769
9.51825e-06;0.005672286330773624
9.51850e-06;0.0057054814613007035
9.51875e-06;0.005739418575441334
9.51900e-06;0.005803688105425176
9.51925e-06;0.005867957635409454
9.51950e-06;0.005932227165393732
9.51975e-06;0.005996496695377574
9.52000e-06;0.006060766225361852
9.52025e-06;0.006125035755346129
9.52050e-06;0.006189305285330408
9.52075e-06;0.00625357481531425
9.52100e-06;0.006326084587679748
9.52125e-06;0.00640608344376143
9.52150e-06;0.00648608229984257
9.52175e-06;0.006566081155924252
9.52200e-06;0.006646080012005934
9.52225e-06;0.006726078868087074
9.52250e-06;0.006806077724168756
9.52275e-06;0.0068860765802504385
9.52300e-06;0.0069658032889844965
9.52325e-06;0.0070344045680383336
9.52350e-06;0.007103005847092171
9.52375e-06;0.007171607126145543
9.52400e-06;0.00724020840519938
9.52425e-06;0.007308809684253217
9.52450e-06;0.007377410963306589
9.52475e-06;0.007446012242360426
9.52500e-06;0.007513790628532875
9.52525e-06;0.007547929014204767
9.52550e-06;0.007582067399876889
9.52575e-06;0.007616205785549011
9.52600e-06;0.007650344171220902
9.52625e-06;0.007684482556893024
9.52650e-06;0.007718620942565146
9.52675e-06;0.007752759328237037
9.52700e-06;0.007785815473486472
9.52725e-06;0.007774629446740139
9.52750e-06;0.007763443419993882
9.52775e-06;0.007752257393247549
9.52800e-06;0.007741071366501216
9.52825e-06;0.007729885339754959
9.52850e-06;0.007718699313008626
9.52875e-06;0.007707513286262293
9.52900e-06;0.00769632725951596
9.52925e-06;0.007685141232769703
9.52950e-06;0.00767395520602337
9.52975e-06;0.007644413881480863
9.53000e-06;0.007598190479457801
9.53025e-06;0.007551967077434427
9.53050e-06;0.007505743675411051
9.53075e-06;0.007459520273387989
9.53100e-06;0.007413296871364614
9.53125e-06;0.0073670734693412395
9.53150e-06;0.007320850067318177
9.53175e-06;0.007274626665294802
9.53200e-06;0.007228403263271427
9.53225e-06;0.007182039708207206
9.53250e-06;0.007129946673049217
9.53275e-06;0.007077853637891228
9.53300e-06;0.007025760602733591
9.53325e-06;0.006973667567575602
9.53350e-06;0.006921574532417613
9.53375e-06;0.006869481497259977
9.53400e-06;0.006817388462101988
9.53425e-06;0.006765295426943999
9.53450e-06;0.006725138125305722
9.53475e-06;0.006695828527343656
9.53500e-06;0.00666651892938159
9.53525e-06;0.006637209331419722
9.53550e-06;0.006607899733457656
9.53575e-06;0.006578590135495589
9.53600e-06;0.006549280537533722
9.53625e-06;0.006519970939571656
9.53650e-06;0.00649171325465883
9.53675e-06;0.006506457953660053
9.53700e-06;0.006521202652661376
9.53725e-06;0.006535947351662699
9.53750e-06;0.006550692050664022
9.53775e-06;0.006565436749665245
9.53800e-06;0.0065801814486665675
9.53825e-06;0.00659492614766789
9.53850e-06;0.006609670846669113
9.53875e-06;0.006624415545670436
9.53900e-06;0.006660309642678764
9.53925e-06;0.006715425214610257
9.53950e-06;0.006770540786542125
9.53975e-06;0.006825656358473992
9.54000e-06;0.006880771930405486
9.54025e-06;0.006935887502337354
9.54050e-06;0.006991003074269221
9.54075e-06;0.007046118646200715
9.54100e-06;0.007101234218132583
9.54125e-06;0.0071567296309274185
9.54150e-06;0.007227753002654965
9.54175e-06;0.007298776374382992
9.54200e-06;0.00736979974611102
9.54225e-06;0.007440823117838566
9.54250e-06;0.007511846489566594
9.54275e-06;0.0075828698612946215
9.54300e-06;0.007653893233022168
9.54325e-06;0.007724916604750195
9.54350e-06;0.007788094329655995
9.54375e-06;0.007844141596114379
9.54400e-06;0.007900188862573144
9.54425e-06;0.007956236129031907
9.54450e-06;0.008012283395490292
9.54475e-06;0.008068330661949055
9.54500e-06;0.008124377928407818
9.54525e-06;0.008180425194866203
9.54550e-06;0.008235458255727869
9.54575e-06;0.008249030419607761
9.54600e-06;0.008262602583487653
9.54625e-06;0.008276174747367453
9.54650e-06;0.008289746911247344
9.54675e-06;0.008303319075127236
9.54700e-06;0.008316891239007036
9.54725e-06;0.008330463402886928
9.54750e-06;0.008344035566766819
9.54775e-06;0.008356492586832232
9.54800e-06;0.008323362338444528
9.54825e-06;0.008290232090056823
9.54850e-06;0.008257101841669343
9.54875e-06;0.00822397159328164
9.54900e-06;0.008190841344893934
9.54925e-06;0.008157711096506454
9.54950e-06;0.00812458084811875
9.54975e-06;0.008091450599731046
9.55000e-06;0.008057593957301556
9.55025e-06;0.007994042203103902
9.55050e-06;0.007930490448906247
9.55075e-06;0.007866938694709025
9.55100e-06;0.007803386940511371
9.55125e-06;0.0077398351863137175
9.55150e-06;0.007676283432116494
9.55175e-06;0.007612731677918841
9.55200e-06;0.007549179923721188
9.55225e-06;0.0074834922047474104
9.55250e-06;0.007415863229885452
9.55275e-06;0.007348234255023494
9.55300e-06;0.007280605280161993
9.55325e-06;0.007212976305300035
9.55350e-06;0.007145347330438077
9.55375e-06;0.007077718355576576
9.55400e-06;0.0070100893807146175
9.55425e-06;0.006943048268795096
9.55450e-06;0.006900039093807422
9.55475e-06;0.00685702991882004
9.55500e-06;0.006814020743832366
9.55525e-06;0.006771011568844692
9.55550e-06;0.00672800239385731
9.55575e-06;0.006684993218869636
9.55600e-06;0.006641984043881962
9.55625e-06;0.00659897486889458
9.55650e-06;0.006555965693906906
9.55675e-06;0.0065129565189192325
9.55700e-06;0.00646994734393185
9.55725e-06;0.006427374685713944
9.55750e-06;0.006402646907204685
9.55775e-06;0.006377919128695593
9.55800e-06;0.006353191350186334
9.55825e-06;0.006328463571677075
9.55850e-06;0.006303735793167983
9.55875e-06;0.006279008014658724
9.55900e-06;0.006254280236149465
9.55925e-06;0.006229552457640373
9.55950e-06;0.006204824679131114
9.55975e-06;0.006180096900621854
9.56000e-06;0.006155369122112763
9.56025e-06;0.0061308386215967485
9.56050e-06;0.0061143728789698325
9.56075e-06;0.0060979071363430285
9.56100e-06;0.006081441393716113
9.56125e-06;0.006064975651089197
9.56150e-06;0.006048509908462393
9.56175e-06;0.006032044165835477
9.56200e-06;0.006015578423208561
9.56225e-06;0.005999112680581757
9.56250e-06;0.005982646937954841
9.56275e-06;0.005966181195327925
9.56300e-06;0.005949715452701121
9.56325e-06;0.0059369024195756615
9.56350e-06;0.005927409124634314
9.56375e-06;0.0059179158296929655
9.56400e-06;0.005908422534751682
9.56425e-06;0.005898929239810335
9.56450e-06;0.005889435944868986
9.56475e-06;0.005879942649927703
9.56500e-06;0.005870449354986354
9.56525e-06;0.005860956060045007
9.56550e-06;0.0058514627651037225
9.56575e-06;0.005841969470162375
9.56600e-06;0.005832898145943861
9.56625e-06;0.0058410770566141865
9.56650e-06;0.005849255967284567
9.56675e-06;0.005857434877954947
9.56700e-06;0.005865613788625273
9.56725e-06;0.005873792699295654
9.56750e-06;0.005881971609966034
9.56775e-06;0.00589015052063636
9.56800e-06;0.00589832943130674
9.56825e-06;0.005906508341977121
9.56850e-06;0.0059146872526474464
9.56875e-06;0.005922866163317827
9.56900e-06;0.005931045073988207
9.56925e-06;0.00593963636230181
9.56950e-06;0.005965085718795865
9.56975e-06;0.005990535075289919
9.57000e-06;0.006015984431783802
9.57025e-06;0.006041433788277857
9.57050e-06;0.006066883144771912
9.57075e-06;0.006092332501265794
9.57100e-06;0.006117781857759849
9.57125e-06;0.0061432312142539035
9.57150e-06;0.006168680570747786
9.57175e-06;0.006194129927241841
9.57200e-06;0.006219579283735896
9.57225e-06;0.00624502864022995
9.57250e-06;0.006270523670274793
9.57275e-06;0.0062978858428513074
9.57300e-06;0.006325248015427822
9.57325e-06;0.00635261018800415
9.57350e-06;0.0063799723605806645
9.57375e-06;0.006407334533157179
9.57400e-06;0.0064316849047076725
9.57425e-06;0.006453298023031085
9.57450e-06;0.006474911141354497
9.57475e-06;0.006496524259677764
9.57500e-06;0.006518137378001177
9.57525e-06;0.006539888236459393
9.57550e-06;0.006567269935060155
9.57575e-06;0.006594651633661103
9.57600e-06;0.006622033332262051
9.57625e-06;0.006649415030862813
9.57650e-06;0.006676796729463761
9.57675e-06;0.0067041784280647086
9.57700e-06;0.006731560126665471
9.57725e-06;0.006759443518226415
9.57750e-06;0.006807836203356654
9.57775e-06;0.0068562288884865645
9.57800e-06;0.006904621573616803
9.57825e-06;0.006953014258747042
9.57850e-06;0.007001406943876952
9.57875e-06;0.007049799629007191
9.57900e-06;0.007098192314137429
9.57925e-06;0.007147074225163953
9.57950e-06;0.007215955774105089
9.57975e-06;0.007284837323046224
9.58000e-06;0.007353718871986893
9.58025e-06;0.007422600420928028
9.58050e-06;0.007491481969869164
9.58075e-06;0.007560363518810299
9.58100e-06;0.007629245067750968
9.58125e-06;0.007698126616692103
9.58150e-06;0.007767008165633239
9.58175e-06;0.00783725267349542
9.58200e-06;0.007908735896557233
9.58225e-06;0.007980219119619046
9.58250e-06;0.008051702342680375
9.58275e-06;0.008123185565742187
9.58300e-06;0.008194668788804
9.58325e-06;0.008266152011865327
9.58350e-06;0.00833763523492714
9.58375e-06;0.008409118457988952
9.58400e-06;0.008479975608748042
9.58425e-06;0.008525238817196997
9.58450e-06;0.008570502025645953
9.58475e-06;0.0086157652340946
9.58500e-06;0.008661028442543555
9.58525e-06;0.008706291650992511
9.58550e-06;0.008751554859441159
9.58575e-06;0.008796818067890113
9.58600e-06;0.00884208127633907
9.58625e-06;0.008886335044631313
9.58650e-06;0.008889322727450683
9.58675e-06;0.008892310410270055
9.58700e-06;0.008895298093089405
9.58725e-06;0.008898285775908775
9.58750e-06;0.008901273458728147
9.58775e-06;0.008904261141547498
9.58800e-06;0.008907248824366868
9.58825e-06;0.00891023650718624
9.58850e-06;0.008912288319141402
9.58875e-06;0.008876081570804847
9.58900e-06;0.008839874822468294
9.58925e-06;0.00880366807413174
9.58950e-06;0.008767461325795433
9.58975e-06;0.008731254577458878
9.59000e-06;0.008695047829122326
9.59025e-06;0.008658841080786017
9.59050e-06;0.008622634332449463
9.59075e-06;0.00858642758411291
9.59100e-06;0.008549776420147082
9.59125e-06;0.00849495746955361
9.59150e-06;0.008440138518960139
9.59175e-06;0.00838531956836704
9.59200e-06;0.008330500617773568
9.59225e-06;0.008275681667180096
9.59250e-06;0.008220862716586995
9.59275e-06;0.008166043765993523
9.59300e-06;0.008111224815400053
9.59325e-06;0.008056405864806953
9.59350e-06;0.008001868654771732
9.59375e-06;0.007958849046753789
9.59400e-06;0.007915829438736135
9.59425e-06;0.007872809830718192
9.59450e-06;0.007829790222700247
9.59475e-06;0.007786770614682595
9.59500e-06;0.007743751006664651
9.59525e-06;0.0077007313986467065
9.59550e-06;0.007657711790629054
9.59575e-06;0.0076146921826111096
9.59600e-06;0.007571672574593165
9.59625e-06;0.007533231574181373
9.59650e-06;0.007498951807644479
9.59675e-06;0.007464672041107585
9.59700e-06;0.0074303922745709225
9.59725e-06;0.007396112508034029
9.59750e-06;0.007361832741497134
9.59775e-06;0.0073275529749602395
9.59800e-06;0.007293273208423578
9.59825e-06;0.0072589934418866835
9.59850e-06;0.007224713675349789
9.59875e-06;0.007190381150442671
9.59900e-06;0.007153891854359022
9.59925e-06;0.007117402558275373
9.59950e-06;0.007080913262191972
9.59975e-06;0.007044423966108322
9.60000e-06;0.007007934670024673
9.60025e-06;0.006971445373941272
9.60050e-06;0.006934956077857622
9.60075e-06;0.0068984667817739735
9.60100e-06;0.006861977485690572
9.60125e-06;0.006825488189606922
9.60150e-06;0.006788998893523274
9.60175e-06;0.00675261067840274
9.60200e-06;0.006720354670276899
9.60225e-06;0.006688098662151057
9.60250e-06;0.006655842654025434
9.60275e-06;0.006623586645899592
9.60300e-06;0.006591330637773751
9.60325e-06;0.006559074629648128
9.60350e-06;0.006526818621522286
9.60375e-06;0.0064945626133964445
9.60400e-06;0.0064623066052708214
9.60425e-06;0.00643005059714498
9.60450e-06;0.006397794589019138
9.60475e-06;0.006366017567672161
9.60500e-06;0.006353821607519246
9.60525e-06;0.006341625647366331
9.60550e-06;0.006329429687213499
9.60575e-06;0.006317233727060584
9.60600e-06;0.006305037766907669
9.60625e-06;0.006292841806754754
9.60650e-06;0.006280645846601922
9.60675e-06;0.006269219794988579
9.60700e-06;0.00628926773576809
9.60725e-06;0.006309315676547466
9.60750e-06;0.006329363617326977
9.60775e-06;0.006349411558106488
9.60800e-06;0.006369459498885864
9.60825e-06;0.006389507439665375
9.60850e-06;0.0064095553804448865
9.60875e-06;0.006430337380124429
9.60900e-06;0.006481127832833229
9.60925e-06;0.0065319182855420295
9.60950e-06;0.006582708738250486
9.60975e-06;0.006633499190959287
9.61000e-06;0.006684289643668088
9.61025e-06;0.006735080096376544
9.61050e-06;0.006785870549085344
9.61075e-06;0.0068366610017941455
9.61100e-06;0.0068877966628861035
9.61125e-06;0.006953044501581948
9.61150e-06;0.007018292340277792
9.61175e-06;0.007083540178973194
9.61200e-06;0.007148788017669038
9.61225e-06;0.0072140358563648815
9.61250e-06;0.007279283695060284
9.61275e-06;0.0073445315337561275
9.61300e-06;0.007409779372451972
9.61325e-06;0.007474773010932961
9.61350e-06;0.007529374901278424
9.61375e-06;0.007583976791623889
9.61400e-06;0.007638578681968982
9.61425e-06;0.007693180572314447
9.61450e-06;0.00774778246265991
9.61475e-06;0.007802384353005374
9.61500e-06;0.007856986243350468
9.61525e-06;0.007893062182762261
9.61550e-06;0.007912300947803312
9.61575e-06;0.007931539712844233
9.61600e-06;0.007950778477885284
9.61625e-06;0.007970017242926335
9.61650e-06;0.007989256007967255
9.61675e-06;0.008008494773008305
9.61700e-06;0.008026518359158612
9.61725e-06;0.007994865224896942
9.61750e-06;0.007963212090635056
9.61775e-06;0.00793155895637317
9.61800e-06;0.0078999058221115
9.61825e-06;0.007868252687849613
9.61850e-06;0.007836599553587727
9.61875e-06;0.007804946419326056
9.61900e-06;0.00777329328506417
9.61925e-06;0.00771866495440098
9.61950e-06;0.007643155785317247
9.61975e-06;0.007567646616233003
9.62000e-06;0.007492137447148758
9.62025e-06;0.007416628278065026
9.62050e-06;0.007341119108980781
9.62075e-06;0.007265609939896537
9.62100e-06;0.007190100770812804
9.62125e-06;0.007114162443888895
9.62150e-06;0.007020680071227464
9.62175e-06;0.006927197698566665
9.62200e-06;0.006833715325905234
9.62225e-06;0.006740232953243802
9.62250e-06;0.006646750580583003
9.62275e-06;0.0065532682079215724
9.62300e-06;0.006459785835260141
9.62325e-06;0.006372878488187173
9.62350e-06;0.006291946804806323
9.62375e-06;0.006211015121424924
9.62400e-06;0.006130083438043526
9.62425e-06;0.006049151754662676
9.62450e-06;0.0059682200712812775
9.62475e-06;0.005887288387899879
9.62500e-06;0.005807332482575205
9.62525e-06;0.005767266550797972
9.62550e-06;0.005727200619020741
9.62575e-06;0.005687134687243781
9.62600e-06;0.005647068755466549
9.62625e-06;0.005607002823689317
9.62650e-06;0.005566936891912357
9.62675e-06;0.005526870960135125
9.62700e-06;0.005512900863629087
9.62725e-06;0.005522647775254106
9.62750e-06;0.005532394686879191
9.62775e-06;0.005542141598504276
9.62800e-06;0.005551888510129295
9.62825e-06;0.00556163542175438
9.62850e-06;0.005571382333379465
9.62875e-06;0.005582177094450793
9.62900e-06;0.0056358081198172785
9.62925e-06;0.005689439145183764
9.62950e-06;0.005743070170549885
9.62975e-06;0.00579670119591637
9.63000e-06;0.0058503322212828555
9.63025e-06;0.005903963246648977
9.63050e-06;0.005957594272015462
9.63075e-06;0.006011806029010672
9.63100e-06;0.006089758194166747
9.63125e-06;0.00616771035932335
9.63150e-06;0.0062456625244799524
9.63175e-06;0.006323614689636555
9.63200e-06;0.00640156685479263
9.63225e-06;0.006479519019949233
9.63250e-06;0.006557471185105836
9.63275e-06;0.00663530840310926
9.63300e-06;0.006708446561877738
9.63325e-06;0.006781584720646215
9.63350e-06;0.006854722879414197
9.63375e-06;0.0069278610381826745
9.63400e-06;0.0070009991969511515
9.63425e-06;0.007074137355719133
9.63450e-06;0.00714727551448761
9.63475e-06;0.0072195276334068754
9.63500e-06;0.007255558291927389
9.63525e-06;0.007291588950448147
9.63550e-06;0.007327619608968905
9.63575e-06;0.00736365026748942
9.63600e-06;0.007399680926010178
9.63625e-06;0.007435711584530936
9.63650e-06;0.00747174224305145
9.63675e-06;0.007506424324893067
9.63700e-06;0.007485976361665207
9.63725e-06;0.007465528398437487
9.63750e-06;0.0074450804352096285
9.63775e-06;0.007424632471981769
9.63800e-06;0.007404184508754049
9.63825e-06;0.0073837365455261894
9.63850e-06;0.00736328858229833
9.63875e-06;0.00734284061907061
9.63900e-06;0.007321222629184446
9.63925e-06;0.007251773749574889
9.63950e-06;0.007182324869965802
9.63975e-06;0.007112875990356244
9.64000e-06;0.007043427110746687
9.64025e-06;0.006973978231137129
9.64050e-06;0.006904529351528042
9.64075e-06;0.006835080471918485
9.64100e-06;0.006765631592308927
9.64125e-06;0.006695701109344607
9.64150e-06;0.006606082598911002
9.64175e-06;0.006516464088477396
9.64200e-06;0.0064268455780443975
9.64225e-06;0.006337227067610792
9.64250e-06;0.0062476085571771854
9.64275e-06;0.006157990046744187
9.64300e-06;0.006068582857292847
9.64325e-06;0.005987814505716689
9.64350e-06;0.005907046154141078
9.64375e-06;0.00582627780256492
9.64400e-06;0.005745509450988762
9.64425e-06;0.005664741099413151
9.64450e-06;0.005583972747836994
9.64475e-06;0.005504132528517009
9.64500e-06;0.005462234514493336
9.64525e-06;0.005420336500469379
9.64550e-06;0.005378438486445422
9.64575e-06;0.00533654047242175
9.64600e-06;0.005294642458397792
9.64625e-06;0.005252744444373836
9.64650e-06;0.005210846430350163
9.64675e-06;0.005168948416326207
9.64700e-06;0.00512705040230225
9.64725e-06;0.005086273627810702
9.64750e-06;0.005091333317094081
9.64775e-06;0.005096393006377459
9.64800e-06;0.005101452695660802
9.64825e-06;0.0051065123849441795
9.64850e-06;0.005111572074227557
9.64875e-06;0.005116631763510936
9.64900e-06;0.005121691452794279
9.64925e-06;0.005126751142077657
9.64950e-06;0.005131810831361034
9.64975e-06;0.005137592680415361
9.65000e-06;0.005172896544386033
9.65025e-06;0.005208200408356706
9.65050e-06;0.005243504272327139
9.65075e-06;0.005278808136297811
9.65100e-06;0.005314112000268483
