Time(s);Current(A)
1.07500e-05;0.004635416500779324
1.07503e-05;0.004639935156434506
1.07505e-05;0.004644453812089688
1.07508e-05;0.00464897246774484
1.07510e-05;0.004653491123400021
1.07513e-05;0.0046580097790552034
1.07515e-05;0.004662528434710355
1.07518e-05;0.004667047090365537
1.07520e-05;0.004671565746020719
1.07523e-05;0.004676084401675871
1.07525e-05;0.004680603057331052
1.07528e-05;0.004691973325048229
1.07530e-05;0.004712186517376903
1.07533e-05;0.0047323997097057134
1.07535e-05;0.004752612902034524
1.07538e-05;0.004772826094363198
1.07540e-05;0.0047930392866920085
1.07543e-05;0.004813252479020819
1.07545e-05;0.004833465671349493
1.07548e-05;0.0048536788636783035
1.07550e-05;0.004873892056007114
1.07553e-05;0.004894105248335788
1.07555e-05;0.0049143184406645985
1.07558e-05;0.004938102035864425
1.07560e-05;0.004966493714992243
1.07563e-05;0.004994885394120255
1.07565e-05;0.0050232770732482656
1.07567e-05;0.005051668752376085
1.07570e-05;0.005080060431504095
1.07573e-05;0.005108452110632106
1.07575e-05;0.005136843789759925
1.07578e-05;0.005165235468887936
1.07580e-05;0.005193627148015948
1.07582e-05;0.005222018827143766
1.07585e-05;0.005250410506271777
1.07588e-05;0.005273927326273705
1.07590e-05;0.005291152486537203
1.07593e-05;0.005308377646800585
1.07595e-05;0.0053256028070640836
1.07598e-05;0.005342827967327581
1.07600e-05;0.005360053127590963
1.07603e-05;0.005377278287854461
1.07605e-05;0.0053945034481179596
1.07608e-05;0.005411728608381341
1.07610e-05;0.005428953768644839
1.07613e-05;0.005446178928908337
1.07615e-05;0.0054634040891717185
1.07618e-05;0.00546888163837664
1.07620e-05;0.005459197319389597
1.07623e-05;0.005449513000402619
1.07625e-05;0.005439828681415577
1.07628e-05;0.005430144362428535
1.07630e-05;0.005420460043441557
1.07633e-05;0.005410775724454514
1.07635e-05;0.0054010914054674715
1.07638e-05;0.005391407086480495
1.07640e-05;0.005381722767493452
1.07643e-05;0.005372038448506409
1.07645e-05;0.005362354129519432
1.07648e-05;0.005343983427163951
1.07650e-05;0.00531440178166031
1.07652e-05;0.0052848201361568705
1.07655e-05;0.0052552384906532305
1.07658e-05;0.0052256568451495905
1.07660e-05;0.005196075199646151
1.07663e-05;0.005166493554142511
1.07665e-05;0.00513691190863887
1.07667e-05;0.00510733026313543
1.07670e-05;0.00507774861763179
1.07673e-05;0.005047225539640111
1.07675e-05;0.005015487416714949
1.07678e-05;0.004983749293790001
1.07680e-05;0.004952011170864839
1.07683e-05;0.004920273047939677
1.07685e-05;0.00488853492501473
1.07688e-05;0.004856796802089567
1.07690e-05;0.0048250586791644045
1.07693e-05;0.0047933205562394575
1.07695e-05;0.004761582433314295
1.07698e-05;0.004736378987226248
1.07700e-05;0.004719609418324853
1.07703e-05;0.004702839849423344
1.07705e-05;0.004686070280521835
1.07708e-05;0.004669300711620439
1.07710e-05;0.00465253114271893
1.07713e-05;0.004635761573817421
1.07715e-05;0.004618992004916026
1.07718e-05;0.004602222436014517
1.07720e-05;0.0045854528671130075
1.07723e-05;0.004568683298211612
1.07725e-05;0.004551913729310103
1.07728e-05;0.004535144160408594
1.07730e-05;0.004518374591507199
1.07733e-05;0.0045016050226056896
1.07735e-05;0.0044848354537041805
1.07737e-05;0.0044727992334380375
1.07740e-05;0.0044668720346387105
1.07743e-05;0.0044609448358393835
1.07745e-05;0.004455017637040097
1.07748e-05;0.00444909043824077
1.07750e-05;0.004443163239441443
1.07752e-05;0.004437236040642156
1.07755e-05;0.004431308841842829
1.07758e-05;0.004425381643043502
1.07760e-05;0.004419454444244215
1.07763e-05;0.004413527245444888
1.07765e-05;0.004407600046645561
1.07768e-05;0.004401672847846234
1.07770e-05;0.004395745649046948
1.07773e-05;0.004389818450247621
1.07775e-05;0.004383891251448294
1.07778e-05;0.0043800961265044605
1.07780e-05;0.004379052728922658
1.07783e-05;0.004378009331340855
1.07785e-05;0.004376965933759059
1.07788e-05;0.004375922536177256
1.07790e-05;0.004374879138595454
1.07793e-05;0.004373835741013658
1.07795e-05;0.004372792343431855
1.07798e-05;0.004371748945850053
1.07800e-05;0.004370705548268257
1.07803e-05;0.0043696621506864545
1.07805e-05;0.004368618753104651
1.07808e-05;0.004367575355522855
1.07810e-05;0.004366531957941053
1.07813e-05;0.00436548856035925
1.07815e-05;0.0043644451627774545
1.07818e-05;0.004363401765195652
1.07820e-05;0.004362358367613849
1.07822e-05;0.004361314970032054
1.07825e-05;0.00436027157245025
1.07828e-05;0.0043592281748684476
1.07830e-05;0.004358184777286652
1.07833e-05;0.004357141379704849
1.07835e-05;0.004356097982123047
1.07837e-05;0.004355054584541251
1.07840e-05;0.0043540111869594484
1.07843e-05;0.004352967789377645
1.07845e-05;0.004354934705204208
1.07848e-05;0.004357105530265018
1.07850e-05;0.0043592763553258265
1.07853e-05;0.004361447180386636
1.07855e-05;0.004363618005447431
1.07858e-05;0.004365788830508241
1.07860e-05;0.004367959655569051
1.07863e-05;0.004370130480629845
1.07865e-05;0.0043723013056906545
1.07868e-05;0.004374472130751464
1.07870e-05;0.004376642955812259
1.07873e-05;0.004378813780873069
1.07875e-05;0.004380984605933878
1.07878e-05;0.004383155430994673
1.07880e-05;0.0043853262560554825
1.07883e-05;0.004387497081116292
1.07885e-05;0.004389667906177087
1.07888e-05;0.004391838731237896
1.07890e-05;0.004394009556298706
1.07893e-05;0.004396180381359501
1.07895e-05;0.0043983512064203105
1.07898e-05;0.00440052203148112
1.07900e-05;0.004402692856541915
1.07903e-05;0.004404863681602724
1.07905e-05;0.004407034506663534
1.07907e-05;0.004409205331724329
1.07910e-05;0.004415482739509266
1.07913e-05;0.004427060243264955
1.07915e-05;0.004438637747020566
1.07918e-05;0.004450215250776254
1.07920e-05;0.004461792754531943
1.07922e-05;0.004473370258287553
1.07925e-05;0.004484947762043241
1.07928e-05;0.00449652526579893
1.07930e-05;0.004508102769554541
1.07933e-05;0.004519680273310229
1.07935e-05;0.004531257777065918
1.07938e-05;0.004542835280821607
1.07940e-05;0.004554412784577216
1.07943e-05;0.004565990288332905
1.07945e-05;0.004582743202258074
1.07948e-05;0.004606175677373487
1.07950e-05;0.004629608152489058
1.07953e-05;0.00465304062760463
1.07955e-05;0.004676473102720043
1.07958e-05;0.004699905577835615
1.07960e-05;0.0047233380529511865
1.07963e-05;0.004746770528066599
1.07965e-05;0.004770203003182171
1.07968e-05;0.004793635478297743
1.07970e-05;0.004817067953413156
1.07973e-05;0.0048405004285287274
1.07975e-05;0.0048639329036443
1.07978e-05;0.004887365378759712
1.07980e-05;0.004908497625777984
1.07983e-05;0.004926661119822718
1.07985e-05;0.00494482461386733
1.07988e-05;0.0049629881079120645
1.07990e-05;0.004981151601956799
1.07992e-05;0.004999315096001411
1.07995e-05;0.005017478590046145
1.07998e-05;0.00503564208409088
1.08000e-05;0.0050538055781354915
1.08003e-05;0.005071969072180226
1.08005e-05;0.00509013256622496
1.08007e-05;0.0051082960602695715
1.08010e-05;0.005126459554314306
1.08013e-05;0.005144623048359041
1.08015e-05;0.005162786542403652
1.08018e-05;0.005180950036448387
1.08020e-05;0.0051911948876305816
1.08023e-05;0.005200903354660337
1.08025e-05;0.005210611821690028
1.08028e-05;0.005220320288719784
1.08030e-05;0.00523002875574954
1.08033e-05;0.00523973722277923
1.08035e-05;0.005249445689808986
1.08038e-05;0.005259154156838743
1.08040e-05;0.005268862623868433
1.08043e-05;0.005278571090898189
1.08045e-05;0.005288279557927945
1.08048e-05;0.005297988024957636
1.08050e-05;0.005307696491987392
1.08053e-05;0.005317404959017147
1.08055e-05;0.005327113426046838
1.08058e-05;0.005335776747663292
1.08060e-05;0.005343091168899815
1.08063e-05;0.005350405590136288
1.08065e-05;0.0053577200113728105
1.08068e-05;0.005365034432609334
1.08070e-05;0.005372348853845807
1.08073e-05;0.00537966327508233
1.08075e-05;0.0053869776963188535
1.08077e-05;0.005394292117555327
1.08080e-05;0.0054016065387918494
1.08083e-05;0.005408920960028373
1.08085e-05;0.005416235381264846
1.08088e-05;0.005423549802501369
1.08090e-05;0.005424915583364666
1.08092e-05;0.005425878421895201
1.08095e-05;0.005426841260425742
1.08098e-05;0.005427804098956283
1.08100e-05;0.005428766937486817
1.08103e-05;0.005429729776017358
1.08105e-05;0.0054306926145478995
1.08108e-05;0.005431655453078441
1.08110e-05;0.005432618291608975
1.08113e-05;0.005433581130139516
1.08115e-05;0.005434543968670057
1.08118e-05;0.005435506807200592
1.08120e-05;0.0054280047466785455
1.08123e-05;0.005409577598217204
1.08125e-05;0.005391150449755987
1.08128e-05;0.005372723301294645
1.08130e-05;0.005354296152833303
1.08133e-05;0.005335869004372086
1.08135e-05;0.005317441855910744
1.08138e-05;0.005299014707449402
1.08140e-05;0.005280587558988185
1.08143e-05;0.0052621604105268435
1.08145e-05;0.005243733262065502
1.08148e-05;0.005225306113604285
1.08150e-05;0.005200515198660449
1.08153e-05;0.005167510989261226
1.08155e-05;0.0051345067798622265
1.08158e-05;0.005101502570463003
1.08160e-05;0.00506849836106378
1.08162e-05;0.00503549415166478
1.08165e-05;0.005002489942265557
1.08168e-05;0.004969485732866334
1.08170e-05;0.004936481523467334
1.08173e-05;0.004903477314068111
1.08175e-05;0.0048704731046688874
1.08177e-05;0.004837468895269888
1.08180e-05;0.004806209822382453
1.08183e-05;0.0047772030823040835
1.08185e-05;0.0047481963422259105
1.08188e-05;0.004719189602147541
1.08190e-05;0.004690182862069172
1.08193e-05;0.004661176121990802
1.08195e-05;0.00463216938191263
1.08198e-05;0.00460316264183426
1.08200e-05;0.004574155901755891
1.08203e-05;0.004545149161677718
1.08205e-05;0.00452597231034278
1.08208e-05;0.004519482249283181
1.08210e-05;0.004512992188223626
1.08213e-05;0.004506502127164028
1.08215e-05;0.0045000120661044295
1.08218e-05;0.004493522005044875
1.08220e-05;0.004487031943985276
1.08223e-05;0.004480541882925678
1.08225e-05;0.0044740518218661235
1.08228e-05;0.004467561760806525
1.08230e-05;0.004473116363812344
1.08233e-05;0.004494216221798189
1.08235e-05;0.004515316079784177
1.08238e-05;0.004536415937770165
1.08240e-05;0.0045575157957560095
1.08243e-05;0.004578615653741997
1.08245e-05;0.0045997155117279845
1.08247e-05;0.004620815369713829
1.08250e-05;0.004641915227699816
1.08253e-05;0.004663015085685804
1.08255e-05;0.0046910724163890674
1.08258e-05;0.004728109299102505
1.08260e-05;0.004765146181815942
1.08262e-05;0.004802183064529128
1.08265e-05;0.004839219947242565
1.08268e-05;0.004876256829956002
1.08270e-05;0.004913293712669188
1.08273e-05;0.004950330595382625
1.08275e-05;0.004987367478096062
1.08278e-05;0.005024404360809499
1.08280e-05;0.005059158525239218
1.08283e-05;0.005090966535457036
1.08285e-05;0.005122774545674854
1.08288e-05;0.005154582555892457
1.08290e-05;0.005186390566110275
1.08293e-05;0.005218198576328093
1.08295e-05;0.005250006586545696
1.08298e-05;0.005281814596763515
1.08300e-05;0.005313622606981333
1.08303e-05;0.005345430617198936
1.08305e-05;0.005377238627416754
1.08308e-05;0.005400049739504981
1.08310e-05;0.0054112491474617285
1.08313e-05;0.005422448555418552
1.08315e-05;0.005433647963375377
1.08318e-05;0.005444847371332124
1.08320e-05;0.0054560467792889485
1.08323e-05;0.005467246187245772
1.08325e-05;0.00547844559520252
1.08328e-05;0.005489645003159344
1.08330e-05;0.0055008444111161675
1.08332e-05;0.005512043819072916
1.08335e-05;0.00551532067411266
1.08338e-05;0.005508372411659573
1.08340e-05;0.005501424149206534
1.08343e-05;0.005494475886753447
1.08345e-05;0.00548752762430036
1.08347e-05;0.0054805793618473205
1.08350e-05;0.005473631099394234
1.08353e-05;0.005466682836941147
1.08355e-05;0.005459734574488107
1.08358e-05;0.0054527863120350205
1.08360e-05;0.005445838049581934
1.08363e-05;0.005438889787128847
1.08365e-05;0.005431941524675807
1.08368e-05;0.005418578880700753
1.08370e-05;0.00540478174653975
1.08373e-05;0.005390984612378841
1.08375e-05;0.005377187478217838
1.08378e-05;0.005363390344056835
1.08380e-05;0.005349593209895925
1.08383e-05;0.005335796075734922
1.08385e-05;0.005321998941573919
1.08388e-05;0.00530820180741301
1.08390e-05;0.005294404673252007
1.08393e-05;0.005280607539091004
1.08395e-05;0.005266810404930095
1.08398e-05;0.005256742375709511
1.08400e-05;0.005251487256741877
1.08403e-05;0.005246232137774278
1.08405e-05;0.005240977018806643
1.08408e-05;0.0052357218998390085
1.08410e-05;0.00523046678087141
1.08413e-05;0.005225211661903775
1.08415e-05;0.005219956542936141
1.08418e-05;0.005214701423968541
1.08420e-05;0.005209446305000907
1.08423e-05;0.0052041911860332725
1.08425e-05;0.005198936067065674
1.08428e-05;0.0051936809480980384
1.08430e-05;0.005188425829130404
1.08432e-05;0.005183170710162805
1.08435e-05;0.005177915591195171
1.08438e-05;0.0051726604722275365
1.08440e-05;0.005167405353259937
1.08443e-05;0.0051621502342923025
1.08445e-05;0.005156895115324668
1.08448e-05;0.0051589998661128065
1.08450e-05;0.005161603151509501
1.08453e-05;0.005164206436906213
1.08455e-05;0.0051668097223029254
1.08458e-05;0.00516941300769962
1.08460e-05;0.005172016293096332
1.08463e-05;0.005174619578493044
1.08465e-05;0.005177222863889739
1.08468e-05;0.0051798261492864515
1.08470e-05;0.005182429434683163
1.08473e-05;0.005185032720079858
1.08475e-05;0.00518763600547657
1.08478e-05;0.005190239290873282
1.08480e-05;0.005192842576269977
1.08483e-05;0.005195445861666689
1.08485e-05;0.005198049147063401
1.08488e-05;0.0052006524324600956
1.08490e-05;0.005203255717856808
1.08493e-05;0.00520585900325352
1.08495e-05;0.0052062457782464265
1.08498e-05;0.0052037718491773155
1.08500e-05;0.0052012979201082055
1.08503e-05;0.005198823991039112
1.08505e-05;0.005196350061970002
1.08508e-05;0.005193876132900892
1.08510e-05;0.005191402203831798
1.08513e-05;0.005188928274762687
1.08515e-05;0.005186454345693577
1.08517e-05;0.0051839804166244835
1.08520e-05;0.0051815064875553735
1.08523e-05;0.005179032558486263
1.08525e-05;0.00517655862941717
1.08528e-05;0.00517408470034806
1.08530e-05;0.005171610771278949
1.08533e-05;0.005169136842209839
1.08535e-05;0.005166662913140745
1.08538e-05;0.005164188984071635
1.08540e-05;0.005157287471748038
1.08543e-05;0.005144671569191801
1.08545e-05;0.005132055666635478
1.08548e-05;0.005119439764079155
1.08550e-05;0.005106823861522918
1.08553e-05;0.005094207958966594
1.08555e-05;0.005081592056410272
1.08558e-05;0.005068976153854035
1.08560e-05;0.005056360251297712
1.08563e-05;0.005043744348741388
1.08565e-05;0.0050311284461851515
1.08568e-05;0.005018512543628829
1.08570e-05;0.005005896641072505
1.08573e-05;0.004993280738516268
1.08575e-05;0.0049806648359599455
1.08578e-05;0.004968048933403622
1.08580e-05;0.004955433030847385
1.08583e-05;0.004942817128291062
1.08585e-05;0.004932248635499092
1.08588e-05;0.0049243225997065414
1.08590e-05;0.004916396563913938
1.08593e-05;0.004908470528121334
1.08595e-05;0.004900544492328784
1.08598e-05;0.00489261845653618
1.08600e-05;0.004884692420743577
1.08602e-05;0.004876766384951026
1.08605e-05;0.004868840349158422
1.08608e-05;0.004860914313365819
1.08610e-05;0.004852988277573268
1.08613e-05;0.004845062241780665
1.08615e-05;0.0048371362059880605
1.08618e-05;0.004829210170195457
1.08620e-05;0.004821284134402907
1.08623e-05;0.004813358098610303
1.08625e-05;0.0048202379109347805
1.08628e-05;0.004828120625206279
1.08630e-05;0.0048360033394778314
1.08633e-05;0.004843886053749384
1.08635e-05;0.004851768768020882
1.08638e-05;0.004859651482292435
1.08640e-05;0.004867534196563987
1.08643e-05;0.0048754169108354865
1.08645e-05;0.004883299625107038
1.08648e-05;0.00489118233937859
1.08650e-05;0.00489906505365009
1.08653e-05;0.004906947767921642
1.08655e-05;0.0049148304821931945
1.08658e-05;0.004922713196464693
1.08660e-05;0.004930595910736245
1.08663e-05;0.004941489353400293
1.08665e-05;0.00495626854500115
1.08668e-05;0.0049710477366021084
1.08670e-05;0.004985826928203066
1.08673e-05;0.005000606119803924
1.08675e-05;0.005015385311404882
1.08678e-05;0.005030164503005839
1.08680e-05;0.005044943694606697
1.08683e-05;0.005059722886207655
1.08685e-05;0.005074502077808613
1.08687e-05;0.005089281269409471
1.08690e-05;0.005104060461010428
1.08693e-05;0.005118189642407937
1.08695e-05;0.0051244279556195965
1.08698e-05;0.005130666268831298
1.08700e-05;0.005136904582043
1.08703e-05;0.005143142895254702
1.08705e-05;0.005149381208466362
1.08708e-05;0.005155619521678064
1.08710e-05;0.0051618578348897656
1.08713e-05;0.005168096148101425
1.08715e-05;0.0051743344613131275
1.08718e-05;0.005180572774524829
1.08720e-05;0.005186811087736489
1.08723e-05;0.00519304940094819
1.08725e-05;0.005187635481628197
1.08728e-05;0.005177591795993778
1.08730e-05;0.005167548110359292
1.08733e-05;0.005157504424724806
1.08735e-05;0.005147460739090388
1.08738e-05;0.005137417053455902
1.08740e-05;0.005127373367821415
1.08743e-05;0.005117329682186997
1.08745e-05;0.005107285996552511
1.08748e-05;0.005097242310918025
1.08750e-05;0.005087198625283606
1.08753e-05;0.00507715493964912
1.08755e-05;0.005066552747471905
1.08758e-05;0.005047323557381776
1.08760e-05;0.005028094367291517
1.08763e-05;0.0050088651772012575
1.08765e-05;0.004989635987111129
1.08768e-05;0.0049704067970208704
1.08770e-05;0.004951177606930611
1.08772e-05;0.0049319484168404825
1.08775e-05;0.004912719226750223
1.08778e-05;0.004893490036659964
1.08780e-05;0.004874260846569835
1.08783e-05;0.0048550316564795765
1.08785e-05;0.004835802466389317
1.08788e-05;0.004818878918776306
1.08790e-05;0.0048053292828344795
1.08793e-05;0.0047917796468925624
1.08795e-05;0.0047782300109506445
1.08798e-05;0.004764680375008819
1.08800e-05;0.004751130739066901
1.08803e-05;0.004737581103124983
1.08805e-05;0.004724031467183157
1.08808e-05;0.004710481831241239
1.08810e-05;0.004696932195299321
1.08813e-05;0.004683382559357495
1.08815e-05;0.004669832923415577
1.08818e-05;0.004656283287473659
1.08820e-05;0.004642733651531833
1.08823e-05;0.004629184015589915
1.08825e-05;0.0046156343796479975
1.08828e-05;0.0046020847437061715
1.08830e-05;0.004588535107764254
1.08833e-05;0.004574985471822336
1.08835e-05;0.004564644290970816
1.08838e-05;0.004554636172729595
1.08840e-05;0.004544628054488376
1.08843e-05;0.004534619936247223
1.08845e-05;0.004524611818006004
1.08848e-05;0.004514603699764783
1.08850e-05;0.0045045955815236315
1.08853e-05;0.004494587463282412
1.08855e-05;0.004484579345041192
1.08857e-05;0.00447457122680004
1.08860e-05;0.0044645631085588194
1.08863e-05;0.0044545549903176
1.08865e-05;0.004444546872076448
1.08868e-05;0.004434538753835228
1.08870e-05;0.004424530635594008
1.08873e-05;0.004414522517352788
1.08875e-05;0.004404514399111636
1.08878e-05;0.004394506280870416
1.08880e-05;0.004385509923258918
1.08883e-05;0.0043779941035156835
1.08885e-05;0.004370478283772398
1.08888e-05;0.004362962464029112
1.08890e-05;0.004355446644285877
1.08893e-05;0.004347930824542591
1.08895e-05;0.004340415004799305
1.08898e-05;0.004332899185056071
1.08900e-05;0.004325383365312785
1.08903e-05;0.004317867545569499
1.08905e-05;0.0043154148860325425
1.08908e-05;0.004320371291642395
1.08910e-05;0.004325327697252248
1.08913e-05;0.004330284102862067
1.08915e-05;0.00433524050847192
1.08918e-05;0.004340196914081773
1.08920e-05;0.004345153319691592
1.08923e-05;0.004350109725301445
1.08925e-05;0.004355066130911298
1.08928e-05;0.004360022536521117
1.08930e-05;0.004373417143695607
1.08933e-05;0.004399159609237083
1.08935e-05;0.0044249020747783845
1.08938e-05;0.004450644540319861
1.08940e-05;0.0044763870058613375
1.08942e-05;0.004502129471402639
1.08945e-05;0.004527871936944115
1.08948e-05;0.004553614402485592
1.08950e-05;0.004579356868026894
1.08953e-05;0.00460509933356837
1.08955e-05;0.004630841799109846
1.08958e-05;0.004667030723143224
1.08960e-05;0.0047043040708755375
1.08963e-05;0.004741577418608104
1.08965e-05;0.004778850766340671
1.08968e-05;0.004816124114072985
1.08970e-05;0.004853397461805552
1.08973e-05;0.004890670809538119
1.08975e-05;0.004927944157270433
1.08978e-05;0.0049652175050029996
1.08980e-05;0.005002490852735566
1.08983e-05;0.00503510555511706
1.08985e-05;0.0050609031303485924
1.08988e-05;0.005086700705580125
1.08990e-05;0.005112498280811483
1.08993e-05;0.005138295856043015
1.08995e-05;0.005164093431274548
1.08998e-05;0.005189891006505906
1.09000e-05;0.005215688581737439
1.09003e-05;0.005241486156968971
1.09005e-05;0.005267283732200329
1.09008e-05;0.005293081307431862
