Time(s);Current(A)
1.12500e-05;-0.0009707722674129951
1.12503e-05;-0.0009442740748701198
1.12505e-05;-0.0009160467185295158
1.12508e-05;-0.0008862605105188602
1.12510e-05;-0.0008550858316373772
1.12513e-05;-0.0008226929870378051
1.12515e-05;-0.0007892447451082528
1.12518e-05;-0.0007548846259515294
1.12520e-05;-0.0007197526509980898
1.12523e-05;-0.0006840194891254942
1.12525e-05;-0.0006478874571358698
1.12527e-05;-0.0006115683179876388
1.12530e-05;-0.0005752738585106547
1.12533e-05;-0.0005392158073278498
1.12535e-05;-0.0005036011768492614
1.12538e-05;-0.0004686248620617692
1.12540e-05;-0.00043447963472206303
1.12542e-05;-0.0004013773739626214
1.12545e-05;-0.00036954979436241845
1.12548e-05;-0.000339234523465703
1.12550e-05;-0.00031066913758437967
1.12553e-05;-0.0002840912403904706
1.12555e-05;-0.0002597283483520877
1.12558e-05;-0.00023776111168034538
1.12560e-05;-0.00021829335385955355
1.12563e-05;-0.0002013777703854995
1.12565e-05;-0.0001870582259222746
1.12568e-05;-0.0001753808200654499
1.12570e-05;-0.00016639163873036626
1.12573e-05;-0.00016013673698497336
1.12575e-05;-0.0001566558650267919
1.12578e-05;-0.0001559594294269705
1.12580e-05;-0.00015800968792025383
1.12583e-05;-0.00016273686861200353
1.12585e-05;-0.00017006566783963153
1.12588e-05;-0.00017992219868950818
1.12590e-05;-0.0001922325656640285
1.12593e-05;-0.0002069228364501536
1.12595e-05;-0.00022391515597845047
1.12598e-05;-0.00024311328556351304
1.12600e-05;-0.0002643908157508482
1.12603e-05;-0.0002876012882984004
1.12605e-05;-0.0003130092269183499
1.12608e-05;-0.0003395899153455523
1.12610e-05;-0.0003676703580651925
1.12612e-05;-0.00039708098655048655
1.12615e-05;-0.0004276658873571558
1.12618e-05;-0.0004592922923187269
1.12620e-05;-0.0004917118383490094
1.12623e-05;-0.0005248348495841571
1.12625e-05;-0.0005583357916209283
1.12627e-05;-0.000592171934013528
1.12630e-05;-0.0006259706118543786
1.12633e-05;-0.0006597360610430282
1.12635e-05;-0.000693042635021338
1.12638e-05;-0.0007259422161498464
1.12640e-05;-0.000757926730609266
1.12643e-05;-0.0007890996396846603
1.12645e-05;-0.0008188800211308808
1.12648e-05;-0.0008474253199773193
1.12650e-05;-0.0008735413457068243
1.12653e-05;-0.0008975027621523345
1.12655e-05;-0.000921464178598007
1.12658e-05;-0.0009419489545416896
1.12660e-05;-0.0009593501735767599
1.12663e-05;-0.0009767513926119483
1.12665e-05;-0.0009905095168656801
1.12668e-05;-0.0010010364499520238
1.12670e-05;-0.001011563383038439
1.12673e-05;-0.0010182238016137031
1.12675e-05;-0.0010214548700658952
1.12678e-05;-0.0010246859385181092
1.12680e-05;-0.0010241937081253388
1.12683e-05;-0.001020399150710407
1.12685e-05;-0.0010166045932954494
1.12688e-05;-0.0010099287357464076
1.12690e-05;-0.0010006973499715286
1.12693e-05;-0.0009892929430626635
1.12695e-05;-0.0009759612059261952
1.12697e-05;-0.0009606563562842146
1.12700e-05;-0.0009436014825327382
1.12703e-05;-0.000925247565157922
1.12705e-05;-0.0009049614641286367
1.12708e-05;-0.0008832662067457687
1.12710e-05;-0.0008602800709764262
1.12712e-05;-0.0008361213347877525
1.12715e-05;-0.0008109139829739925
1.12718e-05;-0.0007848029793413861
1.12720e-05;-0.0007579573075442822
1.12723e-05;-0.0007305500140786372
1.12725e-05;-0.0007027452396677282
1.12728e-05;-0.0006747030006593628
1.12730e-05;-0.0006465833372735269
1.12733e-05;-0.0006185462315219727
1.12735e-05;-0.0005907551855445054
1.12738e-05;-0.000563386873382443
1.12740e-05;-0.0005366330306017519
1.12743e-05;-0.0005106879650724215
1.12745e-05;-0.00048574031263413426
1.12748e-05;-0.000461976098266403
1.12750e-05;-0.00043958140837356845
1.12753e-05;-0.00041874224379232926
1.12755e-05;-0.00039970958956203547
1.12758e-05;-0.00038291452639254326
1.12760e-05;-0.0003688613134332875
1.12763e-05;-0.0003578448401396705
1.12765e-05;-0.00034991675454562
1.12768e-05;-0.00034505285071257904
1.12770e-05;-0.0003432288423659034
1.12773e-05;-0.0003444204106394622
1.12775e-05;-0.00034864394546093083
1.12778e-05;-0.00035602863582041914
1.12780e-05;-0.00036674946523707205
1.12782e-05;-0.00038085024810181694
1.12785e-05;-0.0003982224454506049
1.12788e-05;-0.0004187100127366822
1.12790e-05;-0.0004421568524371692
1.12793e-05;-0.00046840686528578577
1.12795e-05;-0.0004973294493975517
1.12797e-05;-0.0005295432475288907
1.12800e-05;-0.0005635831167349169
1.12803e-05;-0.000600134699580472
1.12805e-05;-0.0006389140111610555
1.12808e-05;-0.000679716038375232
1.12810e-05;-0.0007223120844895725
1.12813e-05;-0.0007664330412090008
1.12815e-05;-0.000811906495728799
1.12818e-05;-0.0008585108738158733
1.12820e-05;-0.0009061183084965587
1.12823e-05;-0.0009544067682192038
1.12825e-05;-0.0010032992534298759
1.12828e-05;-0.0010522681021633167
1.12830e-05;-0.0011013046804382478
1.12833e-05;-0.0011498075623663454
1.12835e-05;-0.0011978370899001448
1.12838e-05;-0.0012447879653226944
1.12840e-05;-0.0012907821455773326
1.12843e-05;-0.0013351177366465084
1.12845e-05;-0.0013779822655965216
1.12848e-05;-0.0014185114681517534
1.12850e-05;-0.0014569693861326031
1.12853e-05;-0.0014924089784220317
1.12855e-05;-0.0015251715096131423
1.12858e-05;-0.0015533416383889402
1.12860e-05;-0.0015774386010741633
1.12863e-05;-0.0016015355637595495
1.12865e-05;-0.0016196950196242766
1.12867e-05;-0.0016325882881523023
1.12870e-05;-0.0016454815566804154
1.12873e-05;-0.0016521925520381626
1.12875e-05;-0.001653420268022144
1.12878e-05;-0.0016546479840061337
1.12880e-05;-0.0016506904455895989
1.12882e-05;-0.0016421339194353482
1.12885e-05;-0.0016296586844340016
1.12888e-05;-0.0016137078062831865
1.12890e-05;-0.001594974217301623
1.12893e-05;-0.0015720007730172436
1.12895e-05;-0.001545746919471756
1.12898e-05;-0.0015163404834733763
1.12900e-05;-0.0014839406903210959
1.12903e-05;-0.0014487460406831477
1.12905e-05;-0.0014109764206228534
1.12908e-05;-0.0013708560530258757
1.12910e-05;-0.0013286090851305306
1.12913e-05;-0.001284459685102577
1.12915e-05;-0.0012386323086583583
1.12918e-05;-0.0011913571969329342
1.12920e-05;-0.0011428842471097515
1.12923e-05;-0.0010934879854227557
1.12925e-05;-0.0010434563649354594
1.12928e-05;-0.000993080074706796
1.12930e-05;-0.0009426496187094085
1.12933e-05;-0.000892455552689265
1.12935e-05;-0.0008427885622175369
1.12938e-05;-0.0007939429181760668
1.12940e-05;-0.0007462252508432704
1.12943e-05;-0.0006999575999509055
1.12945e-05;-0.0006554703712481835
1.12948e-05;-0.0006130955777445762
1.12950e-05;-0.0005731651777305816
1.12952e-05;-0.000536011191192065
1.12955e-05;-0.0005018152639434144
1.12958e-05;-0.00047028839379270577
1.12960e-05;-0.0004407848715271078
1.12963e-05;-0.00041290409301343286
1.12965e-05;-0.0003866750350268123
1.12967e-05;-0.0003622748784705715
1.12970e-05;-0.00033988093581560614
1.12973e-05;-0.0003196704784934003
1.12975e-05;-0.0003017266461276778
1.12978e-05;-0.0002858377671891458
1.12980e-05;-0.0002715686798696861
1.12983e-05;-0.0002586378647221459
1.12985e-05;-0.00024703289113231714
1.12988e-05;-0.0002368341312072929
1.12990e-05;-0.000228122046710611
1.12993e-05;-0.00022097706694972506
1.12995e-05;-0.00021542065407754237
1.12998e-05;-0.0002112895904813683
1.13000e-05;-0.00020828070734702165
1.13003e-05;-0.00020618707764963332
1.13005e-05;-0.00020521041239629913
1.13008e-05;-0.00020486320369895149
1.13010e-05;-0.00020549729171832616
1.13013e-05;-0.00020700172692230073
1.13015e-05;-0.00020941410682858338
1.13018e-05;-0.00021263177539218746
1.13020e-05;-0.0002163696097230938
1.13023e-05;-0.00022056879769285424
1.13025e-05;-0.00022521400251618968
1.13028e-05;-0.0002302547956525728
1.13030e-05;-0.00023529558878892173
1.13033e-05;-0.00024074662571001797
1.13035e-05;-0.00024656152252888926
1.13037e-05;-0.00025237641934772116
1.13040e-05;-0.00025811452488883784
1.13043e-05;-0.0002637845214968865
1.13045e-05;-0.00026943483486060646
1.13048e-05;-0.0002744478415999248
1.13050e-05;-0.0002794608483392432
1.13052e-05;-0.00028415255143068554
1.13055e-05;-0.0002884609054468322
1.13058e-05;-0.000293230496428146
1.13060e-05;-0.00029848656089714073
1.13063e-05;-0.00030504286433788127
1.13065e-05;-0.0003127523962662939
1.13068e-05;-0.00032161032699285077
1.13070e-05;-0.000331486813721683
1.13073e-05;-0.00034232640472629144
1.13075e-05;-0.0003540202073884852
1.13078e-05;-0.00036702983483122157
1.13080e-05;-0.00038120651437350975
1.13083e-05;-0.0003970337087109209
1.13085e-05;-0.00041432480370218216
1.13088e-05;-0.0004330043389993276
1.13090e-05;-0.0004529153317045908
1.13093e-05;-0.0004742099910313057
1.13095e-05;-0.0004967318738149272
1.13098e-05;-0.0005192537565985488
1.13100e-05;-0.0005435664521633652
1.13103e-05;-0.00056946748368855
1.13105e-05;-0.0005953685152137346
1.13108e-05;-0.0006225759783895571
1.13110e-05;-0.0006509421625620881
1.13113e-05;-0.0006793083467346191
1.13115e-05;-0.0007083533863262363
1.13118e-05;-0.0007380005270899363
1.13120e-05;-0.0007676476678536363
1.13122e-05;-0.0007976331875044018
1.13125e-05;-0.0008279188275032153
1.13128e-05;-0.0008582044675020288
1.13130e-05;-0.0008880215204011044
1.13133e-05;-0.0009174229666280886
1.13135e-05;-0.0009468244128550729
1.13137e-05;-0.0009750957221321578
1.13140e-05;-0.0010023646724939164
1.13143e-05;-0.0010296336228556749
1.13145e-05;-0.0010550911233137155
1.13148e-05;-0.001078941984008598
1.13150e-05;-0.0011027928447036423
1.13153e-05;-0.0011249603866276669
1.13155e-05;-0.0011447953197231142
1.13158e-05;-0.0011634929401191988
1.13160e-05;-0.0011820260212986144
1.13163e-05;-0.001200722030945589
1.13165e-05;-0.0012195778626130026
1.13168e-05;-0.0012385754461512965
1.13170e-05;-0.0012575730296894615
1.13173e-05;-0.0012763024026134738
1.13175e-05;-0.0012947938899426786
1.13178e-05;-0.0013132853772717583
1.13180e-05;-0.0013326402202138538
1.13183e-05;-0.0013527608041541512
1.13185e-05;-0.0013728813880943122
1.13188e-05;-0.0013930019720346095
1.13190e-05;-0.0014138290149592822
1.13193e-05;-0.0014352826416458438
1.13195e-05;-0.001456736268332551
1.13198e-05;-0.0014781898950192581
1.13200e-05;-0.0015006706504173625
1.13203e-05;-0.0015240624030375901
1.13205e-05;-0.0015474541556578178
1.13207e-05;-0.001570845908277887
1.13210e-05;-0.0015942376608981145
1.13213e-05;-0.0016176294135183422
1.13215e-05;-0.0016410211661384113
1.13218e-05;-0.001664412918758639
1.13220e-05;-0.0016874897933105025
1.13222e-05;-0.0017102873912318015
1.13225e-05;-0.001733084989153255
1.13228e-05;-0.0017558825870747084
1.13230e-05;-0.0017786801849961618
1.13233e-05;-0.0018014777829174606
1.13235e-05;-0.001824275380838914
1.13238e-05;-0.0018470729787603674
1.13240e-05;-0.0018682470484978249
1.13243e-05;-0.0018879811529722104
1.13245e-05;-0.0019077152574465959
1.13248e-05;-0.0019253659208441475
1.13250e-05;-0.0019411687057705092
1.13253e-05;-0.0019569714906968708
1.13255e-05;-0.001972774275623125
1.13258e-05;-0.001988464890685266
1.13260e-05;-0.0020005236553813873
1.13263e-05;-0.002012582420077427
1.13265e-05;-0.0020246411847735482
1.13268e-05;-0.0020366999494696694
1.13270e-05;-0.0020472168767339703
1.13273e-05;-0.0020563662931872787
1.13275e-05;-0.002065515709640587
1.13278e-05;-0.002074665126093834
1.13280e-05;-0.0020837536212371904
1.13283e-05;-0.0020908695983291124
1.13285e-05;-0.0020979855754209857
1.13288e-05;-0.0021051015525129072
1.13290e-05;-0.002112217529604829
1.13292e-05;-0.0021179367357941413
1.13295e-05;-0.0021224170958699727
1.13298e-05;-0.002126897455945804
1.13300e-05;-0.002131377816021605
1.13303e-05;-0.0021358581760974366
1.13305e-05;-0.002140338536173268
1.13307e-05;-0.002144818896249069
1.13310e-05;-0.0021492992563249005
1.13313e-05;-0.002153779616400732
1.13315e-05;-0.0021582599764765633
1.13318e-05;-0.0021627403365523643
1.13320e-05;-0.0021660470700069433
1.13323e-05;-0.002168312871998872
1.13325e-05;-0.0021705786739907853
1.13328e-05;-0.002172844475982714
1.13330e-05;-0.002175110277974643
1.13333e-05;-0.0021773760799665563
1.13335e-05;-0.002179641881958485
1.13338e-05;-0.0021819076839504135
1.13340e-05;-0.002184173485942327
1.13343e-05;-0.0021864392879342555
1.13345e-05;-0.002188705089926184
1.13348e-05;-0.0021905731358501904
1.13350e-05;-0.002192023000519674
1.13353e-05;-0.0021933416913234092
1.13355e-05;-0.002194297248614348
1.13358e-05;-0.0021940147360254014
1.13360e-05;-0.002191227398286708
1.13363e-05;-0.0021851762462650696
1.13365e-05;-0.0021758067103172427
1.13368e-05;-0.002162531884680229
1.13370e-05;-0.0021471422447960995
1.13373e-05;-0.00212955575391877
1.13375e-05;-0.002108545659441933
1.13377e-05;-0.002084427926813218
1.13380e-05;-0.0020555336969844125
1.13383e-05;-0.002023818438028457
1.13385e-05;-0.0019890745502463753
1.13388e-05;-0.0019498357998159422
1.13390e-05;-0.0019073417879477727
1.13392e-05;-0.0018618899627649962
1.13395e-05;-0.0018136930506086413
1.13398e-05;-0.001762711657166485
1.13400e-05;-0.0017087522825004304
1.13403e-05;-0.0016518208825866464
1.13405e-05;-0.0015921999931644022
1.13408e-05;-0.0015302626775961848
1.13410e-05;-0.0014663821017087766
1.13413e-05;-0.0014009313149123323
1.13415e-05;-0.0013342303155211102
1.13418e-05;-0.0012664410456851142
1.13420e-05;-0.0011976289877031244
1.13423e-05;-0.0011279845737167022
1.13425e-05;-0.001057871434929154
1.13428e-05;-0.000987709823675777
1.13430e-05;-0.0009179200679398192
1.13433e-05;-0.0008489225364733169
1.13435e-05;-0.0007811041113576522
1.13438e-05;-0.0007147527563965466
1.13440e-05;-0.0006500960681168481
1.13443e-05;-0.0005874397472938472
1.13445e-05;-0.0005271979657486787
1.13448e-05;-0.0004698204975653727
1.13450e-05;-0.000415757063579678
1.13453e-05;-0.0003654572734448621
1.13455e-05;-0.00031929095093872253
1.13458e-05;-0.00027735858484612163
1.13460e-05;-0.00023950396007599986
1.13462e-05;-0.0002056152690987804
1.13465e-05;-0.00017576109574180083
1.13468e-05;-0.0001500789531239427
1.13470e-05;-0.00012870638333224604
1.13473e-05;-0.00011178087584551758
1.13475e-05;-9.938991730211898e-05
1.13477e-05;-9.145223757741983e-05
1.13480e-05;-8.772580417055392e-05
1.13483e-05;-8.799643313363195e-05
1.13485e-05;-9.21629178049509e-05
1.13488e-05;-0.0001001672359102399
1.13490e-05;-0.00011195138904758321
1.13493e-05;-0.00012745733217513412
1.13495e-05;-0.0001465957081423312
1.13498e-05;-0.00016917146637946686
1.13500e-05;-0.00019488884335546413
1.13503e-05;-0.00022346955933842707
1.13505e-05;-0.0002547061217872874
1.13508e-05;-0.0002884180904408021
1.13510e-05;-0.00032442503348597423
1.13513e-05;-0.00036302676159583334
1.13515e-05;-0.00040300849793173675
1.13518e-05;-0.00044457320027380907
1.13520e-05;-0.0004875418918333175
1.13523e-05;-0.0005314347655613703
1.13525e-05;-0.0005761473295377127
1.13528e-05;-0.0006212297576376147
1.13530e-05;-0.0006666402314686128
1.13533e-05;-0.0007118697217454148
1.13535e-05;-0.0007569386912298334
1.13538e-05;-0.0008011717184393562
1.13540e-05;-0.0008446633185203861
1.13543e-05;-0.0008866014275886395
1.13545e-05;-0.0009271616898663619
1.13548e-05;-0.0009655163712474203
1.13550e-05;-0.0010019148439774908
1.13553e-05;-0.0010354566639024852
1.13555e-05;-0.001066464816193454
1.13558e-05;-0.0010939635471464966
1.13560e-05;-0.0011183496466861938
1.13562e-05;-0.0011388886349329196
1.13565e-05;-0.0011560154824571155
1.13568e-05;-0.0011691980483809177
1.13570e-05;-0.001178882289757768
1.13573e-05;-0.0011845342718460993
1.13575e-05;-0.0011866098988266196
1.13578e-05;-0.0011845643325513878
1.13580e-05;-0.0011788635324492033
1.13583e-05;-0.0011691499379677132
1.13585e-05;-0.0011558772525031966
1.13588e-05;-0.001138850800936674
1.13590e-05;-0.0011184949998386253
1.13593e-05;-0.001095490675480115
1.13595e-05;-0.001068456512339414
1.13598e-05;-0.0010383137759280778
1.13600e-05;-0.001005203111753399
1.13603e-05;-0.0009693118602647039
1.13605e-05;-0.0009308612034365925
1.13608e-05;-0.0008900808252114904
1.13610e-05;-0.0008472004165074314
1.13613e-05;-0.0008024496921137424
1.13615e-05;-0.0007560558099479021
1.13618e-05;-0.0007082438078028752
1.13620e-05;-0.0006592525601443566
1.13623e-05;-0.0006093502370969537
1.13625e-05;-0.0005588261163159429
1.13628e-05;-0.0005079748365318685
1.13630e-05;-0.0004570910242690981
1.13633e-05;-0.0004064692411399121
1.13635e-05;-0.00035640247203423713
1.13638e-05;-0.00030718235624522497
1.13640e-05;-0.0002591091539953196
1.13643e-05;-0.0002125014614797921
1.13645e-05;-0.00016769111156146108
1.13647e-05;-0.00012501323186429625
1.13650e-05;-8.480291785577244e-05
1.13653e-05;-4.739522160037336e-05
1.13655e-05;-1.3043566973914853e-05
1.13658e-05;1.826528453947063e-05
1.13660e-05;4.6776409635681265e-05
1.13663e-05;7.265026281621903e-05
1.13665e-05;9.584097604605263e-05
1.13668e-05;0.00011622771248372661
1.13670e-05;0.0001336895778352679
1.13673e-05;0.00014810570047270885
1.13675e-05;0.0001594063731265005
1.13678e-05;0.00016768891296508787
1.13680e-05;0.00017319585683414916
1.13683e-05;0.0001761167125750762
1.13685e-05;0.00017651175008619
1.13688e-05;0.00017439428685021776
1.13690e-05;0.00016977757282192054
1.13693e-05;0.00016267491106764818
1.13695e-05;0.0001531316424878871
1.13698e-05;0.00014129771950498117
1.13700e-05;0.00012741405181314946
1.13703e-05;0.00011168832422376516
1.13705e-05;9.424724365380851e-05
1.13708e-05;7.518809948068886e-05
1.13710e-05;5.460815048601835e-05
1.13713e-05;3.26046627608333e-05
1.13715e-05;9.294975332356211e-06
1.13718e-05;-1.5138049847192339e-05
1.13720e-05;-4.045459415116861e-05
1.13723e-05;-6.64356726527146e-05
1.13725e-05;-9.298618295190026e-05
1.13728e-05;-0.0001198017392908885
1.13730e-05;-0.00014675114387261576
1.13732e-05;-0.00017381926325212412
1.13735e-05;-0.0002006636518545601
1.13738e-05;-0.00022730960562156172
1.13740e-05;-0.0002532517455963915
1.13743e-05;-0.0002785696479237351
1.13745e-05;-0.000302759981374861
1.13748e-05;-0.0003259502336249214
1.13750e-05;-0.000347625862985165
1.13753e-05;-0.0003679581190843742
1.13755e-05;-0.0003864932026328679
1.13758e-05;-0.00040343430951097413
1.13760e-05;-0.00041864275412603754
1.13763e-05;-0.0004323144385541557
1.13765e-05;-0.00044422127883860587
1.13768e-05;-0.0004545628156743732
1.13770e-05;-0.0004630214233070648
1.13773e-05;-0.0004698099936244585
1.13775e-05;-0.0004746630085341748
1.13778e-05;-0.0004777993100637792
1.13780e-05;-0.00047916485240012777
1.13783e-05;-0.00047895984501838984
1.13785e-05;-0.0004770882588945961
1.13788e-05;-0.0004737385244243592
1.13790e-05;-0.0004687726163811202
1.13793e-05;-0.0004623732661402719
1.13795e-05;-0.0004544491286872072
1.13798e-05;-0.00044517260287125837
1.13800e-05;-0.0004345988534490817
1.13803e-05;-0.0004228745499726487
1.13805e-05;-0.00041004258210900044
1.13808e-05;-0.00039622818704823767
1.13810e-05;-0.00038146200111289206
1.13813e-05;-0.0003658516377784747
1.13815e-05;-0.00034947099153439723
1.13817e-05;-0.0003324071538032558
1.13820e-05;-0.0003148398119282274
1.13823e-05;-0.0002968258942036255
1.13825e-05;-0.00027858883180852985
1.13828e-05;-0.00026007906412767705
1.13830e-05;-0.00024148357447211714
1.13833e-05;-0.00022290695778435493
1.13835e-05;-0.0002044588002335218
1.13838e-05;-0.00018626541150611184
1.13840e-05;-0.00016846905030871778
1.13843e-05;-0.00015120925011667034
1.13845e-05;-0.00013461437781410077
1.13848e-05;-0.00011880849357454983
1.13850e-05;-0.00010391564265142964
1.13853e-05;-9.005986426202905e-05
1.13855e-05;-7.748451535196659e-05
1.13858e-05;-6.677899783301504e-05
1.13860e-05;-5.872060471338095e-05
1.13863e-05;-5.37704397561116e-05
1.13865e-05;-5.198096196265949e-05
1.13868e-05;-5.3273174129862584e-05
1.13870e-05;-5.7567899069001044e-05
1.13873e-05;-6.478595617127623e-05
1.13875e-05;-7.492290691761231e-05
1.13878e-05;-8.819105432188798e-05
1.13880e-05;-0.00010492036429671102
1.13883e-05;-0.00012524271839237488
1.13885e-05;-0.00014903400803916177
1.13888e-05;-0.00017608778638788922
1.13890e-05;-0.00020619752239802396
1.13893e-05;-0.00023915668757654385
1.13895e-05;-0.0002748055657123686
1.13898e-05;-0.0003131202213488405
1.13900e-05;-0.00035415041522110654
1.13902e-05;-0.00039782183218101927
1.13905e-05;-0.00044442596711896946
1.13908e-05;-0.000492564721328473
1.13910e-05;-0.00054250481252982
1.13913e-05;-0.000594042573994535
1.13915e-05;-0.0006468630606384517
1.13918e-05;-0.000700821242163101
1.13920e-05;-0.0007557308752370559
1.13923e-05;-0.0008114843847510897
