Time(s);Current(A)
9.25000e-06;0.0066897285817600636
9.25025e-06;0.00670208004783671
9.25050e-06;0.006714431513913441
9.25075e-06;0.006726782979990171
9.25100e-06;0.006739134446066818
9.25125e-06;0.006751485912143549
9.25150e-06;0.00676383737822028
9.25175e-06;0.006806484598979655
9.25200e-06;0.00684983278647169
9.25225e-06;0.006893180973963725
9.25250e-06;0.006936529161455467
9.25275e-06;0.006979877348947503
9.25300e-06;0.007023225536439538
9.25325e-06;0.007066573723931279
9.25350e-06;0.007109921911423314
9.25375e-06;0.00715327009891535
9.25400e-06;0.007196618286407092
9.25425e-06;0.007241962154462262
9.25450e-06;0.00728949077768206
9.25475e-06;0.007337019400901537
9.25500e-06;0.0073845480241213355
9.25525e-06;0.007432076647341134
9.25550e-06;0.007479605270560611
9.25575e-06;0.007527133893780409
9.25600e-06;0.007574662517000208
9.25625e-06;0.007622191140220006
9.25650e-06;0.007651259982718579
9.25675e-06;0.007679901712827261
9.25700e-06;0.007708543442935943
9.25725e-06;0.00773718517304443
9.25750e-06;0.007765826903153112
9.25775e-06;0.007794468633261794
9.25800e-06;0.007823110363370281
9.25825e-06;0.007851752093478964
9.25850e-06;0.007865411943964076
9.25875e-06;0.007862670502833454
9.25900e-06;0.007859929061702813
9.25925e-06;0.007857187620572172
9.25950e-06;0.00785444617944155
9.25975e-06;0.007851704738310908
9.26000e-06;0.007848963297180267
9.26025e-06;0.007846221856049645
9.26050e-06;0.007843480414919004
9.26075e-06;0.007840738973788362
9.26100e-06;0.00783799753265774
9.26125e-06;0.007835256091527099
9.26150e-06;0.007832514650396458
9.26175e-06;0.007805737391856513
9.26200e-06;0.0077784040056140934
9.26225e-06;0.007751070619371673
9.26250e-06;0.00772373723312944
9.26275e-06;0.007696403846887021
9.26300e-06;0.007669070460644601
9.26325e-06;0.007641737074402367
9.26350e-06;0.007614403688159948
9.26375e-06;0.007587070301917529
9.26400e-06;0.007559736915675294
9.26425e-06;0.007532403529432875
9.26450e-06;0.007505070143190456
9.26475e-06;0.007477664509423353
9.26500e-06;0.0074501797832627744
9.26525e-06;0.00742269505710201
9.26550e-06;0.007395210330941245
9.26575e-06;0.007367725604780667
9.26600e-06;0.007340240878619902
9.26625e-06;0.0073127561524591374
9.26650e-06;0.007285271426298558
9.26675e-06;0.007257786700137794
9.26700e-06;0.007230301973977029
9.26725e-06;0.007210651035803975
9.26750e-06;0.007199576073709541
9.26775e-06;0.007188501111615108
9.26800e-06;0.007177426149520749
9.26825e-06;0.007166351187426315
9.26850e-06;0.007155276225331882
9.26875e-06;0.007144201263237523
9.26900e-06;0.00713312630114309
9.26925e-06;0.007122051339048655
9.26950e-06;0.007110976376954297
9.26975e-06;0.007109325761537439
9.27000e-06;0.007117992373469389
9.27025e-06;0.0071266589854012815
9.27050e-06;0.007135325597333233
9.27075e-06;0.007143992209265183
9.27100e-06;0.007152658821197076
9.27125e-06;0.007161325433129026
9.27150e-06;0.007169992045060977
9.27175e-06;0.007178658656992869
9.27200e-06;0.00718732526892482
9.27225e-06;0.007195991880856771
9.27250e-06;0.007204658492788663
9.27275e-06;0.007213325104720614
9.27300e-06;0.007221991716652564
9.27325e-06;0.007239061221637264
9.27350e-06;0.0072563251482028026
9.27375e-06;0.007273589074768458
9.27400e-06;0.007290853001334114
9.27425e-06;0.007308116927899653
9.27450e-06;0.007325380854465309
9.27475e-06;0.0073426447810309645
9.27500e-06;0.007359908707596504
9.27525e-06;0.00737717263416216
9.27550e-06;0.007394436560727816
9.27575e-06;0.007411700487293354
9.27600e-06;0.00742896441385901
9.27625e-06;0.007446228340424666
9.27650e-06;0.007457880234882692
9.27675e-06;0.007463388402551877
9.27700e-06;0.007468896570221061
9.27725e-06;0.007474404737890209
9.27750e-06;0.007479912905559393
9.27775e-06;0.007485421073228578
9.27800e-06;0.007490929240897725
9.27825e-06;0.007496437408566909
9.27850e-06;0.007501945576236094
9.27875e-06;0.007507453743905241
9.27900e-06;0.007502285150146546
9.27925e-06;0.007485428258112123
9.27950e-06;0.007468571366077815
9.27975e-06;0.007451714474043392
9.28000e-06;0.007434857582008969
9.28025e-06;0.007418000689974661
9.28050e-06;0.007401143797940238
9.28075e-06;0.007384286905905815
9.28100e-06;0.007367430013871506
9.28125e-06;0.007350573121837083
9.28150e-06;0.0073252005181452095
9.28175e-06;0.007290505407946083
9.28200e-06;0.007255810297747192
9.28225e-06;0.007221115187548066
9.28250e-06;0.0071864200773489395
9.28275e-06;0.007151724967150048
9.28300e-06;0.007117029856950922
9.28325e-06;0.007082334746751796
9.28350e-06;0.007047639636552905
9.28375e-06;0.007012944526353778
9.28400e-06;0.006978249416154652
9.28425e-06;0.006943672711059842
9.28450e-06;0.0069092256289954735
9.28475e-06;0.006874778546931104
9.28500e-06;0.006840331464866969
9.28525e-06;0.006805884382802601
9.28550e-06;0.006771437300738233
9.28575e-06;0.006736990218674097
9.28600e-06;0.006702543136609729
9.28625e-06;0.0066680960545453605
9.28650e-06;0.0066336489724812256
9.28675e-06;0.006599201890416857
9.28700e-06;0.006569881113782855
9.28725e-06;0.006546172318585708
9.28750e-06;0.0065224635233883995
9.28775e-06;0.0064987547281910914
9.28800e-06;0.006475045932993945
9.28825e-06;0.006451337137796637
9.28850e-06;0.006427628342599329
9.28875e-06;0.006403919547402181
9.28900e-06;0.006380210752204873
9.28925e-06;0.006356501957007565
9.28950e-06;0.006332793161810417
9.28975e-06;0.006309084366613109
9.29000e-06;0.006285136728509241
9.29025e-06;0.006260927619063828
9.29050e-06;0.00623671850961858
9.29075e-06;0.006212509400173166
9.29100e-06;0.006188300290727753
9.29125e-06;0.006164091181282505
9.29150e-06;0.006139882071837091
9.29175e-06;0.0061156729623916785
9.29200e-06;0.00609146385294643
9.29225e-06;0.006067254743501017
9.29250e-06;0.0060430456340556035
9.29275e-06;0.006018836524610355
9.29300e-06;0.00599465172869089
9.29325e-06;0.00597049354980745
9.29350e-06;0.005946335370924173
9.29375e-06;0.005922177192040733
9.29400e-06;0.005898019013157292
9.29425e-06;0.005873860834274016
9.29450e-06;0.005849702655390575
9.29475e-06;0.005825544476507135
9.29500e-06;0.005801386297623858
9.29525e-06;0.005782300577382118
9.29550e-06;0.005763332220937563
9.29575e-06;0.005744363864493136
9.29600e-06;0.005725395508048581
9.29625e-06;0.005706427151604025
9.29650e-06;0.005687458795159599
9.29675e-06;0.0056684904387150434
9.29700e-06;0.005649522082270489
9.29725e-06;0.005640428896714482
9.29750e-06;0.0056421464746767985
9.29775e-06;0.0056438640526391155
9.29800e-06;0.005645581630601421
9.29825e-06;0.005647299208563738
9.29850e-06;0.005649016786526056
9.29875e-06;0.005650734364488373
9.29900e-06;0.0056524519424506784
9.29925e-06;0.005654169520412995
9.29950e-06;0.0056864808247080205
9.29975e-06;0.005719499990051947
9.30000e-06;0.005752519155396098
9.30025e-06;0.005785538320740248
9.30050e-06;0.005818557486084175
9.30075e-06;0.005851576651428326
9.30100e-06;0.005884595816772476
9.30125e-06;0.005917614982116404
9.30150e-06;0.0059625663989803495
9.30175e-06;0.006020580551758869
9.30200e-06;0.006078594704536995
9.30225e-06;0.006136608857315515
9.30250e-06;0.006194623010094035
9.30275e-06;0.006252637162872161
9.30300e-06;0.0063106513156506805
9.30325e-06;0.0063686654684292
9.30350e-06;0.006426679621207326
9.30375e-06;0.006486987268568572
9.30400e-06;0.006549805700588389
9.30425e-06;0.00661262413260778
9.30450e-06;0.006675442564627597
9.30475e-06;0.006738260996647412
9.30500e-06;0.006801079428666803
9.30525e-06;0.00686389786068662
9.30550e-06;0.006926716292706437
9.30575e-06;0.0069895347247258275
9.30600e-06;0.007043368682079794
9.30625e-06;0.007087366958404443
9.30650e-06;0.0071313652347287934
9.30675e-06;0.0071753635110534415
9.30700e-06;0.00721936178737809
9.30725e-06;0.007263360063702739
9.30750e-06;0.00730735834002709
9.30775e-06;0.007351356616351738
9.30800e-06;0.007395354892676387
9.30825e-06;0.007439353169000737
9.30850e-06;0.007475053645772919
9.30875e-06;0.0075105621325583065
9.30900e-06;0.007546070619343453
9.30925e-06;0.007581579106128839
9.30950e-06;0.007617087592914226
9.30975e-06;0.007652596079699372
9.31000e-06;0.007688104566484759
9.31025e-06;0.007723613053270146
9.31050e-06;0.007759121540055292
9.31075e-06;0.007794953645051082
9.31100e-06;0.007831140028467336
9.31125e-06;0.007867326411883348
9.31150e-06;0.007903512795299602
9.31175e-06;0.007939699178715858
9.31200e-06;0.007975885562131867
9.31225e-06;0.008012071945548123
9.31250e-06;0.00804825832896438
9.31275e-06;0.008084444712380389
9.31300e-06;0.008120631095796645
9.31325e-06;0.008156817479212899
9.31350e-06;0.00819300386262891
9.31375e-06;0.008226658062931446
9.31400e-06;0.008257540176234193
9.31425e-06;0.008288422289536732
9.31450e-06;0.008319304402839478
9.31475e-06;0.008350186516142225
9.31500e-06;0.008381068629444764
9.31525e-06;0.00841195074274751
9.31550e-06;0.00844283285605026
9.31575e-06;0.008473714969353006
9.31600e-06;0.008504597082655545
9.31625e-06;0.008535479195958292
9.31650e-06;0.008566361309261038
9.31675e-06;0.008586881475099747
9.31700e-06;0.008596057982691965
9.31725e-06;0.008605234490284183
9.31750e-06;0.008614410997876338
9.31775e-06;0.008623587505468556
9.31800e-06;0.008632764013060774
9.31825e-06;0.00864194052065293
9.31850e-06;0.008651117028245147
9.31875e-06;0.00862465158167078
9.31900e-06;0.00859736147088416
9.31925e-06;0.008570071360097355
9.31950e-06;0.008542781249310549
9.31975e-06;0.008515491138523928
9.32000e-06;0.008488201027737124
9.32025e-06;0.008460910916950318
9.32050e-06;0.008420236211297411
9.32075e-06;0.00836490882858069
9.32100e-06;0.008309581445863965
9.32125e-06;0.008254254063147616
9.32150e-06;0.008193476338825195
9.32175e-06;0.008131509354350556
9.32200e-06;0.008069542369876339
9.32225e-06;0.008005609195568171
9.32250e-06;0.00793168109822015
9.32275e-06;0.007865669507565863
9.32300e-06;0.0077673062296987625
9.32325e-06;0.007674106393473391
9.32350e-06;0.007585631904120697
9.32375e-06;0.007505680248166686
9.32400e-06;0.007413137991754918
9.32425e-06;0.0073265676532981916
9.32450e-06;0.007239997314842052
9.32475e-06;0.007153426976385326
9.32500e-06;0.0070668566379285995
9.32525e-06;0.00698028629947246
9.32550e-06;0.006896349497041605
9.32575e-06;0.006825524998945285
9.32600e-06;0.006754700500849445
9.32625e-06;0.006683876002753125
9.32650e-06;0.006613051504656805
9.32675e-06;0.006542227006560965
9.32700e-06;0.006477607718810174
9.32725e-06;0.0064351258120981195
9.32750e-06;0.006392643905386353
9.32775e-06;0.006350161998674297
9.32800e-06;0.006307680091962242
9.32825e-06;0.006265198185250474
9.32850e-06;0.006222716278538419
9.32875e-06;0.0061802343718263646
9.32900e-06;0.006137752465114597
9.32925e-06;0.006095270558402542
9.32950e-06;0.006052788651690486
9.32975e-06;0.006010306744978719
9.33000e-06;0.005967824838266664
9.33025e-06;0.005940397453153883
9.33050e-06;0.005918855552221241
9.33075e-06;0.0058973136512884515
9.33100e-06;0.005875771750355663
9.33125e-06;0.00585422984942302
9.33150e-06;0.005832687948490231
9.33175e-06;0.005811146047557442
9.33200e-06;0.005789604146624799
9.33225e-06;0.00576806224569201
9.33250e-06;0.005746520344759222
9.33275e-06;0.0057249784438264326
9.33300e-06;0.00570343654289379
9.33325e-06;0.005683780267175336
9.33350e-06;0.005670851048487155
9.33375e-06;0.005657921829799061
9.33400e-06;0.0056449926111108795
9.33425e-06;0.005632063392422698
9.33450e-06;0.005619134173734604
9.33475e-06;0.005606204955046423
9.33500e-06;0.005594104341991525
9.33525e-06;0.0055849598186775195
9.33550e-06;0.005575815295363453
9.33575e-06;0.0055666707720493855
9.33600e-06;0.00555752624873538
9.33625e-06;0.005548381725421312
9.33650e-06;0.005539237202107246
9.33675e-06;0.005532797884178025
9.33700e-06;0.005536009514256495
9.33725e-06;0.005539221144334964
9.33750e-06;0.005542432774413411
9.33775e-06;0.00554564440449188
9.33800e-06;0.00554885603457035
9.33825e-06;0.005552067664648797
9.33850e-06;0.005578660063497922
9.33875e-06;0.0056143930480408435
9.33900e-06;0.005650126032583522
9.33925e-06;0.005685859017126443
9.33950e-06;0.0057215920016693645
9.33975e-06;0.005757324986212044
9.34000e-06;0.005801841679998125
9.34025e-06;0.005877694671463385
9.34050e-06;0.005953547662928131
9.34075e-06;0.006029400654393391
9.34100e-06;0.006105253645858651
9.34125e-06;0.006181106637323911
9.34150e-06;0.006256959628788657
9.34175e-06;0.006332812620253917
9.34200e-06;0.006408665611719177
9.34225e-06;0.006504804575164299
9.34250e-06;0.00660887423015845
9.34275e-06;0.006712943885152602
9.34300e-06;0.006817013540146048
9.34325e-06;0.006921083195140199
9.34350e-06;0.00702515285013435
9.34375e-06;0.0071292225051277965
9.34400e-06;0.0072332921601219475
9.34425e-06;0.007336860328429418
9.34450e-06;0.007438639419290208
9.34475e-06;0.007540418510151687
9.34500e-06;0.007642197601013166
9.34525e-06;0.007743976691873956
9.34550e-06;0.007845755782735435
9.34575e-06;0.007947534873596914
9.34600e-06;0.008049313964457705
9.34625e-06;0.008126279250423854
9.34650e-06;0.008193543712934598
9.34675e-06;0.008260808175444887
9.34700e-06;0.008328072637955632
9.34725e-06;0.008395337100466376
9.34750e-06;0.008462601562976665
9.34775e-06;0.00852986602548741
9.34800e-06;0.008584748913806433
9.34825e-06;0.008595459951256743
9.34850e-06;0.008606170988707126
9.34875e-06;0.008616882026157508
9.34900e-06;0.008627593063607818
9.34925e-06;0.008638304101058201
9.34950e-06;0.008649015138508584
9.34975e-06;0.008659726175958966
9.35000e-06;0.008670437213409276
9.35025e-06;0.008669073840588869
9.35050e-06;0.008624634438697305
9.35075e-06;0.008580195036806043
9.35100e-06;0.00853575563491448
9.35125e-06;0.008491316233022916
9.35150e-06;0.008446876831131654
9.35175e-06;0.00840243742924009
9.35200e-06;0.008357998027348526
9.35225e-06;0.008313558625457265
9.35250e-06;0.008262507973569814
9.35275e-06;0.008187871374986503
9.35300e-06;0.008113234776403699
9.35325e-06;0.008038598177820388
9.35350e-06;0.007963961579237077
9.35375e-06;0.007889324980654271
9.35400e-06;0.00781468838207096
9.35425e-06;0.007740051783487649
9.35450e-06;0.007665634695925923
9.35475e-06;0.007592000724301847
9.35500e-06;0.00751836675267777
9.35525e-06;0.007444732781054193
9.35550e-06;0.007371098809430116
9.35575e-06;0.00729746483780604
9.35600e-06;0.007223830866182462
9.35625e-06;0.007150196894558386
9.35650e-06;0.0070844323303827115
9.35675e-06;0.007046742249059737
9.35700e-06;0.007009052167736509
9.35725e-06;0.006971362086413279
9.35750e-06;0.006933672005090306
9.35775e-06;0.0068959819237670765
9.35800e-06;0.006858291842443847
9.35825e-06;0.006820601761120618
9.35850e-06;0.006782911679797644
9.35875e-06;0.006745221598474415
9.35900e-06;0.0067075315171511865
9.35925e-06;0.006669841435828212
9.35950e-06;0.006641200926266229
9.35975e-06;0.006644845191500704
9.36000e-06;0.006648489456735154
9.36025e-06;0.006652133721969628
9.36050e-06;0.006655777987204102
9.36075e-06;0.006659422252438553
9.36100e-06;0.0066630665176730264
9.36125e-06;0.006666710782907501
9.36150e-06;0.006670355048141951
9.36175e-06;0.006673999313376425
9.36200e-06;0.0066776435786109
9.36225e-06;0.00668128784384535
9.36250e-06;0.006689555831333936
9.36275e-06;0.006714319166408633
9.36300e-06;0.006739082501483163
9.36325e-06;0.00676384583655786
9.36350e-06;0.006788609171632557
9.36375e-06;0.006813372506707087
9.36400e-06;0.0068381358417817836
9.36425e-06;0.006862899176856481
9.36450e-06;0.006887662511931011
9.36475e-06;0.006912425847005708
9.36500e-06;0.006937189182080405
9.36525e-06;0.006959055580828056
9.36550e-06;0.006979789437911945
9.36575e-06;0.007000523294995833
9.36600e-06;0.007021257152079581
9.36625e-06;0.007041991009163469
9.36650e-06;0.007062724866247357
9.36675e-06;0.0070834587233312455
9.36700e-06;0.0071041925804149935
9.36725e-06;0.007124926437498882
9.36750e-06;0.0071456602945827695
9.36775e-06;0.007160482927563976
9.36800e-06;0.007154216989281956
9.36825e-06;0.007147951050999936
9.36850e-06;0.007141685112717958
9.36875e-06;0.0071354191744359375
9.36900e-06;0.007129153236153918
9.36925e-06;0.007122887297871939
9.36950e-06;0.0071166213595899195
9.36975e-06;0.007110355421307899
9.37000e-06;0.007104089483025921
9.37025e-06;0.007097823544743901
9.37050e-06;0.007091557606461881
9.37075e-06;0.007065424535002735
9.37100e-06;0.0070315245147635486
9.37125e-06;0.006997624494524363
9.37150e-06;0.006963724474285407
9.37175e-06;0.006929824454046221
9.37200e-06;0.006895924433807035
9.37225e-06;0.0068620244135680795
9.37250e-06;0.006828124393328893
9.37275e-06;0.006794224373089707
9.37300e-06;0.006760324352850751
9.37325e-06;0.006726424332611566
9.37350e-06;0.006690671526385487
9.37375e-06;0.006648308818615241
9.37400e-06;0.006605946110844708
9.37425e-06;0.006563583403074175
9.37450e-06;0.006521220695303929
9.37475e-06;0.0064788579875333955
9.37500e-06;0.006436495279762863
9.37525e-06;0.00639413257199233
9.37550e-06;0.006351769864222084
9.37575e-06;0.0063124394316403385
9.37600e-06;0.006283926784057914
9.37625e-06;0.006255414136475681
9.37650e-06;0.006226901488893257
9.37675e-06;0.006198388841310832
9.37700e-06;0.0061698761937285995
9.37725e-06;0.006141363546146175
9.37750e-06;0.00611285089856375
9.37775e-06;0.006084338250981518
9.37800e-06;0.006063732306972207
9.37825e-06;0.0060713339015246144
9.37850e-06;0.006078935496076971
9.37875e-06;0.006086537090629379
9.37900e-06;0.006094138685181787
9.37925e-06;0.006101740279734143
9.37950e-06;0.006109341874286552
9.37975e-06;0.0061169434688389595
9.38000e-06;0.006124545063391316
9.38025e-06;0.0061321466579437245
9.38050e-06;0.006147743994638358
9.38075e-06;0.006191866519197616
9.38100e-06;0.006235989043757174
9.38125e-06;0.006280111568316732
9.38150e-06;0.0063242340928759905
9.38175e-06;0.006368356617435548
9.38200e-06;0.006412479141995105
9.38225e-06;0.006456601666554364
9.38250e-06;0.006500724191113922
9.38275e-06;0.00654484671567348
9.38300e-06;0.006592376084127765
9.38325e-06;0.006652059529140997
9.38350e-06;0.006711742974154228
9.38375e-06;0.00677142641916746
9.38400e-06;0.006831109864180287
9.38425e-06;0.006890793309193519
9.38450e-06;0.006950476754206751
9.38475e-06;0.007010160199219578
9.38500e-06;0.00706984364423281
9.38525e-06;0.00712673079424635
9.38550e-06;0.007173642029730844
9.38575e-06;0.007220553265215656
9.38600e-06;0.007267464500700468
9.38625e-06;0.007314375736184962
9.38650e-06;0.007361286971669774
9.38675e-06;0.007408198207154586
9.38700e-06;0.0074551094426390805
9.38725e-06;0.007502020678123892
9.38750e-06;0.007540730685544575
9.38775e-06;0.00755018242435723
9.38800e-06;0.007559634163169948
9.38825e-06;0.007569085901982666
9.38850e-06;0.00757853764079532
9.38875e-06;0.007587989379608038
9.38900e-06;0.0075974411184207575
9.38925e-06;0.0076068928572334115
9.38950e-06;0.00761634459604613
9.38975e-06;0.007625796334858848
9.39000e-06;0.007635248073671502
9.39025e-06;0.0076363344841074
9.39050e-06;0.007607577190314076
9.39075e-06;0.007578819896520947
9.39100e-06;0.007550062602727624
9.39125e-06;0.007521305308934301
9.39150e-06;0.007492548015141172
9.39175e-06;0.007463790721347848
9.39200e-06;0.0074350334275545245
9.39225e-06;0.007406276133761201
9.39250e-06;0.007377518839968072
9.39275e-06;0.007348761546174748
9.39300e-06;0.007316388884145676
9.39325e-06;0.007271118225116499
9.39350e-06;0.0072258475660870155
9.39375e-06;0.007180576907057532
9.39400e-06;0.007135306248028354
9.39425e-06;0.00709003558899887
9.39450e-06;0.0070447649299693865
9.39475e-06;0.00699949427094021
9.39500e-06;0.006954223611910726
9.39525e-06;0.0069107559493601055
9.39550e-06;0.006873720561937053
9.39575e-06;0.00683668517451375
9.39600e-06;0.006799649787090446
9.39625e-06;0.006762614399667394
9.39650e-06;0.006725579012244091
9.39675e-06;0.006688543624820787
9.39700e-06;0.006651508237397735
9.39725e-06;0.006614472849974432
9.39750e-06;0.0065825651864833525
9.39775e-06;0.006568950920400273
9.39800e-06;0.006555336654317102
9.39825e-06;0.006541722388233931
9.39850e-06;0.006528108122150852
9.39875e-06;0.006514493856067682
9.39900e-06;0.00650087958998451
9.39925e-06;0.006487265323901432
9.39950e-06;0.006473651057818261
9.39975e-06;0.0064600367917350895
9.40000e-06;0.006446422525652011
9.40025e-06;0.00643280825956884
9.40050e-06;0.006419193993485669
9.40075e-06;0.006405579727402498
9.40100e-06;0.006391965461319419
