Time(s);Current(A)
1.42500e-05;-0.0003919445629619578
1.42503e-05;-0.0003808934226293136
1.42505e-05;-0.000367625683491572
1.42508e-05;-0.00035230296590403945
1.42510e-05;-0.00033508691027949925
1.42513e-05;-0.00031597142250372907
1.42515e-05;-0.0002945043041964092
1.42518e-05;-0.00027011597739204666
1.42520e-05;-0.00024269646388577708
1.42523e-05;-0.00021246260504614363
1.42525e-05;-0.0001796595210703085
1.42528e-05;-0.00014453266024325336
1.42530e-05;-0.00010732741603502633
1.42533e-05;-6.818413051651323e-05
1.42535e-05;-2.6963722254789876e-05
1.42538e-05;1.6546436391170088e-05
1.42540e-05;6.227103312783953e-05
1.42543e-05;0.00010993003716577451
1.42545e-05;0.0001592257465725217
1.42548e-05;0.00020986028570851124
1.42550e-05;0.00026190072372618746
1.42553e-05;0.0003140510044063415
1.42555e-05;0.0003675981387619438
1.42558e-05;0.0004212629682275044
1.42560e-05;0.000475855892940921
1.42563e-05;0.0005305270164483536
1.42565e-05;0.0005849658343008314
1.42568e-05;0.0006393850787072075
1.42570e-05;0.0006928677725787432
1.42573e-05;0.0007452819913944547
1.42575e-05;0.0007964657047940789
1.42578e-05;0.0008462681512448804
1.42580e-05;0.0008944255374455647
1.42583e-05;0.0009405938088689744
1.42585e-05;0.0009844219965321624
1.42588e-05;0.0010255591574005584
1.42590e-05;0.0010636541964331725
1.42593e-05;0.0010982236193835132
1.42595e-05;0.0011284719303848818
1.42598e-05;0.0011536254198726396
1.42600e-05;0.0011733833363246288
1.42603e-05;0.0011877419139581316
1.42605e-05;0.0011967225165316082
1.42608e-05;0.0011978874093087242
1.42610e-05;0.001198428973385865
1.42613e-05;0.0011889132017396007
1.42615e-05;0.0011785500262058537
1.42618e-05;0.0011601154068632668
1.42620e-05;0.0011330429154964951
1.42623e-05;0.0011052999219444454
1.42625e-05;0.0010700676914880503
1.42628e-05;0.0010295253092185634
1.42630e-05;0.0009820147039872457
1.42633e-05;0.0009339501936492374
1.42635e-05;0.0008795604307414139
1.42638e-05;0.0008205264096861263
1.42640e-05;0.0007573025563005108
1.42643e-05;0.000688728157984743
1.42645e-05;0.0006197302228260786
1.42648e-05;0.0005464458866348632
1.42650e-05;0.0004694229858982757
1.42653e-05;0.0003921155142425591
1.42655e-05;0.0003120317692328338
1.42658e-05;0.000230226281118162
1.42660e-05;0.00014687618639934
1.42663e-05;6.340650978879195e-05
1.42665e-05;-2.0574298703769222e-05
1.42668e-05;-0.00010433302702796708
1.42670e-05;-0.0001873499070461596
1.42673e-05;-0.00026915274775812066
1.42675e-05;-0.000349317448901002
1.42678e-05;-0.0004274165088639651
1.42680e-05;-0.0005029497122024357
1.42683e-05;-0.0005753711764644146
1.42685e-05;-0.0006441311464227372
1.42688e-05;-0.0007086800631953633
1.42690e-05;-0.0007684682808864824
1.42693e-05;-0.0008217590759451043
1.42695e-05;-0.0008745338666195523
1.42698e-05;-0.000923283296471405
1.42700e-05;-0.0009716935603152394
1.42703e-05;-0.0010157704940475369
1.42705e-05;-0.0010594823131126509
1.42708e-05;-0.0011031941321774685
1.42710e-05;-0.0011397190109807556
1.42713e-05;-0.0011756383376487398
1.42715e-05;-0.0012115576643164808
1.42718e-05;-0.0012435933926672135
1.42720e-05;-0.001275301899534503
1.42723e-05;-0.0013070104064015777
1.42725e-05;-0.0013322659392869009
1.42728e-05;-0.0013569777620491097
1.42730e-05;-0.001381689584811151
1.42733e-05;-0.0014064014075733599
1.42735e-05;-0.0014311132303355687
1.42738e-05;-0.00145582505309761
1.42740e-05;-0.0014805368758598189
1.42743e-05;-0.0015052486986220277
1.42745e-05;-0.0015268733107438005
1.42748e-05;-0.0015442744978218417
1.42750e-05;-0.001561675684899883
1.42753e-05;-0.0015790768719778062
1.42755e-05;-0.0015964780590558474
1.42758e-05;-0.0016138792461338884
1.42760e-05;-0.0016312804332118118
1.42763e-05;-0.0016486816202898528
1.42765e-05;-0.001666082807367894
1.42768e-05;-0.0016765799501398558
1.42770e-05;-0.0016864953768237873
1.42773e-05;-0.0016964108035077189
1.42775e-05;-0.0017063262301915832
1.42778e-05;-0.0017162416568755148
1.42780e-05;-0.0017261570835594463
1.42783e-05;-0.0017360725102433107
1.42785e-05;-0.0017459879369272422
1.42788e-05;-0.0017559033636111738
1.42790e-05;-0.0017658187902951053
1.42793e-05;-0.00177573421697897
1.42795e-05;-0.0017856496436629015
1.42798e-05;-0.001795565070346833
1.42800e-05;-0.0018054804970306973
1.42803e-05;-0.001815395923714629
1.42805e-05;-0.0018167112802586457
1.42808e-05;-0.0018173020181677208
1.42810e-05;-0.0018178927560768
1.42813e-05;-0.0018184834939858792
1.42815e-05;-0.0018190742318949541
1.42818e-05;-0.0018196649698040334
1.42820e-05;-0.0018202557077131125
1.42823e-05;-0.0018208464456221877
1.42825e-05;-0.0018214371835312668
1.42828e-05;-0.0018220279214403458
1.42830e-05;-0.001822618659349421
1.42833e-05;-0.0018232093972585
1.42835e-05;-0.0018238001351675794
1.42838e-05;-0.0018243908730766543
1.42840e-05;-0.0018249816109857336
1.42843e-05;-0.0018207742362804419
1.42845e-05;-0.0018161625855916924
1.42848e-05;-0.0018115509349029117
1.42850e-05;-0.0018069392842141312
1.42853e-05;-0.0018023276335253817
1.42855e-05;-0.001797715982836601
1.42858e-05;-0.0017931043321478203
1.42860e-05;-0.0017884926814590708
1.42863e-05;-0.0017838810307702901
1.42865e-05;-0.0017786200856194795
1.42868e-05;-0.00177330443267454
1.42870e-05;-0.0017679887797295646
1.42873e-05;-0.001762673126784589
1.42875e-05;-0.0017573574738396138
1.42878e-05;-0.0017520418208946743
1.42880e-05;-0.001746726167949699
1.42883e-05;-0.0017414105150047234
1.42885e-05;-0.0017360948620597841
1.42888e-05;-0.0017316987267947555
1.42890e-05;-0.0017273800676009417
1.42893e-05;-0.0017226597956960198
1.42895e-05;-0.0017179056849909123
1.42898e-05;-0.001707613406041524
1.42900e-05;-0.0016968544960238878
1.42903e-05;-0.001686095586006179
1.42905e-05;-0.0016682409991429278
1.42908e-05;-0.0016497885497517672
1.42910e-05;-0.0016313361003604816
1.42913e-05;-0.0016059998841947848
1.42915e-05;-0.0015800836604702773
1.42918e-05;-0.001554167436745594
1.42920e-05;-0.001519079884008239
1.42923e-05;-0.0014832195799086639
1.42925e-05;-0.0014473592758088459
1.42928e-05;-0.0014040265022224859
1.42930e-05;-0.0013600641185799911
1.42933e-05;-0.0013161017349371984
1.42935e-05;-0.0012653289531480304
1.42938e-05;-0.001213982345642103
1.42940e-05;-0.0011626357381358278
1.42943e-05;-0.0011051926629168964
1.42945e-05;-0.001047235915827466
1.42948e-05;-0.000989279168737643
1.42950e-05;-0.0009282855688762297
1.42953e-05;-0.0008670360920191613
1.42955e-05;-0.0008041615626858359
1.42958e-05;-0.0007411501108286714
1.42960e-05;-0.0006770577511875311
1.42963e-05;-0.0006128743171821393
1.42965e-05;-0.0005489670623759264
1.42968e-05;-0.000485083077681669
1.42970e-05;-0.00042287780298334615
1.42973e-05;-0.0003608139718458529
1.42975e-05;-0.00030067276560199243
1.42978e-05;-0.000242196085869972
1.42980e-05;-0.0001856429283224785
1.42983e-05;-0.00013141556577043735
1.42985e-05;-7.992437135941193e-05
1.42988e-05;-3.1579770698260985e-05
1.42990e-05;1.3207881101000758e-05
1.42993e-05;5.4254396731286196e-05
1.42995e-05;9.20202755397509e-05
1.42998e-05;0.0001272461445017866
1.43000e-05;0.00016016905380050045
1.43003e-05;0.0001906261120043058
1.43005e-05;0.00021841924008001533
1.43008e-05;0.00024335001474754951
1.43010e-05;0.00026521999380094434
1.43013e-05;0.000283972526592813
1.43015e-05;0.0002999546981123394
1.43018e-05;0.0003136890558397193
1.43020e-05;0.00032538267522146737
1.43023e-05;0.00033499214210949485
1.43025e-05;0.0003424519600300038
1.43028e-05;0.00034769638116829646
1.43030e-05;0.0003506598210243616
1.43033e-05;0.00035136531470753127
1.43035e-05;0.00035008891530322826
1.43038e-05;0.000347216535191862
1.43040e-05;0.0003429364451646861
1.43043e-05;0.00033665394359347
1.43045e-05;0.0003302118543775958
1.43048e-05;0.0003212978418776645
1.43050e-05;0.0003121755518112211
1.43053e-05;0.00030083364154031813
1.43055e-05;0.00028930471207773987
1.43058e-05;0.00027642835881671674
1.43060e-05;0.00026343847527279324
1.43063e-05;0.00024944223362889943
1.43065e-05;0.00023536119897476886
1.43068e-05;0.00022128016432063834
1.43070e-05;0.00020659031321352593
1.43073e-05;0.0001918491648795294
1.43075e-05;0.00017710801654553286
1.43078e-05;0.0001631145884773263
1.43080e-05;0.00014918416129517092
1.43083e-05;0.00013525373411301558
1.43085e-05;0.00012246659146961184
1.43088e-05;0.00011050028961403546
1.43090e-05;9.941348472094199e-05
1.43093e-05;8.935874451136206e-05
1.43095e-05;8.061137749301768e-05
1.43098e-05;7.344850051994249e-05
1.43100e-05;6.797620800421506e-05
1.43103e-05;6.419059038354241e-05
1.43105e-05;6.207837015143169e-05
1.43108e-05;6.162617967747823e-05
1.43110e-05;6.282064631699713e-05
1.43113e-05;6.56801444494075e-05
1.43115e-05;7.029994205030201e-05
1.43118e-05;7.677642698926599e-05
1.43120e-05;8.50988367943979e-05
1.43123e-05;9.518751220343706e-05
1.43125e-05;0.00010695693454199674
1.43128e-05;0.00012032152343114918
1.43130e-05;0.00013519569905743632
1.43133e-05;0.000151513805216084
1.43135e-05;0.00016925828796392195
1.43138e-05;0.0001884123442135175
1.43140e-05;0.0002088920406954725
1.43143e-05;0.00023057027158179713
1.43145e-05;0.0002485830287305105
1.43148e-05;0.00026354891773315803
1.43150e-05;0.00029349460920003665
1.43153e-05;0.00031328198050365244
1.43155e-05;0.0003434320326610464
1.43158e-05;0.0003723106521318539
1.43160e-05;0.00039944812189235916
1.43163e-05;0.00042562593652216223
1.43165e-05;0.0004522880205310953
1.43168e-05;0.000479174923794643
1.43170e-05;0.0005050461453316977
1.43173e-05;0.0005319875516584171
1.43175e-05;0.0005579422759552648
1.43178e-05;0.0005862485129755562
1.43180e-05;0.0006098537910409444
1.43183e-05;0.0006325230314436799
1.43185e-05;0.0006510596205490221
1.43188e-05;0.0006737480999467545
1.43190e-05;0.0006908288819281035
1.43193e-05;0.0007079096639093366
1.43195e-05;0.0007249904458906857
1.43198e-05;0.0007420712278720347
1.43200e-05;0.0007579465798297675
1.43203e-05;0.0007706717058280261
1.43205e-05;0.0007833968318262847
1.43208e-05;0.0007961219578244571
1.43210e-05;0.0008088470838227157
1.43213e-05;0.0008208643803626943
1.43215e-05;0.0008301042687020989
1.43218e-05;0.0008369200199182985
1.43220e-05;0.0008437357711345441
1.43223e-05;0.0008505515223507899
1.43225e-05;0.0008573672735669893
1.43228e-05;0.000864183024783235
1.43230e-05;0.0008709987759994807
1.43233e-05;0.0008778145272156802
1.43235e-05;0.0008846302784319259
1.43238e-05;0.0008914460296481716
1.43240e-05;0.000898261780864371
1.43243e-05;0.000901726059977265
1.43245e-05;0.0009042270768591157
1.43248e-05;0.0009067280937409494
1.43250e-05;0.0009092291106228001
1.43253e-05;0.0009117301275046509
1.43255e-05;0.0009142311443864846
1.43258e-05;0.0009167321612683353
1.43260e-05;0.000919233178150186
1.43263e-05;0.0009217341950320197
1.43265e-05;0.0009242352119138705
1.43268e-05;0.0009262648015672543
1.43270e-05;0.0009270623808471372
1.43273e-05;0.0009278599601270256
1.43275e-05;0.0009286575394069139
1.43278e-05;0.0009294551186867969
1.43280e-05;0.0009302526979666852
1.43283e-05;0.0009310502772465736
1.43285e-05;0.000931904462990137
1.43288e-05;0.0009327749182614892
1.43290e-05;0.0009336453735328415
1.43293e-05;0.0009345158288041877
1.43295e-05;0.00093538628407554
1.43298e-05;0.0009362567393468922
1.43300e-05;0.0009381203236045182
1.43303e-05;0.0009425793141928103
1.43305e-05;0.0009470383047811326
1.43308e-05;0.000951497295369455
1.43310e-05;0.0009559562859577471
1.43313e-05;0.0009604152765460694
1.43315e-05;0.0009648742671343918
1.43318e-05;0.0009693332577226839
1.43320e-05;0.0009751915082654337
1.43323e-05;0.0009847065326960178
1.43325e-05;0.0009942215571265376
1.43328e-05;0.0010037365815571218
1.43330e-05;0.001013251605987706
1.43333e-05;0.0010227666304182255
1.43335e-05;0.0010322816548488096
1.43338e-05;0.0010417966792793938
1.43340e-05;0.001052324097304547
1.43343e-05;0.00106549726707141
1.43345e-05;0.0010786704368382731
1.43348e-05;0.0010918436066050471
1.43350e-05;0.0011050167763719102
1.43353e-05;0.0011181899461387736
1.43355e-05;0.0011313631159055473
1.43358e-05;0.0011445362856724107
1.43360e-05;0.0011581088836682802
1.43363e-05;0.0011717962831946246
1.43365e-05;0.0011854836827210615
1.43368e-05;0.0011991710822474987
1.43370e-05;0.001212858481773843
1.43373e-05;0.0012265458813002803
1.43375e-05;0.0012402332808267172
1.43378e-05;0.0012534486265140924
1.43380e-05;0.0012654303242671642
1.43383e-05;0.001277412022020236
1.43385e-05;0.0012888311075801872
1.43388e-05;0.0012987798833732351
1.43390e-05;0.0013087286591663505
1.43393e-05;0.001317891863467644
1.43395e-05;0.0013250020844686049
1.43398e-05;0.0013321123054696141
1.43400e-05;0.0013376803919604616
1.43403e-05;0.0013392183215155892
1.43405e-05;0.0013407562510707274
1.43408e-05;0.0013422941806258653
1.43410e-05;0.0013438321101809931
1.43413e-05;0.001345370039736131
1.43415e-05;0.0013469079692912693
1.43418e-05;0.001346312390674413
1.43420e-05;0.0013401411812028346
1.43423e-05;0.0013339699717312564
1.43425e-05;0.00132779876225972
1.43428e-05;0.0013216275527881416
1.43430e-05;0.0013154563433165633
1.43433e-05;0.001309285133845027
1.43435e-05;0.0013014058254338147
1.43438e-05;0.0012890626348234058
1.43440e-05;0.0012767194442130805
1.43443e-05;0.0012643762536026718
1.43445e-05;0.0012520330629922632
1.43448e-05;0.001239689872381938
1.43450e-05;0.0012273466817715292
1.43453e-05;0.0012150034911611203
1.43455e-05;0.001200513860611529
1.43458e-05;0.0011854073117458929
1.43460e-05;0.0011703007628802566
1.43463e-05;0.0011551942140147228
1.43465e-05;0.0011400876651490865
1.43468e-05;0.0011249811162834505
1.43470e-05;0.0011098745674178142
1.43473e-05;0.0010953730489639657
1.43475e-05;0.0010824526944710033
1.43478e-05;0.001069532339978041
1.43480e-05;0.0010566119854851662
1.43483e-05;0.0010436916309922038
1.43485e-05;0.0010307712764992415
1.43488e-05;0.0010178509220063667
1.43490e-05;0.0010049305675134043
1.43493e-05;0.0009937757171290325
1.43495e-05;0.0009872347694771207
1.43498e-05;0.0009806938218251645
1.43500e-05;0.0009741528741732083
1.43503e-05;0.0009676119265212964
1.43505e-05;0.0009610709788693401
1.43508e-05;0.0009545300312173839
1.43510e-05;0.0009479890835654719
1.43513e-05;0.000943466161572897
1.43515e-05;0.0009442170727362713
1.43518e-05;0.0009449679838996405
1.43520e-05;0.0009457188950630147
1.43523e-05;0.000946469806226389
1.43525e-05;0.0009472207173897582
1.43528e-05;0.0009479716285531324
1.43530e-05;0.0009487225397165067
1.43533e-05;0.0009494734508798758
1.43535e-05;0.0009517688374719228
1.43538e-05;0.0009581004986706344
1.43540e-05;0.0009644321598693032
1.43543e-05;0.0009707638210680148
1.43545e-05;0.0009770954822667264
1.43548e-05;0.0009834271434653952
1.43550e-05;0.000989758804664107
1.43553e-05;0.0009960904658628186
1.43555e-05;0.0010024221270615303
1.43558e-05;0.0010093072697417648
1.43560e-05;0.0010176388603278528
1.43563e-05;0.0010259704509139407
1.43565e-05;0.0010343020414999723
1.43568e-05;0.0010426336320860602
1.43570e-05;0.0010509652226721481
1.43573e-05;0.001058907571890959
1.43575e-05;0.0010667380474326375
1.43578e-05;0.0010745685229743157
1.43580e-05;0.001082398998515941
1.43583e-05;0.0010902294740576194
1.43585e-05;0.001097689079415753
1.43588e-05;0.0011041794664382043
1.43590e-05;0.0011102921135209183
1.43593e-05;0.001115417589102671
1.43595e-05;0.001119620115641352
1.43598e-05;0.001121410641498717
1.43600e-05;0.001121782904152268
1.43603e-05;0.0011184487305300524
1.43605e-05;0.0011151145569078143
1.43608e-05;0.0011101971263346214
1.43610e-05;0.0011011420709672124
1.43613e-05;0.001092087015599742
1.43615e-05;0.001081178415740855
1.43618e-05;0.0010654258316883792
1.43620e-05;0.0010496732476357965
1.43623e-05;0.001032117159015343
1.43625e-05;0.0010098478586751294
1.43628e-05;0.000987578558334765
1.43630e-05;0.0009638061970149342
1.43633e-05;0.0009361057920681191
1.43635e-05;0.0009084053871211163
1.43638e-05;0.000879277343532438
1.43640e-05;0.0008464183622471938
1.43643e-05;0.0008135593809621721
1.43645e-05;0.000779694983293566
1.43648e-05;0.0007432030678651759
1.43650e-05;0.0007067111524370331
1.43653e-05;0.0006695467963390364
1.43655e-05;0.0006306251088198586
1.43658e-05;0.0005917034213009445
1.43660e-05;0.0005527817337817667
1.43663e-05;0.0005137916836940671
1.43665e-05;0.0004746229774141531
1.43668e-05;0.0004354542711339738
1.43670e-05;0.00039628556485379445
1.43673e-05;0.0003576645444357767
1.43675e-05;0.0003204748258670791
1.43678e-05;0.00028372727518338487
1.43680e-05;0.00024851628771671276
1.43683e-05;0.0002147527915683141
1.43685e-05;0.00018269236852300113
1.43688e-05;0.000152590551125458
1.43690e-05;0.000124707882650223
1.43693e-05;9.934593144659372e-05
1.43695e-05;7.688494035163065e-05
1.43698e-05;5.766544301465302e-05
1.43700e-05;4.183728300547726e-05
1.43703e-05;2.9428288837731134e-05
1.43705e-05;2.045247446217386e-05
1.43708e-05;1.4923810952647602e-05
1.43710e-05;1.2859420776235662e-05
1.43713e-05;1.4302082485373615e-05
1.43715e-05;1.9343863703860796e-05
1.43718e-05;2.805194302612149e-05
1.43720e-05;4.037403846806972e-05
1.43723e-05;5.6181443648767134e-05
1.43725e-05;7.533680133557445e-05
1.43728e-05;9.770273904567289e-05
1.43730e-05;0.00012314385495078173
1.43733e-05;0.0001515408281972542
1.43735e-05;0.00018280521297617036
1.43738e-05;0.00021683297003849037
1.43740e-05;0.00025344526728192753
1.43743e-05;0.0002924153676805035
1.43745e-05;0.00033374993642802886
1.43748e-05;0.0003771245536628326
1.43750e-05;0.00042133177261390183
1.43753e-05;0.0004677148819068486
1.43755e-05;0.0005146986998349238
1.43758e-05;0.0005632523873549199
1.43760e-05;0.0006121175584981374
1.43763e-05;0.0006617967493498854
1.43765e-05;0.0007115084642721803
1.43768e-05;0.0007612193476396199
1.43770e-05;0.0008105402643859984
1.43773e-05;0.0008591870223374881
1.43775e-05;0.0009068875779960595
1.43778e-05;0.0009533638016957224
1.43780e-05;0.0009983082243039095
1.43783e-05;0.0010406934596926241
1.43785e-05;0.0010797310095608502
1.43788e-05;0.0011187685594288117
1.43790e-05;0.0011556804301008055
1.43793e-05;0.001187037129865534
1.43795e-05;0.0012183938296300501
1.43798e-05;0.0012488363329088085
1.43800e-05;0.0012768897091115904
1.43803e-05;0.0013049430853141824
1.43805e-05;0.0013316115557570262
1.43808e-05;0.0013546607650239272
1.43810e-05;0.0013777099742908283
1.43813e-05;0.0014007591835575731
1.43815e-05;0.001423808392824474
1.43818e-05;0.001445789130786958
1.43820e-05;0.001464977565603725
1.43823e-05;0.0014841660004206217
1.43825e-05;0.0015033544352375187
1.43828e-05;0.0015225428700542856
1.43830e-05;0.0015407074039478494
1.43833e-05;0.0015561961132709576
1.43835e-05;0.0015716848225939609
1.43838e-05;0.001587173531917069
1.43840e-05;0.0016026622412401773
1.43843e-05;0.0016181509505631805
1.43845e-05;0.0016336396598862887
1.43848e-05;0.001649128369209397
1.43850e-05;0.0016637653876511792
1.43853e-05;0.0016761766288379619
1.43855e-05;0.0016885878700247446
1.43858e-05;0.0017009991112114434
1.43860e-05;0.0017134103523982261
1.43863e-05;0.0017258215935850088
1.43865e-05;0.0017382328347717074
1.43868e-05;0.0017506440759584901
1.43870e-05;0.0017623554052615018
1.43873e-05;0.0017722376108930188
1.43875e-05;0.0017821198165246027
1.43878e-05;0.0017920020221561866
1.43880e-05;0.0018014145860035578
1.43883e-05;0.0018095998054888705
1.43885e-05;0.0018177850249741832
1.43888e-05;0.0018259702444594404
1.43890e-05;0.0018336499313087614
1.43893e-05;0.0018400084779792876
1.43895e-05;0.001845766110625201
1.43898e-05;0.0018499533369206438
1.43900e-05;0.001854140563216115
1.43903e-05;0.0018575531828800174
1.43905e-05;0.0018589414743979077
1.43908e-05;0.0018603297659158075
1.43910e-05;0.0018605184255781368
1.43913e-05;0.0018575720119903747
1.43915e-05;0.0018546255984025926
1.43918e-05;0.0018516791848148103
1.43920e-05;0.0018487327712270482
1.43923e-05;0.0018457863576392662
1.43925e-05;0.0018413743150193405
1.43928e-05;0.001833132052026379
1.43930e-05;0.0018248897890333618
1.43933e-05;0.0018166475260403445
1.43935e-05;0.0018084052630473833
1.43938e-05;0.001800163000054366
1.43940e-05;0.0017907967039754431
1.43943e-05;0.0017784929016577198
1.43945e-05;0.0017661890993399133
1.43948e-05;0.0017538852970221065
1.43950e-05;0.0017415814947043832
1.43953e-05;0.0017292776923865767
1.43955e-05;0.00171697389006877
1.43958e-05;0.0017042661246609867
