Time(s);Current(A)
2.50000e-07;-0.001229515029875499
2.50250e-07;-0.0012050829338416103
2.50500e-07;-0.0011781408777035418
2.50750e-07;-0.0011462695893251229
2.51000e-07;-0.0011121762563825477
2.51250e-07;-0.0010738861069523363
2.51500e-07;-0.0010337040780552381
2.51750e-07;-0.000989193340327699
2.52000e-07;-0.0009427312674920846
2.52250e-07;-0.0008962691946564802
2.52500e-07;-0.0008460696416144871
2.52750e-07;-0.0007941852729315861
2.53000e-07;-0.0007423009042486959
2.53250e-07;-0.0006886842358501649
2.53500e-07;-0.0006342866654817301
2.53750e-07;-0.000579889095113307
2.54000e-07;-0.0005256836109619324
2.54250e-07;-0.0004723008662153949
2.54500e-07;-0.0004189181214688461
2.54750e-07;-0.0003655353767222973
2.55000e-07;-0.00031406227200258516
2.55250e-07;-0.0002647769065547711
2.55500e-07;-0.00021766679181132732
2.55750e-07;-0.00017309487514591227
2.56000e-07;-0.00013142405624844112
2.56250e-07;-9.296973985424126e-05
2.56500e-07;-5.7597085727861304e-05
2.56750e-07;-2.4539247613912007e-05
2.57000e-07;6.871270966576785e-06
2.57250e-07;3.67358246900227e-05
2.57500e-07;6.488311243748923e-05
2.57750e-07;9.110680464894752e-05
2.58000e-07;0.00011520059348863226
2.58250e-07;0.0001369879654470249
2.58500e-07;0.00015657442977419283
2.58750e-07;0.0001744613756894293
2.59000e-07;0.00019108789666267702
2.59250e-07;0.00020653844229184427
2.59500e-07;0.00022072667750581073
2.59750e-07;0.00023354432249056157
2.60000e-07;0.0002448831310574844
2.60250e-07;0.0002546535225018175
2.60500e-07;0.0002625917238194582
2.60750e-07;0.0002699272133188393
2.61000e-07;0.0002761099955717997
2.61250e-07;0.000281773149869308
2.61500e-07;0.0002863001269280689
2.61750e-07;0.00029031492757999915
2.62000e-07;0.00029307014766524975
2.62250e-07;0.0002952575624585476
2.62500e-07;0.0002962136856000009
2.62750e-07;0.00029661475578624826
2.63000e-07;0.0002970158259724957
2.63250e-07;0.00029635674759365013
2.63500e-07;0.0002952197657114954
2.63750e-07;0.0002940827838293404
2.64000e-07;0.0002929458019471854
2.64250e-07;0.00029180882006503065
2.64500e-07;0.0002899992313681253
2.64750e-07;0.00028788643879611864
2.65000e-07;0.0002857736462241124
2.65250e-07;0.0002836608536521057
2.65500e-07;0.00028154806108009905
2.65750e-07;0.0002801730956316473
2.66000e-07;0.0002791307346678817
2.66250e-07;0.00027808837370411633
2.66500e-07;0.00027704601274035074
2.66750e-07;0.00027600365177658516
2.67000e-07;0.0002749612908128198
2.67250e-07;0.0002739189298490542
2.67500e-07;0.0002728765688852886
2.67750e-07;0.00027391024849717643
2.68000e-07;0.00027587978473971747
2.68250e-07;0.0002778493209822585
2.68500e-07;0.0002798188572247991
2.68750e-07;0.00028178839346734014
2.69000e-07;0.00028375792970988117
2.69250e-07;0.00028572746595242177
2.69500e-07;0.0002876970021949628
2.69750e-07;0.0002912430996216379
2.70000e-07;0.0002954998937731766
2.70250e-07;0.0002997566879247162
2.70500e-07;0.000305144041366829
2.70750e-07;0.00031104103870552204
2.71000e-07;0.0003169380360442151
2.71250e-07;0.00032283503338290695
2.71500e-07;0.0003287320307216
2.71750e-07;0.00033462902806029305
2.72000e-07;0.00034052602539898485
2.72250e-07;0.0003472966112899961
2.72500e-07;0.00035446100144896864
2.72750e-07;0.00036162539160793973
2.73000e-07;0.0003687897817669123
2.73250e-07;0.00037595417192588484
2.73500e-07;0.0003831185620848559
2.73750e-07;0.0003902829522438285
2.74000e-07;0.0003973585974972536
2.74250e-07;0.00040439423750739817
2.74500e-07;0.00041142987751754273
2.74750e-07;0.00041846551752768577
2.75000e-07;0.0004249008664975595
2.75250e-07;0.00043106561076107437
2.75500e-07;0.00043723035502458795
2.75750e-07;0.0004433950992881028
2.76000e-07;0.00044878326419223175
2.76250e-07;0.00045382135552302023
2.76500e-07;0.00045715013573243145
2.76750e-07;0.00045970837698149384
2.77000e-07;0.0004595909335718554
2.77250e-07;0.00045636169544329807
2.77500e-07;0.0004504494240914068
2.77750e-07;0.000441972583123689
2.78000e-07;0.00043104963417324297
2.78250e-07;0.00041777323178407276
2.78500e-07;0.00040200295107510186
2.78750e-07;0.0003833024868130316
2.79000e-07;0.0003613606811153288
2.79250e-07;0.0003362203509685334
2.79500e-07;0.0003080843833858062
2.79750e-07;0.0002771755320167342
2.80000e-07;0.00024371650644069499
2.80250e-07;0.000207913891392
2.80500e-07;0.0001698281990380829
2.80750e-07;0.00012933463171211178
2.81000e-07;8.638681543564416e-05
2.81250e-07;4.1160082433882066e-05
2.81500e-07;-6.069943410085464e-06
2.81750e-07;-5.5015255657016574e-05
2.82000e-07;-0.0001053878669411958
2.82250e-07;-0.00015690993322590522
2.82500e-07;-0.00020969898003548053
2.82750e-07;-0.0002629100589563478
2.83000e-07;-0.0003171430773735026
2.83250e-07;-0.00037183677505913293
2.83500e-07;-0.0004265304727447748
2.83750e-07;-0.00048096596318963
2.84000e-07;-0.0005342955061340926
2.84250e-07;-0.0005876250490785664
2.84500e-07;-0.0006409545920230404
2.84750e-07;-0.0006919952476165368
2.85000e-07;-0.0007420040975558682
2.85250e-07;-0.0007894138846378623
2.85500e-07;-0.0008356520423032095
2.85750e-07;-0.000878319979099602
2.86000e-07;-0.0009193784989547349
2.86250e-07;-0.0009559492822114753
2.86500e-07;-0.000990497042362802
2.86750e-07;-0.0010201770362246953
2.87000e-07;-0.0010476626937080346
2.87250e-07;-0.0010701633903572383
2.87500e-07;-0.001090416920595058
2.87750e-07;-0.0011054615324675716
2.88000e-07;-0.001118158020296662
2.88250e-07;-0.0011254530873894986
2.88500e-07;-0.0011303132524527909
2.88750e-07;-0.0011299163936187241
2.89000e-07;-0.0011271497252878465
2.89250e-07;-0.001119435047911835
2.89500e-07;-0.0011094898615911437
2.89750e-07;-0.0010948386382551515
2.90000e-07;-0.001078065984347614
2.90250e-07;-0.0010568491656580304
2.90500e-07;-0.00103362896556643
2.90750e-07;-0.0010064373107666468
2.91000e-07;-0.000977455367151872
2.91250e-07;-0.0009443401994334053
2.91500e-07;-0.0009093618190066409
2.91750e-07;-0.0008743834385798837
2.92000e-07;-0.0008355207604514288
2.92250e-07;-0.0007949070829435415
2.92500e-07;-0.0007542934054356629
2.92750e-07;-0.0007110388652816171
2.93000e-07;-0.0006665938528183604
2.93250e-07;-0.0006221488403551131
2.93500e-07;-0.0005777038278918564
2.93750e-07;-0.0005329062889421019
2.94000e-07;-0.000487949834866229
2.94250e-07;-0.0004429933807903561
2.94500e-07;-0.0003980369267144927
2.94750e-07;-0.00035470447568032766
2.95000e-07;-0.0003121041076471644
2.95250e-07;-0.0002710487637234136
2.95500e-07;-0.00023199689395739676
2.95750e-07;-0.0001950485141430089
2.96000e-07;-0.0001605043476643899
2.96250e-07;-0.00012862342423173114
2.96500e-07;-9.927025198590811e-05
2.96750e-07;-7.175809076770053e-05
2.97000e-07;-4.549307919789707e-05
2.97250e-07;-2.038219985103522e-05
2.97500e-07;3.4271828533883108e-06
2.97750e-07;2.5756867590496077e-05
2.98000e-07;4.642868440000674e-05
2.98250e-07;6.529061520384943e-05
2.98500e-07;8.243775877474004e-05
2.98750e-07;9.831048508034378e-05
2.99000e-07;0.00011329096433363659
2.99250e-07;0.0001274476079183374
2.99500e-07;0.00014069826600143526
2.99750e-07;0.00015294145303253184
3.00000e-07;0.00016407575190644736
3.00250e-07;0.00017401610883057003
3.00500e-07;0.00018258125779257214
3.00750e-07;0.00019069709374607599
3.01000e-07;0.00019801339589689426
3.01250e-07;0.00020496927685967215
3.01500e-07;0.00021110682213906857
3.01750e-07;0.00021687547054602491
3.02000e-07;0.00022168365830372905
3.02250e-07;0.0002260588807920346
3.02500e-07;0.00022948344729280194
3.02750e-07;0.00023247946835959425
3.03000e-07;0.00023547548942638594
3.03250e-07;0.00023785158839707466
3.03500e-07;0.00023994823319381615
3.03750e-07;0.0002420448779905572
3.04000e-07;0.00024334469283113837
3.04250e-07;0.0002442853053484357
3.04500e-07;0.00024522591786573276
3.04750e-07;0.0002461665303830301
3.05000e-07;0.0002471071429003274
3.05250e-07;0.00024774515998585703
3.05500e-07;0.00024824677032454496
3.05750e-07;0.00024874838066323273
3.06000e-07;0.00024924999100192066
3.06250e-07;0.00024975160134060854
3.06500e-07;0.0002496689601628633
3.06750e-07;0.00024932294472256315
3.07000e-07;0.00024754944074928647
3.07250e-07;0.00024513244038943115
3.07500e-07;0.00024128831258899946
3.07750e-07;0.0002368008511785361
3.08000e-07;0.00023134391685432308
3.08250e-07;0.00022484537561685527
3.08500e-07;0.000217393597404866
3.08750e-07;0.0002087841934971019
3.09000e-07;0.00019886791656713003
3.09250e-07;0.00018765912093546408
3.09500e-07;0.0001752466609464158
3.09750e-07;0.00016172865013402776
3.10000e-07;0.0001472031874804283
3.10250e-07;0.00013176078450575157
3.10500e-07;0.00011542316666777528
3.10750e-07;9.812372425594695e-05
3.11000e-07;7.983038021314696e-05
3.11250e-07;6.0613576428663276e-05
3.11500e-07;4.059038799578588e-05
3.11750e-07;1.9883678111972847e-05
3.12000e-07;-1.3837003024503662e-06
3.12250e-07;-2.309364433205237e-05
3.12500e-07;-4.517115870634756e-05
3.12750e-07;-6.769597874015982e-05
3.13000e-07;-9.03734142216102e-05
3.13250e-07;-0.00011324490176222323
3.13500e-07;-0.00013620386587163914
3.13750e-07;-0.00015916282998105992
3.14000e-07;-0.00018161305167585775
3.14250e-07;-0.00020383393779425262
3.14500e-07;-0.00022605482391265224
3.14750e-07;-0.000247363629076598
3.15000e-07;-0.00026826127801412816
3.15250e-07;-0.00028807304687524676
3.15500e-07;-0.0003073953127461159
3.15750e-07;-0.00032522626700219
3.16000e-07;-0.0003423849541169056
3.16250e-07;-0.0003577554013296856
3.16500e-07;-0.00037231972934173915
3.16750e-07;-0.00038556374305141413
3.17000e-07;-0.0003982125733581304
3.17250e-07;-0.00040978196808474666
3.17500e-07;-0.00042086476493033176
3.17750e-07;-0.00043031074329744534
3.18000e-07;-0.00043901886160329734
3.18250e-07;-0.00044772697990914934
3.18500e-07;-0.0004545415029182728
3.18750e-07;-0.0004605024136545455
3.19000e-07;-0.00046646332439081827
3.19250e-07;-0.00047105209737831647
3.19500e-07;-0.00047502232551390226
3.19750e-07;-0.00047899255364948804
3.20000e-07;-0.00048147568291495937
3.20250e-07;-0.0004832884440987876
3.20500e-07;-0.0004851012052826159
3.20750e-07;-0.000485084848898686
3.21000e-07;-0.0004842439461045335
3.21250e-07;-0.00048340304331038114
3.21500e-07;-0.0004825621405162286
3.21750e-07;-0.0004817212377220761
3.22000e-07;-0.00048088033492792376
3.22250e-07;-0.00048003943213377123
3.22500e-07;-0.00047877388368284873
3.22750e-07;-0.00047568950241666253
3.23000e-07;-0.00047260512115047574
3.23250e-07;-0.00046952073988428894
3.23500e-07;-0.0004664363586181028
3.23750e-07;-0.00046335197735191595
3.24000e-07;-0.00046026759608572916
3.24250e-07;-0.000457183214819543
3.24500e-07;-0.00045389034548810295
3.24750e-07;-0.0004505034919924902
3.25000e-07;-0.0004471166384968782
3.25250e-07;-0.00044372978500126545
3.25500e-07;-0.0004403429315056534
3.25750e-07;-0.00043731046612847615
3.26000e-07;-0.000434437755080946
3.26250e-07;-0.0004315650440334164
3.26500e-07;-0.00042869233298588625
3.26750e-07;-0.0004258196219383561
3.27000e-07;-0.0004216998568870291
3.27250e-07;-0.0004170179333827312
3.27500e-07;-0.0004123360098784332
3.27750e-07;-0.00040634054589772025
3.28000e-07;-0.0003997529520814995
3.28250e-07;-0.0003931653582652787
3.28500e-07;-0.00038546805728937624
3.28750e-07;-0.0003772705123318651
3.29000e-07;-0.00036746513993483925
3.29250e-07;-0.00035693497632324344
3.29500e-07;-0.00034640481271164757
3.29750e-07;-0.0003345188808734492
3.30000e-07;-0.00032202178338681914
3.30250e-07;-0.0003084374768031375
3.30500e-07;-0.00029436306812107726
3.30750e-07;-0.00028028865943901404
3.31000e-07;-0.0002648015703558625
3.31250e-07;-0.0002486776602317627
3.31500e-07;-0.00023255375010765945
3.31750e-07;-0.00021549230034313642
3.32000e-07;-0.00019800821785200304
3.32250e-07;-0.00018052413536086596
3.32500e-07;-0.00016253645769354302
3.32750e-07;-0.00014432176476921997
3.33000e-07;-0.00012610707184489308
3.33250e-07;-0.00010770531801150449
3.33500e-07;-8.921923914412615e-05
3.33750e-07;-7.073316027674781e-05
3.34000e-07;-5.2465634256605014e-05
3.34250e-07;-3.4531689364157594e-05
3.34500e-07;-1.6987283562265803e-05
3.34750e-07;1.2100973615044315e-07
3.35000e-07;1.6734510979043074e-05
3.35250e-07;3.275542531049191e-05
3.35500e-07;4.806799053192568e-05
3.35750e-07;6.25542147513126e-05
3.36000e-07;7.609612163551852e-05
3.36250e-07;8.859895905521668e-05
3.36500e-07;0.00010018508245886713
3.36750e-07;0.00011127340379040726
3.37000e-07;0.00012221564727103615
3.37250e-07;0.00013301084011330637
3.37500e-07;0.00014374801442030026
3.37750e-07;0.00015396214972837003
3.38000e-07;0.0001639405047145062
3.38250e-07;0.00017391885970064025
3.38500e-07;0.00018347037805897532
3.38750e-07;0.0001928294830834621
3.39000e-07;0.0002021885881079469
3.39250e-07;0.00021154769313243366
3.39500e-07;0.00022090679815692045
3.39750e-07;0.00023017420176018558
3.40000e-07;0.00023940026735488854
3.40250e-07;0.0002486263329495915
3.40500e-07;0.0002578523985442925
3.40750e-07;0.0002670784641389955
3.41000e-07;0.0002762705027931398
3.41250e-07;0.00028544720247062206
3.41500e-07;0.0002946239021481043
3.41750e-07;0.0003038006018255846
3.42000e-07;0.00031297730150306685
3.42250e-07;0.0003221540011805491
3.42500e-07;0.0003313307008580294
3.42750e-07;0.00034050740053551164
3.43000e-07;0.00034906938302981373
3.43250e-07;0.00035735425766858736
3.43500e-07;0.0003656391323073627
3.43750e-07;0.0003739240069461381
3.44000e-07;0.0003822088815849117
3.44250e-07;0.0003904937562236871
3.44500e-07;0.00039877863086246244
3.44750e-07;0.000407063505501236
3.45000e-07;0.0004140418149323173
3.45250e-07;0.0004204311389035504
3.45500e-07;0.0004268204628747849
3.45750e-07;0.0004332097868460194
3.46000e-07;0.0004395991108172525
3.46250e-07;0.00044598843478848703
3.46500e-07;0.00044978837518485005
3.46750e-07;0.0004524210494803048
3.47000e-07;0.0004550537237757601
3.47250e-07;0.00045768639807121543
3.47500e-07;0.00046031907236667016
3.47750e-07;0.0004629517466621255
3.48000e-07;0.00046292742951758065
3.48250e-07;0.0004617053693779794
3.48500e-07;0.0004604833092383779
3.48750e-07;0.0004573577705693264
3.49000e-07;0.00045337416437300705
3.49250e-07;0.00044939055817668774
3.49500e-07;0.0004435914863801348
3.49750e-07;0.0004369740223325886
3.50000e-07;0.00043035655828504245
3.50250e-07;0.00042216134780103884
3.50500e-07;0.0004132549062931778
3.50750e-07;0.0004043484647853168
3.51000e-07;0.00039402916901707616
3.51250e-07;0.00038307297383397785
3.51500e-07;0.00037211677865087953
3.51750e-07;0.0003598744565914869
3.52000e-07;0.00034705236245091253
3.52250e-07;0.0003342302683103382
3.52500e-07;0.0003214081741697666
3.52750e-07;0.0003085860800291923
3.53000e-07;0.0002950788672222079
3.53250e-07;0.00028126281033272606
3.53500e-07;0.0002674467534432442
3.53750e-07;0.0002536306965537653
3.54000e-07;0.00023981463966428346
3.54250e-07;0.0002263302347770939
3.54500e-07;0.0002129953350243855
3.54750e-07;0.00019966043527167422
3.55000e-07;0.0001869638098019742
3.55250e-07;0.0001745549114735459
3.55500e-07;0.0001629330290778929
3.55750e-07;0.00015166592494998292
3.56000e-07;0.00014114504334392173
3.56250e-07;0.00013152773666565192
3.56500e-07;0.000122812439063202
3.56750e-07;0.00011438849904654675
3.57000e-07;0.00010631047802697525
3.57250e-07;9.860015418108527e-05
3.57500e-07;9.138060065799666e-05
3.57750e-07;8.433924902112496e-05
3.58000e-07;7.777086323189346e-05
3.58250e-07;7.177434035670806e-05
3.58500e-07;6.625293853667614e-05
3.58750e-07;6.106474663047366e-05
3.59000e-07;5.6087864613924774e-05
3.59250e-07;5.130228853868848e-05
3.59500e-07;4.673673735266034e-05
3.59750e-07;4.242615949424399e-05
3.60000e-07;3.840549774988253e-05
3.60250e-07;3.470441142207294e-05
3.60500e-07;3.130281604314774e-05
3.60750e-07;2.8111482262118636e-05
3.61000e-07;2.505371604619705e-05
3.61250e-07;2.2116656915488928e-05
3.61500e-07;1.931796429462243e-05
3.61750e-07;1.667919841819584e-05
3.62000e-07;1.4221911741355496e-05
3.62250e-07;1.1964348488766742e-05
3.62500e-07;9.893593330304825e-06
3.62750e-07;7.95341740113996e-06
3.63000e-07;6.095452765151087e-06
3.63250e-07;4.311317915699149e-06
3.63500e-07;2.6117488569348755e-06
3.63750e-07;1.0099246641077648e-06
3.64000e-07;-4.809823624688322e-07
3.64250e-07;-1.8498733527546494e-06
3.64500e-07;-3.105168327518126e-06
3.64750e-07;-4.2824155898791e-06
3.65000e-07;-5.412236940533818e-06
3.65250e-07;-6.500204839207647e-06
3.65500e-07;-7.539917251663629e-06
3.65750e-07;-8.523442598007763e-06
3.66000e-07;-9.442853814970093e-06
3.66250e-07;-1.0305634541101387e-05
3.66500e-07;-1.1259973851029862e-05
3.66750e-07;-1.2636372068947777e-05
3.67000e-07;-1.4698628982079891e-05
3.67250e-07;-1.750421115944699e-05
3.67500e-07;-2.1016215500499644e-05
3.67750e-07;-2.5185979835517367e-05
3.68000e-07;-2.9964846321354618e-05
3.68250e-07;-3.531381176321053e-05
3.68500e-07;-4.1282010387830985e-05
3.68750e-07;-4.8032762412253695e-05
3.69000e-07;-5.568759248453914e-05
3.69250e-07;-6.423877361951912e-05
3.69500e-07;-7.361946007948737e-05
3.69750e-07;-8.375545214229423e-05
3.70000e-07;-9.457255686814552e-05
3.70250e-07;-0.00010600262961496518
3.70500e-07;-0.00011803273602524453
3.70750e-07;-0.00013072146566428164
3.71000e-07;-0.0001443145759898145
3.71250e-07;-0.00015821962948245
3.71500e-07;-0.00017298420659625385
3.71750e-07;-0.00018813624765927697
3.72000e-07;-0.0002032882887223001
3.72250e-07;-0.00021915115020637902
3.72500e-07;-0.0002353344418458908
3.72750e-07;-0.00025151773348539914
3.73000e-07;-0.00026770102512491096
3.73250e-07;-0.0002839142177759674
3.73500e-07;-0.00030025548177343596
3.73750e-07;-0.00031659674577090796
3.74000e-07;-0.0003329380097683799
3.74250e-07;-0.00034927927376584845
3.74500e-07;-0.0003648352776980714
3.74750e-07;-0.00038003729488862714
3.75000e-07;-0.00039523931207917964
3.75250e-07;-0.00040925916624512095
3.75500e-07;-0.000422746114109415
3.75750e-07;-0.0004362330619737062
3.76000e-07;-0.0004482495412790386
3.76250e-07;-0.0004596031492670212
3.76500e-07;-0.0004690898393311459
3.76750e-07;-0.00047773494299342066
3.77000e-07;-0.00048369524441397893
3.77250e-07;-0.0004884452660309077
3.77500e-07;-0.0004904566525473876
3.77750e-07;-0.0004912334919899387
3.78000e-07;-0.0004893442056921638
3.78250e-07;-0.0004862530587555233
3.78500e-07;-0.0004803556721967541
3.78750e-07;-0.0004731932631770969
3.79000e-07;-0.0004629732240120346
3.79250e-07;-0.00045137483825799567
3.79500e-07;-0.0004369460999337362
3.79750e-07;-0.0004212414692924695
3.80000e-07;-0.00040301284289192147
3.80250e-07;-0.0003836464265102495
3.80500e-07;-0.000361929148145073
3.80750e-07;-0.0003391521266317525
3.81000e-07;-0.00031412772619874793
3.81250e-07;-0.00028809023166319553
3.81500e-07;-0.00026020862820708775
3.81750e-07;-0.00023149572040104892
3.82000e-07;-0.0002013914333021472
3.82250e-07;-0.000170659927471375
3.82500e-07;-0.00013913090895235254
3.82750e-07;-0.00010679319644086709
3.83000e-07;-7.389503876855118e-05
3.83250e-07;-4.056174179501444e-05
3.83500e-07;-7.105029677835704e-06
3.83750e-07;2.6352744285145445e-05
3.84000e-07;5.962991632190851e-05
3.84250e-07;9.251033323134013e-05
3.84500e-07;0.00012481854236896263
3.84750e-07;0.0001564025296022029
3.85000e-07;0.00018709485256571871
3.85250e-07;0.00021669387102716094
3.85500e-07;0.00024498301302299777
3.85750e-07;0.0002717438879310648
3.86000e-07;0.00029675819088070864
3.86250e-07;0.00031979368542557737
3.86500e-07;0.00034050156296423203
3.86750e-07;0.0003584145367045854
3.87000e-07;0.0003731965708174173
3.87250e-07;0.0003847450753674256
3.87500e-07;0.00039305520123820753
3.87750e-07;0.00039813360416379305
3.88000e-07;0.0003999869288606711
3.88250e-07;0.00039861304448112384
3.88500e-07;0.00039393693979743595
3.88750e-07;0.0003858093206236467
3.89000e-07;0.00037416314160048216
3.89250e-07;0.0003590775988267521
3.89500e-07;0.00034069312865056593
3.89750e-07;0.0003191573346824568
3.90000e-07;0.00029461780244666185
3.90250e-07;0.00026721666096004345
3.90500e-07;0.00023705034872033477
3.90750e-07;0.00020416876441623426
3.91000e-07;0.00016867333483847773
3.91250e-07;0.0001307571126070029
3.91500e-07;9.065146022887293e-05
3.91750e-07;4.8592235392917626e-05
3.92000e-07;4.815266580527029e-06
3.92250e-07;-4.0447048442927974e-05
3.92500e-07;-8.699095575840892e-05
3.92750e-07;-0.00013464184882218494
3.93000e-07;-0.0001835039001658354
