Time(s);Current(A)
1.15000e-05;0.003929960737782352
1.15003e-05;0.00393257096886684
1.15005e-05;0.003935181199951328
1.15007e-05;0.003937791431035799
1.15010e-05;0.003940401662120286
1.15013e-05;0.003943011893204775
1.15015e-05;0.003945622124289245
1.15018e-05;0.003942277316073311
1.15020e-05;0.003927877672085866
1.15023e-05;0.003913478028098421
1.15025e-05;0.003899078384111073
1.15028e-05;0.003884678740123628
1.15030e-05;0.0038702790961361827
1.15033e-05;0.0038558794521488353
1.15035e-05;0.003831855965889244
1.15038e-05;0.003789966939128189
1.15040e-05;0.003748077912367418
1.15043e-05;0.003706188885606363
1.15045e-05;0.003664299858845308
1.15048e-05;0.0036224108320845366
1.15050e-05;0.0035805218053234816
1.15053e-05;0.0035386327785624267
1.15055e-05;0.003488579501018345
1.15058e-05;0.00342337024430041
1.15060e-05;0.003358160987582475
1.15063e-05;0.0032929517308649815
1.15065e-05;0.0032277424741470463
1.15068e-05;0.003162533217429111
1.15070e-05;0.003097323960711618
1.15073e-05;0.0030321147039936826
1.15075e-05;0.0029639699760852212
1.15078e-05;0.0028903758883509017
1.15080e-05;0.002816781800616083
1.15083e-05;0.0027431877128812647
1.15085e-05;0.002669593625146945
1.15088e-05;0.0025972854443296815
1.15090e-05;0.002527364399696889
1.15092e-05;0.0024574433550645703
1.15095e-05;0.002387522310431778
1.15098e-05;0.0023176012657989855
1.15100e-05;0.002249841000605381
1.15103e-05;0.0021884297186524726
1.15105e-05;0.0021313581936698214
1.15108e-05;0.00207428666868717
1.15110e-05;0.0020217788324305487
1.15113e-05;0.001977742951914576
1.15115e-05;0.0019337070713986034
1.15118e-05;0.0018939693937423262
1.15120e-05;0.001862210828286651
1.15123e-05;0.0018340392768483708
1.15125e-05;0.0018125265984898127
1.15128e-05;0.0017947401573167937
1.15130e-05;0.0017838710407943853
1.15133e-05;0.0017767769262472682
1.15135e-05;0.001776690662493794
1.15138e-05;0.0017802086526289868
1.15140e-05;0.0017904175196535824
1.15143e-05;0.0018040364372890136
1.15145e-05;0.0018239857160833102
1.15148e-05;0.0018479171062596225
1.15150e-05;0.0018792408216831667
1.15153e-05;0.0019105645371067111
1.15155e-05;0.00194607288145419
1.15158e-05;0.0019893495012412075
1.15160e-05;0.002032626121028225
1.15163e-05;0.0020804075368359085
1.15165e-05;0.0021365515809495645
1.15168e-05;0.0021926956250632205
1.15170e-05;0.0022488396691764958
1.15173e-05;0.002304983713290152
1.15175e-05;0.0023611277574038074
1.15177e-05;0.0024198325812907736
1.15180e-05;0.0024832911941003524
1.15183e-05;0.002546749806909931
1.15185e-05;0.0026102084197190795
1.15188e-05;0.002673667032528658
1.15190e-05;0.0027371256453382364
1.15193e-05;0.002798956048084573
1.15195e-05;0.0028577638687867666
1.15198e-05;0.0029165716894893595
1.15200e-05;0.0029628318213608205
1.15203e-05;0.003010836005966614
1.15205e-05;0.003065040853237965
1.15208e-05;0.0031132807283449095
1.15210e-05;0.0031644267834741173
1.15213e-05;0.0032007650613008584
1.15215e-05;0.0032371033391275996
1.15218e-05;0.0032734416169540948
1.15220e-05;0.003309779894780836
1.15223e-05;0.003346118172607577
1.15225e-05;0.003370136926831208
1.15228e-05;0.0033903526136229373
1.15230e-05;0.0034105683004146668
1.15233e-05;0.003430783987206259
1.15235e-05;0.0034509996739979882
1.15238e-05;0.0034699442485478403
1.15240e-05;0.0034751777935917156
1.15243e-05;0.0034804113386356266
1.15245e-05;0.0034856448836795375
1.15248e-05;0.003489909552820111
1.15250e-05;0.003488270121958637
1.15253e-05;0.0034866306910971635
1.15255e-05;0.0034849912602357004
1.15258e-05;0.003481201555749908
1.15260e-05;0.0034686523462379563
1.15262e-05;0.0034561031367260895
1.15265e-05;0.0034435539272141377
1.15268e-05;0.003431004717702186
1.15270e-05;0.003418455508190319
1.15273e-05;0.0034059062986783674
1.15275e-05;0.0033933570891664156
1.15278e-05;0.003380807879654464
1.15280e-05;0.0033671631843915193
1.15283e-05;0.003349055841754244
1.15285e-05;0.0033309484991169694
1.15288e-05;0.0033128411564798173
1.15290e-05;0.0032947338138425426
1.15293e-05;0.003276626471205268
1.15295e-05;0.003258519128568116
1.15298e-05;0.003240411785930841
1.15300e-05;0.0032223044432935664
1.15303e-05;0.003205092760660259
1.15305e-05;0.0031915297012614185
1.15308e-05;0.0031779666418625787
1.15310e-05;0.0031644035824638303
1.15313e-05;0.00315084052306499
1.15315e-05;0.0031372774636661497
1.15318e-05;0.0031237144042674013
1.15320e-05;0.003110151344868561
1.15323e-05;0.003096588285469721
1.15325e-05;0.003083025226070973
1.15328e-05;0.0030694621666721325
1.15330e-05;0.003055899107273292
1.15333e-05;0.003042336047874544
1.15335e-05;0.003028772988475704
1.15338e-05;0.0030152099290768637
1.15340e-05;0.003000453724181579
1.15343e-05;0.002985179070520739
1.15345e-05;0.0029699044168598992
1.15347e-05;0.0029546297631991626
1.15350e-05;0.0029393551095383227
1.15353e-05;0.0029240804558774824
1.15355e-05;0.002908805802216746
1.15358e-05;0.0028935311485559063
1.15360e-05;0.002878256494895066
1.15362e-05;0.0028629818412343297
1.15365e-05;0.0028477071875734894
1.15368e-05;0.0028324325339126495
1.15370e-05;0.0028171578802518096
1.15373e-05;0.002801883226591073
1.15375e-05;0.0027866756562997213
1.15378e-05;0.0027717413615142694
1.15380e-05;0.002756807066728918
1.15383e-05;0.0027418727719434655
1.15385e-05;0.0027269384771580136
1.15388e-05;0.002712004182372662
1.15390e-05;0.0026970698875872097
1.15393e-05;0.0026821355928017573
1.15395e-05;0.0026672012980164064
1.15398e-05;0.002652267003230954
1.15400e-05;0.0026373327084455015
1.15403e-05;0.0026223984136601506
1.15405e-05;0.002607464118874698
1.15408e-05;0.0025943195476710724
1.15410e-05;0.0025884657196283637
1.15413e-05;0.002582611891585615
1.15415e-05;0.0025767580635428665
1.15418e-05;0.0025709042355001573
1.15420e-05;0.0025650504074574087
1.15423e-05;0.00255919657941466
1.15425e-05;0.0025533427513719513
1.15428e-05;0.0025474889233292027
1.15430e-05;0.002541635095286454
1.15432e-05;0.002535781267243745
1.15435e-05;0.0025299274392009963
1.15438e-05;0.0025240736111582476
1.15440e-05;0.0025203219613172873
1.15443e-05;0.0025251338916322382
1.15445e-05;0.002529945821947189
1.15447e-05;0.0025347577522621075
1.15450e-05;0.0025395696825770584
1.15453e-05;0.002544381612892009
1.15455e-05;0.00254919354320696
1.15458e-05;0.002554005473521878
1.15460e-05;0.002558817403836829
1.15463e-05;0.00256362933415178
1.15465e-05;0.0025684412644666984
1.15468e-05;0.0025732531947816493
1.15470e-05;0.0025789413446687718
1.15473e-05;0.0025881989238910356
1.15475e-05;0.0025974565031133623
1.15478e-05;0.0026067140823356895
1.15480e-05;0.0026159716615579533
1.15483e-05;0.00262522924078028
1.15485e-05;0.0026344868200026067
1.15488e-05;0.0026437443992248706
1.15490e-05;0.0026530019784471977
1.15493e-05;0.0026622595576695244
1.15495e-05;0.0026715171368917883
1.15498e-05;0.002680774716114115
1.15500e-05;0.0026886913669950763
1.15503e-05;0.0026911455183944956
1.15505e-05;0.0026935996697939313
1.15508e-05;0.0026960538211933667
1.15510e-05;0.002698507972592786
1.15513e-05;0.0027009621239922218
1.15515e-05;0.002703416275391657
1.15517e-05;0.0027058704267910764
1.15520e-05;0.002708324578190512
1.15523e-05;0.0027107787295899475
1.15525e-05;0.002713232880989367
1.15528e-05;0.0027156870323888026
1.15530e-05;0.002718141183788238
1.15532e-05;0.0027205953351876573
1.15535e-05;0.002723049486587093
1.15538e-05;0.0027255036379865284
1.15540e-05;0.002725146431162504
1.15543e-05;0.0027133366788398405
1.15545e-05;0.002701526926517097
1.15548e-05;0.0026897171741943537
1.15550e-05;0.0026779074218716906
1.15553e-05;0.002666097669548947
1.15555e-05;0.0026542879172262034
1.15558e-05;0.0026424781649035402
1.15560e-05;0.002630668412580797
1.15563e-05;0.0026188586602580535
1.15565e-05;0.00260704890793539
1.15568e-05;0.0025952391556126465
1.15570e-05;0.002583429403289903
1.15573e-05;0.00257161965096724
1.15575e-05;0.0025598098986444966
1.15578e-05;0.0025480001463217532
1.15580e-05;0.0025354418135996033
1.15583e-05;0.002519834011402266
1.15585e-05;0.002504226209204929
1.15588e-05;0.0024886184070076977
1.15590e-05;0.0024730106048103605
1.15593e-05;0.0024574028026130234
1.15595e-05;0.002441795000415792
1.15598e-05;0.002426187198218455
1.15600e-05;0.0024111104119961114
1.15602e-05;0.002398196809591902
1.15605e-05;0.002385283207187606
1.15608e-05;0.0023723696047833094
1.15610e-05;0.0023594560023791006
1.15613e-05;0.0023465423999748042
1.15615e-05;0.002333628797570508
1.15617e-05;0.002320715195166299
1.15620e-05;0.002305460795046576
1.15623e-05;0.002280670757623204
1.15625e-05;0.0022558807201998317
1.15628e-05;0.002231090682776627
1.15630e-05;0.002206300645353255
1.15633e-05;0.002181510607929883
1.15635e-05;0.0021567205705066783
1.15638e-05;0.002131930533083306
1.15640e-05;0.002107140495659934
1.15643e-05;0.0020823504582367296
1.15645e-05;0.002053846360673249
1.15648e-05;0.0020102124079363942
1.15650e-05;0.0019665784551998354
1.15653e-05;0.0019229445024629807
1.15655e-05;0.0018793105497261263
1.15658e-05;0.0018356765969895674
1.15660e-05;0.0017920426442527128
1.15663e-05;0.0017484086915158584
1.15665e-05;0.0017047747387792995
1.15668e-05;0.0016611407860424449
1.15670e-05;0.0016158801476040667
1.15673e-05;0.001563992928510001
1.15675e-05;0.0015121057094155837
1.15678e-05;0.0014602184903211664
1.15680e-05;0.0014083312712271008
1.15683e-05;0.0013564440521326834
1.15685e-05;0.0013056966589511394
1.15687e-05;0.0012554445459681772
1.15690e-05;0.0012051924329848746
1.15693e-05;0.001154940320001572
1.15695e-05;0.0011046882070186099
1.15698e-05;0.0010556238690663442
1.15700e-05;0.0010113981345630254
1.15702e-05;0.000967172400060006
1.15705e-05;0.0009241266271222384
1.15708e-05;0.0008858876281540842
1.15710e-05;0.0008488036399835948
1.15713e-05;0.0008164247845896148
1.15715e-05;0.000784924636386439
1.15718e-05;0.0007570040512607542
1.15720e-05;0.0007298801220310211
1.15723e-05;0.000706001505982998
1.15725e-05;0.0006830416304026334
1.15728e-05;0.0006638244002560129
1.15730e-05;0.0006455916020920564
1.15733e-05;0.0006313690549129684
1.15735e-05;0.0006179186985308215
1.15738e-05;0.0006076139925924971
1.15740e-05;0.0005979909422446036
1.15743e-05;0.0005911447317909907
1.15745e-05;0.0005850175199039601
1.15748e-05;0.0005818192708712284
1.15750e-05;0.000579342022355797
1.15753e-05;0.0005798018919808453
1.15755e-05;0.0005809246558403258
1.15758e-05;0.0005847478320218819
1.15760e-05;0.0005885710082034639
1.15763e-05;0.0005930619601667705
1.15765e-05;0.0006002732102645229
1.15768e-05;0.0006074844603623243
1.15770e-05;0.000615402312298971
1.15772e-05;0.0006261986269122835
1.15775e-05;0.0006369949415256692
1.15778e-05;0.0006477912561390547
1.15780e-05;0.0006585875707523672
1.15783e-05;0.0006693838853657529
1.15785e-05;0.0006813156510261109
1.15787e-05;0.0006937407959063595
1.15790e-05;0.0007061659407866922
1.15793e-05;0.0007185910856670249
1.15795e-05;0.0007310162305473576
1.15798e-05;0.0007426045841260656
1.15800e-05;0.0007507841261256916
1.15803e-05;0.0007589636681253175
1.15805e-05;0.000767143210124888
1.15808e-05;0.0007753227521245141
1.15810e-05;0.00078350229412414
1.15813e-05;0.0007916818361237107
1.15815e-05;0.0007998613781233366
1.15818e-05;0.0008080409201229625
1.15820e-05;0.000816220462122533
1.15823e-05;0.0008244000041221591
1.15825e-05;0.000832579546121785
1.15828e-05;0.0008407590881213556
1.15830e-05;0.000847503905296977
1.15833e-05;0.0008484041270706162
1.15835e-05;0.0008493043488442491
1.15838e-05;0.0008502045706178882
1.15840e-05;0.0008511047923915274
1.15843e-05;0.0008520050141651603
1.15845e-05;0.0008529052359387995
1.15848e-05;0.0008538054577124386
1.15850e-05;0.0008547056794860716
1.15853e-05;0.0008556059012597107
1.15855e-05;0.0008565061230333498
1.15857e-05;0.0008574063448069829
1.15860e-05;0.0008583065665806219
1.15863e-05;0.0008584727073222878
1.15865e-05;0.0008556484442229451
1.15868e-05;0.0008528241811235832
1.15870e-05;0.0008499999180242212
1.15872e-05;0.0008471756549248786
1.15875e-05;0.0008443513918255167
1.15878e-05;0.0008415271287261549
1.15880e-05;0.000838702865626793
1.15883e-05;0.0008358786025274502
1.15885e-05;0.0008325901557947122
1.15888e-05;0.0008291000107504206
1.15890e-05;0.0008256098657061524
1.15893e-05;0.0008221197206618608
1.15895e-05;0.000818629575617569
1.15898e-05;0.000815139430573301
1.15900e-05;0.0008116492855290092
1.15903e-05;0.0008081591404847175
1.15905e-05;0.0008048202553582824
1.15908e-05;0.0008020975532139415
1.15910e-05;0.0007993748510696007
1.15913e-05;0.0007971828111643792
1.15915e-05;0.0007971525140768736
1.15918e-05;0.0007981771589353709
1.15920e-05;0.0008034992890994843
1.15923e-05;0.0008098399073519098
1.15925e-05;0.0008203295099251612
1.15928e-05;0.0008317387478202488
1.15930e-05;0.0008468942764922883
1.15933e-05;0.0008631059230412214
1.15935e-05;0.0008836198452500026
1.15938e-05;0.000905414350466647
1.15940e-05;0.0009324255282020502
1.15942e-05;0.0009605742728032066
1.15945e-05;0.0009933570893641455
1.15948e-05;0.0010273200147202372
1.15950e-05;0.001066090313814393
1.15953e-05;0.0011048606129088116
1.15955e-05;0.0011450370653095494
1.15957e-05;0.0011909417221813918
1.15960e-05;0.001236846379053545
1.15963e-05;0.0012841259207688528
1.15965e-05;0.0013370062895569866
1.15968e-05;0.0013898866583447623
1.15970e-05;0.0014427670271328964
1.15973e-05;0.0014956473959210302
1.15975e-05;0.0015485277647088059
1.15978e-05;0.0016036577440851133
1.15980e-05;0.0016597652302599783
1.15983e-05;0.0017158727164344634
1.15985e-05;0.0017719802026093287
1.15988e-05;0.0018280876887841937
1.15990e-05;0.001883119946510246
1.15993e-05;0.0019337720784141626
1.15995e-05;0.001984424210318079
1.15998e-05;0.0020350763422216527
1.16000e-05;0.0020857284741255693
1.16003e-05;0.002136380606029486
1.16005e-05;0.002183714849871653
1.16008e-05;0.002217533112811305
1.16010e-05;0.0022513513757509564
1.16013e-05;0.0022851696386903793
1.16015e-05;0.002318987901630031
1.16018e-05;0.002352806164569683
1.16020e-05;0.002382720994697736
1.16023e-05;0.0023967345278677926
1.16025e-05;0.0024107480610378487
1.16027e-05;0.0024219431077445734
1.16030e-05;0.002421656570832449
1.16033e-05;0.002421370033920324
1.16035e-05;0.0024181865386686268
1.16038e-05;0.0024032017912736735
1.16040e-05;0.00238821704387872
1.16042e-05;0.00237053662692003
1.16045e-05;0.002341874941855595
1.16048e-05;0.00231321325679116
1.16050e-05;0.0022821498734138758
1.16053e-05;0.0022413027637834485
1.16055e-05;0.0022004556541527446
1.16058e-05;0.0021575463556231375
1.16060e-05;0.002106236380138478
1.16063e-05;0.002054926404653471
1.16065e-05;0.002001706018339335
1.16068e-05;0.0019407032488322805
1.16070e-05;0.001879700479324813
1.16073e-05;0.001818697709817345
1.16075e-05;0.0017576949403102908
1.16078e-05;0.0016956691820546892
1.16080e-05;0.0016294761052727605
1.16083e-05;0.0015632830284912805
1.16085e-05;0.001497089951709352
1.16088e-05;0.0014308968749274236
1.16090e-05;0.0013651435817683682
1.16093e-05;0.0013011818219378537
1.16095e-05;0.001237220062107339
1.16098e-05;0.0011741704651792005
1.16100e-05;0.0011148367188577011
1.16103e-05;0.0010566267666694356
1.16105e-05;0.0010029947808769088
1.16108e-05;0.000950835525198972
1.16110e-05;0.0009046756859413741
1.16113e-05;0.0008598902632400381
1.16115e-05;0.0008217891958085665
1.16118e-05;0.0007892499724548612
1.16120e-05;0.0007625032506855147
1.16123e-05;0.0007415857108583238
1.16125e-05;0.0007265217419833951
1.16127e-05;0.000717335733070791
1.16130e-05;0.0007140583256408781
1.16133e-05;0.0007167667183274693
1.16135e-05;0.0007256216686071926
1.16138e-05;0.0007407297949163949
1.16140e-05;0.0007619866397817673
1.16143e-05;0.0007891661992740423
1.16145e-05;0.0008220347458443375
1.16148e-05;0.0008603586462598908
1.16150e-05;0.0009039080498303943
1.16153e-05;0.0009529508457463111
1.16155e-05;0.0010078416595179465
1.16158e-05;0.0010644801704648389
1.16160e-05;0.001128238222884278
1.16163e-05;0.001193443897860312
1.16165e-05;0.0012645467093495661
1.16168e-05;0.0013370106751881667
1.16170e-05;0.0014150195346064993
1.16173e-05;0.0014930283940248318
1.16175e-05;0.001572190395368989
1.16178e-05;0.0016560499163333136
1.16180e-05;0.0017399094372976382
1.16183e-05;0.0018237689582613944
1.16185e-05;0.0019076284792257188
1.16188e-05;0.00199090990109035
1.16190e-05;0.002071836338020696
1.16193e-05;0.002152762774951591
1.16195e-05;0.002233689211882486
1.16198e-05;0.0023146156488128324
1.16200e-05;0.00239337012493985
1.16203e-05;0.0024632767495947785
1.16205e-05;0.0025331833742492336
1.16208e-05;0.0026003257085160424
1.16210e-05;0.0026562072360789787
1.16212e-05;0.002712088763641536
1.16215e-05;0.00276506490440592
1.16218e-05;0.0028062054582578427
1.16220e-05;0.002847346012109765
1.16223e-05;0.0028855256063898185
1.16225e-05;0.0029116432286212623
1.16228e-05;0.0029377608508527058
1.16230e-05;0.002960728630329806
1.16233e-05;0.0029708649900115148
1.16235e-05;0.002981001349693223
1.16238e-05;0.0029883336323690934
1.16240e-05;0.0029842430307907204
1.16243e-05;0.002980152429212347
1.16245e-05;0.0029734220520749536
1.16248e-05;0.002955938100551014
1.16250e-05;0.0029384541490270746
1.16253e-05;0.0029175531550100554
1.16255e-05;0.0028827322576486483
1.16258e-05;0.0028479113602872413
1.16260e-05;0.0028130904629260706
1.16263e-05;0.0027782695655646636
1.16265e-05;0.0027434486682032565
1.16268e-05;0.002708627770842086
1.16270e-05;0.002663727139549005
1.16273e-05;0.0026144466353544152
1.16275e-05;0.0025651661311601594
1.16278e-05;0.0025158856269655696
1.16280e-05;0.0024666051227709798
1.16283e-05;0.002417324618576724
1.16285e-05;0.0023676445948797743
1.16288e-05;0.0023163370605887887
1.16290e-05;0.002265029526298151
1.16293e-05;0.0022137219920071653
1.16295e-05;0.0021624144577161797
1.16297e-05;0.0021111069234255415
1.16300e-05;0.002066338876559981
1.16303e-05;0.00202441238523172
1.16305e-05;0.0019824858939034586
1.16308e-05;0.0019405594025754818
1.16310e-05;0.0018986329112472206
1.16313e-05;0.0018594204107096799
1.16315e-05;0.0018312638129217354
1.16318e-05;0.0018031072151336001
1.16320e-05;0.001777189023789009
1.16323e-05;0.0017603893615269215
1.16325e-05;0.0017435896992647202
1.16328e-05;0.001729143895002582
1.16330e-05;0.0017242869313606516
1.16333e-05;0.0017194299677186881
1.16335e-05;0.0017169108694167375
1.16338e-05;0.0017239154629157107
1.16340e-05;0.0017309200564147313
1.16343e-05;0.001740084454459505
1.16345e-05;0.0017580471833968908
1.16348e-05;0.0017760099123343982
1.16350e-05;0.0017959288013561579
1.16353e-05;0.0018238164409455767
1.16355e-05;0.0018517040805351844
1.16358e-05;0.001881950213013452
1.16360e-05;0.0019218040671180586
1.16363e-05;0.001961657921222935
1.16365e-05;0.0020015117753278116
1.16368e-05;0.002041365629432418
1.16370e-05;0.0020812194835372944
1.16373e-05;0.002121073337642171
1.16375e-05;0.002166621423773419
1.16378e-05;0.0022146437828099007
1.16380e-05;0.002262666141846383
1.16382e-05;0.0023106885008825403
1.16385e-05;0.0023587108599190222
1.16388e-05;0.0024067332189555046
1.16390e-05;0.0024532376996332177
1.16393e-05;0.0024935588448396343
1.16395e-05;0.002533879990046324
1.16398e-05;0.002574201135253014
1.16400e-05;0.0026145222804594306
1.16403e-05;0.0026548434256661205
1.16405e-05;0.0026951645708728103
1.16408e-05;0.002735485716079227
1.16410e-05;0.0027758068612859167
1.16413e-05;0.0028161280064926066
1.16415e-05;0.002851474571664312
1.16418e-05;0.002866556339588452
1.16420e-05;0.0028816381075125923
1.16423e-05;0.0028967198754366306
1.16425e-05;0.002911801643360771
1.16428e-05;0.002926883411284911
1.16430e-05;0.002941965179208949
1.16433e-05;0.002957046947133089
1.16435e-05;0.0029721287150572292
1.16438e-05;0.002987210482981267
1.16440e-05;0.002997726624070682
1.16443e-05;0.0029896439082762317
1.16445e-05;0.0029815611924818367
1.16448e-05;0.0029734784766873865
1.16450e-05;0.0029653957608929363
1.16453e-05;0.002957313045098541
1.16455e-05;0.0029492303293040907
1.16458e-05;0.0029411476135096405
1.16460e-05;0.002933064897715245
1.16463e-05;0.002922336252006635
1.16465e-05;0.0029008289610902922
1.16467e-05;0.0028793216701740953
1.16470e-05;0.0028578143792577526
1.16473e-05;0.0028363070883414094
1.16475e-05;0.0028147997974250667
1.16478e-05;0.0027932925065088697
1.16480e-05;0.002771785215592527
1.16483e-05;0.0027502779246761843
