Time(s);Current(A)
1.35000e-05;0.0071200843552362
1.35003e-05;0.00708852891933272
1.35005e-05;0.007056973483429025
1.35008e-05;0.007025418047525331
1.35010e-05;0.006993862611621637
1.35013e-05;0.006962307175718156
1.35015e-05;0.006930751739814462
1.35018e-05;0.006902698051326951
1.35020e-05;0.006877009178290077
1.35023e-05;0.006851320305253029
1.35025e-05;0.006825631432215981
1.35028e-05;0.006799942559179107
1.35030e-05;0.006774253686142059
1.35033e-05;0.006748564813105011
1.35035e-05;0.006722875940068137
1.35038e-05;0.006697187067031089
1.35040e-05;0.006671498193994041
1.35043e-05;0.006645809320957167
1.35045e-05;0.006620531065589752
1.35048e-05;0.0065990797625153155
1.35050e-05;0.006577628459441024
1.35053e-05;0.006556177156366587
1.35055e-05;0.00653472585329215
1.35058e-05;0.006513274550217859
1.35060e-05;0.006491823247143422
1.35063e-05;0.006470371944068985
1.35065e-05;0.006448920640994694
1.35068e-05;0.006427469337920257
1.35070e-05;0.00640601803484582
1.35073e-05;0.006384566731771529
1.35075e-05;0.0063631154286970925
1.35078e-05;0.006341664125622655
1.35080e-05;0.006320212822548364
1.35083e-05;0.006298761519473927
1.35085e-05;0.006283323646870759
1.35088e-05;0.006271946790555315
1.35090e-05;0.006260569934239795
1.35093e-05;0.006249193077924274
1.35095e-05;0.0062378162216088304
1.35098e-05;0.006226439365293311
1.35100e-05;0.00621506250897779
1.35103e-05;0.006203685652662269
1.35105e-05;0.006192308796346826
1.35108e-05;0.006180931940031305
1.35110e-05;0.0061695550837157845
1.35113e-05;0.006158178227400341
1.35115e-05;0.006146801371084821
1.35118e-05;0.0061354245147693005
1.35120e-05;0.006124047658453857
1.35123e-05;0.00611327533277082
1.35125e-05;0.0061081372261266665
1.35128e-05;0.0061029991194825476
1.35130e-05;0.006097861012838394
1.35133e-05;0.00609272290619424
1.35135e-05;0.0060875847995501215
1.35138e-05;0.006082446692905968
1.35140e-05;0.006077308586261814
1.35143e-05;0.006072170479617695
1.35145e-05;0.006067032372973542
1.35148e-05;0.006061894266329388
1.35150e-05;0.006056756159685269
1.35153e-05;0.006051618053041116
1.35155e-05;0.006046479946396962
1.35158e-05;0.006041577216822271
1.35160e-05;0.0060388681990218365
1.35163e-05;0.006036159181221402
1.35165e-05;0.006033450163420986
1.35168e-05;0.006030741145620551
1.35170e-05;0.0060280321278201165
1.35173e-05;0.0060253231100197
1.35175e-05;0.006022614092219266
1.35178e-05;0.006019905074418831
1.35180e-05;0.006017196056618415
1.35183e-05;0.00601448703881798
1.35185e-05;0.006011778021017545
1.35188e-05;0.006009069003217111
1.35190e-05;0.006006359985416695
1.35193e-05;0.00600458578350525
1.35195e-05;0.006011524055701572
1.35198e-05;0.0060184623278978465
1.35200e-05;0.006025400600094169
1.35203e-05;0.006032338872290491
1.35205e-05;0.0060392771444867654
1.35208e-05;0.006046215416683087
1.35210e-05;0.006053153688879409
1.35213e-05;0.0060600919610756835
1.35215e-05;0.006067030233272005
1.35218e-05;0.006073968505468327
1.35220e-05;0.006080906777664602
1.35223e-05;0.006097508263983866
1.35225e-05;0.0061206355545255905
1.35228e-05;0.006143762845067159
1.35230e-05;0.006166890135608883
1.35233e-05;0.006190017426150608
1.35235e-05;0.006213144716692176
1.35238e-05;0.006236272007233901
1.35240e-05;0.006259399297775625
1.35243e-05;0.006282526588317194
1.35245e-05;0.006305653878858918
1.35248e-05;0.006328781169400643
1.35250e-05;0.00635255589773407
1.35253e-05;0.006382364739379788
1.35255e-05;0.006412173581025506
1.35258e-05;0.006441982422671021
1.35260e-05;0.006471791264316739
1.35263e-05;0.006501600105962456
1.35265e-05;0.006531408947607972
1.35268e-05;0.00656121778925369
1.35270e-05;0.006591026630899407
1.35273e-05;0.006617417600085891
1.35275e-05;0.006641500396624305
1.35278e-05;0.0066655831931628825
1.35280e-05;0.0066896659897014606
1.35283e-05;0.006713748786239875
1.35285e-05;0.006737831582778452
1.35288e-05;0.006761914379317029
1.35290e-05;0.006785997175855443
1.35293e-05;0.006809750469077792
1.35295e-05;0.006830432794907423
1.35298e-05;0.006851115120736913
1.35300e-05;0.006871797446566543
1.35303e-05;0.006892479772396173
1.35305e-05;0.006913162098225663
1.35308e-05;0.006933844424055294
1.35310e-05;0.006954526749884924
1.35313e-05;0.006975209075714414
1.35315e-05;0.006995891401544044
1.35318e-05;0.007016573727373675
1.35320e-05;0.007037256053203165
1.35323e-05;0.007061932272283504
1.35325e-05;0.007089305664904315
1.35328e-05;0.007116679057524942
1.35330e-05;0.007144052450145755
1.35333e-05;0.007171425842766567
1.35335e-05;0.007198799235387194
1.35338e-05;0.007226172628008006
1.35340e-05;0.007253546020628819
1.35343e-05;0.007280919413249445
1.35345e-05;0.007308292805870258
1.35348e-05;0.00733566619849107
1.35350e-05;0.0073631051693838715
1.35353e-05;0.007391155329074442
1.35355e-05;0.007419205488765014
1.35358e-05;0.007447255648455584
1.35360e-05;0.007475305808145965
1.35363e-05;0.0075033559678365355
1.35365e-05;0.007531406127527106
1.35368e-05;0.007559456287217487
1.35370e-05;0.007587506446908058
1.35373e-05;0.007615556606598629
1.35375e-05;0.0076436067662890095
1.35378e-05;0.00767165692597958
1.35380e-05;0.007699707085670151
1.35383e-05;0.007727757245360531
1.35385e-05;0.007744727522697091
1.35388e-05;0.0077542152851924236
1.35390e-05;0.007763703047687693
1.35393e-05;0.007773190810183026
1.35395e-05;0.007782678572678359
1.35398e-05;0.007792166335173627
1.35400e-05;0.0078016540976689605
1.35403e-05;0.007811141860164294
1.35405e-05;0.007820629622659562
1.35408e-05;0.007830117385154895
1.35410e-05;0.007839605147650228
1.35413e-05;0.007849092910145497
1.35415e-05;0.007858580672640829
1.35418e-05;0.007865714245654873
1.35420e-05;0.00785090679779142
1.35423e-05;0.007836099349927865
1.35425e-05;0.007821291902064311
1.35428e-05;0.007806484454200857
1.35430e-05;0.007791677006337303
1.35433e-05;0.0077768695584737495
1.35435e-05;0.007762062110610295
1.35438e-05;0.0077472546627467415
1.35440e-05;0.0077324472148831876
1.35443e-05;0.007717639767019634
1.35445e-05;0.007700097493982505
1.35448e-05;0.007675847237798931
1.35450e-05;0.007651596981615357
1.35453e-05;0.007627346725431947
1.35455e-05;0.007603096469248373
1.35458e-05;0.007578846213064799
1.35460e-05;0.007554595956881389
1.35463e-05;0.007530345700697815
1.35465e-05;0.0075060954445142405
1.35468e-05;0.007481845188330831
1.35470e-05;0.007457594932147257
1.35473e-05;0.007432669913187283
1.35475e-05;0.0074070207223936166
1.35478e-05;0.007381371531599777
1.35480e-05;0.007355722340805937
1.35483e-05;0.007330073150012271
1.35485e-05;0.007309794666425506
1.35488e-05;0.007290619948971013
1.35490e-05;0.00727144523151665
1.35493e-05;0.007252270514062157
1.35495e-05;0.007233451782672345
1.35498e-05;0.007216997650180675
1.35500e-05;0.007203832760826703
1.35503e-05;0.007190667871472731
1.35505e-05;0.007177502982118848
1.35508e-05;0.007164338092764876
1.35510e-05;0.007151173203410904
1.35513e-05;0.00713800831405702
1.35515e-05;0.007124843424703048
1.35518e-05;0.0071116785353490765
1.35520e-05;0.007098513645995193
1.35523e-05;0.007085348756641221
1.35525e-05;0.007072183867287248
1.35528e-05;0.007059018977933276
1.35530e-05;0.007045854088579394
1.35533e-05;0.007032689199225421
1.35535e-05;0.007019524309871449
1.35538e-05;0.007006359420517566
1.35540e-05;0.0069931945311635935
1.35543e-05;0.0069800296418096215
1.35545e-05;0.006966864752455739
1.35548e-05;0.006957175867342972
1.35550e-05;0.006949147675709259
1.35553e-05;0.006941119484075599
1.35555e-05;0.0069330912924418855
1.35558e-05;0.006925063100808172
1.35560e-05;0.006917034909174513
1.35563e-05;0.006909006717540799
1.35565e-05;0.0069009785259070856
1.35568e-05;0.006892950334273427
1.35570e-05;0.006884922142639713
1.35573e-05;0.006876893951006
1.35575e-05;0.00686886575937234
1.35578e-05;0.006860837567738627
1.35580e-05;0.006852809376104913
1.35583e-05;0.0068447811844712545
1.35585e-05;0.00683675299283754
1.35588e-05;0.006828724801203827
1.35590e-05;0.006820696609570168
1.35593e-05;0.0068126684179364546
1.35595e-05;0.006806519590771899
1.35598e-05;0.006809127293980807
1.35600e-05;0.0068117349971897325
1.35603e-05;0.006814342700398658
1.35605e-05;0.006816950403607565
1.35608e-05;0.006819558106816491
1.35610e-05;0.006822165810025416
1.35613e-05;0.0068247735132343414
1.35615e-05;0.006827381216443249
1.35618e-05;0.006829988919652175
1.35620e-05;0.0068325966228611
1.35623e-05;0.006835204326070008
1.35625e-05;0.006837812029278934
1.35628e-05;0.006840419732487859
1.35630e-05;0.006843027435696767
1.35633e-05;0.006845635138905692
1.35635e-05;0.006848242842114618
1.35638e-05;0.00685239806487441
1.35640e-05;0.006863763651656622
1.35643e-05;0.006875129238438834
1.35645e-05;0.006886494825220969
1.35648e-05;0.006897860412003181
1.35650e-05;0.006909225998785393
1.35653e-05;0.006920591585567528
1.35655e-05;0.00693195717234974
1.35658e-05;0.006943322759131953
1.35660e-05;0.006954688345914087
1.35663e-05;0.006966053932696299
1.35665e-05;0.006977419519478512
1.35668e-05;0.006988785106260646
1.35670e-05;0.0070001506930428585
1.35673e-05;0.007011516279825071
1.35675e-05;0.007022881866607205
1.35678e-05;0.007034247453389418
1.35680e-05;0.007044217917362426
1.35683e-05;0.007047688080059103
1.35685e-05;0.007051158242755803
1.35688e-05;0.007054628405452504
1.35690e-05;0.007058098568149182
1.35693e-05;0.007061568730845883
1.35695e-05;0.007065038893542584
1.35698e-05;0.007068509056239285
1.35700e-05;0.007071979218935962
1.35703e-05;0.007075449381632663
1.35705e-05;0.007078919544329364
1.35708e-05;0.007082389707026042
1.35710e-05;0.0070858598697227425
1.35713e-05;0.0070893300324194435
1.35715e-05;0.00709280019511612
1.35718e-05;0.007096270357812821
1.35720e-05;0.007099740520509522
1.35723e-05;0.007100990035292937
1.35725e-05;0.007091892876384089
1.35728e-05;0.007082795717475242
1.35730e-05;0.007073698558566456
1.35733e-05;0.007064601399657608
1.35735e-05;0.00705550424074876
1.35738e-05;0.007046407081839974
1.35740e-05;0.007037309922931127
1.35743e-05;0.007028212764022279
1.35745e-05;0.007019115605113493
1.35748e-05;0.007010018446204645
1.35750e-05;0.007000921287295798
1.35753e-05;0.006991824128387012
1.35755e-05;0.006982726969478164
1.35758e-05;0.006973629810569317
1.35760e-05;0.006964532651660531
1.35763e-05;0.006955435492751683
1.35765e-05;0.006946444976092293
1.35768e-05;0.006937951338091918
1.35770e-05;0.006929457700091485
1.35773e-05;0.006920964062091052
1.35775e-05;0.006912470424090676
1.35778e-05;0.006903976786090243
1.35780e-05;0.00689548314808981
1.35783e-05;0.006886989510089377
1.35785e-05;0.006878495872089002
1.35788e-05;0.006870002234088568
1.35790e-05;0.006861508596088135
1.35793e-05;0.00685301495808776
1.35795e-05;0.0068445213200873265
1.35798e-05;0.006836027682086894
1.35800e-05;0.006827534044086518
1.35803e-05;0.006819040406086085
1.35805e-05;0.006810546768085652
1.35808e-05;0.0068020531300852765
1.35810e-05;0.006793559492084844
1.35813e-05;0.006785065854084411
1.35815e-05;0.006781784186329242
1.35818e-05;0.006780992586020884
1.35820e-05;0.0067802009857125265
1.35823e-05;0.006779409385404174
1.35825e-05;0.006778617785095816
1.35828e-05;0.006777826184787459
1.35830e-05;0.006777034584479106
1.35833e-05;0.006776242984170748
1.35835e-05;0.006775451383862391
1.35838e-05;0.006774659783554038
1.35840e-05;0.0067738681832456805
1.35843e-05;0.006773076582937323
1.35845e-05;0.006772284982628971
1.35848e-05;0.0067714933823206135
1.35850e-05;0.006770701782012256
1.35853e-05;0.006769910181703903
1.35855e-05;0.006769118581395546
1.35858e-05;0.006768326981087188
1.35860e-05;0.006767535380778835
1.35863e-05;0.006766720342214686
1.35865e-05;0.006765796097691637
1.35868e-05;0.006764871853168588
1.35870e-05;0.0067639476086455465
1.35873e-05;0.006763023364122498
1.35875e-05;0.006762099119599449
1.35878e-05;0.006761174875076406
1.35880e-05;0.0067602506305533576
1.35883e-05;0.00675932638603031
1.35885e-05;0.006758402141507267
1.35888e-05;0.006757477896984218
1.35890e-05;0.0067565536524611695
1.35893e-05;0.006755629407938128
1.35895e-05;0.006754705163415079
1.35898e-05;0.00675378091889203
1.35900e-05;0.006752856674368988
1.35903e-05;0.00675193242984594
1.35905e-05;0.006751008185322891
1.35908e-05;0.006750083940799848
1.35910e-05;0.0067491596962767995
1.35913e-05;0.006748235451753752
1.35915e-05;0.006747311207230709
1.35918e-05;0.00674638696270766
1.35920e-05;0.006745462718184611
1.35923e-05;0.00674453847366157
1.35925e-05;0.006743614229138521
1.35928e-05;0.006742689984615472
1.35930e-05;0.00674176574009243
1.35933e-05;0.0067408414955693816
1.35935e-05;0.006739917251046333
1.35938e-05;0.00673899300652329
1.35940e-05;0.006738068762000242
1.35943e-05;0.0067371445174771935
1.35945e-05;0.006733774055008341
1.35948e-05;0.006729234889075942
1.35950e-05;0.006724695723143543
1.35953e-05;0.006720156557211143
1.35955e-05;0.006715617391278774
1.35958e-05;0.006711078225346375
1.35960e-05;0.006706539059413975
1.35963e-05;0.0067019998934816066
1.35965e-05;0.006697460727549206
1.35968e-05;0.006692921561616807
1.35970e-05;0.006688382395684439
1.35973e-05;0.006683843229752039
1.35975e-05;0.006679304063819639
1.35978e-05;0.00667476489788727
1.35980e-05;0.006670225731954871
1.35983e-05;0.006665686566022472
1.35985e-05;0.006661147400090103
1.35988e-05;0.006656608234157703
1.35990e-05;0.006652069068225304
1.35993e-05;0.006647529902292935
1.35995e-05;0.006642990736360536
1.35998e-05;0.006638451570428136
1.36000e-05;0.006633912404495767
1.36003e-05;0.006629373238563368
1.36005e-05;0.0066248340726309685
1.36008e-05;0.0066202949066985995
1.36010e-05;0.0066157557407662
1.36013e-05;0.0066112165748338
1.36015e-05;0.006606677408901432
1.36018e-05;0.0066021382429690325
1.36020e-05;0.006597599077036632
1.36023e-05;0.006593059911104264
1.36025e-05;0.006588023037232585
1.36028e-05;0.006580667190767951
1.36030e-05;0.006573311344303367
1.36033e-05;0.006565955497838733
1.36035e-05;0.006558599651374099
1.36038e-05;0.006551243804909465
1.36040e-05;0.006543887958444881
1.36043e-05;0.0065365321119802465
1.36045e-05;0.006529176265515613
1.36048e-05;0.006521820419051029
1.36050e-05;0.006514464572586395
1.36053e-05;0.006507108726121761
1.36055e-05;0.006499752879657177
1.36058e-05;0.006492351203147062
1.36060e-05;0.006484927630904802
1.36063e-05;0.006477504058662592
1.36065e-05;0.006470080486420332
1.36068e-05;0.0064626569141780724
1.36070e-05;0.006455233341935863
1.36073e-05;0.006447809769693603
1.36075e-05;0.006440386197451343
1.36078e-05;0.006432962625209133
1.36080e-05;0.006425539052966873
1.36083e-05;0.006418115480724613
1.36085e-05;0.0064106919084824035
1.36088e-05;0.006405073470138562
1.36090e-05;0.006407865699393608
1.36093e-05;0.006410657928648634
1.36095e-05;0.006413450157903679
1.36098e-05;0.006416242387158725
1.36100e-05;0.006419034616413751
1.36103e-05;0.006421826845668797
1.36105e-05;0.006424619074923843
1.36108e-05;0.006445325062283568
1.36110e-05;0.00647458951484039
1.36113e-05;0.006503853967397212
1.36115e-05;0.006533118419953836
1.36118e-05;0.006562382872510658
1.36120e-05;0.00659164732506748
1.36123e-05;0.006620911777624301
1.36125e-05;0.0066553284366540014
1.36128e-05;0.006713750791929407
1.36130e-05;0.006772173147204812
1.36133e-05;0.006830595502479821
1.36135e-05;0.006889017857755226
1.36138e-05;0.0069474402130306305
1.36140e-05;0.00700586256830564
1.36143e-05;0.0070642849235810455
1.36145e-05;0.00712270727885645
1.36148e-05;0.00718112963413146
1.36150e-05;0.007249227022211094
1.36153e-05;0.00732194674755013
1.36155e-05;0.007394666472888673
1.36158e-05;0.00746738619822771
1.36160e-05;0.007540105923566746
1.36163e-05;0.007612825648905289
1.36165e-05;0.007685545374244325
1.36168e-05;0.007758265099583362
1.36170e-05;0.007830984824921904
1.36173e-05;0.007901525982481783
1.36175e-05;0.007961916530464066
1.36178e-05;0.008022307078445942
1.36180e-05;0.008082697626428225
1.36183e-05;0.00814308817441051
1.36185e-05;0.008203478722392384
1.36188e-05;0.008263869270374669
1.36190e-05;0.008320826078503676
1.36193e-05;0.008361784048782002
1.36195e-05;0.008402742019060605
1.36198e-05;0.00844369998933921
1.36200e-05;0.008484657959617536
1.36203e-05;0.00852561592989614
1.36205e-05;0.008566573900174743
1.36208e-05;0.008604678737512913
1.36210e-05;0.008629489961113596
1.36213e-05;0.008654301184714445
1.36215e-05;0.008679112408315296
1.36218e-05;0.008703923631915977
1.36220e-05;0.008728734855516828
1.36223e-05;0.008753546079117677
1.36225e-05;0.008778357302718358
1.36228e-05;0.008803168526319209
1.36230e-05;0.008827979749920058
1.36233e-05;0.00885279097352074
1.36235e-05;0.00887760219712159
1.36238e-05;0.008902413420722441
1.36240e-05;0.008927224644323122
1.36243e-05;0.008952035867923973
1.36245e-05;0.008976847091524822
1.36248e-05;0.009001658315125505
1.36250e-05;0.009018749383001796
1.36253e-05;0.009032152074394983
1.36255e-05;0.00904555476578808
1.36258e-05;0.009058957457181268
1.36260e-05;0.009072360148574455
1.36263e-05;0.009085762839967553
1.36265e-05;0.00909916553136074
1.36268e-05;0.009112568222753928
1.36270e-05;0.009125970914147024
1.36273e-05;0.009139373605540211
1.36275e-05;0.0091527762969334
1.36278e-05;0.009166178988326496
1.36280e-05;0.009179581679719682
1.36283e-05;0.00919298437111287
1.36285e-05;0.009206387062505967
1.36288e-05;0.009219789753899156
1.36290e-05;0.009230859412506348
1.36293e-05;0.009231058762103445
1.36295e-05;0.00923125811170054
1.36298e-05;0.009231457461297637
1.36300e-05;0.009231656810894733
1.36303e-05;0.009231856160491828
1.36305e-05;0.009232055510088925
1.36308e-05;0.00923225485968602
1.36310e-05;0.009232454209283116
1.36313e-05;0.009232653558880213
1.36315e-05;0.00923285290847731
1.36318e-05;0.009233052258074404
1.36320e-05;0.009233251607671501
1.36323e-05;0.009233450957268598
1.36325e-05;0.009233650306865694
1.36328e-05;0.00923384965646279
1.36330e-05;0.009234049006059886
1.36333e-05;0.009234248355656982
1.36335e-05;0.009234447705254077
1.36338e-05;0.009234647054851174
1.36340e-05;0.009233380394845255
1.36343e-05;0.009225283150418642
1.36345e-05;0.009217185905992029
1.36348e-05;0.00920908866156547
1.36350e-05;0.009200991417138857
1.36353e-05;0.009192894172712242
1.36355e-05;0.009184796928285683
1.36358e-05;0.00917669968385907
1.36360e-05;0.009168602439432457
1.36363e-05;0.009160505195005898
1.36365e-05;0.009152407950579285
1.36368e-05;0.00914431070615267
1.36370e-05;0.009136213461726113
1.36373e-05;0.009128116217299498
1.36375e-05;0.009120018972872885
1.36378e-05;0.00911192172844627
1.36380e-05;0.009103824484019713
1.36383e-05;0.009095727239593098
1.36385e-05;0.009087629995166486
1.36388e-05;0.009079532750739926
1.36390e-05;0.009070422190823012
1.36393e-05;0.009056590285978779
1.36395e-05;0.009042758381134637
1.36398e-05;0.009028926476290404
1.36400e-05;0.009015094571446171
1.36403e-05;0.00900126266660203
1.36405e-05;0.008987430761757797
1.36408e-05;0.008973598856913562
1.36410e-05;0.008959766952069423
1.36413e-05;0.00894593504722519
1.36415e-05;0.008920202283505122
1.36418e-05;0.008888783773331839
1.36420e-05;0.008857365263158343
1.36423e-05;0.008825946752984846
1.36425e-05;0.008794528242811562
1.36428e-05;0.008763109732638066
1.36430e-05;0.008731691222464569
1.36433e-05;0.008700272712291287
1.36435e-05;0.00866885420211779
1.36438e-05;0.008635005889718167
1.36440e-05;0.00858983639006007
1.36443e-05;0.008544666890401667
1.36445e-05;0.008499497390743264
1.36448e-05;0.008454327891085167
1.36450e-05;0.008409158391426764
1.36453e-05;0.00836398889176836
1.36455e-05;0.008318819392110264
1.36458e-05;0.00827364989245186
1.36460e-05;0.008228480392793457
1.36463e-05;0.008183310893135055
1.36465e-05;0.008140831918933751
1.36468e-05;0.008099638368392465
1.36470e-05;0.008058444817851177
1.36473e-05;0.008017251267310168
1.36475e-05;0.007976057716768882
1.36478e-05;0.007934864166227594
1.36480e-05;0.007893670615686585
1.36483e-05;0.007852477065145299
1.36485e-05;0.007811283514604011
1.36488e-05;0.007770089964063003
1.36490e-05;0.007731347817446385
1.36493e-05;0.007704027506972943
1.36495e-05;0.007676707196499687
1.36498e-05;0.007649386886026245
1.36500e-05;0.007622066575552803
1.36503e-05;0.007594746265079545
1.36505e-05;0.007567425954606103
1.36508e-05;0.007540105644132661
1.36510e-05;0.007512785333659404
