Time(s);Current(A)
7.25000e-06;-3.826826585365353e-05
7.25025e-06;-7.057762167760342e-05
7.25050e-06;-0.00010484285500656114
7.25075e-06;-0.0001408003036850943
7.25100e-06;-0.00017808832656773774
7.25125e-06;-0.00021661700040426576
7.25150e-06;-0.00025552219332766404
7.25175e-06;-0.00029510866093875645
7.25200e-06;-0.00033498809731060444
7.25225e-06;-0.00037486753368258757
7.25250e-06;-0.00041419437532784487
7.25275e-06;-0.0004532835844951316
7.25300e-06;-0.0004923727936625509
7.25325e-06;-0.0005295175825227247
7.25350e-06;-0.0005658262117281751
7.25375e-06;-0.0005996472488286696
7.25400e-06;-0.0006323985459412239
7.25425e-06;-0.0006619327168234208
7.25450e-06;-0.0006900834259366222
7.25475e-06;-0.0007148975635317004
7.25500e-06;-0.0007382768742644869
7.25525e-06;-0.0007586953298627605
7.25550e-06;-0.0007778405280291309
7.25575e-06;-0.0007938240588864199
7.25600e-06;-0.0008084479769913367
7.25625e-06;-0.0008196504765166429
7.25650e-06;-0.0008293816623720198
7.25675e-06;-0.000835813907368152
7.25700e-06;-0.0008408275078256117
7.25725e-06;-0.0008429747877134723
7.25750e-06;-0.0008438894628970665
7.25775e-06;-0.0008413156057263367
7.25800e-06;-0.0008372415739287748
7.25825e-06;-0.0008331675421312267
7.25850e-06;-0.0008251425285916476
7.25875e-06;-0.0008154184731747326
7.25900e-06;-0.0008056944177578506
7.25925e-06;-0.0007928968051808644
7.25950e-06;-0.0007787774698858529
7.25975e-06;-0.0007646581345908413
7.26000e-06;-0.0007480376596106854
7.26025e-06;-0.0007303416187729704
7.26050e-06;-0.0007126455779352553
7.26075e-06;-0.0006928969939416963
7.26100e-06;-0.0006722657541922051
7.26125e-06;-0.0006516345144427139
7.26150e-06;-0.0006310032746931528
7.26175e-06;-0.0006103720349436615
7.26200e-06;-0.0005893204633803835
7.26225e-06;-0.0005680881363996313
7.26250e-06;-0.0005468558094189511
7.26275e-06;-0.0005256234824382709
7.26300e-06;-0.0005043911554575187
7.26325e-06;-0.00048463919566683775
7.26350e-06;-0.00046552383862789756
7.26375e-06;-0.0004464084815890221
7.26400e-06;-0.00042912391342851767
7.26425e-06;-0.00041262663996470593
7.26450e-06;-0.0003976131012516382
7.26475e-06;-0.0003847529750432304
7.26500e-06;-0.0003746162013187536
7.26525e-06;-0.0003676548630580886
7.26550e-06;-0.0003639257269325632
7.26575e-06;-0.00036336715738770006
7.26600e-06;-0.0003659123495326439
7.26625e-06;-0.0003714944809726567
7.26650e-06;-0.0003800985248927158
7.26675e-06;-0.00039190809769211276
7.26700e-06;-0.0004072397470924701
7.26725e-06;-0.0004262194504280054
7.26750e-06;-0.0004487255345873701
7.26775e-06;-0.00047456216168160207
7.26800e-06;-0.000503530310965934
7.26825e-06;-0.0005354308890401917
7.26850e-06;-0.0005710501860317848
7.26875e-06;-0.0006078971778930239
7.26900e-06;-0.0006485672940911941
7.26925e-06;-0.0006908814696077044
7.26950e-06;-0.0007365083642183213
7.26975e-06;-0.0007835598284257917
7.27000e-06;-0.0008336122749264775
7.27025e-06;-0.0008849552347526688
7.27050e-06;-0.00093629819457886
7.27075e-06;-0.0009900120962168775
7.27100e-06;-0.0010447455746810637
7.27125e-06;-0.00109947905314525
7.27150e-06;-0.0011550794139086776
7.27175e-06;-0.0012110525603298914
7.27200e-06;-0.001267025706751295
7.27225e-06;-0.0013218220793109602
7.27250e-06;-0.0013761124034500584
7.27275e-06;-0.0014304027275893407
7.27300e-06;-0.0014817243339771639
7.27325e-06;-0.001531769301770092
7.27350e-06;-0.0015818142695631899
7.27375e-06;-0.0016278488959120066
7.27400e-06;-0.0016721589539134354
7.27425e-06;-0.0017120082422707233
7.27450e-06;-0.0017499392645049844
7.27475e-06;-0.0017811396699431458
7.27500e-06;-0.0018094457061994954
7.27525e-06;-0.001828856701337945
7.27550e-06;-0.0018444425592471178
7.27575e-06;-0.0018511108261358312
7.27600e-06;-0.001853944258653777
7.27625e-06;-0.0018480188449533322
7.27650e-06;-0.0018383268619576135
7.27675e-06;-0.0018192909156842687
7.27700e-06;-0.0017962367820491764
7.27725e-06;-0.0017633200373751905
7.27750e-06;-0.0017261620710855212
7.27775e-06;-0.00167996440238881
7.27800e-06;-0.0016298793877251732
7.27825e-06;-0.0015716910614683678
7.27850e-06;-0.0015100180656698692
7.27875e-06;-0.0014407122127458934
7.27900e-06;-0.0013681239999577884
7.27925e-06;-0.001290036785815085
7.27950e-06;-0.0012063411489954589
7.27975e-06;-0.001118366276783652
7.28000e-06;-0.0010266262706326666
7.28025e-06;-0.0009316352149082447
7.28050e-06;-0.0008338778754343659
7.28075e-06;-0.0007337302089846346
7.28100e-06;-0.000631503103584719
7.28125e-06;-0.0005276268201913839
7.28150e-06;-0.00042267741206557675
7.28175e-06;-0.00031727404417952553
7.28200e-06;-0.0002120376003558085
7.28225e-06;-0.00010758887405071633
7.28250e-06;-4.530389227310673e-06
7.28275e-06;9.660358725539631e-05
7.28300e-06;0.0001953195702793318
7.28325e-06;0.00029104938014994016
7.28350e-06;0.00038313346609253357
7.28375e-06;0.0004708854110631267
7.28400e-06;0.0005536177766827521
7.28425e-06;0.0006306431392282095
7.28450e-06;0.000701510840201575
7.28475e-06;0.0007667583662368983
7.28500e-06;0.0008278047223954508
7.28525e-06;0.0008855409188607098
7.28550e-06;0.000939912070939812
7.28575e-06;0.0009890928670414417
7.28600e-06;0.0010364894153666376
7.28625e-06;0.0010775660278393021
7.28650e-06;0.0011159248763812771
7.28675e-06;0.001148715812042975
7.28700e-06;0.0011791123764410389
7.28725e-06;0.001205690232863391
7.28750e-06;0.0012306259291374332
7.28775e-06;0.0012503863277739911
7.28800e-06;0.0012679211915986367
7.28825e-06;0.0012854560554232824
7.28850e-06;0.0012966634871128793
7.28875e-06;0.0013051499312434192
7.28900e-06;0.0013136363753739877
7.28925e-06;0.0013179996607069941
7.28950e-06;0.001320589862812536
7.28975e-06;0.001323180064918087
7.29000e-06;0.0013218411296509497
7.29025e-06;0.0013188125462485147
7.29050e-06;0.0013157839628460694
7.29075e-06;0.001309693422864605
7.29100e-06;0.001302286148767401
7.29125e-06;0.0012948788746701718
7.29150e-06;0.0012859128894308267
7.29175e-06;0.0012762766111666022
7.29200e-06;0.001266640332902345
7.29225e-06;0.001255799629331384
7.29250e-06;0.00124444098638073
7.29275e-06;0.0012330823434300376
7.29300e-06;0.0012218422299316726
7.29325e-06;0.0012106530876895606
7.29350e-06;0.0011994639454474866
7.29375e-06;0.0011893745654861807
7.29400e-06;0.0011797581166317413
7.29425e-06;0.0011701416677773347
7.29450e-06;0.0011621709005079997
7.29475e-06;0.0011549078261894072
7.29500e-06;0.0011476447518708392
7.29525e-06;0.0011439826066546037
7.29550e-06;0.0011418689700715067
7.29575e-06;0.001139755333488417
7.29600e-06;0.001137641696905327
7.29625e-06;0.00113552806032223
7.29650e-06;0.0011334144237391403
7.29675e-06;0.0011313007871560504
7.29700e-06;0.0011343325522422427
7.29725e-06;0.001139576995967505
7.29750e-06;0.0011448214396927853
7.29775e-06;0.0011500658834180477
7.29800e-06;0.00115531032714331
7.29825e-06;0.0011605547708685902
7.29850e-06;0.0011657992145938526
7.29875e-06;0.0011751253812495505
7.29900e-06;0.001186206812453895
7.29925e-06;0.0011972882436582018
7.29950e-06;0.001208369674862509
7.29975e-06;0.0012194511060668533
7.30000e-06;0.0012305325372711602
7.30025e-06;0.0012422312436577692
7.30050e-06;0.0012564101104649058
7.30075e-06;0.0012705889772719942
7.30100e-06;0.0012847678440790827
7.30125e-06;0.0012989467108862193
7.30150e-06;0.0013131255776933077
7.30175e-06;0.0013273044445004443
7.30200e-06;0.0013417409767694823
7.30225e-06;0.0013562883129951907
7.30250e-06;0.0013708356492209482
7.30275e-06;0.001384948133232128
7.30300e-06;0.0013988736176137441
7.30325e-06;0.00141216367504492
7.30350e-06;0.001425180479632016
7.30375e-06;0.0014372886940974812
7.30400e-06;0.0014490061872777064
7.30425e-06;0.0014595321175504127
7.30450e-06;0.0014695456396650174
7.30475e-06;0.0014779365049747478
7.30500e-06;0.0014856295786870371
7.30525e-06;0.0014913455062399983
7.30550e-06;0.0014962112010310934
7.30575e-06;0.0014985722827457564
7.30600e-06;0.0014998563049404047
7.30625e-06;0.0015011403271350484
7.30650e-06;0.001497763032084332
7.30675e-06;0.001492381229366469
7.30700e-06;0.0014869994266486243
7.30725e-06;0.0014816176239307798
7.30750e-06;0.001476235821212917
7.30775e-06;0.0014708540184950722
7.30800e-06;0.0014597721648082335
7.30825e-06;0.00144623911647645
7.30850e-06;0.0014327060681447125
7.30875e-06;0.001419173019812975
7.30900e-06;0.0014056399714811917
7.30925e-06;0.0013921069231494542
7.30950e-06;0.0013743511378369968
7.30975e-06;0.0013547794476615298
7.31000e-06;0.0013352077574861289
7.31025e-06;0.0013156360673106616
7.31050e-06;0.001296064377135261
7.31075e-06;0.00127649268695986
7.31100e-06;0.0012564697474391128
7.31125e-06;0.0012346337255240405
7.31150e-06;0.001212797703608968
7.31175e-06;0.0011909616816938215
7.31200e-06;0.001169125659778749
7.31225e-06;0.0011472896378636765
7.31250e-06;0.0011254536159485302
7.31275e-06;0.0011045147328206928
7.31300e-06;0.0010839616465572548
7.31325e-06;0.001063408560293747
7.31350e-06;0.0010455279914964779
7.31375e-06;0.0010287966861946163
7.31400e-06;0.001012065380892698
7.31425e-06;0.0009953340755908364
7.31450e-06;0.0009786027702889182
7.31475e-06;0.0009624783540638698
7.31500e-06;0.0009487923677488807
7.31525e-06;0.0009351063814338452
7.31550e-06;0.0009214203951188561
7.31575e-06;0.000907734408803867
7.31600e-06;0.0008940484224888316
7.31625e-06;0.0008806478075623166
7.31650e-06;0.0008673699109804104
7.31675e-06;0.0008540920143984592
7.31700e-06;0.0008408141178165529
7.31725e-06;0.0008275362212346466
7.31750e-06;0.0008142583246526953
7.31775e-06;0.0008009804280707892
7.31800e-06;0.0007877025314888829
7.31825e-06;0.0007744246349069316
7.31850e-06;0.0007609415361655897
7.31875e-06;0.0007466339521892028
7.31900e-06;0.0007323263682128644
7.31925e-06;0.000718018784236526
7.31950e-06;0.0007037112002601393
7.31975e-06;0.0006894036162838009
7.32000e-06;0.0006750960323074625
7.32025e-06;0.0006607884483310757
7.32050e-06;0.0006464808643547373
7.32075e-06;0.0006321732803783989
7.32100e-06;0.0006180235289393249
7.32125e-06;0.0006039416502741112
7.32150e-06;0.0005898597716088974
7.32175e-06;0.0005757778929436359
7.32200e-06;0.0005616960142784221
7.32225e-06;0.0005476141356132084
7.32250e-06;0.0005348946672529579
7.32275e-06;0.0005227610766087324
7.32300e-06;0.0005106274859644659
7.32325e-06;0.0004984938953202404
7.32350e-06;0.0004863603046760149
7.32375e-06;0.0004742267140317483
7.32400e-06;0.0004636536458489079
7.32425e-06;0.0004537516496126134
7.32450e-06;0.00044438340224586137
7.32475e-06;0.00043524468306712516
7.32500e-06;0.00042473634222759966
7.32525e-06;0.00041205609266979024
7.32550e-06;0.0003965565273473837
7.32575e-06;0.0003801372958049976
7.32600e-06;0.0003618497295240955
7.32625e-06;0.00034169330084444046
7.32650e-06;0.0003200454629906693
7.32675e-06;0.00029658465349394794
7.32700e-06;0.00027066698106201236
7.32725e-06;0.00024195461082802903
7.32750e-06;0.00021056250571507956
7.32775e-06;0.0001767450432766911
7.32800e-06;0.00014076276537895464
7.32825e-06;0.00010287618916046302
7.32850e-06;6.328132021168309e-05
7.32875e-06;2.1916212931197032e-05
7.32900e-06;-2.1482976058013353e-05
7.32925e-06;-6.698834947529246e-05
7.32950e-06;-0.00011438838515132879
7.32975e-06;-0.00016338424140550033
7.33000e-06;-0.00021367324491320392
7.33025e-06;-0.00026518165072331374
7.33050e-06;-0.0003170589811298827
7.33075e-06;-0.0003701064046457752
7.33100e-06;-0.0004236570036558455
7.33125e-06;-0.00047720760266573443
7.33150e-06;-0.0005307630604039845
7.33175e-06;-0.0005843380401083641
7.33200e-06;-0.0006379130198127438
7.33225e-06;-0.0006914879995173049
7.33250e-06;-0.0007428533135996881
7.33275e-06;-0.0007932684045058114
7.33300e-06;-0.0008436834954121056
7.33325e-06;-0.0008913803190190746
7.33350e-06;-0.0009379082053166284
7.33375e-06;-0.0009812447512366324
7.33400e-06;-0.0010232089240879267
7.33425e-06;-0.0010609900085856087
7.33450e-06;-0.0010969722383326087
7.33475e-06;-0.0011273067350545164
7.33500e-06;-0.0011552125354343291
7.33525e-06;-0.001176287424863366
7.33550e-06;-0.0011944248155886807
7.33575e-06;-0.0012056297800973235
7.33600e-06;-0.0012138535912618218
7.33625e-06;-0.001215130689177387
7.33650e-06;-0.0012134204898920826
7.33675e-06;-0.0012044530481023967
7.33700e-06;-0.0011923647721221924
7.33725e-06;-0.0011728852567429316
7.33750e-06;-0.0011502272844480944
7.33775e-06;-0.0011207216312385658
7.33800e-06;-0.0010882712677328242
7.33825e-06;-0.0010495712434750951
7.33850e-06;-0.0010081836757128097
7.33875e-06;-0.0009609590412207518
7.33900e-06;-0.0009112242911566619
7.33925e-06;-0.000856175477430571
7.33950e-06;-0.0007988414552995597
7.33975e-06;-0.0007371407910494226
7.34000e-06;-0.0006735623383670846
7.34025e-06;-0.0006065986934813222
7.34050e-06;-0.0005381793133678398
7.34075e-06;-0.0004677723262188801
7.34100e-06;-0.0003954455115999922
7.34125e-06;-0.0003218569768923123
7.34150e-06;-0.0002474234945500632
7.34175e-06;-0.00017258229666825817
7.34200e-06;-9.777136689510799e-05
7.34225e-06;-2.3428660383082433e-05
7.34250e-06;5.001590060498922e-05
7.34275e-06;0.00012216023057494828
7.34300e-06;0.00019261303685498652
7.34325e-06;0.0002609414399302247
7.34350e-06;0.0003266677569621387
7.34375e-06;0.0003893015721508918
7.34400e-06;0.0004483520027877049
7.34425e-06;0.000503328224372292
7.34450e-06;0.000553851222881636
7.34475e-06;0.0006000209083345772
7.34500e-06;0.0006423948793169057
7.34525e-06;0.0006813331165834758
7.34550e-06;0.0007167769043778224
7.34575e-06;0.0007485309070581496
7.34600e-06;0.0007763934350791712
7.34625e-06;0.0008001629210073249
7.34650e-06;0.0008183195557456496
7.34675e-06;0.0008345996273227068
7.34700e-06;0.0008459670764200455
7.34725e-06;0.0008552219489861659
7.34750e-06;0.0008599927489828462
7.34775e-06;0.0008628352618958945
7.34800e-06;0.0008611409297687282
7.34825e-06;0.0008574956167963614
7.34850e-06;0.0008494285284134578
7.34875e-06;0.0008394599426130783
7.34900e-06;0.000825931484270712
7.34925e-06;0.0008108721728621115
7.34950e-06;0.0007928171842202171
7.34975e-06;0.0007734739635914191
7.35000e-06;0.0007507779170600308
7.35025e-06;0.0007266400537915759
7.35050e-06;0.000702502190523121
7.35075e-06;0.0006754309810999688
7.35100e-06;0.0006470983439426776
7.35125e-06;0.0006187657067853865
7.35150e-06;0.0005890868865691685
7.35175e-06;0.0005588291668450398
7.35200e-06;0.0005285714471209112
7.35225e-06;0.0004980716754930974
7.35250e-06;0.00046746781421207
7.35275e-06;0.0004368639529309389
7.35300e-06;0.0004072351442858474
7.35325e-06;0.0003780256378207253
7.35350e-06;0.0003504418816494089
7.35375e-06;0.0003235572473688316
7.35400e-06;0.0002982566216399292
7.35425e-06;0.00027488722184949166
7.35450e-06;0.00025334939763253274
7.35475e-06;0.0002333320878458901
7.35500e-06;0.00021416766718210638
7.35525e-06;0.00019544209576351365
7.35550e-06;0.0001771617529970281
7.35575e-06;0.00015973522724149018
7.35600e-06;0.00014261344378379374
7.35625e-06;0.00012640256547641988
7.35650e-06;0.00011126187011272343
7.35675e-06;9.689470077756296e-05
7.35700e-06;8.289712841379249e-05
7.35725e-06;6.902407841046522e-05
7.35750e-06;5.529388145868901e-05
7.35775e-06;4.180769651406936e-05
7.35800e-06;2.867042377961132e-05
7.35825e-06;1.598693884529785e-05
7.35850e-06;3.822253980978098e-06
7.35875e-06;-7.92246156020064e-06
7.35900e-06;-1.9485929508174217e-05
7.35925e-06;-3.100733347100048e-05
7.35950e-06;-4.2460870864727516e-05
7.35975e-06;-5.3681559840286505e-05
7.36000e-06;-6.481370223044872e-05
7.36025e-06;-7.54972989706887e-05
7.36050e-06;-8.598800748946202e-05
7.36075e-06;-9.610163350325458e-05
7.36100e-06;-0.00010605310261334673
7.36125e-06;-0.0001158396221363736
7.36150e-06;-0.00012555520833862563
7.36175e-06;-0.00013485249859493972
7.36200e-06;-0.00014396990891917411
7.36225e-06;-0.00015308731924337758
7.36250e-06;-0.00016148128065918127
7.36275e-06;-0.00016956413712216663
7.36300e-06;-0.0001776469935851246
7.36325e-06;-0.00018523831440622984
7.36350e-06;-0.0001926182600066602
7.36375e-06;-0.00019949126018665018
7.36400e-06;-0.00020614625847420874
7.36425e-06;-0.00021211834883364664
7.36450e-06;-0.0002177967680902295
7.36475e-06;-0.0002226104555643991
7.36500e-06;-0.00022609485766811704
7.36525e-06;-0.00022809626520785755
7.36550e-06;-0.00022858812731132647
7.36575e-06;-0.00022760910166261228
7.36600e-06;-0.00022520065979610455
7.36625e-06;-0.00022140432117396792
7.36650e-06;-0.00021623269111563885
7.36675e-06;-0.00020958638856040357
7.36700e-06;-0.00020128781444249486
7.36725e-06;-0.0001912606864755961
7.36750e-06;-0.00017956415547136512
7.36775e-06;-0.0001662982121305852
7.36800e-06;-0.0001515646223725029
7.36825e-06;-0.00013546515791621776
7.36850e-06;-0.00011808348166780159
7.36875e-06;-9.943310909874198e-05
7.36900e-06;-7.94785663658929e-05
7.36925e-06;-5.824783902055779e-05
7.36950e-06;-3.585375295838375e-05
7.36975e-06;-1.2434705348143489e-05
7.37000e-06;1.1869804412401813e-05
7.37025e-06;3.6920279660222706e-05
7.37050e-06;6.258857265058248e-05
7.37075e-06;8.895337034701811e-05
7.37100e-06;0.00011554258619654432
7.37125e-06;0.00014263779771137583
7.37150e-06;0.00016995060269499418
7.37175e-06;0.00019726340767861253
7.37200e-06;0.00022429741201538162
7.37225e-06;0.0002512115236255732
7.37250e-06;0.00027812563523576476
7.37275e-06;0.0003041282192667469
7.37300e-06;0.00032973881881716543
7.37325e-06;0.0003541926063249113
7.37350e-06;0.0003781489296003351
7.37375e-06;0.00040046362810132637
7.37400e-06;0.0004220723782043679
7.37425e-06;0.0004415396202211821
7.37450e-06;0.0004600859488682443
7.37475e-06;0.00047597712823425187
7.37500e-06;0.0004907265129522676
7.37525e-06;0.0005025167113890387
7.37550e-06;0.0005130343700548506
7.37575e-06;0.0005205120657572933
7.37600e-06;0.0005266824852677472
7.37625e-06;0.0005297472662409115
7.37650e-06;0.0005314765285351592
7.37675e-06;0.0005300259289210894
7.37700e-06;0.0005272078923294457
7.37725e-06;0.0005212670809026005
7.37750e-06;0.0005139833816695156
7.37775e-06;0.0005037738529154774
7.37800e-06;0.0004923061288082715
7.37825e-06;0.0004781189535990305
7.37850e-06;0.0004627623320103982
7.37875e-06;0.00044488727501361327
7.37900e-06;0.00042592921447701543
7.37925e-06;0.0004047359558929247
7.37950e-06;0.0003825814944169042
7.37975e-06;0.00035856264646981923
7.38000e-06;0.0003337420558452335
7.38025e-06;0.00030743376184873115
7.38050e-06;0.0002804857103214973
7.38075e-06;0.00025242321940268747
7.38100e-06;0.00022388148577547987
7.38125e-06;0.00019460866517247835
7.38150e-06;0.0001650214550164749
7.38175e-06;0.00013540243717644407
7.38200e-06;0.00010565561870369184
7.38225e-06;7.590880023104041e-05
7.38250e-06;4.650610741789014e-05
7.38275e-06;1.7627171417647562e-05
7.38300e-06;-1.059066046671387e-05
7.38325e-06;-3.7961308395079776e-05
7.38350e-06;-6.429031930148328e-05
7.38375e-06;-8.938117009573087e-05
7.38400e-06;-0.00011303728894003827
7.38425e-06;-0.00013506211983327818
7.38450e-06;-0.00015528605596913553
7.38475e-06;-0.00017366054078213155
7.38500e-06;-0.00019026673903345647
7.38525e-06;-0.00020516263168241628
7.38550e-06;-0.0002183185979477149
7.38575e-06;-0.00022967481691103334
7.38600e-06;-0.00023917000028144482
7.38625e-06;-0.00024674287574392886
7.38650e-06;-0.0002523490616344849
7.38675e-06;-0.0002560200015608395
7.38700e-06;-0.0002578684097958258
7.38725e-06;-0.00025799245332209863
7.38750e-06;-0.00025643543193618187
7.38775e-06;-0.000253221701926471
7.38800e-06;-0.00024837475293217553
7.38825e-06;-0.00024191803979258775
7.38850e-06;-0.00023388561478188098
7.38875e-06;-0.0002243590208353611
7.38900e-06;-0.00021347069963941726
7.38925e-06;-0.0002013439745852448
7.38950e-06;-0.00018806779594306454
7.38975e-06;-0.00017371926548660657
7.39000e-06;-0.00015837488121030633
7.39025e-06;-0.00014211116868435343
7.39050e-06;-0.0001250112548217053
7.39075e-06;-0.00010718802843439971
7.39100e-06;-8.87862450833469e-05
7.39125e-06;-6.994493397100928e-05
7.39150e-06;-5.07190071792811e-05
7.39175e-06;-3.137935722661673e-05
7.39200e-06;-1.1928659688050766e-05
7.39225e-06;7.541558052585541e-06
7.39250e-06;2.6890559950728615e-05
7.39275e-06;4.59859003035762e-05
7.39300e-06;6.46751790580744e-05
7.39325e-06;8.280959090389176e-05
7.39350e-06;0.00010025383032680904
7.39375e-06;0.00011687726459431881
7.39400e-06;0.0001325494990820862
7.39425e-06;0.00014714014135359948
