Time(s);Current(A)
1.25000e-05;0.01063776521011
1.25003e-05;0.01067805079742079
1.25005e-05;0.01071833638473131
1.25008e-05;0.0107586219720421
1.25010e-05;0.01079890755935289
1.25012e-05;0.01083919314666341
1.25015e-05;0.0108794787339742
1.25018e-05;0.010919764321284992
1.25020e-05;0.010956261758342387
1.25023e-05;0.010980573300101945
1.25025e-05;0.01100488484186167
1.25028e-05;0.011029196383621395
1.25030e-05;0.011053507925380955
1.25033e-05;0.01107781946714068
1.25035e-05;0.011102131008900404
1.25038e-05;0.011126442550659964
1.25040e-05;0.011150754092419689
1.25043e-05;0.011175065634179413
1.25045e-05;0.011199377175938973
1.25048e-05;0.011223308024877662
1.25050e-05;0.011242421999166417
1.25053e-05;0.011261535973455044
1.25055e-05;0.0112806499477438
1.25058e-05;0.011299763922032557
1.25060e-05;0.011318877896321182
1.25063e-05;0.011337991870609939
1.25065e-05;0.011357105844898695
1.25068e-05;0.01137621981918732
1.25070e-05;0.011395333793476077
1.25073e-05;0.011414447767764834
1.25075e-05;0.011433561742053459
1.25078e-05;0.011449581115804899
1.25080e-05;0.011465291979801865
1.25083e-05;0.011481002843798726
1.25085e-05;0.011496713707795692
1.25088e-05;0.01151242457179266
1.25090e-05;0.011528135435789521
1.25093e-05;0.011543846299786487
1.25095e-05;0.011559557163783455
1.25097e-05;0.011575268027780316
1.25100e-05;0.011590978891777282
1.25103e-05;0.011606689755774249
1.25105e-05;0.011622400619771217
1.25108e-05;0.011638111483768077
1.25110e-05;0.011653822347765044
1.25113e-05;0.011669533211762012
1.25115e-05;0.011685244075758872
1.25118e-05;0.011700954939755839
1.25120e-05;0.011701938627993127
1.25123e-05;0.011701454121119606
1.25125e-05;0.011700969614246081
1.25128e-05;0.011700485107372557
1.25130e-05;0.011700000600499038
1.25133e-05;0.011699516093625514
1.25135e-05;0.01169903158675199
1.25138e-05;0.011698547079878469
1.25140e-05;0.011698062573004944
1.25143e-05;0.011697578066131422
1.25145e-05;0.0116970935592579
1.25148e-05;0.011696609052384377
1.25150e-05;0.011696124545510852
1.25153e-05;0.011695640038637331
1.25155e-05;0.011695155531763809
1.25158e-05;0.011694671024890285
1.25160e-05;0.011694186518016764
1.25163e-05;0.011673612674561393
1.25165e-05;0.011651036066540709
1.25168e-05;0.011628459458520177
1.25170e-05;0.011605882850499493
1.25173e-05;0.01158330624247881
1.25175e-05;0.011560729634458278
1.25178e-05;0.011538153026437596
1.25180e-05;0.011515576418416912
1.25182e-05;0.01149299981039638
1.25185e-05;0.011470423202375696
1.25188e-05;0.011447846594355012
1.25190e-05;0.011425269986334328
1.25193e-05;0.011402693378313799
1.25195e-05;0.011380116770293115
1.25198e-05;0.01135750577251479
1.25200e-05;0.011334845152775115
1.25203e-05;0.011312184533035287
1.25205e-05;0.011289523913295458
1.25208e-05;0.011266863293555784
1.25210e-05;0.011244202673815954
1.25213e-05;0.011221542054076127
1.25215e-05;0.011198881434336451
1.25218e-05;0.011176220814596623
1.25220e-05;0.011153560194856795
1.25223e-05;0.01113089957511712
1.25225e-05;0.01110823895537729
1.25228e-05;0.011085578335637463
1.25230e-05;0.011062917715897787
1.25233e-05;0.01104025709615796
1.25235e-05;0.011037051268435764
1.25238e-05;0.011035784945681724
1.25240e-05;0.011034518622927675
1.25243e-05;0.011033252300173628
1.25245e-05;0.011031985977419587
1.25248e-05;0.011030719654665538
1.25250e-05;0.01102945333191149
1.25253e-05;0.01102818700915745
1.25255e-05;0.0110269206864034
1.25258e-05;0.011025654363649351
1.25260e-05;0.011024388040895311
1.25263e-05;0.011023121718141262
1.25265e-05;0.011021855395387213
1.25267e-05;0.011027847504430551
1.25270e-05;0.01104431301160234
1.25273e-05;0.01106077851877413
1.25275e-05;0.011077244025945919
1.25278e-05;0.011093709533117595
1.25280e-05;0.011110175040289385
1.25283e-05;0.011126640547461172
1.25285e-05;0.01114310605463285
1.25288e-05;0.011159571561804638
1.25290e-05;0.011176037068976427
1.25293e-05;0.011192502576148105
1.25295e-05;0.011208968083319892
1.25298e-05;0.011225433590491682
1.25300e-05;0.011241899097663358
1.25303e-05;0.011261407743429378
1.25305e-05;0.01127730237150008
1.25308e-05;0.01129280646283019
1.25310e-05;0.011308310554160405
1.25313e-05;0.01132381464549062
1.25315e-05;0.01133931873682073
1.25318e-05;0.011354822828150944
1.25320e-05;0.01137032691948116
1.25323e-05;0.01138583101081127
1.25325e-05;0.011401335102141485
1.25328e-05;0.011416839193471699
1.25330e-05;0.011432343284801808
1.25333e-05;0.011442170765012827
1.25335e-05;0.011443807301237856
1.25338e-05;0.011445443837462875
1.25340e-05;0.011447080373687904
1.25343e-05;0.011448716909912934
1.25345e-05;0.011450353446137953
1.25348e-05;0.011451989982362982
1.25350e-05;0.011453626518588013
1.25352e-05;0.011455263054813031
1.25355e-05;0.01145689959103806
1.25358e-05;0.011458536127263089
1.25360e-05;0.01146017266348812
1.25363e-05;0.011449527538203134
1.25365e-05;0.011437658018254174
1.25368e-05;0.011425788498305214
1.25370e-05;0.011413918978356336
1.25373e-05;0.011402049458407377
1.25375e-05;0.011390179938458417
1.25378e-05;0.011378310418509539
1.25380e-05;0.011366440898560579
1.25383e-05;0.01135457137861162
1.25385e-05;0.01134270185866274
1.25388e-05;0.011330832338713782
1.25390e-05;0.011318962818764822
1.25393e-05;0.011307093298815943
1.25395e-05;0.011295223778866983
1.25398e-05;0.011283354258918025
1.25400e-05;0.011270305016588378
1.25403e-05;0.01125713816429298
1.25405e-05;0.01124397131199758
1.25408e-05;0.011230804459702272
1.25410e-05;0.011217637607406872
1.25413e-05;0.011204470755111474
1.25415e-05;0.011191303902816164
1.25418e-05;0.011178137050520766
1.25420e-05;0.011164970198225366
1.25423e-05;0.011151803345930057
1.25425e-05;0.01113863649363466
1.25428e-05;0.01112546964133926
1.25430e-05;0.011112302789043951
1.25433e-05;0.011099135936748552
1.25435e-05;0.011085969084453154
1.25437e-05;0.011078739041516078
1.25440e-05;0.011072100856423179
1.25443e-05;0.01106546267133028
1.25445e-05;0.011058824486237379
1.25448e-05;0.011052186301144525
1.25450e-05;0.011045548116051624
1.25453e-05;0.011038909930958725
1.25455e-05;0.011032271745865869
1.25458e-05;0.01102563356077297
1.25460e-05;0.011018995375680069
1.25463e-05;0.011012357190587215
1.25465e-05;0.011005719005494316
1.25468e-05;0.010999080820401415
1.25470e-05;0.01099244263530856
1.25473e-05;0.01098580445021566
1.25475e-05;0.01097916626512276
1.25478e-05;0.010972528080029905
1.25480e-05;0.010965889894937006
1.25483e-05;0.010959251709844107
1.25485e-05;0.010952613524751251
1.25488e-05;0.010945975339658352
1.25490e-05;0.010939337154565451
1.25493e-05;0.010932698969472597
1.25495e-05;0.010926060784379696
1.25498e-05;0.010919422599286797
1.25500e-05;0.010912784414193941
1.25503e-05;0.010906146229101042
1.25505e-05;0.010899508044008143
1.25508e-05;0.010892869858915287
1.25510e-05;0.010886231673822388
1.25513e-05;0.010879593488729487
1.25515e-05;0.010872955303636633
1.25518e-05;0.010866317118543732
1.25520e-05;0.01086559894865775
1.25522e-05;0.010865470962358481
1.25525e-05;0.010865342976059213
1.25528e-05;0.010865214989759944
1.25530e-05;0.010865087003460673
1.25533e-05;0.010864959017161406
1.25535e-05;0.010864831030862136
1.25538e-05;0.010864703044562867
1.25540e-05;0.010864575058263598
1.25543e-05;0.01086444707196433
1.25545e-05;0.010864319085665061
1.25548e-05;0.010864191099365792
1.25550e-05;0.010864063113066523
1.25553e-05;0.010863935126767255
1.25555e-05;0.010863807140467986
1.25558e-05;0.010863679154168717
1.25560e-05;0.010863551167869447
1.25563e-05;0.01086342318157018
1.25565e-05;0.010863295195270909
1.25568e-05;0.01086316720897164
1.25570e-05;0.010863039222672372
1.25573e-05;0.010862911236373103
1.25575e-05;0.010862783250073834
1.25578e-05;0.010862655263774565
1.25580e-05;0.010862527277475297
1.25583e-05;0.010862399291176028
1.25585e-05;0.010862271304876759
1.25588e-05;0.01086214331857749
1.25590e-05;0.01086201533227822
1.25593e-05;0.010861887345978953
1.25595e-05;0.010861759359679682
1.25598e-05;0.010861631373380413
1.25600e-05;0.010861503387081145
1.25603e-05;0.010862549046061367
1.25605e-05;0.010863711709163518
1.25607e-05;0.010864874372265661
1.25610e-05;0.010866037035367811
1.25613e-05;0.010867199698469962
1.25615e-05;0.010868362361572112
1.25618e-05;0.010869525024674255
1.25620e-05;0.010870687687776406
1.25623e-05;0.010871850350878556
1.25625e-05;0.0108730130139807
1.25628e-05;0.01087417567708285
1.25630e-05;0.010875338340185
1.25633e-05;0.010876501003287143
1.25635e-05;0.010877663666389294
1.25638e-05;0.010878826329491444
1.25640e-05;0.010879988992593587
1.25643e-05;0.010881151655695738
1.25645e-05;0.010882314318797888
1.25648e-05;0.01088347698190003
1.25650e-05;0.010884639645002182
1.25653e-05;0.010885802308104332
1.25655e-05;0.010886964971206474
1.25658e-05;0.010888127634308626
1.25660e-05;0.010889290297410776
1.25663e-05;0.010890452960512918
1.25665e-05;0.010889744666915106
1.25668e-05;0.010888849852185415
1.25670e-05;0.010887955037455729
1.25673e-05;0.01088706022272604
1.25675e-05;0.010886165407996348
1.25678e-05;0.010885270593266662
1.25680e-05;0.010884375778536971
1.25683e-05;0.010883480963807281
1.25685e-05;0.010882586149077595
1.25688e-05;0.010881691334347904
1.25690e-05;0.010880796519618213
1.25692e-05;0.010879901704888529
1.25695e-05;0.010879006890158837
1.25698e-05;0.010878112075429146
1.25700e-05;0.010877217260699455
1.25703e-05;0.01087632244596977
1.25705e-05;0.01087542763124008
1.25708e-05;0.010874532816510388
1.25710e-05;0.010873638001780704
1.25713e-05;0.010872743187051013
1.25715e-05;0.010871848372321321
1.25718e-05;0.010870953557591637
1.25720e-05;0.010870058742861946
1.25723e-05;0.010869163928132254
1.25725e-05;0.01086826911340257
1.25728e-05;0.010861761913533802
1.25730e-05;0.010854695198616279
1.25733e-05;0.010847628483698806
1.25735e-05;0.010840561768781285
1.25738e-05;0.010833495053863763
1.25740e-05;0.01082642833894629
1.25743e-05;0.010819361624028767
1.25745e-05;0.010812294909111246
1.25748e-05;0.010805228194193772
1.25750e-05;0.010798161479276251
1.25753e-05;0.01079109476435873
1.25755e-05;0.01077330462053341
1.25758e-05;0.010753526319189606
1.25760e-05;0.010733748017845803
1.25763e-05;0.010713969716502134
1.25765e-05;0.01069419141515833
1.25768e-05;0.010674413113814526
1.25770e-05;0.010654634812470858
1.25773e-05;0.010634856511127054
1.25775e-05;0.01061507820978325
1.25777e-05;0.01059529990843958
1.25780e-05;0.010575521607095777
1.25783e-05;0.0105509190724038
1.25785e-05;0.010524938720905113
1.25788e-05;0.010498958369406602
1.25790e-05;0.010472978017907916
1.25793e-05;0.010446997666409228
1.25795e-05;0.010421017314910717
1.25798e-05;0.010395036963412029
1.25800e-05;0.010369056611913343
1.25803e-05;0.010343076260414832
1.25805e-05;0.010317095908916144
1.25808e-05;0.010291115557417456
1.25810e-05;0.010265135205918945
1.25813e-05;0.010239154854420259
1.25815e-05;0.010223206523750382
1.25818e-05;0.010209604006327897
1.25820e-05;0.01019600148890532
1.25823e-05;0.010182398971482745
1.25825e-05;0.01016879645406026
1.25828e-05;0.010155193936637684
1.25830e-05;0.010141591419215107
1.25833e-05;0.010127988901792624
1.25835e-05;0.010114386384370047
1.25838e-05;0.01010078386694747
1.25840e-05;0.010087181349524986
1.25843e-05;0.01007357883210241
1.25845e-05;0.010059976314679834
1.25848e-05;0.01007175332936192
1.25850e-05;0.010088252714599623
1.25853e-05;0.010104752099837326
1.25855e-05;0.010121251485074916
1.25858e-05;0.01013775087031262
1.25860e-05;0.010154250255550322
1.25862e-05;0.010170749640787912
1.25865e-05;0.010187249026025615
1.25868e-05;0.010203748411263319
1.25870e-05;0.010220247796501021
1.25873e-05;0.010236747181738611
1.25875e-05;0.010253246566976314
1.25878e-05;0.010275788472974747
1.25880e-05;0.01030989834853434
1.25883e-05;0.010344008224094167
1.25885e-05;0.010378118099653992
1.25888e-05;0.010412227975213585
1.25890e-05;0.01044633785077341
1.25893e-05;0.010480447726333237
1.25895e-05;0.01051455760189283
1.25898e-05;0.010548667477452655
1.25900e-05;0.010582777353012482
1.25903e-05;0.010616887228572075
1.25905e-05;0.0106509971041319
1.25908e-05;0.010685106979691725
1.25910e-05;0.01071156311805477
1.25913e-05;0.01073659512523074
1.25915e-05;0.010761627132406713
1.25918e-05;0.010786659139582516
1.25920e-05;0.010811691146758489
1.25923e-05;0.010836723153934462
1.25925e-05;0.010861755161110265
1.25928e-05;0.010886787168286238
1.25930e-05;0.01091181917546221
1.25933e-05;0.010936851182638013
1.25935e-05;0.010961883189813986
1.25938e-05;0.010980222168243533
1.25940e-05;0.01098574782655555
1.25943e-05;0.010991273484867604
1.25945e-05;0.010996799143179659
1.25947e-05;0.011002324801491676
1.25950e-05;0.011007850459803731
1.25953e-05;0.011013376118115785
1.25955e-05;0.011018901776427802
1.25958e-05;0.011024427434739857
1.25960e-05;0.01102995309305191
1.25963e-05;0.011035478751363965
1.25965e-05;0.011041004409675982
1.25968e-05;0.011035003967392829
1.25970e-05;0.011026858863108953
1.25973e-05;0.01101871375882513
1.25975e-05;0.011010568654541255
1.25978e-05;0.011002423550257379
1.25980e-05;0.010994278445973556
1.25983e-05;0.01098613334168968
1.25985e-05;0.010977988237405803
1.25988e-05;0.010969843133121982
1.25990e-05;0.010961698028838104
1.25993e-05;0.010953552924554228
1.25995e-05;0.010944166692962899
1.25998e-05;0.010932404412783793
1.26000e-05;0.010920642132604685
1.26003e-05;0.01090887985242566
1.26005e-05;0.010897117572246552
1.26008e-05;0.010885355292067446
1.26010e-05;0.010873593011888418
1.26013e-05;0.010861830731709312
1.26015e-05;0.010850068451530205
1.26018e-05;0.010838306171351179
1.26020e-05;0.010826543891172071
1.26023e-05;0.010814781610992965
1.26025e-05;0.01080083698533546
1.26028e-05;0.010786486290566891
1.26030e-05;0.010772135595798323
1.26032e-05;0.01075778490102985
1.26035e-05;0.010743434206261282
1.26038e-05;0.010729083511492713
1.26040e-05;0.010714732816724241
1.26043e-05;0.010700382121955673
1.26045e-05;0.010680659617408366
1.26048e-05;0.010650653171025789
1.26050e-05;0.010620646724643412
1.26053e-05;0.010590640278260835
1.26055e-05;0.010560633831878255
1.26058e-05;0.01053062738549588
1.26060e-05;0.010500620939113301
1.26063e-05;0.010470614492730722
1.26065e-05;0.010440608046348348
1.26068e-05;0.010396819802860363
1.26070e-05;0.01035046717982982
1.26073e-05;0.01030411455679959
1.26075e-05;0.010257761933769047
1.26078e-05;0.010211409310738504
1.26080e-05;0.010165056687708274
1.26083e-05;0.010118704064677731
1.26085e-05;0.010072351441647188
1.26088e-05;0.010025998818616958
1.26090e-05;0.009979646195586415
1.26093e-05;0.009933293572555872
1.26095e-05;0.009886940949525642
1.26098e-05;0.009842347867330244
1.26100e-05;0.009798082182968985
1.26103e-05;0.009753816498608025
1.26105e-05;0.009709550814246766
1.26108e-05;0.009665285129885506
1.26110e-05;0.009621019445524548
1.26113e-05;0.009576753761163289
1.26115e-05;0.009532488076802029
1.26117e-05;0.00948822239244107
1.26120e-05;0.009443956708079812
1.26123e-05;0.009399691023718551
1.26125e-05;0.009355425339357593
1.26128e-05;0.009328312609823907
1.26130e-05;0.009304391531287247
1.26133e-05;0.009280470452750588
1.26135e-05;0.00925654937421409
1.26138e-05;0.00923262829567743
1.26140e-05;0.00920870721714077
1.26143e-05;0.009184786138604274
1.26145e-05;0.009160865060067615
1.26148e-05;0.009136943981530955
1.26150e-05;0.009113022902994457
1.26153e-05;0.009089101824457798
1.26155e-05;0.009065180745921138
1.26158e-05;0.009041259667384642
1.26160e-05;0.009017338588847982
1.26163e-05;0.008993417510311323
1.26165e-05;0.008969496431774825
1.26168e-05;0.008953856793474869
1.26170e-05;0.008939758083094374
1.26173e-05;0.008925659372713975
1.26175e-05;0.00891156066233348
1.26178e-05;0.008897461951952986
1.26180e-05;0.008883363241572587
1.26183e-05;0.008869264531192092
1.26185e-05;0.008855165820811597
1.26188e-05;0.008841067110431198
1.26190e-05;0.008826968400050704
1.26193e-05;0.008812869689670209
1.26195e-05;0.00879877097928981
1.26198e-05;0.008784672268909315
1.26200e-05;0.00877057355852882
1.26202e-05;0.008756474848148421
1.26205e-05;0.008742376137767927
1.26208e-05;0.008733649423993442
1.26210e-05;0.008725922277844805
1.26213e-05;0.008718195131696114
1.26215e-05;0.008710467985547424
1.26218e-05;0.008702740839398735
1.26220e-05;0.008695013693250096
1.26223e-05;0.008687286547101407
1.26225e-05;0.008679559400952717
1.26228e-05;0.00867183225480408
1.26230e-05;0.008664105108655389
1.26233e-05;0.0086563779625067
1.26235e-05;0.008648650816358062
1.26238e-05;0.00864575008905319
1.26240e-05;0.008652089192036673
1.26243e-05;0.008658428295020112
1.26245e-05;0.008664767398003592
1.26248e-05;0.008671106500987074
1.26250e-05;0.008677445603970513
1.26253e-05;0.008683784706953995
1.26255e-05;0.008690123809937476
1.26258e-05;0.008696462912920915
1.26260e-05;0.008702802015904397
1.26263e-05;0.008709141118887879
1.26265e-05;0.008715480221871316
1.26268e-05;0.008721819324854798
1.26270e-05;0.008739119961373394
1.26273e-05;0.008758460210880586
1.26275e-05;0.00877780046038791
1.26278e-05;0.008797140709895233
1.26280e-05;0.008816480959402425
1.26283e-05;0.00883582120890975
1.26285e-05;0.008855161458417074
1.26288e-05;0.008874501707924266
1.26290e-05;0.008893841957431588
1.26293e-05;0.008913182206938913
1.26295e-05;0.008932522456446105
1.26298e-05;0.008951749110779813
1.26300e-05;0.008970758295358002
1.26303e-05;0.008989767479936194
1.26305e-05;0.009008776664514256
1.26308e-05;0.009027785849092446
1.26310e-05;0.009046795033670637
1.26313e-05;0.009065804218248699
1.26315e-05;0.009084813402826889
1.26318e-05;0.00910382258740508
1.26320e-05;0.009122831771983142
1.26323e-05;0.009141840956561332
1.26325e-05;0.009160850141139524
1.26328e-05;0.009178700585933296
1.26330e-05;0.009196335423968529
1.26333e-05;0.00921397026200376
1.26335e-05;0.009231605100038873
1.26338e-05;0.009249239938074106
1.26340e-05;0.009266874776109338
1.26343e-05;0.00928450961414445
1.26345e-05;0.009302144452179683
1.26348e-05;0.009319779290214915
1.26350e-05;0.009341377193177769
1.26353e-05;0.009370562097715472
1.26355e-05;0.009399747002253175
1.26358e-05;0.009428931906790679
1.26360e-05;0.009458116811328382
1.26363e-05;0.009487301715866085
1.26365e-05;0.00951648662040359
1.26368e-05;0.009545671524941294
1.26370e-05;0.009574856429478995
1.26373e-05;0.009604041334016501
1.26375e-05;0.009641142515247742
1.26378e-05;0.009679716678404948
1.26380e-05;0.009718290841561894
1.26383e-05;0.0097568650047191
1.26385e-05;0.009795439167876306
1.26388e-05;0.009834013331033512
1.26390e-05;0.009872587494190458
1.26393e-05;0.009911161657347664
1.26395e-05;0.00994973582050487
1.26398e-05;0.009988309983661814
1.26400e-05;0.010026884146819022
1.26403e-05;0.010065458309976228
1.26405e-05;0.010104032473133172
1.26408e-05;0.010132252400124695
1.26410e-05;0.010158545713971833
1.26413e-05;0.010184839027818793
1.26415e-05;0.010211132341665931
1.26418e-05;0.01023742565551307
1.26420e-05;0.01026371896936003
1.26423e-05;0.010290012283207169
1.26425e-05;0.010316305597054307
1.26428e-05;0.010342598910901267
1.26430e-05;0.010368892224748405
1.26433e-05;0.010395185538595544
1.26435e-05;0.010421478852442503
1.26438e-05;0.010447772166289643
1.26440e-05;0.010446989077666745
1.26443e-05;0.010441167881734242
1.26445e-05;0.010435346685801702
1.26448e-05;0.010429525489869161
1.26450e-05;0.010423704293936659
1.26453e-05;0.010417883098004118
1.26455e-05;0.010412061902071577
1.26458e-05;0.010406240706139075
1.26460e-05;0.010400419510206534
1.26463e-05;0.010394598314273994
1.26465e-05;0.010388777118341491
1.26468e-05;0.01038295592240895
1.26470e-05;0.01037713472647641
1.26473e-05;0.010352155982949885
1.26475e-05;0.010323612593762639
1.26478e-05;0.0102950692045752
1.26480e-05;0.010266525815387761
1.26483e-05;0.010237982426200514
1.26485e-05;0.010209439037013076
1.26488e-05;0.010180895647825636
1.26490e-05;0.01015235225863839
1.26493e-05;0.010123808869450952
1.26495e-05;0.010095265480263512
1.26498e-05;0.010066722091076266
1.26500e-05;0.010038178701888828
1.26503e-05;0.010009635312701388
1.26505e-05;0.009980700438387936
1.26508e-05;0.009951692720420902
1.26510e-05;0.009922685002453868
1.26513e-05;0.009893677284487031
1.26515e-05;0.009864669566519997
1.26518e-05;0.009835661848552965
1.26520e-05;0.009806654130586128
