Time(s);Current(A)
4.50000e-06;-0.00014494705382209924
4.50025e-06;-0.0001251760373624738
4.50050e-06;-0.00010387833811627971
4.50075e-06;-8.081061952413724e-05
4.50100e-06;-5.60995610563922e-05
4.50125e-06;-2.9945776845898707e-05
4.50150e-06;-2.549854844732996e-06
4.50175e-06;2.5891686903844812e-05
4.50200e-06;5.5245280293769176e-05
4.50225e-06;8.561293210458784e-05
4.50250e-06;0.00011725603244783172
4.50275e-06;0.00015023321225428028
4.50300e-06;0.00018444826505386471
4.50325e-06;0.000219756988508348
4.50350e-06;0.0002553167216717994
4.50375e-06;0.0002918749453272468
4.50400e-06;0.000328433168982818
4.50425e-06;0.0003651903981871071
4.50450e-06;0.00040273925074781037
4.50475e-06;0.0004402881033083864
4.50500e-06;0.00047783695586896247
4.50525e-06;0.0005151442424620809
4.50550e-06;0.0005514906047837185
4.50575e-06;0.0005878369671053561
4.50600e-06;0.0006241833294271168
4.50625e-06;0.0006598819406313848
4.50650e-06;0.0006930038653235288
4.50675e-06;0.0007261257900157851
4.50700e-06;0.0007585375753585344
4.50725e-06;0.0007881245002970194
4.50750e-06;0.000816920027710989
4.50775e-06;0.0008425674581588506
4.50800e-06;0.0008671811840563123
4.50825e-06;0.0008876829408641709
4.50850e-06;0.0009069269509145112
4.50875e-06;0.0009211677752991742
4.50900e-06;0.0009341114409086357
4.50925e-06;0.0009418951439489673
4.50950e-06;0.000948372064689286
4.50975e-06;0.0009496507414804026
4.51000e-06;0.0009495818499997602
4.51025e-06;0.0009441524722203771
4.51050e-06;0.0009373462170986696
4.51075e-06;0.0009250628872467442
4.51100e-06;0.0009114890228319951
4.51125e-06;0.000892781546275694
4.51150e-06;0.0008728885169381799
4.51175e-06;0.0008482794820571008
4.51200e-06;0.0008225703718757456
4.51225e-06;0.0007924852766713327
4.51250e-06;0.0007613927574413665
4.51275e-06;0.0007262928103147843
4.51300e-06;0.0006903505065851582
4.51325e-06;0.0006510573959816916
4.51350e-06;0.0006109672185878421
4.51375e-06;0.0005677063924793391
4.51400e-06;0.0005244455663709829
4.51425e-06;0.00048055806521027486
4.51450e-06;0.00043417771593042595
4.51475e-06;0.00038779736665073413
4.51500e-06;0.00034124077609676913
4.51525e-06;0.00029398311610099107
4.51550e-06;0.0002467254561053731
4.51575e-06;0.00019968795372975727
4.51600e-06;0.00015352621544706562
4.51625e-06;0.00010765384065444592
4.51650e-06;6.319831803237462e-05
4.51675e-06;2.0127340555122926e-05
4.51700e-06;-2.1252234329384058e-05
4.51725e-06;-6.06296790556994e-05
4.51750e-06;-9.769430208029035e-05
4.51775e-06;-0.00013212993782328803
4.51800e-06;-0.00016353994176943434
4.51825e-06;-0.00019124709080280743
4.51850e-06;-0.00021446113467796598
4.51875e-06;-0.00023278016432342992
4.51900e-06;-0.0002461650367664105
4.51925e-06;-0.0002546435927441116
4.51950e-06;-0.0002582437080087308
4.51975e-06;-0.0002569898901464742
4.52000e-06;-0.0002508561734348844
4.52025e-06;-0.00023964087377618742
4.52050e-06;-0.0002230715824789062
4.52075e-06;-0.0002011191425787649
4.52100e-06;-0.00017398163189691384
4.52125e-06;-0.00014189908866019932
4.52150e-06;-0.00010511156561465432
4.52175e-06;-6.385694940132646e-05
4.52200e-06;-1.834156200494131e-05
4.52225e-06;3.133836956339922e-05
4.52250e-06;8.513093414637285e-05
4.52275e-06;0.00014283183248264963
4.52300e-06;0.00020409445819868533
4.52325e-06;0.0002685459214542536
4.52350e-06;0.0003358133787949572
4.52375e-06;0.00040571186526626717
4.52400e-06;0.0004780722096138112
4.52425e-06;0.0005512143885156233
4.52450e-06;0.000627466623881684
4.52475e-06;0.0007037188592474864
4.52500e-06;0.0007799710946132887
4.52525e-06;0.0008566438310667147
4.52550e-06;0.0009334960211088582
4.52575e-06;0.0010103482111512622
4.52600e-06;0.0010863625592890478
4.52625e-06;0.0011590440595550435
4.52650e-06;0.0012317255598212854
4.52675e-06;0.0013027946733804655
4.52700e-06;0.0013674498804779958
4.52725e-06;0.0014321050875757452
4.52750e-06;0.001494752649648778
4.52775e-06;0.0015494140088210923
4.52800e-06;0.0016024829182367827
4.52825e-06;0.0016492172283024895
4.52850e-06;0.001695951538368196
4.52875e-06;0.0017411122239912847
4.52900e-06;0.0017800131954039521
4.52925e-06;0.0018189141668166196
4.52950e-06;0.0018578151382294189
4.52975e-06;0.0018967161096420863
4.53000e-06;0.0019356170810548856
4.53025e-06;0.001974518052467553
4.53050e-06;0.0020134190238802205
4.53075e-06;0.002046522244028123
4.53100e-06;0.0020771512083330402
4.53125e-06;0.0021077801726379574
4.53150e-06;0.002138409136942978
4.53175e-06;0.0021690381012478954
4.53200e-06;0.0021996670655528125
4.53225e-06;0.0022302960298578333
4.53250e-06;0.002259939252105959
4.53275e-06;0.0022856612950738387
4.53300e-06;0.0023113833380418057
4.53325e-06;0.0023371053810096855
4.53350e-06;0.0023628274239775654
4.53375e-06;0.002388549466945533
4.53400e-06;0.0024142715099134127
4.53425e-06;0.0024399935528813797
4.53450e-06;0.0024657155958492595
4.53475e-06;0.00249143763881714
4.53500e-06;0.002517159681785107
4.53525e-06;0.002538112012681507
4.53550e-06;0.0025570288150736234
4.53575e-06;0.002575945617465804
4.53600e-06;0.00259486241985792
4.53625e-06;0.0026137792222500366
4.53650e-06;0.002632696024642217
4.53675e-06;0.0026516128270343336
4.53700e-06;0.00267052962942645
4.53725e-06;0.00268944643181863
4.53750e-06;0.002708363234210747
4.53775e-06;0.002725629091205007
4.53800e-06;0.002736327659280938
4.53825e-06;0.0027470262273568335
4.53850e-06;0.002755124424687375
4.53875e-06;0.002752878617908904
4.53900e-06;0.0027506328111304335
4.53925e-06;0.002745662591866753
4.53950e-06;0.002729854943366946
4.53975e-06;0.0027140472948671396
4.54000e-06;0.002695373932940913
4.54025e-06;0.002665301061345292
4.54050e-06;0.0026352281897496707
4.54075e-06;0.002601949846357358
4.54100e-06;0.0025559204698704205
4.54125e-06;0.0025098910933834834
4.54150e-06;0.0024611984833686766
4.54175e-06;0.0024019118076423025
4.54200e-06;0.0023426251319159284
4.54225e-06;0.0022808617218183576
4.54250e-06;0.0022092461202390095
4.54275e-06;0.0021376305186594185
4.54300e-06;0.0020640095912112873
4.54325e-06;0.0019824116862261374
4.54350e-06;0.0019008137812407113
4.54375e-06;0.0018177733063693279
4.54400e-06;0.0017289944386726388
4.54425e-06;0.0016402155709756491
4.54450e-06;0.0015514367032789602
4.54475e-06;0.0014626578355822714
4.54500e-06;0.0013725314320495135
4.54525e-06;0.0012818299523777495
4.54550e-06;0.0011911284727059855
4.54575e-06;0.001100426993033914
4.54600e-06;0.0010106213729702226
4.54625e-06;0.0009243793891616455
4.54650e-06;0.000839170577862359
4.54675e-06;0.0007580716192452828
4.54700e-06;0.0006780246358446948
4.54725e-06;0.0006030217758241157
4.54750e-06;0.0005324158529128668
4.54775e-06;0.00046678212572178623
4.54800e-06;0.00040645873391879255
4.54825e-06;0.00035087305667101676
4.54850e-06;0.0002987516696741116
4.54875e-06;0.0002494433654523327
4.54900e-06;0.00020309762821420598
4.54925e-06;0.00016002991723660506
4.54950e-06;0.00012055562335759208
4.54975e-06;8.498068611880479e-05
4.55000e-06;5.346242724544449e-05
4.55025e-06;2.558772056339331e-05
4.55050e-06;5.044695930357966e-07
4.55075e-06;-2.2249587401764118e-05
4.55100e-06;-4.263514229025525e-05
4.55125e-06;-6.0508929063204425e-05
4.55150e-06;-7.572774384900332e-05
4.55175e-06;-8.81543145404667e-05
4.55200e-06;-9.774447599486487e-05
4.55225e-06;-0.00010481139483777304
4.55250e-06;-0.00010994314985938297
4.55275e-06;-0.00011348359777198143
4.55300e-06;-0.00011546238413861751
4.55325e-06;-0.0001158440547118121
4.55350e-06;-0.00011459319889981003
4.55375e-06;-0.00011167812143953891
4.55400e-06;-0.00010712545922473407
4.55425e-06;-0.00010118564910780666
4.55450e-06;-9.428133683318226e-05
4.55475e-06;-8.668213230413353e-05
4.55500e-06;-7.846082398911811e-05
4.55525e-06;-6.964942174904428e-05
4.55550e-06;-6.027995218909774e-05
4.55575e-06;-5.0386769484280346e-05
4.55600e-06;-4.004343170046915e-05
4.55625e-06;-2.9463614528759083e-05
4.55650e-06;-1.8942482003493568e-05
4.55675e-06;-8.73214505247502e-06
4.55700e-06;1.0782299103080176e-06
4.55725e-06;1.0414460729093227e-05
4.55750e-06;1.92023498355133e-05
4.55775e-06;2.7371605543362197e-05
4.55800e-06;3.4913140658295764e-05
4.55825e-06;4.204852625702503e-05
4.55850e-06;4.9161118523801314e-05
4.55875e-06;5.646055345379361e-05
4.55900e-06;6.394492541686712e-05
4.55925e-06;7.142929737996597e-05
4.55950e-06;7.891366934303947e-05
4.55975e-06;8.63896193820235e-05
4.56000e-06;9.383206788365388e-05
4.56025e-06;0.00010127451638528424
4.56050e-06;0.00010884841599060944
4.56075e-06;0.00011694521440101578
4.56100e-06;0.00012515897893156843
4.56125e-06;0.00013383802251082356
4.56150e-06;0.0001425170660900493
4.56175e-06;0.0001513239945826716
4.56200e-06;0.00016063963594678874
4.56225e-06;0.0001699552773108743
4.56250e-06;0.00017927091867495987
4.56275e-06;0.000188586560039077
4.56300e-06;0.00019790220140316256
4.56325e-06;0.0002077067064753449
4.56350e-06;0.00021771983965697343
4.56375e-06;0.00022773297283856805
4.56400e-06;0.00023774610602019658
4.56425e-06;0.0002477592392017912
4.56450e-06;0.00025773917789097283
4.56475e-06;0.0002675870723452404
4.56500e-06;0.0002774349667994746
4.56525e-06;0.0002872828612537088
4.56550e-06;0.00029713075570797634
4.56575e-06;0.00030697865016221054
4.56600e-06;0.0003168265446164447
4.56625e-06;0.00032548720707327493
4.56650e-06;0.000333641204864774
4.56675e-06;0.00034179520265627305
4.56700e-06;0.00034994920044779975
4.56725e-06;0.0003581031982392988
4.56750e-06;0.00036625719603079786
4.56775e-06;0.0003740778384825135
4.56800e-06;0.00038057242809812675
4.56825e-06;0.00038706701771376193
4.56850e-06;0.00039356160732937517
4.56875e-06;0.0004000561969449884
4.56900e-06;0.00040678462535260026
4.56925e-06;0.0004144432401296288
4.56950e-06;0.0004221018549066574
4.56975e-06;0.0004297604696837119
4.57000e-06;0.00043741908446074047
4.57025e-06;0.0004456339122112076
4.57050e-06;0.00045606129726246026
4.57075e-06;0.0004664886823136776
4.57100e-06;0.00047691606736489494
4.57125e-06;0.0004873434524161476
4.57150e-06;0.0004977708374673649
4.57175e-06;0.0005081982225185823
4.57200e-06;0.0005186256075698349
4.57225e-06;0.0005290529926210523
4.57250e-06;0.0005400525142209005
4.57275e-06;0.000553327935445435
4.57300e-06;0.0005666033566699695
4.57325e-06;0.0005798787778945489
4.57350e-06;0.0005931541991190835
4.57375e-06;0.000606429620343618
4.57400e-06;0.0006197050415681975
4.57425e-06;0.000632980462792732
4.57450e-06;0.0006462558840172665
4.57475e-06;0.000659565548404023
4.57500e-06;0.0006730114285247829
4.57525e-06;0.0006864573086455427
4.57550e-06;0.0006999031887663482
4.57575e-06;0.0007133490688871081
4.57600e-06;0.0007267949490078681
4.57625e-06;0.0007402408291286736
4.57650e-06;0.000751832495592985
4.57675e-06;0.0007626328554353202
4.57700e-06;0.0007734332152776189
4.57725e-06;0.0007842335751199175
4.57750e-06;0.0007950339349622527
4.57775e-06;0.0008058342948045514
4.57800e-06;0.0008158021503349812
4.57825e-06;0.0008224583903859952
4.57850e-06;0.0008291146304369866
4.57875e-06;0.0008349485755615734
4.57900e-06;0.000837511517079263
4.57925e-06;0.0008400744585969438
4.57950e-06;0.0008418096366562476
4.57975e-06;0.0008402520578578588
4.58000e-06;0.0008386944790594753
4.58025e-06;0.0008362532587740737
4.58050e-06;0.0008302970046506539
4.58075e-06;0.0008243407505272543
4.58100e-06;0.000817540319554054
4.58125e-06;0.000807381840961221
4.58150e-06;0.0007972233623683882
4.58175e-06;0.0007863288653671637
4.58200e-06;0.0007725065637657934
4.58225e-06;0.0007586842621644232
4.58250e-06;0.0007442051832485303
4.58275e-06;0.0007271135125540798
4.58300e-06;0.0007100218418596293
4.58325e-06;0.0006923021591862424
4.58350e-06;0.0006720843102445524
4.58375e-06;0.0006518664613028624
4.58400e-06;0.0006316486123611039
4.58425e-06;0.0006114307634194139
4.58450e-06;0.0005912129144777239
4.58475e-06;0.0005699576001027112
4.58500e-06;0.0005482595356356101
4.58525e-06;0.0005265614711684356
4.58550e-06;0.0005048634067013346
4.58575e-06;0.0004831653422342336
4.58600e-06;0.0004617025346639535
4.58625e-06;0.0004411755545364351
4.58650e-06;0.00042064857440891673
4.58675e-06;0.0004004747745262912
4.58700e-06;0.00038170588888772637
4.58725e-06;0.00036335122408197686
4.58750e-06;0.0003466442866235541
4.58775e-06;0.00033046961311305486
4.58800e-06;0.0003164122301718088
4.58825e-06;0.0003028371694107473
4.58850e-06;0.000291531614695211
4.58875e-06;0.0002819778773597607
4.58900e-06;0.0002741995918446014
4.58925e-06;0.0002682118339339589
4.58950e-06;0.000264029679411973
4.58975e-06;0.0002616685665528465
4.59000e-06;0.0002611485152093723
4.59025e-06;0.0002625017420295337
4.59050e-06;0.0002657495077237577
4.59075e-06;0.00027086602545083516
4.59100e-06;0.00027779198735277647
4.59125e-06;0.000286462771232691
4.59150e-06;0.0002968137025327134
4.59175e-06;0.00030893212168372103
4.59200e-06;0.000322904943445575
4.59225e-06;0.0003374599212267879
4.59250e-06;0.0003543306550430217
4.59275e-06;0.0003717076207630569
4.59300e-06;0.00039109832429124505
4.59325e-06;0.00041098813465107506
4.59350e-06;0.0004328633400232248
4.59375e-06;0.0004547385453954487
4.59400e-06;0.00047710482337858125
4.59425e-06;0.0005014245370810066
4.59450e-06;0.0005257442507835144
4.59475e-06;0.0005500639644859397
4.59500e-06;0.0005743836781883651
4.59525e-06;0.0005987285802687
4.59550e-06;0.0006231736790934991
4.59575e-06;0.0006476187779182981
4.59600e-06;0.00067206387674318
4.59625e-06;0.000696508975567979
4.59650e-06;0.00072046442133939
4.59675e-06;0.0007424720782440229
4.59700e-06;0.0007644797351485812
4.59725e-06;0.0007858700682377871
4.59750e-06;0.0008048047514614205
4.59775e-06;0.0008236850463767245
4.59800e-06;0.0008384896216939689
4.59825e-06;0.000853294197011163
4.59850e-06;0.0008651007835557303
4.59875e-06;0.0008762734114429214
4.59900e-06;0.0008826066683338804
4.59925e-06;0.0008882799336019689
4.59950e-06;0.0008900201619203075
4.59975e-06;0.0008905501676860486
4.60000e-06;0.0008876360861350119
4.60025e-06;0.0008827541073054926
4.60050e-06;0.0008749795730501976
4.60075e-06;0.0008643989248664854
4.60100e-06;0.0008515199237779796
4.60125e-06;0.0008362179683974256
4.60150e-06;0.0008174572617698431
4.60175e-06;0.0007979695786811139
4.60200e-06;0.0007740364095954931
4.60225e-06;0.000749673652408112
4.60250e-06;0.0007249436000329932
4.60275e-06;0.00070769281190647
4.60300e-06;0.0006734163039731597
4.60325e-06;0.0006386854565949161
4.60350e-06;0.0006032216533799638
4.60375e-06;0.0005677253409899147
4.60400e-06;0.0005321765836938592
4.60425e-06;0.000495875727358633
4.60450e-06;0.00045836155928787666
4.60475e-06;0.0004208473912172474
4.60500e-06;0.0003826636908038734
4.60525e-06;0.0003433998780562669
4.60550e-06;0.00030413606530879336
4.60575e-06;0.000265552663059829
4.60600e-06;0.00022806692215547134
4.60625e-06;0.00019101896646257747
4.60650e-06;0.00015507447631886743
4.60675e-06;0.00012024354907962935
4.60700e-06;8.675137921306401e-05
4.60725e-06;5.4536485788909866e-05
4.60750e-06;2.366880505840468e-05
4.60775e-06;-4.732526884595328e-06
4.60800e-06;-3.028815609384902e-05
4.60825e-06;-5.351221838562673e-05
4.60850e-06;-7.454335713686237e-05
4.60875e-06;-9.347105277760434e-05
4.60900e-06;-0.00011026320195567528
4.60925e-06;-0.00012503276430727892
4.60950e-06;-0.00013781038051228123
4.60975e-06;-0.00014796951089544424
4.61000e-06;-0.0001553470341713578
4.61025e-06;-0.0001603395071131304
4.61050e-06;-0.0001631082794573317
4.61075e-06;-0.00016378387086149801
4.61100e-06;-0.00016242064227349557
4.61125e-06;-0.00015916381234827912
4.61150e-06;-0.00015410704012010785
4.61175e-06;-0.00014693233083688987
4.61200e-06;-0.00013761200061965288
4.61225e-06;-0.0001264689288163572
4.61250e-06;-0.00011367864469468027
4.61275e-06;-9.939736489705281e-05
4.61300e-06;-8.37335764169507e-05
4.61325e-06;-6.685268253809985e-05
4.61350e-06;-4.888777289913279e-05
4.61375e-06;-2.9714076044916932e-05
4.61400e-06;-9.38868354124653e-06
4.61425e-06;1.1811724938559888e-05
4.61450e-06;3.370280212887594e-05
4.61475e-06;5.6169270699154854e-05
4.61500e-06;7.898979516312789e-05
4.61525e-06;0.00010189856531289574
4.61550e-06;0.0001249496964027346
4.61575e-06;0.00014800082749265151
4.61600e-06;0.0001708939752034212
4.61625e-06;0.00019353225875695445
4.61650e-06;0.00021569943213211267
4.61675e-06;0.00023710659455349563
4.61700e-06;0.00025777532871746207
4.61725e-06;0.000277252805316223
4.61750e-06;0.0002957756381305678
4.61775e-06;0.0003127584071420876
4.61800e-06;0.00032933671590931984
4.61825e-06;0.0003452625356620577
4.61850e-06;0.0003621044147398441
4.61875e-06;0.0003815859445564801
4.61900e-06;0.0004029417823728526
4.61925e-06;0.00042525387328363703
4.61950e-06;0.0004496359766896965
4.61975e-06;0.00047558824588063843
4.62000e-06;0.0005027011123997493
4.62025e-06;0.0005309264520191075
4.62050e-06;0.0005625539545393885
4.62075e-06;0.0005967747040518192
4.62100e-06;0.0006328651599037681
4.62125e-06;0.0006719718895769898
4.62150e-06;0.0007124996009687995
4.62175e-06;0.0007553196883699958
4.62200e-06;0.000799814753749007
4.62225e-06;0.0008470119505370111
4.62250e-06;0.0008942091473248552
4.62275e-06;0.0009435555655045613
4.62300e-06;0.0009963691806890176
4.62325e-06;0.0010491827958732949
4.62350e-06;0.001103450629912144
4.62375e-06;0.0011600644592377075
4.62400e-06;0.0012166782885632708
4.62425e-06;0.0012732921178890259
4.62450e-06;0.0013299059472145892
4.62475e-06;0.0013865197765401526
4.62500e-06;0.0014430749601950508
4.62525e-06;0.0014996223481214494
4.62550e-06;0.001556169736047848
4.62575e-06;0.001612717123974438
4.62600e-06;0.0016692645119008366
4.62625e-06;0.0017219588503237357
4.62650e-06;0.0017684373183173314
4.62675e-06;0.0018149157863107696
4.62700e-06;0.0018613942543042078
4.62725e-06;0.0019078727222978035
4.62750e-06;0.001954351190291242
4.62775e-06;0.00200082965828468
4.62800e-06;0.002038955478224286
4.62825e-06;0.002063606522405701
4.62850e-06;0.0020882575665871995
4.62875e-06;0.0021129086107686147
4.62900e-06;0.0021375596549500294
4.62925e-06;0.002162210699131528
4.62950e-06;0.002186861743312943
4.62975e-06;0.0022044798383121012
4.63000e-06;0.0022107521406317288
4.63025e-06;0.002217024442951335
4.63050e-06;0.00221928237261013
4.63075e-06;0.0022150641798390387
4.63100e-06;0.0022108459870679616
4.63125e-06;0.002202912816399586
4.63150e-06;0.0021889865171106702
4.63175e-06;0.0021750602178218013
4.63200e-06;0.0021562048329928593
4.63225e-06;0.0021293976798251422
4.63250e-06;0.0021025905266575163
4.63275e-06;0.0020757833734897997
4.63300e-06;0.002048976220322174
4.63325e-06;0.002022169067154548
4.63350e-06;0.0019953619139868313
4.63375e-06;0.0019588614363774052
4.63400e-06;0.0019210724318807384
4.63425e-06;0.0018832834273839437
4.63450e-06;0.0018454944228872769
4.63475e-06;0.00180770541839061
4.63500e-06;0.0017699164138938153
4.63525e-06;0.001731491366007775
4.63550e-06;0.001692040231306205
4.63575e-06;0.0016525890966045016
4.63600e-06;0.0016131379619029316
4.63625e-06;0.0015736868272013618
4.63650e-06;0.0015342356924996582
4.63675e-06;0.0014977825370615092
4.63700e-06;0.001466165823675373
4.63725e-06;0.001434549110289344
4.63750e-06;0.001402932396903315
4.63775e-06;0.0013713156835171787
4.63800e-06;0.0013396989701311497
4.63825e-06;0.0013099915153578692
4.63850e-06;0.0012833641414761409
4.63875e-06;0.0012567367675945028
4.63900e-06;0.0012301093937128647
4.63925e-06;0.0012034820198311364
4.63950e-06;0.0011765831770758298
4.63975e-06;0.001149246391506043
4.64000e-06;0.0011219096059361632
4.64025e-06;0.0010945728203663762
4.64050e-06;0.0010672360347965893
4.64075e-06;0.0010383308690342893
4.64100e-06;0.001006895539035047
4.64125e-06;0.0009754602090356979
4.64150e-06;0.0009440248790364553
4.64175e-06;0.0009125895490372128
4.64200e-06;0.0008811542190378638
4.64225e-06;0.0008497188890386213
4.64250e-06;0.000816889755009944
4.64275e-06;0.0007818120889443026
4.64300e-06;0.0007467344228787799
4.64325e-06;0.0007116567568132573
4.64350e-06;0.0006765790907476159
4.64375e-06;0.0006415014246820934
4.64400e-06;0.0006064237586165706
4.64425e-06;0.0005710476427166536
4.64450e-06;0.0005351900573996641
4.64475e-06;0.0004993324720826745
4.64500e-06;0.00046347488676556345
4.64525e-06;0.0004282326676108832
4.64550e-06;0.0003939831780658763
4.64575e-06;0.0003597336885209855
