Time(s);Current(A)
1.55000e-06;0.0065895844184105665
1.55025e-06;0.006622341501364615
1.55050e-06;0.0066550985843186646
1.55075e-06;0.006687855667272742
1.55100e-06;0.00672061275022679
1.55125e-06;0.006753369833180868
1.55150e-06;0.006770015258515622
1.55175e-06;0.006786003542747423
1.55200e-06;0.006801991826979237
1.55225e-06;0.006817980111211038
1.55250e-06;0.006833968395442852
1.55275e-06;0.006849956679674653
1.55300e-06;0.006865944963906454
1.55325e-06;0.006881933248138268
1.55350e-06;0.0068979215323700695
1.55375e-06;0.0069139098166018835
1.55400e-06;0.006929898100833684
1.55425e-06;0.006945886385065499
1.55450e-06;0.006961874669297299
1.55475e-06;0.0069778629535291
1.55500e-06;0.006993851237760914
1.55525e-06;0.007009839521992715
1.55550e-06;0.007025827806224529
1.55575e-06;0.00704181609045633
1.55600e-06;0.007057804374688131
1.55625e-06;0.007065267655384706
1.55650e-06;0.007072383229448145
1.55675e-06;0.007079498803511591
1.55700e-06;0.007086614377575029
1.55725e-06;0.0070937299516384686
1.55750e-06;0.007100845525701914
1.55775e-06;0.0071079610997653525
1.55800e-06;0.007115076673828798
1.55825e-06;0.007122192247892237
1.55850e-06;0.007129307821955682
1.55875e-06;0.007136423396019121
1.55900e-06;0.007143538970082561
1.55925e-06;0.007150654544146005
1.55950e-06;0.007157770118209445
1.55975e-06;0.00716488569227289
1.56000e-06;0.007172001266336329
1.56025e-06;0.007179116840399768
1.56050e-06;0.007186232414463214
1.56075e-06;0.007193347988526652
1.56100e-06;0.007191895012837709
1.56125e-06;0.007190092554409863
1.56150e-06;0.0071882900959820166
1.56175e-06;0.007186487637554169
1.56200e-06;0.007184685179126323
1.56225e-06;0.007182882720698475
1.56250e-06;0.007181080262270628
1.56275e-06;0.00717927780384278
1.56300e-06;0.007177475345414934
1.56325e-06;0.007175672886987087
1.56350e-06;0.007173870428559239
1.56375e-06;0.007172067970131393
1.56400e-06;0.007170265511703545
1.56425e-06;0.007168463053275699
1.56450e-06;0.0071666605948478524
1.56475e-06;0.007164858136420004
1.56500e-06;0.007163055677992158
1.56525e-06;0.00716125321956431
1.56550e-06;0.007159450761136463
1.56575e-06;0.007157648302708617
1.56600e-06;0.0071494850212115
1.56625e-06;0.007141062302828128
1.56650e-06;0.007132639584444749
1.56675e-06;0.007124216866061377
1.56700e-06;0.007115794147677998
1.56725e-06;0.007107371429294626
1.56750e-06;0.007098948710911254
1.56775e-06;0.007090525992527875
1.56800e-06;0.007082103274144504
1.56825e-06;0.007073680555761125
1.56850e-06;0.007065257837377753
1.56875e-06;0.007056835118994381
1.56900e-06;0.007048412400611002
1.56925e-06;0.00703998968222763
1.56950e-06;0.007031566963844251
1.56975e-06;0.007023144245460879
1.57000e-06;0.007014721527077508
1.57025e-06;0.007006298808694128
1.57050e-06;0.006997876090310757
1.57075e-06;0.006989453371927378
1.57100e-06;0.006981375963549032
1.57125e-06;0.006973312639221045
1.57150e-06;0.006965249314893065
1.57175e-06;0.006957185990565085
1.57200e-06;0.006949122666237099
1.57225e-06;0.006941059341909119
1.57250e-06;0.006932996017581132
1.57275e-06;0.006924932693253153
1.57300e-06;0.006916869368925173
1.57325e-06;0.006908806044597186
1.57350e-06;0.006900742720269207
1.57375e-06;0.0068926793959412196
1.57400e-06;0.00688461607161324
1.57425e-06;0.006876552747285261
1.57450e-06;0.0068684894229572736
1.57475e-06;0.006860426098629294
1.57500e-06;0.006852362774301308
1.57525e-06;0.0068442994499733276
1.57550e-06;0.006836236125645348
1.57575e-06;0.006828172801317361
1.57600e-06;0.006820109476989382
1.57625e-06;0.006810731611237423
1.57650e-06;0.0068013001296986396
1.57675e-06;0.006791868648159847
1.57700e-06;0.006782437166621063
1.57725e-06;0.0067730056850822794
1.57750e-06;0.006763574203543487
1.57775e-06;0.006754142722004704
1.57800e-06;0.0067447112404659115
1.57825e-06;0.006735279758927128
1.57850e-06;0.006725848277388344
1.57875e-06;0.006716416795849551
1.57900e-06;0.006706985314310768
1.57925e-06;0.006697553832771976
1.57950e-06;0.006688122351233192
1.57975e-06;0.006678690869694408
1.58000e-06;0.0066692593881556165
1.58025e-06;0.006659827906616832
1.58050e-06;0.00665039642507804
1.58075e-06;0.006640964943539256
1.58100e-06;0.006631533462000464
1.58125e-06;0.006622101980461681
1.58150e-06;0.006607194417255265
1.58175e-06;0.006592063502831476
1.58200e-06;0.0065769325884077
1.58225e-06;0.006561801673983911
1.58250e-06;0.0065466707595601345
1.58275e-06;0.006531539845136359
1.58300e-06;0.00651640893071257
1.58325e-06;0.006501278016288793
1.58350e-06;0.0064861471018650045
1.58375e-06;0.006471016187441228
1.58400e-06;0.006455885273017452
1.58425e-06;0.006433903515299202
1.58450e-06;0.006403905696155408
1.58475e-06;0.006373907877011589
1.58500e-06;0.006343910057867795
1.58525e-06;0.006313912238723975
1.58550e-06;0.006283914419580181
1.58575e-06;0.006253916600436387
1.58600e-06;0.006223918781292568
1.58625e-06;0.006193920962148774
1.58650e-06;0.006163923143004955
1.58675e-06;0.006133925323861161
1.58700e-06;0.006103927504717367
1.58725e-06;0.00606883187151435
1.58750e-06;0.00603352831537579
1.58775e-06;0.005998224759237201
1.58800e-06;0.005962921203098642
1.58825e-06;0.005927617646960082
1.58850e-06;0.005892314090821493
1.58875e-06;0.0058570105346829335
1.58900e-06;0.005821706978544344
1.58925e-06;0.005786403422405785
1.58950e-06;0.005751099866267195
1.58975e-06;0.0057216398114737785
1.59000e-06;0.005699017143511181
1.59025e-06;0.0056763944755485645
1.59050e-06;0.005653771807585967
1.59075e-06;0.00563114913962335
1.59100e-06;0.005608526471660753
1.59125e-06;0.0055859038036981555
1.59150e-06;0.005563281135735539
1.59175e-06;0.005540658467772941
1.59200e-06;0.005518035799810325
1.59225e-06;0.005495413131847727
1.59250e-06;0.00550002190599224
1.59275e-06;0.005505741360384388
1.59300e-06;0.005511460814776531
1.59325e-06;0.005517180269168679
1.59350e-06;0.005522899723560821
1.59375e-06;0.005528619177952969
1.59400e-06;0.005534338632345112
1.59425e-06;0.005540058086737254
1.59450e-06;0.005545777541129402
1.59475e-06;0.005551496995521544
1.59500e-06;0.005557216449913692
1.59525e-06;0.005573798538320613
1.59550e-06;0.005603090819875707
1.59575e-06;0.005632383101430826
1.59600e-06;0.00566167538298592
1.59625e-06;0.005690967664541038
1.59650e-06;0.005720259946096133
1.59675e-06;0.005749552227651227
1.59700e-06;0.0057788445092063455
1.59725e-06;0.005808136790761439
1.59750e-06;0.005837429072316558
1.59775e-06;0.005866721353871652
1.59800e-06;0.0058960136354267705
1.59825e-06;0.005928802186500984
1.59850e-06;0.005961733338818243
1.59875e-06;0.00599466449113553
1.59900e-06;0.006027595643452789
1.59925e-06;0.006060526795770076
1.59950e-06;0.006093457948087335
1.59975e-06;0.006126389100404594
1.60000e-06;0.006159320252721881
1.60025e-06;0.00619225140503914
1.60050e-06;0.006214014636684683
1.60075e-06;0.00623532236586931
1.60100e-06;0.006256630095053938
1.60125e-06;0.0062779378242385836
1.60150e-06;0.006299245553423211
1.60175e-06;0.006320553282607857
1.60200e-06;0.006341861011792484
1.60225e-06;0.006363168740977129
1.60250e-06;0.006384476470161757
1.60275e-06;0.006392189389265398
1.60300e-06;0.006399347821134691
1.60325e-06;0.006406506253003978
1.60350e-06;0.006413664684873271
1.60375e-06;0.006420823116742558
1.60400e-06;0.006427981548611845
1.60425e-06;0.006435139980481138
1.60450e-06;0.006442298412350425
1.60475e-06;0.006449456844219718
1.60500e-06;0.006456615276089005
1.60525e-06;0.006463773707958292
1.60550e-06;0.006470932139827585
1.60575e-06;0.006478090571696872
1.60600e-06;0.006485249003566165
1.60625e-06;0.006492407435435452
1.60650e-06;0.006499565867304744
1.60675e-06;0.006506724299174031
1.60700e-06;0.006513882731043318
1.60725e-06;0.006521041162912611
1.60750e-06;0.006524941005141087
1.60775e-06;0.006525028024101648
1.60800e-06;0.00652511504306221
1.60825e-06;0.006525202062022771
1.60850e-06;0.006525289080983333
1.60875e-06;0.006525376099943895
1.60900e-06;0.006525463118904456
1.60925e-06;0.006525550137865018
1.60950e-06;0.006525637156825579
1.60975e-06;0.006525724175786141
1.61000e-06;0.0065258111947467026
1.61025e-06;0.006525898213707264
1.61050e-06;0.006525985232667825
1.61075e-06;0.0065260722516283865
1.61100e-06;0.006526159270588948
1.61125e-06;0.00652624628954951
1.61150e-06;0.006526333308510071
1.61175e-06;0.006526420327470633
1.61200e-06;0.0065265073464311945
1.61225e-06;0.006526594365391756
1.61250e-06;0.006530699287633215
1.61275e-06;0.00653496808682949
1.61300e-06;0.006539236886025761
1.61325e-06;0.006543505685222036
1.61350e-06;0.006547774484418308
1.61375e-06;0.0065520432836145785
1.61400e-06;0.0065563120828108536
1.61425e-06;0.006560580882007125
1.61450e-06;0.0065648496812034
1.61475e-06;0.006569118480399671
1.61500e-06;0.006573387279595943
1.61525e-06;0.006577656078792218
1.61550e-06;0.006581924877988489
1.61575e-06;0.006586193677184764
1.61600e-06;0.006590462476381035
1.61625e-06;0.0065947312755773105
1.61650e-06;0.006599000074773581
1.61675e-06;0.006605807415255188
1.61700e-06;0.006612718294420128
1.61725e-06;0.006619629173585062
1.61750e-06;0.0066265400527500025
1.61775e-06;0.006633450931914937
1.61800e-06;0.006640361811079871
1.61825e-06;0.006647272690244811
1.61850e-06;0.006654183569409745
1.61875e-06;0.0066610944485746846
1.61900e-06;0.006668005327739619
1.61925e-06;0.006674916206904553
1.61950e-06;0.006681827086069493
1.61975e-06;0.006688737965234427
1.62000e-06;0.0066956488443993675
1.62025e-06;0.006702559723564302
1.62050e-06;0.006709470602729242
1.62075e-06;0.006716381481894176
1.62100e-06;0.00671223659186283
1.62125e-06;0.006707640773657814
1.62150e-06;0.006703044955452802
1.62175e-06;0.0066984491372477865
1.62200e-06;0.006693853319042774
1.62225e-06;0.0066892575008377616
1.62250e-06;0.006684661682632745
1.62275e-06;0.006680065864427733
1.62300e-06;0.006675470046222717
1.62325e-06;0.006647639037228221
1.62350e-06;0.006618860341830315
1.62375e-06;0.0065900816464323836
1.62400e-06;0.006561302951034477
1.62425e-06;0.006532524255636545
1.62450e-06;0.0065037455602386385
1.62475e-06;0.006474966864840707
1.62500e-06;0.0064461881694428
1.62525e-06;0.006417409474044893
1.62550e-06;0.006369002867966866
1.62575e-06;0.006319795704482396
1.62600e-06;0.006270588540997883
1.62625e-06;0.006221381377513412
1.62650e-06;0.006172174214028941
1.62675e-06;0.006122967050544429
1.62700e-06;0.006073759887059958
1.62725e-06;0.006024552723575446
1.62750e-06;0.005975345560090975
1.62775e-06;0.005924566593587798
1.62800e-06;0.005871948485682238
1.62825e-06;0.0058193303777767215
1.62850e-06;0.005766712269871161
1.62875e-06;0.005714094161965646
1.62900e-06;0.005661476054060086
1.62925e-06;0.00560885794615457
1.62950e-06;0.005556239838249054
1.62975e-06;0.005503621730343493
1.63000e-06;0.005451003622437978
1.63025e-06;0.0054211706612441075
1.63050e-06;0.005392267030647486
1.63075e-06;0.005363363400050865
1.63100e-06;0.0053344597694542206
1.63125e-06;0.005305556138857599
1.63150e-06;0.005276652508260954
1.63175e-06;0.005247748877664333
1.63200e-06;0.0052188452470677115
1.63225e-06;0.005189941616471066
1.63250e-06;0.005161037985874446
1.63275e-06;0.0051321343552778
1.63300e-06;0.005103230724681179
1.63325e-06;0.005074327094084534
1.63350e-06;0.005058769567745973
1.63375e-06;0.00505882810309446
1.63400e-06;0.0050588866384429455
1.63425e-06;0.005058945173791431
1.63450e-06;0.005059003709139917
1.63475e-06;0.005059062244488404
1.63500e-06;0.00505912077983689
1.63525e-06;0.005059179315185376
1.63550e-06;0.0050592378505338615
1.63575e-06;0.005059296385882347
1.63600e-06;0.005059354921230834
1.63625e-06;0.00505941345657932
1.63650e-06;0.005059471991927806
1.63675e-06;0.005059530527276292
1.63700e-06;0.005071938235949576
1.63725e-06;0.005084849626462757
1.63750e-06;0.00509776101697595
1.63775e-06;0.005110672407489132
1.63800e-06;0.005123583798002314
1.63825e-06;0.005136495188515507
1.63850e-06;0.005149406579028688
1.63875e-06;0.00516231796954188
1.63900e-06;0.005175229360055062
1.63925e-06;0.005188140750568244
1.63950e-06;0.00519942405063491
1.63975e-06;0.005210640946289707
1.64000e-06;0.005221857841944514
1.64025e-06;0.005233074737599311
1.64050e-06;0.005244291633254109
1.64075e-06;0.005255508528908916
1.64100e-06;0.005266725424563714
1.64125e-06;0.005277942320218521
1.64150e-06;0.005289159215873318
1.64175e-06;0.005300376111528125
1.64200e-06;0.005312560567195561
1.64225e-06;0.005324784486428248
1.64250e-06;0.005337008405660946
1.64275e-06;0.005349232324893632
1.64300e-06;0.005361456244126329
1.64325e-06;0.005373680163359016
1.64350e-06;0.005385904082591702
1.64375e-06;0.0053981280018243994
1.64400e-06;0.005410351921057086
1.64425e-06;0.005422575840289783
1.64450e-06;0.00543479975952247
1.64475e-06;0.005447023678755157
1.64500e-06;0.005459247597987853
1.64525e-06;0.00547147151722054
1.64550e-06;0.0054836954364532375
1.64575e-06;0.005495919355685924
1.64600e-06;0.005509569179865778
1.64625e-06;0.005524887432463572
1.64650e-06;0.0055402056850613664
1.64675e-06;0.005555523937659173
1.64700e-06;0.005570842190256967
1.64725e-06;0.005586160442854774
1.64750e-06;0.005601478695452568
1.64775e-06;0.005616796948050362
1.64800e-06;0.005632115200648169
1.64825e-06;0.005647433453245963
1.64850e-06;0.00566275170584377
1.64875e-06;0.005678069958441564
1.64900e-06;0.005693388211039358
1.64925e-06;0.005708706463637165
1.64950e-06;0.005724024716234959
1.64975e-06;0.0057393429688327655
1.65000e-06;0.00575466122143056
1.65025e-06;0.005767524102874973
1.65050e-06;0.005780286837870152
1.65075e-06;0.005793049572865319
1.65100e-06;0.005805812307860499
1.65125e-06;0.005818575042855666
1.65150e-06;0.005831337777850846
1.65175e-06;0.0058441005128460136
1.65200e-06;0.005856863247841182
1.65225e-06;0.005876468528223691
1.65250e-06;0.005904080160781169
1.65275e-06;0.005931691793338669
1.65300e-06;0.005959303425896147
1.65325e-06;0.0059869150584536245
1.65350e-06;0.006014526691011126
1.65375e-06;0.006042138323568603
1.65400e-06;0.006069749956126105
1.65425e-06;0.006097361588683582
1.65450e-06;0.0061458302059488835
1.65475e-06;0.0061951495104747775
1.65500e-06;0.00624446881500063
1.65525e-06;0.006293788119526524
1.65550e-06;0.006343107424052376
1.65575e-06;0.00639242672857827
1.65600e-06;0.006441746033104123
1.65625e-06;0.006491065337629975
1.65650e-06;0.006540384642155868
1.65675e-06;0.006589703946681721
1.65700e-06;0.006648307559011015
1.65725e-06;0.006707289847475919
1.65750e-06;0.006766272135940823
1.65775e-06;0.006825254424405776
1.65800e-06;0.00688423671287068
1.65825e-06;0.006943219001335634
1.65850e-06;0.007002201289800538
1.65875e-06;0.007061183578265442
1.65900e-06;0.007120165866730396
1.65925e-06;0.007179148155195299
1.65950e-06;0.007225594272497214
1.65975e-06;0.007271529080937721
1.66000e-06;0.007317463889378266
1.66025e-06;0.0073633986978187725
1.66050e-06;0.007409333506259279
1.66075e-06;0.0074552683146998245
1.66100e-06;0.007501203123140331
1.66125e-06;0.007547137931580876
1.66150e-06;0.007558751312464647
1.66175e-06;0.00756896483610215
1.66200e-06;0.007579178359739662
1.66225e-06;0.007589391883377166
1.66250e-06;0.007599605407014678
1.66275e-06;0.007609818930652181
1.66300e-06;0.0076200324542896845
1.66325e-06;0.007630245977927197
1.66350e-06;0.007593597905564601
1.66375e-06;0.0075550385040586985
1.66400e-06;0.007516479102552829
1.66425e-06;0.007477919701046926
1.66450e-06;0.007439360299541056
1.66475e-06;0.007400800898035185
1.66500e-06;0.007362241496529283
1.66525e-06;0.0073236820950234125
1.66550e-06;0.00728512269351751
1.66575e-06;0.007229670390622343
1.66600e-06;0.007154451975832588
1.66625e-06;0.0070792335610427685
1.66650e-06;0.007004015146253014
1.66675e-06;0.006928796731463195
1.66700e-06;0.006853578316673439
1.66725e-06;0.006778359901883684
1.66750e-06;0.006703141487093865
1.66775e-06;0.00662792307230411
1.66800e-06;0.006552704657514291
1.66825e-06;0.006472093628023094
1.66850e-06;0.006391262651656024
1.66875e-06;0.0063104316752890235
1.66900e-06;0.006229600698922022
1.66925e-06;0.006148769722554952
1.66950e-06;0.006067938746187951
1.66975e-06;0.005987107769820881
1.67000e-06;0.005916852146120983
1.67025e-06;0.005858970572284977
1.67050e-06;0.005801088998448923
1.67075e-06;0.005743207424612917
1.67100e-06;0.005685325850776863
1.67125e-06;0.005627444276940857
1.67150e-06;0.005569562703104851
1.67175e-06;0.005511681129268797
1.67200e-06;0.005493504637857671
1.67225e-06;0.005476947585126142
1.67250e-06;0.005460390532394627
1.67275e-06;0.005443833479663099
1.67300e-06;0.005427276426931584
1.67325e-06;0.00541071937420007
1.67350e-06;0.005394162321468541
1.67375e-06;0.005377605268737026
1.67400e-06;0.0053610482160054975
1.67425e-06;0.005344491163273983
1.67450e-06;0.005346455861537387
1.67475e-06;0.005370092562388983
1.67500e-06;0.005393729263240559
1.67525e-06;0.005417365964092155
1.67550e-06;0.005441002664943731
1.67575e-06;0.005464639365795306
1.67600e-06;0.005488276066646902
1.67625e-06;0.005511912767498477
1.67650e-06;0.005535549468350073
1.67675e-06;0.005559186169201649
1.67700e-06;0.005582822870053244
1.67725e-06;0.0056232970142864125
1.67750e-06;0.005664457902014548
1.67775e-06;0.005705618789742717
1.67800e-06;0.005746779677470852
1.67825e-06;0.005787940565199021
1.67850e-06;0.0058291014529271564
1.67875e-06;0.0058702623406552915
1.67900e-06;0.00591142322838346
1.67925e-06;0.0059525841161115955
1.67950e-06;0.0059858450857004745
1.67975e-06;0.006018783843818759
1.68000e-06;0.006051722601937045
1.68025e-06;0.006084661360055358
1.68050e-06;0.006117600118173643
1.68075e-06;0.006150538876291956
1.68100e-06;0.006183477634410241
1.68125e-06;0.006216416392528554
1.68150e-06;0.006249355150646839
1.68175e-06;0.0062508901248956306
1.68200e-06;0.006251144242912419
1.68225e-06;0.006251398360929207
1.68250e-06;0.006251652478945995
1.68275e-06;0.006251906596962783
1.68300e-06;0.00625216071497957
1.68325e-06;0.006252414832996359
1.68350e-06;0.006252668951013146
1.68375e-06;0.006252923069029935
1.68400e-06;0.006253177187046722
1.68425e-06;0.006236735525620581
1.68450e-06;0.006200758401517071
1.68475e-06;0.006164781277413592
1.68500e-06;0.006128804153310082
1.68525e-06;0.006092827029206603
1.68550e-06;0.006056849905103093
1.68575e-06;0.006020872780999613
1.68600e-06;0.0059848956568961335
1.68625e-06;0.0059489185327926235
1.68650e-06;0.005912941408689145
1.68675e-06;0.005876964284585635
1.68700e-06;0.005824672324548412
1.68725e-06;0.005771714936441678
1.68750e-06;0.0057187575483349
1.68775e-06;0.005665800160228166
1.68800e-06;0.0056128427721213875
1.68825e-06;0.005559885384014654
1.68850e-06;0.00550692799590792
1.68875e-06;0.005453970607801143
1.68900e-06;0.0054057806268103525
1.68925e-06;0.005357785092550487
1.68950e-06;0.005309789558290661
1.68975e-06;0.005261794024030835
1.69000e-06;0.005213798489770968
1.69025e-06;0.005165802955511142
1.69050e-06;0.0051178074212512754
1.69075e-06;0.0050698118869914495
1.69100e-06;0.005048944932393007
1.69125e-06;0.005029184462620021
1.69150e-06;0.0050094239928470344
1.69175e-06;0.004989663523074032
1.69200e-06;0.004969903053301046
1.69225e-06;0.004950142583528043
1.69250e-06;0.004930382113755057
1.69275e-06;0.004954189871770258
1.69300e-06;0.004979774633355788
1.69325e-06;0.005005359394941296
1.69350e-06;0.005030944156526826
1.69375e-06;0.005056528918112334
1.69400e-06;0.0050821136796978415
1.69425e-06;0.005107698441283372
1.69450e-06;0.005177709232852584
1.69475e-06;0.005249532014899738
1.69500e-06;0.005321354796946831
1.69525e-06;0.0053931775789939854
1.69550e-06;0.005465000361041078
1.69575e-06;0.005536823143088171
1.69600e-06;0.005608645925135325
1.69625e-06;0.005680468707182418
1.69650e-06;0.005780839166426259
1.69675e-06;0.005882373990778971
1.69700e-06;0.005983908815131682
1.69725e-06;0.0060854436394844795
1.69750e-06;0.006186978463837191
1.69775e-06;0.006288513288189988
1.69800e-06;0.0063900481125427
1.69825e-06;0.006491582936895411
1.69850e-06;0.006593285173773036
1.69875e-06;0.0066949942388524405
1.69900e-06;0.006796703303931931
1.69925e-06;0.006898412369011336
1.69950e-06;0.007000121434090826
1.69975e-06;0.00710183049917023
1.70000e-06;0.007194374436981029
1.70025e-06;0.007267319629520486
1.70050e-06;0.007340264822059879
1.70075e-06;0.007413210014599335
