Time(s);Current(A)
5.00000e-07;-0.0006881999663596738
5.00250e-07;-0.0006884343613342146
5.00500e-07;-0.0006886687563087556
5.00750e-07;-0.0006889031512832965
5.01000e-07;-0.0006891375462578374
5.01250e-07;-0.0006893719412323783
5.01500e-07;-0.0006887522342441614
5.01750e-07;-0.0006877475073316218
5.02000e-07;-0.0006867427804190821
5.02250e-07;-0.0006857380535065424
5.02500e-07;-0.0006847333265940026
5.02750e-07;-0.0006837285996814629
5.03000e-07;-0.0006819467780311647
5.03250e-07;-0.0006768365215140018
5.03500e-07;-0.000671726264996839
5.03750e-07;-0.0006666160084796761
5.04000e-07;-0.0006615057519625133
5.04250e-07;-0.0006563954954453525
5.04500e-07;-0.0006512852389281898
5.04750e-07;-0.0006431224200447068
5.05000e-07;-0.0006335835390720075
5.05250e-07;-0.0006240446580993082
5.05500e-07;-0.0006145057771266088
5.05750e-07;-0.0006049668961539135
5.06000e-07;-0.0005948036647927773
5.06250e-07;-0.0005819662297585885
5.06500e-07;-0.0005691287947243997
5.06750e-07;-0.0005562913596902109
5.07000e-07;-0.0005434539246560219
5.07250e-07;-0.0005306164896218385
5.07500e-07;-0.0005168042838283995
5.07750e-07;-0.0005020947420476932
5.08000e-07;-0.0004871787749415519
5.08250e-07;-0.00047226280783541064
5.08500e-07;-0.0004573468407292757
5.08750e-07;-0.00044243087362313445
5.09000e-07;-0.00042757897856306
5.09250e-07;-0.00041300151546315705
5.09500e-07;-0.0003984240523632542
5.09750e-07;-0.0003838465892633513
5.10000e-07;-0.00036926912616345455
5.10250e-07;-0.0003546916630635517
5.10500e-07;-0.00034131518295391143
5.10750e-07;-0.00032848009298291046
5.11000e-07;-0.00031564500301190955
5.11250e-07;-0.0003040328494157008
5.11500e-07;-0.00029297198230636954
5.11750e-07;-0.0002832021910452066
5.12000e-07;-0.00027401440280832033
5.12250e-07;-0.000266326602434071
5.12500e-07;-0.00025931498036001085
5.12750e-07;-0.0002538760159942201
5.13000e-07;-0.0002491459887088156
5.13250e-07;-0.0002460283242502321
5.13500e-07;-0.00024363749550991473
5.13750e-07;-0.00024289920614116266
5.14000e-07;-0.00024290586364237964
5.14250e-07;-0.0002445681047247053
5.14500e-07;-0.0002469766649737284
5.14750e-07;-0.0002509585148427181
5.15000e-07;-0.0002556495866510563
5.15250e-07;-0.0002618109865934541
5.15500e-07;-0.0002686351945512881
5.15750e-07;-0.0002768271001586384
5.16000e-07;-0.0002856355490693516
5.16250e-07;-0.00029568579474589156
5.16500e-07;-0.0003062958289695375
5.16750e-07;-0.0003181938864731893
5.17000e-07;-0.0003306725709364118
5.17250e-07;-0.0003431512553996396
5.17500e-07;-0.0003570966430912269
5.17750e-07;-0.000371703204729981
5.18000e-07;-0.00038630976636873506
5.18250e-07;-0.00040091632800748914
5.18500e-07;-0.00041552288964623703
5.18750e-07;-0.00043025426707621523
5.19000e-07;-0.0004455202527222458
5.19250e-07;-0.00046078623836827626
5.19500e-07;-0.0004760522240143068
5.19750e-07;-0.0004913182096603374
5.20000e-07;-0.0005065841953063614
5.20250e-07;-0.0005209645428735385
5.20500e-07;-0.0005349456543764343
5.20750e-07;-0.00054892676587933
5.21000e-07;-0.0005614967550280832
5.21250e-07;-0.0005734306254864327
5.21500e-07;-0.0005853644959447873
5.21750e-07;-0.000595445186707853
5.22000e-07;-0.0006046904841137217
5.22250e-07;-0.0006112645202430515
5.22500e-07;-0.000616634380689132
5.22750e-07;-0.0006190242458561203
5.23000e-07;-0.0006200707613916836
5.23250e-07;-0.000618246070764196
5.23500e-07;-0.0006151270714618087
5.23750e-07;-0.0006091193128935614
5.24000e-07;-0.0006018093329015772
5.24250e-07;-0.0005912098412610811
5.24500e-07;-0.0005791274733584594
5.24750e-07;-0.000563850841958344
5.25000e-07;-0.0005471342711320967
5.25250e-07;-0.0005275801559788161
5.25500e-07;-0.0005067469065421334
5.25750e-07;-0.00048335371259175156
5.26000e-07;-0.0004588065233504764
5.26250e-07;-0.00043173694320517786
5.26500e-07;-0.0004035302965299339
5.26750e-07;-0.00037314945232833394
5.27000e-07;-0.000341788503404372
5.27250e-07;-0.00030876534585677986
5.27500e-07;-0.00027499288264499014
5.27750e-07;-0.0002400205294465436
5.28000e-07;-0.00020450727882364526
5.28250e-07;-0.00016810606938895517
5.28500e-07;-0.00013130457772865637
5.28750e-07;-9.412159445466175e-05
5.29000e-07;-5.6766638888546076e-05
5.29250e-07;-1.950612766869469e-05
5.29500e-07;1.7445688551715854e-05
5.29750e-07;5.3868124429658776e-05
5.30000e-07;8.958038026341796e-05
5.30250e-07;0.0001244197601740573
5.30500e-07;0.00015819232784496746
5.30750e-07;0.0001906663322069033
5.31000e-07;0.00022159916009699608
5.31250e-07;0.0002507478617817224
5.31500e-07;0.0002778695386665213
5.31750e-07;0.0003027835676039519
5.32000e-07;0.0003255499694352953
5.32250e-07;0.00034644209062767943
5.32500e-07;0.0003656278441284277
5.32750e-07;0.0003830733838827182
5.33000e-07;0.0003980032657420653
5.33250e-07;0.00041204689712342053
5.33500e-07;0.0004232604467540329
5.33750e-07;0.000433198226149874
5.34000e-07;0.0004404716351158322
5.34250e-07;0.00044654397471764697
5.34500e-07;0.0004503849939814007
5.34750e-07;0.0004532201581772586
5.35000e-07;0.00045384457427154776
5.35250e-07;0.0004534724090395823
5.35500e-07;0.0004508756337700025
5.35750e-07;0.000447276028363368
5.36000e-07;0.000441701167282453
5.36250e-07;0.00043523588231372665
5.36500e-07;0.00042721208242244127
5.36750e-07;0.000418485720865535
5.37000e-07;0.0004080360023617247
5.37250e-07;0.00039680941319112967
5.37500e-07;0.0003855828240205347
5.37750e-07;0.00037267671385178796
5.38000e-07;0.00035901349378769426
5.38250e-07;0.0003453502737236064
5.38500e-07;0.00033082180271171044
5.38750e-07;0.00031590328593363373
5.39000e-07;0.0003009847691555571
5.39250e-07;0.00028577255720472697
5.39500e-07;0.0002704279506474869
5.39750e-07;0.0002550833440902533
5.40000e-07;0.00024013320423313126
5.40250e-07;0.00022536088569671554
5.40500e-07;0.00021058856716029984
5.40750e-07;0.00019675975297573284
5.41000e-07;0.00018335626034527913
5.41250e-07;0.00017073853486965343
5.41500e-07;0.00015909445867888408
5.41750e-07;0.00014860173500265254
5.42000e-07;0.00013850215286138727
5.42250e-07;0.00012886793858179576
5.42500e-07;0.00011959342564297576
5.42750e-07;0.00011070161518599298
5.43000e-07;0.00010195185778737458
5.43250e-07;9.361394382479267e-05
5.43500e-07;8.580071007029842e-05
5.43750e-07;7.862002919988489e-05
5.44000e-07;7.165560262488915e-05
5.44250e-07;6.492300990903684e-05
5.44500e-07;5.835368063896723e-05
5.44750e-07;5.190064428919577e-05
5.45000e-07;4.5611663159467736e-05
5.45250e-07;3.95357126040787e-05
5.45500e-07;3.372175844057348e-05
5.45750e-07;2.8197098681680802e-05
5.46000e-07;2.290865112225744e-05
5.46250e-07;1.7740217054589146e-05
5.46500e-07;1.262586660801872e-05
5.46750e-07;7.5770573955567e-06
5.47000e-07;2.628745958749618e-06
5.47250e-07;-2.1833533395798457e-06
5.47500e-07;-6.823537167472276e-06
5.47750e-07;-1.1269674931663406e-05
5.48000e-07;-1.5549988403958282e-05
5.48250e-07;-1.9732226514516976e-05
5.48500e-07;-2.385264804798175e-05
5.48750e-07;-2.789903669757697e-05
5.49000e-07;-3.1797273889759695e-05
5.49250e-07;-3.5640221879811166e-05
5.49500e-07;-3.926093128898939e-05
5.49750e-07;-4.2781457950294144e-05
5.50000e-07;-4.609551373222199e-05
5.50250e-07;-4.9316494675519026e-05
5.50500e-07;-5.238323274305425e-05
5.50750e-07;-5.538043979093767e-05
5.51000e-07;-5.823180312275221e-05
5.51250e-07;-6.0899783297796675e-05
5.51500e-07;-6.338180622051742e-05
5.51750e-07;-6.57202740145341e-05
5.52000e-07;-6.818982155776983e-05
5.52250e-07;-7.122812904675552e-05
5.52500e-07;-7.509210027226168e-05
5.52750e-07;-7.979139370559442e-05
5.53000e-07;-8.526233548339462e-05
5.53250e-07;-9.143893040931627e-05
5.53500e-07;-9.825517551745425e-05
5.53750e-07;-0.00010568555582092366
5.54000e-07;-0.00011385000471215771
5.54250e-07;-0.0001229705791104894
5.54500e-07;-0.00013315605095496602
5.54750e-07;-0.000144360347221071
5.55000e-07;-0.00015649146594622074
5.55250e-07;-0.0001694559301485534
5.55500e-07;-0.0001833857304378199
5.55750e-07;-0.0001976380362835499
5.56000e-07;-0.00021288742356606735
5.56250e-07;-0.000228586284372946
5.56500e-07;-0.00024534599954669585
5.56750e-07;-0.0002625839363917451
5.57000e-07;-0.00028074509957558155
5.57250e-07;-0.00029932244320463383
5.57500e-07;-0.00031789978683368606
5.57750e-07;-0.00033723696783975244
5.58000e-07;-0.0003569166753147507
5.58250e-07;-0.0003765963827897573
5.58500e-07;-0.00039627609026476386
5.58750e-07;-0.0004159557977397705
5.59000e-07;-0.0004354365272534728
5.59250e-07;-0.0004548275596549451
5.59500e-07;-0.0004742185920564092
5.59750e-07;-0.0004936096244578816
5.60000e-07;-0.0005130006568593539
5.60250e-07;-0.0005310845989647117
5.60500e-07;-0.0005485793189058808
5.60750e-07;-0.0005660740388470424
5.61000e-07;-0.0005818049695228018
5.61250e-07;-0.0005967408030800003
5.61500e-07;-0.0006116766366371987
5.61750e-07;-0.0006246748617463534
5.62000e-07;-0.0006367996339299505
5.62250e-07;-0.0006489244061135425
5.62500e-07;-0.0006597983542213219
5.62750e-07;-0.0006701084443682808
5.63000e-07;-0.0006804185345152396
5.63250e-07;-0.0006907286246621984
5.63500e-07;-0.0007010387148091529
5.63750e-07;-0.0007113488049561117
5.64000e-07;-0.0007216588951030706
5.64250e-07;-0.0007319689852500294
5.64500e-07;-0.0007422790753969882
5.64750e-07;-0.0007515426127765515
5.65000e-07;-0.0007603343754911324
5.65250e-07;-0.0007691261382057171
5.65500e-07;-0.0007779179009203018
5.65750e-07;-0.0007867096636348864
5.66000e-07;-0.0007955014263494711
5.66250e-07;-0.0008042931890640558
5.66500e-07;-0.0008130849517786367
5.66750e-07;-0.0008218767144932215
5.67000e-07;-0.0008302117433093116
5.67250e-07;-0.000838340881425324
5.67500e-07;-0.0008464700195413364
5.67750e-07;-0.0008545991576573455
5.68000e-07;-0.0008627282957733578
5.68250e-07;-0.0008708574338893702
5.68500e-07;-0.0008789865720053826
5.68750e-07;-0.000887115710121395
5.69000e-07;-0.000894967051797464
5.69250e-07;-0.0009016285419512017
5.69500e-07;-0.0009082900321049424
5.69750e-07;-0.0009149515222586829
5.70000e-07;-0.0009216130124124236
5.70250e-07;-0.0009282745025661641
5.70500e-07;-0.0009349359927199048
5.70750e-07;-0.0009415974828736425
5.71000e-07;-0.0009482589730273832
5.71250e-07;-0.0009538673961966866
5.71500e-07;-0.0009590011081624413
5.71750e-07;-0.0009631747155562751
5.72000e-07;-0.0009669155181963689
5.72250e-07;-0.0009674135974014922
5.72500e-07;-0.0009664498919648551
5.72750e-07;-0.0009654861865282181
5.73000e-07;-0.0009603149789441694
5.73250e-07;-0.0009532470749126444
5.73500e-07;-0.0009461791708811223
5.73750e-07;-0.000935779494016492
5.74000e-07;-0.0009238778900048371
5.74250e-07;-0.0009086538547542194
5.74500e-07;-0.0008919321034461507
5.74750e-07;-0.0008719409814213242
5.75000e-07;-0.0008504760624484089
5.75250e-07;-0.0008261981935531353
5.75500e-07;-0.0008006522772659069
5.75750e-07;-0.0007726202197395956
5.76000e-07;-0.0007434674366400336
5.76250e-07;-0.0007117323814800774
5.76500e-07;-0.0006788332660126334
5.76750e-07;-0.0006436983466431948
5.77000e-07;-0.0006075555510636868
5.77250e-07;-0.0005697760640569094
5.77500e-07;-0.000531258774261928
5.77750e-07;-0.0004916226196028979
5.78000e-07;-0.00045148209276802255
5.78250e-07;-0.0004106449785709391
5.78500e-07;-0.00036915500523066353
5.78750e-07;-0.00032734385464255525
5.79000e-07;-0.0002854606294904321
5.79250e-07;-0.00024375531359159864
5.79500e-07;-0.00020247781857659586
5.79750e-07;-0.00016186343126096207
5.80000e-07;-0.00012209575763729523
5.80250e-07;-8.332459442667264e-05
5.80500e-07;-4.574445477663332e-05
5.80750e-07;-9.60782656080595e-06
5.81000e-07;2.4815827248217114e-05
5.81250e-07;5.7256554489803196e-05
5.81500e-07;8.74444329972177e-05
5.81750e-07;0.0001152665272532329
5.82000e-07;0.00014119048201026332
5.82250e-07;0.0001661349022936257
5.82500e-07;0.00019064622771992616
5.82750e-07;0.00021470587606377934
5.83000e-07;0.00023781486706800776
5.83250e-07;0.0002605662990383896
5.83500e-07;0.0002818607983997948
5.83750e-07;0.00030249852830347784
5.84000e-07;0.00032219298455325284
5.84250e-07;0.00034146222324502983
5.84500e-07;0.0003607314619368068
5.84750e-07;0.00037937223207116003
5.85000e-07;0.0003977296953791767
5.85250e-07;0.00041608715868719337
5.85500e-07;0.00043444462199521003
5.85750e-07;0.0004528020853032267
5.86000e-07;0.0004709192979696283
5.86250e-07;0.0004880074744405489
5.86500e-07;0.0005050956509114767
5.86750e-07;0.0005221838273824046
5.87000e-07;0.0005392720038533325
5.87250e-07;0.0005563601803242604
5.87500e-07;0.0005725361784249062
5.87750e-07;0.0005883009763850037
5.88000e-07;0.0006040657743451014
5.88250e-07;0.0006198305723051989
5.88500e-07;0.0006355953702652965
5.88750e-07;0.0006513601682253941
5.89000e-07;0.0006657743067478026
5.89250e-07;0.0006795795826083555
5.89500e-07;0.0006933848584689085
5.89750e-07;0.0007071901343294615
5.90000e-07;0.0007209954101900144
5.90250e-07;0.0007348006860505675
5.90500e-07;0.0007473292060514297
5.90750e-07;0.0007592821783238407
5.91000e-07;0.0007706484356272854
5.91250e-07;0.0007812768561544726
5.91500e-07;0.0007911569563832056
5.91750e-07;0.0008001877523544021
5.92000e-07;0.0008082334456314288
5.92250e-07;0.0008147309759317595
5.92500e-07;0.0008206750840565819
5.92750e-07;0.0008249270730706483
5.93000e-07;0.0008284162730964452
5.93250e-07;0.0008302041862766475
5.93500e-07;0.0008312251777529002
5.93750e-07;0.0008300596544398615
5.94000e-07;0.0008279084739154825
5.94250e-07;0.0008257572933911035
5.94500e-07;0.0008209466138408751
5.94750e-07;0.0008149370609026348
5.95000e-07;0.0008089275079643921
5.95250e-07;0.000800530278335224
5.95500e-07;0.0007910567098858063
5.95750e-07;0.0007815831414363885
5.96000e-07;0.0007691092294825146
5.96250e-07;0.0007552827951372195
5.96500e-07;0.0007414563607919245
5.96750e-07;0.0007276299264466295
5.97000e-07;0.0007138034921013344
5.97250e-07;0.0006999770577560394
5.97500e-07;0.0006836599217084098
5.97750e-07;0.0006662200042799908
5.98000e-07;0.0006487800868515718
5.98250e-07;0.0006313401694231528
5.98500e-07;0.0006139002519947338
5.98750e-07;0.0005964603345663222
5.99000e-07;0.0005785079802131289
5.99250e-07;0.0005603246248382462
5.99500e-07;0.0005421412694633636
5.99750e-07;0.000524463764420392
6.00000e-07;0.0005070142912343064
6.00250e-07;0.0004895648180482281
6.00500e-07;0.000473011803554991
6.00750e-07;0.00045686290294180226
6.01000e-07;0.0004418059958998536
6.01250e-07;0.00042724134774566194
6.01500e-07;0.00041410038662372623
6.01750e-07;0.0004016012082132238
6.02000e-07;0.00039089093170717904
6.02250e-07;0.0003809870728257353
6.02500e-07;0.0003730989520887639
6.02750e-07;0.00036611950429927366
6.03000e-07;0.0003612045220676541
6.03250e-07;0.0003572201785742968
6.03500e-07;0.00035533769376296174
6.03750e-07;0.0003544027041057087
6.04000e-07;0.0003556279898566249
6.04250e-07;0.00035782710438976616
6.04500e-07;0.00036215814857762466
6.04750e-07;0.00036745024358872483
6.05000e-07;0.00037473439510102
6.05250e-07;0.0003829165441322195
6.05500e-07;0.0003929437850575561
6.05750e-07;0.00040380277344692893
6.06000e-07;0.00041637304893530963
6.06250e-07;0.00042971475413370935
6.06500e-07;0.00044490690743018775
6.06750e-07;0.00046093322270949273
6.07000e-07;0.0004769595379887977
6.07250e-07;0.0004946868124557596
6.07500e-07;0.0005131808609220446
6.07750e-07;0.0005316749093883297
6.08000e-07;0.000551157515170311
6.08250e-07;0.0005710857518951198
6.08500e-07;0.0005914746221590028
6.08750e-07;0.0006120711410387504
6.09000e-07;0.0006328062190969052
6.09250e-07;0.0006535843795081255
6.09500e-07;0.0006742507725463114
6.09750e-07;0.000694684877787393
6.10000e-07;0.0007147685205667596
6.10250e-07;0.0007343812829801899
6.10500e-07;0.0007533941947881522
6.10750e-07;0.0007716712147404298
6.11000e-07;0.0007890746455463964
6.11250e-07;0.0008054667458452358
6.11500e-07;0.0008207096979821819
6.11750e-07;0.0008346695178684779
6.12000e-07;0.0008472361448204719
6.12250e-07;0.000858343663161602
6.12500e-07;0.0008679579582857355
6.12750e-07;0.0008760529949399363
6.13000e-07;0.0008826029249739446
6.13250e-07;0.0008870287928457136
6.13500e-07;0.0008907147056615675
6.13750e-07;0.000892164192694106
6.14000e-07;0.0008926055231791519
6.14250e-07;0.0008903187069608734
6.14500e-07;0.0008868020717242341
6.14750e-07;0.0008832854364875933
6.15000e-07;0.0008767320141616376
6.15250e-07;0.0008688096410704566
6.15500e-07;0.0008608872679792754
6.15750e-07;0.0008502234011397458
6.16000e-07;0.0008383236985783474
6.16250e-07;0.0008264239960169491
6.16500e-07;0.000811490404831837
6.16750e-07;0.0007951891694784316
6.17000e-07;0.0007788879341250261
6.17250e-07;0.0007625866987716276
6.17500e-07;0.000746285463418222
6.17750e-07;0.0007293594009171657
6.18000e-07;0.0007097570926980371
6.18250e-07;0.0006901547844789084
6.18500e-07;0.0006705524762597882
6.18750e-07;0.0006509501680406595
6.19000e-07;0.0006313478598215308
6.19250e-07;0.000611466176722052
6.19500e-07;0.000591458554449034
6.19750e-07;0.000571450932176016
6.20000e-07;0.0005519896761396429
6.20250e-07;0.0005327747160916677
6.20500e-07;0.0005146988487690685
6.20750e-07;0.0004971364721233644
6.21000e-07;0.0004795740954776603
6.21250e-07;0.00046368418181099395
6.21500e-07;0.00044854819636111254
6.21750e-07;0.00043504376680209743
6.22000e-07;0.00042227482498708623
6.22250e-07;0.00041084576667633815
6.22500e-07;0.0004000207133532779
6.22750e-07;0.00039048270367985884
6.23000e-07;0.00038152487935932646
6.23250e-07;0.00037400762314076554
6.23500e-07;0.00036713975943724643
6.23750e-07;0.00036178396013102364
6.24000e-07;0.0003571097830962656
6.24250e-07;0.00035369074318541196
6.24500e-07;0.0003508375055108404
6.24750e-07;0.0003494236523575929
6.25000e-07;0.00034865865817403763
6.25250e-07;0.0003478936639904824
6.25500e-07;0.00034886572486084866
6.25750e-07;0.0003506208313565413
6.26000e-07;0.0003523759378522346
6.26250e-07;0.00035551160758587807
6.26500e-07;0.00035926962029105014
6.26750e-07;0.00036302763299622226
6.27000e-07;0.00036788628877299444
6.27250e-07;0.0003732411025387289
6.27500e-07;0.0003785959163044633
6.27750e-07;0.0003850734833644417
6.28000e-07;0.00039205717546254024
6.28250e-07;0.00039904086756063875
6.28500e-07;0.0004060245596587343
6.28750e-07;0.00041300825175683275
6.29000e-07;0.00041999194385493126
6.29250e-07;0.00042727874961922136
6.29500e-07;0.0004347021957448827
6.29750e-07;0.00044212564187054405
6.30000e-07;0.0004495490879962022
6.30250e-07;0.00045697253412186353
6.30500e-07;0.0004643959802475249
6.30750e-07;0.000471258225257093
6.31000e-07;0.0004778674868750888
6.31250e-07;0.0004839273163144909
6.31500e-07;0.0004897394676720225
6.31750e-07;0.0004945383803795955
6.32000e-07;0.0004988805360658648
6.32250e-07;0.000503222691752134
6.32500e-07;0.0005058360975097014
6.32750e-07;0.0005076702015025304
6.33000e-07;0.0005095043054953602
6.33250e-07;0.0005095685618947806
6.33500e-07;0.0005088349901468418
6.33750e-07;0.0005081014183989029
6.34000e-07;0.0005054980165839584
6.34250e-07;0.0005020517156042563
6.34500e-07;0.0004986054146245526
6.34750e-07;0.0004932872440744705
6.35000e-07;0.00048712525497357213
6.35250e-07;0.00048096326587267386
6.35500e-07;0.0004731794235674583
6.35750e-07;0.00046466446738434764
6.36000e-07;0.000456149511201237
6.36250e-07;0.00044616903476258973
6.36500e-07;0.000435527917648016
6.36750e-07;0.0004248868005334423
6.37000e-07;0.00041278376253724977
6.37250e-07;0.00040002170642394383
6.37500e-07;0.00038725965031063795
6.37750e-07;0.000374497594197332
6.38000e-07;0.0003617355380840261
6.38250e-07;0.00034875838539141893
6.38500e-07;0.00033485993582249487
6.38750e-07;0.0003209614862535708
6.39000e-07;0.00030706303668464675
6.39250e-07;0.00029316458711572274
6.39500e-07;0.0002792661375467987
6.39750e-07;0.0002657629254947554
6.40000e-07;0.00025243788223929214
6.40250e-07;0.0002391128389838289
6.40500e-07;0.00022647821944388305
6.40750e-07;0.0002141548354452916
6.41000e-07;0.0002026666180479748
6.41250e-07;0.00019155488471896278
6.41500e-07;0.00018122640594345774
6.41750e-07;0.00017189399504813582
6.42000e-07;0.0001634865663668995
6.42250e-07;0.00015916722767841712
6.42500e-07;0.00015375458025682098
6.42750e-07;0.00014901572809045087
6.43000e-07;0.0001469249848991544
6.43250e-07;0.00014871059200306986
6.43500e-07;0.0001508386676892113
6.43750e-07;0.00015214666892437594
6.44000e-07;0.000157315448529272
