Time(s);Current(A)
5.75000e-06;-0.00030697578121339635
5.75025e-06;-0.00033768484799099046
5.75050e-06;-0.00036690509648696897
5.75075e-06;-0.0003955980390653145
5.75100e-06;-0.00042220015409630583
5.75125e-06;-0.00044806174508058325
5.75150e-06;-0.00047119763815528157
5.75175e-06;-0.000493368150393799
5.75200e-06;-0.0005121209796689219
5.75225e-06;-0.0005296633425806081
5.75250e-06;-0.0005433591948938501
5.75275e-06;-0.0005556926997494828
5.75300e-06;-0.0005640846353875248
5.75325e-06;-0.0005710805559450535
5.75350e-06;-0.0005740617918830456
5.75375e-06;-0.0005756211169112618
5.75400e-06;-0.0005730568794169056
5.75425e-06;-0.0005690321689107048
5.75450e-06;-0.0005609398607574362
5.75475e-06;-0.0005514069010913331
5.75500e-06;-0.0005380714247208838
5.75525e-06;-0.0005233891825396819
5.75550e-06;-0.0005051832164212183
5.75575e-06;-0.00048572922661363596
5.75600e-06;-0.00046300786810510194
5.75625e-06;-0.0004391292811609093
5.75650e-06;-0.0004123429062884671
5.75675e-06;-0.0003845266583949697
5.75700e-06;-0.0003542932178934979
5.75725e-06;-0.00032320366218842637
5.75750e-06;-0.00029019593401564367
5.75775e-06;-0.00025650883233858355
5.75800e-06;-0.00022138853338515282
5.75825e-06;-0.00018576062822217018
5.75850e-06;-0.00014915948083525266
5.75875e-06;-0.0001122136329631037
5.75900e-06;-7.526778509107992e-05
5.75925e-06;-3.817610222417436e-05
5.75950e-06;-1.2255268068056533e-06
5.75975e-06;3.530640195874834e-05
5.76000e-06;7.120940515059423e-05
5.76025e-06;0.0001062687184562347
5.76050e-06;0.00014025391878791217
5.76075e-06;0.00017292285527925003
5.76100e-06;0.0002040307136740448
5.76125e-06;0.00023333265352075167
5.76150e-06;0.000260583853397659
5.76175e-06;0.0002855957898825695
5.76200e-06;0.00030840095713885105
5.76225e-06;0.00032922459254532593
5.76250e-06;0.000348195277941041
5.76275e-06;0.00036527047345294916
5.76300e-06;0.0003803596769533914
5.76325e-06;0.00039337070138731984
5.76350e-06;0.0004042113534318465
5.76375e-06;0.00041282472183169246
5.76400e-06;0.0004185968913556615
5.76425e-06;0.00042357016845604025
5.76450e-06;0.00042588700525457993
5.76475e-06;0.0004272629907028286
5.76500e-06;0.00042603678137376845
5.76525e-06;0.00042388893323797673
5.76550e-06;0.00041915997386669204
5.76575e-06;0.00041351684300451884
5.76600e-06;0.00040556163635692156
5.76625e-06;0.00039678754451806254
5.76650e-06;0.00038614875202780754
5.76675e-06;0.00037484952454703094
5.76700e-06;0.00036190007470805806
5.76725e-06;0.000348366153261361
5.76750e-06;0.0003333757695699468
5.76775e-06;0.00031786953974090364
5.76800e-06;0.0003010803230204849
5.76825e-06;0.0002838367012272197
5.76850e-06;0.0002665930794338962
5.76875e-06;0.0002485925757851161
5.76900e-06;0.00023032400162287164
5.76925e-06;0.00021205542746056526
5.76950e-06;0.0001938332162800395
5.76975e-06;0.0001757590723359887
5.77000e-06;0.00015768492839187664
5.77025e-06;0.00013961078444782582
5.77050e-06;0.00012226430976682677
5.77075e-06;0.00010569128386655841
5.77100e-06;8.990824455624076e-05
5.77125e-06;7.503924501015204e-05
5.77150e-06;6.120831612719453e-05
5.77175e-06;4.850418787690793e-05
5.77200e-06;3.687941539946904e-05
5.77225e-06;2.6173419423966165e-05
5.77250e-06;1.629540098248767e-05
5.77275e-06;7.266398019687656e-06
5.77300e-06;-8.61631659289128e-07
5.77325e-06;-8.03562167261526e-06
5.77350e-06;-1.4202518763126518e-05
5.77375e-06;-1.933138861099808e-05
5.77400e-06;-2.3476599130615484e-05
5.77425e-06;-2.676337471853598e-05
5.77450e-06;-2.927322451022162e-05
5.77475e-06;-3.101759901676986e-05
5.77500e-06;-3.198858047287789e-05
5.77525e-06;-3.21775568312086e-05
5.77550e-06;-3.1575933114846616e-05
5.77575e-06;-3.018896486122297e-05
5.77600e-06;-2.807533980856423e-05
5.77625e-06;-2.533812607275506e-05
5.77650e-06;-2.2052998973987755e-05
5.77675e-06;-1.8251747137146034e-05
5.77700e-06;-1.395402539621633e-05
5.77725e-06;-9.17905540400444e-06
5.77750e-06;-3.9460619195674314e-06
5.77775e-06;1.7170489955992536e-06
5.77800e-06;7.748905896249685e-06
5.77825e-06;1.4060345283108861e-05
5.77850e-06;2.0579364716992156e-05
5.77875e-06;2.7304509067963302e-05
5.77900e-06;3.408497487811554e-05
5.77925e-06;4.098915806815178e-05
5.77950e-06;4.793715916883821e-05
5.77975e-06;5.485936682087815e-05
5.78000e-06;6.169919917011139e-05
5.78025e-06;6.853903151932146e-05
5.78050e-06;7.504194145550938e-05
5.78075e-06;8.142552105822887e-05
5.78100e-06;8.734415859509853e-05
5.78125e-06;9.309812411960894e-05
5.78150e-06;9.825870131149724e-05
5.78175e-06;0.00010320911371505656
5.78200e-06;0.00010768844811886499
5.78225e-06;0.00011200093730062196
5.78250e-06;0.00011608079829003397
5.78275e-06;0.00012007826761094081
5.78300e-06;0.0001236963764582725
5.78325e-06;0.00012718012436649717
5.78350e-06;0.00013066387227473364
5.78375e-06;0.0001336405370028398
5.78400e-06;0.00013643760428462987
5.78425e-06;0.00013923467156642944
5.78450e-06;0.00014149320467845303
5.78475e-06;0.00014356100111169402
5.78500e-06;0.00014562879754494203
5.78525e-06;0.00014769659397818302
5.78550e-06;0.00014976439041143103
5.78575e-06;0.00015183218684467205
5.78600e-06;0.00015389998327791304
5.78625e-06;0.00015596777971116105
5.78650e-06;0.00015803557614440204
5.78675e-06;0.00015947812222302324
5.78700e-06;0.0001606992187024648
5.78725e-06;0.0001619203151819022
5.78750e-06;0.00016314141166133962
5.78775e-06;0.00016436250814078117
5.78800e-06;0.0001655836046202186
5.78825e-06;0.000166804701099656
5.78850e-06;0.00016802579757909755
5.78875e-06;0.00016924689405853498
5.78900e-06;0.00017017838973933943
5.78925e-06;0.00017100731533713378
5.78950e-06;0.00017183624093492536
5.78975e-06;0.0001726651665327197
5.79000e-06;0.00017344695815087638
5.79025e-06;0.00017407822023348318
5.79050e-06;0.00017470948231609212
5.79075e-06;0.00017534074439869892
5.79100e-06;0.0001759720064813057
5.79125e-06;0.00017652284592017768
5.79150e-06;0.00017704520146921514
5.79175e-06;0.000177237022531521
5.79200e-06;0.00017731177572004938
5.79225e-06;0.00017637346579851943
5.79250e-06;0.00017413326620707004
5.79275e-06;0.00017065847238518733
5.79300e-06;0.0001660134431460466
5.79325e-06;0.00016026493193076305
5.79350e-06;0.00015347972061229687
5.79375e-06;0.00014567928683639533
5.79400e-06;0.00013672347242017134
5.79425e-06;0.00012636952339322788
5.79450e-06;0.00011451453361773493
5.79475e-06;0.00010122442102435589
5.79500e-06;8.660936406190378e-05
5.79525e-06;7.078103983675665e-05
5.79550e-06;5.385112511929061e-05
5.79575e-06;3.590291585885746e-05
5.79600e-06;1.6918460030281704e-05
5.79625e-06;-3.184452204764362e-06
5.79650e-06;-2.4400421574762282e-05
5.79675e-06;-4.661830051459919e-05
5.79700e-06;-6.969923308940632e-05
5.79725e-06;-9.350341679669155e-05
5.79750e-06;-0.00011805029236654616
5.79775e-06;-0.00014279660273993256
5.79800e-06;-0.00016825066783976255
5.79825e-06;-0.00019395540372988052
5.79850e-06;-0.00021966013961991138
5.79875e-06;-0.0002455458586961898
5.79900e-06;-0.00027149567794258474
5.79925e-06;-0.00029744549718889175
5.79950e-06;-0.00032339531643519877
5.79975e-06;-0.00034803442604587446
5.80000e-06;-0.0003722093118119895
5.80025e-06;-0.00039638419757810454
5.80050e-06;-0.0004205590833443015
5.80075e-06;-0.00044283256568743444
5.80100e-06;-0.0004644326137451694
5.80125e-06;-0.00048413301534180555
5.80150e-06;-0.0005031606049293003
5.80175e-06;-0.0005196260606175298
5.80200e-06;-0.0005351840661610082
5.80225e-06;-0.000547073019621484
5.80250e-06;-0.0005576624774370329
5.80275e-06;-0.0005642526173314196
5.80300e-06;-0.0005694262888563913
5.80325e-06;-0.0005716308131129711
5.80350e-06;-0.0005708214369388641
5.80375e-06;-0.0005673377000699082
5.80400e-06;-0.0005610688501466893
5.80425e-06;-0.0005518633359902478
5.80450e-06;-0.0005396941132988747
5.80475e-06;-0.0005246617302241285
5.80500e-06;-0.0005068988393151236
5.80525e-06;-0.0004865392295364851
5.80550e-06;-0.00046371661284113513
5.80575e-06;-0.00043854600816399595
5.80600e-06;-0.0004110808295328432
5.80625e-06;-0.0003813490157772207
5.80650e-06;-0.0003494564392765951
5.80675e-06;-0.0003155888859353952
5.80700e-06;-0.00027995231548718486
5.80725e-06;-0.00024275326841460227
5.80750e-06;-0.00020419832616812837
5.80775e-06;-0.00016448230854003605
5.80800e-06;-0.00012376142479454948
5.80825e-06;-8.217592688023836e-05
5.80850e-06;-3.9914885976041905e-05
5.80875e-06;2.78257626380479e-06
5.80900e-06;4.5615546867691474e-05
5.80925e-06;8.846215149641273e-05
5.80950e-06;0.00013074328575453796
5.80975e-06;0.0001728241431382335
5.81000e-06;0.0002140527988180206
5.81025e-06;0.00025420426100805334
5.81050e-06;0.0002931195600837467
5.81075e-06;0.0003305263027114929
5.81100e-06;0.00036614425124766026
5.81125e-06;0.00039969291058600427
5.81150e-06;0.0004308918424843713
5.81175e-06;0.0004594792864949227
5.81200e-06;0.0004852825752008114
5.81225e-06;0.0005082450400643244
5.81250e-06;0.0005283399328808578
5.81275e-06;0.0005455151781426139
5.81300e-06;0.0005597084999316547
5.81325e-06;0.0005708571503895504
5.81350e-06;0.0005788984246415311
5.81375e-06;0.0005837812386561927
5.81400e-06;0.000585510414300522
5.81425e-06;0.0005841634497156344
5.81450e-06;0.0005798365702286775
5.81475e-06;0.0005726100434345642
5.81500e-06;0.0005615488393865647
5.81525e-06;0.0005493962730448403
5.81550e-06;0.0005333201261939325
5.81575e-06;0.0005158543354602374
5.81600e-06;0.0004947899537970004
5.81625e-06;0.00047245103224354516
5.81650e-06;0.0004470034810703033
5.81675e-06;0.00042045492327183513
5.81700e-06;0.00039127348027964524
5.81725e-06;0.00036115952862733445
5.81750e-06;0.0003288847396024057
5.81775e-06;0.00029584463062831397
5.81800e-06;0.00026118065909573737
5.81825e-06;0.00022594155200370686
5.81850e-06;0.00018960460525956622
5.81875e-06;0.00015287882842686021
5.81900e-06;0.00011615305159402981
5.81925e-06;7.924824912782297e-05
5.81950e-06;4.2280039812606345e-05
5.81975e-06;5.677826599002584e-06
5.82000e-06;-3.032513351485425e-05
5.82025e-06;-6.550640747909831e-05
5.82050e-06;-9.961462770541159e-05
5.82075e-06;-0.00013240236818611704
5.82100e-06;-0.00016362378203561322
5.82125e-06;-0.0001930331484111549
5.82150e-06;-0.0002203847816190943
5.82175e-06;-0.0002455699694749904
5.82200e-06;-0.0002689894687126397
5.82225e-06;-0.00029142128099429894
5.82250e-06;-0.00031329956718308653
5.82275e-06;-0.0003342932089717895
5.82300e-06;-0.0003550178865689621
5.82325e-06;-0.0003743171254608012
5.82350e-06;-0.0003931115060548461
5.82375e-06;-0.00041011733891896054
5.82400e-06;-0.00042648970844367287
5.82425e-06;-0.00044286207796838525
5.82450e-06;-0.00045852298004290295
5.82475e-06;-0.0004739318963641756
5.82500e-06;-0.0004893408126854482
5.82525e-06;-0.0005022643340413117
5.82550e-06;-0.0005143075844555442
5.82575e-06;-0.0005263508348697765
5.82600e-06;-0.0005383940852840498
5.82625e-06;-0.0005504373356982822
5.82650e-06;-0.0005624805861125146
5.82675e-06;-0.0005745238365267878
5.82700e-06;-0.0005865670869410202
5.82725e-06;-0.0005986103373552526
5.82750e-06;-0.0006106535877695258
5.82775e-06;-0.0006226968381837582
5.82800e-06;-0.0006347400885980314
5.82825e-06;-0.0006467833390122638
5.82850e-06;-0.0006588265894264963
5.82875e-06;-0.0006708698398407696
5.82900e-06;-0.0006793480474455182
5.82925e-06;-0.0006865635971492057
5.82950e-06;-0.0006937791468529176
5.82975e-06;-0.000700994696556605
5.83000e-06;-0.0007082102462602923
5.83025e-06;-0.0007154257959640042
5.83050e-06;-0.0007226413456676917
5.83075e-06;-0.0007298568953713791
5.83100e-06;-0.000737072445075091
5.83125e-06;-0.0007442879947787784
5.83150e-06;-0.0007515035444824659
5.83175e-06;-0.0007587190941861778
5.83200e-06;-0.0007659346438898652
5.83225e-06;-0.000773150193593577
5.83250e-06;-0.0007803657432972644
5.83275e-06;-0.0007837286864415471
5.83300e-06;-0.0007857271230787768
5.83325e-06;-0.0007877255597159999
5.83350e-06;-0.000789723996353223
5.83375e-06;-0.0007917224329904528
5.83400e-06;-0.0007937208696276758
5.83425e-06;-0.0007957193062648988
5.83450e-06;-0.0007977177429021287
5.83475e-06;-0.0007997161795393517
5.83500e-06;-0.0008017146161765747
5.83525e-06;-0.0008037130528138045
5.83550e-06;-0.0008057114894510275
5.83575e-06;-0.0008069330144919846
5.83600e-06;-0.0008056733541436843
5.83625e-06;-0.0008044136937953884
5.83650e-06;-0.000803154033447088
5.83675e-06;-0.000801894373098792
5.83700e-06;-0.000800634712750496
5.83725e-06;-0.0007993750524021958
5.83750e-06;-0.0007981153920538998
5.83775e-06;-0.0007968557317056038
5.83800e-06;-0.0007955960713573036
5.83825e-06;-0.0007943364110090076
5.83850e-06;-0.0007930767506607116
5.83875e-06;-0.0007918170903124113
5.83900e-06;-0.0007899265484959078
5.83925e-06;-0.0007878125626668525
5.83950e-06;-0.00078569857683779
5.83975e-06;-0.0007835845910087347
5.84000e-06;-0.0007814706051796794
5.84025e-06;-0.0007793566193506168
5.84050e-06;-0.0007772426335215615
5.84075e-06;-0.0007751646987989831
5.84100e-06;-0.0007730995325666671
5.84125e-06;-0.0007710343663343578
5.84150e-06;-0.0007689692001020417
5.84175e-06;-0.0007669040338697325
5.84200e-06;-0.0007648388676374233
5.84225e-06;-0.0007627737014051072
5.84250e-06;-0.0007584144747052156
5.84275e-06;-0.0007532427434356076
5.84300e-06;-0.0007480710121659821
5.84325e-06;-0.0007412861803727611
5.84350e-06;-0.0007339300246910264
5.84375e-06;-0.000726053456261334
5.84400e-06;-0.000716861776739246
5.84425e-06;-0.0007076700972171579
5.84450e-06;-0.0006942912556022251
5.84475e-06;-0.0006800462168840821
5.84500e-06;-0.000665801178165939
5.84525e-06;-0.0006500200224812288
5.84550e-06;-0.0006326290876260247
5.84575e-06;-0.0006152381527707618
5.84600e-06;-0.0005975899256017096
5.84625e-06;-0.000578460468394569
5.84650e-06;-0.0005601477406474655
5.84675e-06;-0.0005378240296618814
5.84700e-06;-0.0005147323358688136
5.84725e-06;-0.0004916660029635298
5.84750e-06;-0.00046839101387532837
5.84775e-06;-0.0004441085821797089
5.84800e-06;-0.00041982615048400724
5.84825e-06;-0.0003955437187883878
5.84850e-06;-0.00037126128709276835
5.84875e-06;-0.0003466767992175437
5.84900e-06;-0.0003219445969260643
5.84925e-06;-0.000297212394634585
5.84950e-06;-0.00027248019234302185
5.84975e-06;-0.0002480286732915412
5.85000e-06;-0.00022493236093015922
5.85025e-06;-0.0002020068878925599
5.85050e-06;-0.00018003761230469905
5.85075e-06;-0.0001588368538466466
5.85100e-06;-0.00013848133319950014
5.85125e-06;-0.00011928322998189916
5.85150e-06;-0.0001013454158582214
5.85175e-06;-8.490034692916441e-05
5.85200e-06;-6.990940081408776e-05
5.85225e-06;-5.577316278648954e-05
5.85250e-06;-4.2257770275130306e-05
5.85275e-06;-2.9342711842586224e-05
5.85300e-06;-1.7069284425245145e-05
5.85325e-06;-5.626227139812406e-06
5.85350e-06;4.9288084247124345e-06
5.85375e-06;1.4457032903630477e-05
5.85400e-06;2.2989453451084352e-05
5.85425e-06;3.090834038328798e-05
5.85450e-06;3.8366967114104246e-05
5.85475e-06;4.538494048279121e-05
5.85500e-06;5.1943162313735403e-05
5.85525e-06;5.7930181384126756e-05
5.85550e-06;6.331666526208575e-05
5.85575e-06;6.802246337711475e-05
5.85600e-06;7.207378001020589e-05
5.85625e-06;7.571685330850973e-05
5.85650e-06;7.905444951105391e-05
5.85675e-06;8.207523371786703e-05
5.85700e-06;8.4718454513884e-05
5.85725e-06;8.72349137476345e-05
5.85750e-06;8.913933744548609e-05
5.85775e-06;9.091663317667256e-05
5.85800e-06;9.208012428280296e-05
5.85825e-06;9.318413928012402e-05
5.85850e-06;9.400098921359832e-05
5.85875e-06;9.475630443233947e-05
5.85900e-06;9.521451513905029e-05
5.85925e-06;9.567272584576266e-05
5.85950e-06;9.604701683906357e-05
5.85975e-06;9.601612312303375e-05
5.86000e-06;9.598522940700382e-05
5.86025e-06;9.593511454530503e-05
5.86050e-06;9.579219533520883e-05
5.86075e-06;9.564927612511215e-05
5.86100e-06;9.551175456559999e-05
5.86125e-06;9.54029707331284e-05
5.86150e-06;9.531124093577128e-05
5.86175e-06;9.528864565912394e-05
5.86200e-06;9.565403006430523e-05
5.86225e-06;9.695612301699953e-05
5.86250e-06;9.948526308571798e-05
5.86275e-06;0.00010324197410176161
5.86300e-06;0.00010816205031698293
5.86325e-06;0.00011416708657542904
5.86350e-06;0.00012119318220103273
5.86375e-06;0.00012920320021506763
5.86400e-06;0.00013832707173593603
5.86425e-06;0.00014883872960225875
5.86450e-06;0.0001608502104741709
5.86475e-06;0.00017429201538343955
5.86500e-06;0.0001890541161738035
5.86525e-06;0.00020501756673912868
5.86550e-06;0.00022215746462643087
5.86575e-06;0.00024053596603522659
5.86600e-06;0.00025928647963108453
5.86625e-06;0.0002798331582011837
5.86650e-06;0.00030072819933408835
5.86675e-06;0.0003233052193245102
5.86700e-06;0.00034618025071550583
5.86725e-06;0.0003704941533531167
5.86750e-06;0.00039480805599072754
5.86775e-06;0.00041937818186834903
5.86800e-06;0.00044518541562848244
5.86825e-06;0.0004709926493886158
5.86850e-06;0.0004967998831488366
5.86875e-06;0.00052260711690897
5.86900e-06;0.0005483150611966068
5.86925e-06;0.0005735436118543222
5.86950e-06;0.0005987721625119522
5.86975e-06;0.0006240007131695821
5.87000e-06;0.0006492292638272975
5.87025e-06;0.0006739930128100047
5.87050e-06;0.0006965125866897433
5.87075e-06;0.0007190321605695583
5.87100e-06;0.0007409264908461373
5.87125e-06;0.000759801993517006
5.87150e-06;0.0007786774961878106
5.87175e-06;0.0007967028408024533
5.87200e-06;0.0008106234163380462
5.87225e-06;0.0008245439918735919
5.87250e-06;0.0008375267086624764
5.87275e-06;0.0008459812161897571
5.87300e-06;0.000854435723717009
5.87325e-06;0.0008619023667250424
5.87350e-06;0.0008645993604858161
5.87375e-06;0.0008672963542465807
5.87400e-06;0.0008690022809348028
5.87425e-06;0.0008659230956724699
5.87450e-06;0.0008628439104101475
5.87475e-06;0.0008589919726717991
5.87500e-06;0.0008514089987501019
5.87525e-06;0.0008431123498065886
5.87550e-06;0.000831369904942385
5.87575e-06;0.0008196274600782213
5.87600e-06;0.00080712890303186
5.87625e-06;0.000790979653172651
5.87650e-06;0.0007748304033134968
5.87675e-06;0.0007580816234911301
5.87700e-06;0.0007384381677472739
5.87725e-06;0.0007187947120034842
5.87750e-06;0.0006986255914240399
5.87775e-06;0.0006759184336556538
5.87800e-06;0.0006532112758873447
5.87825e-06;0.0006305041181190355
5.87850e-06;0.0006077969603506496
5.87875e-06;0.000584917749567367
5.87900e-06;0.0005612078251414371
5.87925e-06;0.000537497900715427
5.87950e-06;0.0005137879762894972
5.87975e-06;0.0004900780518634872
5.88000e-06;0.0004666498762258719
5.88025e-06;0.0004445820520024826
5.88050e-06;0.00042251422777901866
5.88075e-06;0.0004008432471827224
5.88100e-06;0.0003810883237682834
5.88125e-06;0.0003617755724276562
5.88150e-06;0.0003445977349925001
5.88175e-06;0.0003278466744048622
5.88200e-06;0.0003131561958396411
5.88225e-06;0.0002987086627351547
5.88250e-06;0.0002854341291774491
5.88275e-06;0.00027241619104836044
5.88300e-06;0.0002606371578186741
5.88325e-06;0.00024917594138488516
5.88350e-06;0.00023924922144458405
5.88375e-06;0.00022962510533975638
5.88400e-06;0.00022146203386939358
5.88425e-06;0.00021348084878407256
5.88450e-06;0.0002063778552342935
5.88475e-06;0.00019945974546964554
5.88500e-06;0.0001934342994146542
5.88525e-06;0.00018762653252241533
5.88550e-06;0.00018286977336872022
5.88575e-06;0.00017831560026340286
5.88600e-06;0.0001747395616834807
5.88625e-06;0.00017128494464964438
5.88650e-06;0.00016841658025919292
5.88675e-06;0.0001656986131151004
5.88700e-06;0.0001637068003156573
5.88725e-06;0.00016171498751622095
5.88750e-06;0.00015991339872629701
5.88775e-06;0.00015903025754299965
5.88800e-06;0.0001581471163597053
5.88825e-06;0.0001573662055383464
5.88850e-06;0.0001570788876734391
5.88875e-06;0.0001567915698085318
5.88900e-06;0.00015660854232633898
5.88925e-06;0.00015692905408000985
5.88950e-06;0.00015724956583368073
5.88975e-06;0.0001575700775873527
5.89000e-06;0.00015789058934102354
5.89025e-06;0.0001582434100969969
5.89050e-06;0.00015875222654410762
5.89075e-06;0.0001592610429912166
5.89100e-06;0.00015976985943832558
5.89125e-06;0.0001602786758854363
5.89150e-06;0.00016078464698710817
5.89175e-06;0.0001612768800716229
5.89200e-06;0.0001619399325056978
5.89225e-06;0.00016342774214651886
5.89250e-06;0.00016517511964828473
5.89275e-06;0.00016817575367220443
5.89300e-06;0.00017140812255578142
5.89325e-06;0.00017575936348780628
5.89350e-06;0.00018032224384006797
