Time(s);Current(A)
1.75000e-06;0.008593382085237975
1.75025e-06;0.008572368295785934
1.75050e-06;0.008551354506333896
1.75075e-06;0.008530340716881838
1.75100e-06;0.008509326927429799
1.75125e-06;0.008488313137977741
1.75150e-06;0.008467299348525702
1.75175e-06;0.008446285559073646
1.75200e-06;0.008425271769621606
1.75225e-06;0.008404257980169567
1.75250e-06;0.00838324419071751
1.75275e-06;0.008376952483606457
1.75300e-06;0.008379600806807675
1.75325e-06;0.008382249130008892
1.75350e-06;0.008384897453210107
1.75375e-06;0.008387545776411326
1.75400e-06;0.008390194099612542
1.75425e-06;0.00839284242281376
1.75450e-06;0.008395490746014977
1.75475e-06;0.008398139069216192
1.75500e-06;0.008400787392417411
1.75525e-06;0.008403435715618628
1.75550e-06;0.008406084038819846
1.75575e-06;0.008408732362021063
1.75600e-06;0.008424022230590125
1.75625e-06;0.00844698871692034
1.75650e-06;0.008469955203250557
1.75675e-06;0.008492921689580792
1.75700e-06;0.008515888175911007
1.75725e-06;0.008538854662241243
1.75750e-06;0.008561821148571458
1.75775e-06;0.008584787634901675
1.75800e-06;0.008607754121231909
1.75825e-06;0.008630720607562125
1.75850e-06;0.00865368709389236
1.75875e-06;0.008676653580222576
1.75900e-06;0.008699620066552791
1.75925e-06;0.008723376491605582
1.75950e-06;0.00874761260940566
1.75975e-06;0.008771848727205756
1.76000e-06;0.008796084845005834
1.76025e-06;0.00882032096280593
1.76050e-06;0.008844557080606007
1.76075e-06;0.008868793198406085
1.76100e-06;0.008893029316206181
1.76125e-06;0.008917265434006259
1.76150e-06;0.00893577575030433
1.76175e-06;0.008950809055823487
1.76200e-06;0.008965842361342645
1.76225e-06;0.008980875666861813
1.76250e-06;0.008995908972380971
1.76275e-06;0.009010942277900141
1.76300e-06;0.009025975583419298
1.76325e-06;0.009041008888938456
1.76350e-06;0.009056042194457624
1.76375e-06;0.009064589054161257
1.76400e-06;0.009069196999459798
1.76425e-06;0.009073804944758335
1.76450e-06;0.009078412890056873
1.76475e-06;0.009083020835355414
1.76500e-06;0.009087628780653952
1.76525e-06;0.009092236725952493
1.76550e-06;0.00909684467125103
1.76575e-06;0.009101452616549571
1.76600e-06;0.009106060561848109
1.76625e-06;0.009110668507146645
1.76650e-06;0.009115276452445186
1.76675e-06;0.009119884397743723
1.76700e-06;0.009124492343042264
1.76725e-06;0.009129100288340802
1.76750e-06;0.00913370823363934
1.76775e-06;0.00913831617893788
1.76800e-06;0.009142924124236418
1.76825e-06;0.00914753206953496
1.76850e-06;0.009152140014833495
1.76875e-06;0.009156747960132033
1.76900e-06;0.009161355905430574
1.76925e-06;0.009165963850729111
1.76950e-06;0.009170571796027652
1.76975e-06;0.00917517974132619
1.77000e-06;0.009179787686624731
1.77025e-06;0.009184395631923269
1.77050e-06;0.009189003577221806
1.77075e-06;0.009193611522520347
1.77100e-06;0.009198219467818883
1.77125e-06;0.009202827413117424
1.77150e-06;0.009207435358415962
1.77175e-06;0.0092120433037145
1.77200e-06;0.00921665124901304
1.77225e-06;0.009221259194311578
1.77250e-06;0.009225867139610119
1.77275e-06;0.009230475084908657
1.77300e-06;0.009235083030207194
1.77325e-06;0.009239690975505735
1.77350e-06;0.009240667493735963
1.77375e-06;0.009239438816579317
1.77400e-06;0.009238210139422673
1.77425e-06;0.00923698146226603
1.77450e-06;0.009235752785109385
1.77475e-06;0.009234524107952741
1.77500e-06;0.009233295430796096
1.77525e-06;0.009232066753639452
1.77550e-06;0.009230838076482806
1.77575e-06;0.009229609399326162
1.77600e-06;0.009228380722169518
1.77625e-06;0.009227152045012874
1.77650e-06;0.00922592336785623
1.77675e-06;0.009224694690699585
1.77700e-06;0.00922346601354294
1.77725e-06;0.009222237336386297
1.77750e-06;0.009221008659229651
1.77775e-06;0.009219779982073007
1.77800e-06;0.009218551304916363
1.77825e-06;0.00921732262775972
1.77850e-06;0.009216093950603074
1.77875e-06;0.00921486527344643
1.77900e-06;0.009213636596289786
1.77925e-06;0.00921240791913314
1.77950e-06;0.009211179241976496
1.77975e-06;0.009209950564819852
1.78000e-06;0.009208721887663208
1.78025e-06;0.009207493210506564
1.78050e-06;0.009206264533349919
1.78075e-06;0.009205035856193275
1.78100e-06;0.009203807179036629
1.78125e-06;0.009202578501879985
1.78150e-06;0.009201349824723341
1.78175e-06;0.009200121147566697
1.78200e-06;0.009198892470410053
1.78225e-06;0.009197663793253407
1.78250e-06;0.009196435116096763
1.78275e-06;0.00919520643894012
1.78300e-06;0.009193977761783474
1.78325e-06;0.00919345965357765
1.78350e-06;0.00919337304057821
1.78375e-06;0.009193286427578771
1.78400e-06;0.009193199814579332
1.78425e-06;0.009194631785117102
1.78450e-06;0.009196985920233042
1.78475e-06;0.009199340055348986
1.78500e-06;0.009201694190464927
1.78525e-06;0.00920404832558087
1.78550e-06;0.009206402460696811
1.78575e-06;0.009208756595812754
1.78600e-06;0.009211110730928696
1.78625e-06;0.009213464866044638
1.78650e-06;0.00921581900116058
1.78675e-06;0.009218173136276523
1.78700e-06;0.009220527271392467
1.78725e-06;0.009222881406508407
1.78750e-06;0.009225235541624348
1.78775e-06;0.009227589676740292
1.78800e-06;0.009230554320218326
1.78825e-06;0.009233889696798885
1.78850e-06;0.009237225073379441
1.78875e-06;0.009240560449959998
1.78900e-06;0.009243895826540557
1.78925e-06;0.009247231203121114
1.78950e-06;0.009250566579701672
1.78975e-06;0.009253901956282229
1.79000e-06;0.009257237332862784
1.79025e-06;0.009260572709443343
1.79050e-06;0.0092639080860239
1.79075e-06;0.009267243462604458
1.79100e-06;0.009270578839185015
1.79125e-06;0.009273914215765573
1.79150e-06;0.00927724959234613
1.79175e-06;0.009273583669537507
1.79200e-06;0.009265666185889837
1.79225e-06;0.009257748702242172
1.79250e-06;0.009249831218594502
1.79275e-06;0.009241913734946837
1.79300e-06;0.009233996251299172
1.79325e-06;0.009226078767651502
1.79350e-06;0.009218161284003837
1.79375e-06;0.009210243800356167
1.79400e-06;0.009187497036143877
1.79425e-06;0.009155745145166655
1.79450e-06;0.009123993254189404
1.79475e-06;0.00909224136321218
1.79500e-06;0.00906048947223493
1.79525e-06;0.009028737581257705
1.79550e-06;0.008996985690280455
1.79575e-06;0.00896523379930323
1.79600e-06;0.008933481908326008
1.79625e-06;0.008889188239235294
1.79650e-06;0.00883727853636093
1.79675e-06;0.008785368833486523
1.79700e-06;0.00873345913061216
1.79725e-06;0.008681549427737797
1.79750e-06;0.00862963972486339
1.79775e-06;0.008577730021989027
1.79800e-06;0.00852582031911462
1.79825e-06;0.008473910616240256
1.79850e-06;0.008422000913365892
1.79875e-06;0.00837013839481554
1.79900e-06;0.00831861488036878
1.79925e-06;0.008267091365921976
1.79950e-06;0.008215567851475215
1.79975e-06;0.008164044337028413
1.80000e-06;0.008112520822581652
1.80025e-06;0.008060997308134891
1.80050e-06;0.008009473793688087
1.80075e-06;0.007957950279241328
1.80100e-06;0.007906426764794524
1.80125e-06;0.007854903250347763
1.80150e-06;0.007821294037820168
1.80175e-06;0.007798563340873766
1.80200e-06;0.007775832643927384
1.80225e-06;0.0077531019469809824
1.80250e-06;0.0077303712500345996
1.80275e-06;0.0077076405530882176
1.80300e-06;0.007684909856141816
1.80325e-06;0.007662179159195433
1.80350e-06;0.007639448462249032
1.80375e-06;0.007616717765302649
1.80400e-06;0.007593987068356266
1.80425e-06;0.007571256371409865
1.80450e-06;0.007548525674463482
1.80475e-06;0.00752579497751708
1.80500e-06;0.007503064280570698
1.80525e-06;0.007496701631896364
1.80550e-06;0.007500278531464603
1.80575e-06;0.007503855431032843
1.80600e-06;0.007507432330601086
1.80625e-06;0.007511009230169326
1.80650e-06;0.007514586129737569
1.80675e-06;0.007518163029305809
1.80700e-06;0.007521739928874048
1.80725e-06;0.007525316828442291
1.80750e-06;0.007528893728010531
1.80775e-06;0.007532470627578774
1.80800e-06;0.007536047527147014
1.80825e-06;0.007539624426715254
1.80850e-06;0.007543201326283497
1.80875e-06;0.007546778225851736
1.80900e-06;0.007554397238808017
1.80925e-06;0.0075644708376962026
1.80950e-06;0.007574544436584396
1.80975e-06;0.007584618035472581
1.81000e-06;0.007594691634360767
1.81025e-06;0.00760476523324896
1.81050e-06;0.007614838832137146
1.81075e-06;0.00762491243102534
1.81100e-06;0.007634986029913525
1.81125e-06;0.007644327236382771
1.81150e-06;0.007653223695276793
1.81175e-06;0.007662120154170808
1.81200e-06;0.00767101661306483
1.81225e-06;0.007679913071958844
1.81250e-06;0.007688809530852859
1.81275e-06;0.00769770598974688
1.81300e-06;0.007706602448640894
1.81325e-06;0.0077154989075349165
1.81350e-06;0.007729649088362604
1.81375e-06;0.007746989608181385
1.81400e-06;0.007764330128000152
1.81425e-06;0.007781670647818918
1.81450e-06;0.0077990111676377
1.81475e-06;0.007816351687456468
1.81500e-06;0.007833692207275249
1.81525e-06;0.007851032727094016
1.81550e-06;0.007868373246912782
1.81575e-06;0.007885713766731564
1.81600e-06;0.00790305428655033
1.81625e-06;0.007920394806369113
1.81650e-06;0.007937735326187878
1.81675e-06;0.007955075846006646
1.81700e-06;0.00797318659668366
1.81725e-06;0.007996831206895426
1.81750e-06;0.008020475817107211
1.81775e-06;0.008044120427318977
1.81800e-06;0.008067765037530764
1.81825e-06;0.00809140964774253
1.81850e-06;0.008115054257954297
1.81875e-06;0.008138698868166084
1.81900e-06;0.00816234347837785
1.81925e-06;0.008185988088589636
1.81950e-06;0.008209632698801402
1.81975e-06;0.008233277309013168
1.82000e-06;0.008256921919224955
1.82025e-06;0.008280566529436722
1.82050e-06;0.008304211139648507
1.82075e-06;0.008320834298175357
1.82100e-06;0.008333193658319608
1.82125e-06;0.00834555301846387
1.82150e-06;0.008357912378608121
1.82175e-06;0.008370271738752382
1.82200e-06;0.008382631098896634
1.82225e-06;0.008394990459040895
1.82250e-06;0.008407349819185147
1.82275e-06;0.0084197091793294
1.82300e-06;0.008432068539473661
1.82325e-06;0.008441644967317455
1.82350e-06;0.008431226926905634
1.82375e-06;0.00842080888649382
1.82400e-06;0.008410390846082007
1.82425e-06;0.008399972805670185
1.82450e-06;0.008389554765258371
1.82475e-06;0.00837913672484655
1.82500e-06;0.008368718684434735
1.82525e-06;0.008358300644022923
1.82550e-06;0.008347882603611101
1.82575e-06;0.008337464563199287
1.82600e-06;0.008314958004022429
1.82625e-06;0.008285110654212866
1.82650e-06;0.008255263304403277
1.82675e-06;0.008225415954593716
1.82700e-06;0.008195568604784154
1.82725e-06;0.008165721254974565
1.82750e-06;0.008135873905165002
1.82775e-06;0.008106026555355415
1.82800e-06;0.008076179205545852
1.82825e-06;0.00804633185573629
1.82850e-06;0.008016484505926702
1.82875e-06;0.007986441261685163
1.82900e-06;0.007954990579324943
1.82925e-06;0.00792353989696475
1.82950e-06;0.007892089214604554
1.82975e-06;0.007860638532244333
1.83000e-06;0.00782918784988414
1.83025e-06;0.007797737167523919
1.83050e-06;0.007766286485163725
1.83075e-06;0.007734835802803504
1.83100e-06;0.00770338512044331
1.83125e-06;0.007671934438083116
1.83150e-06;0.007640483755722895
1.83175e-06;0.007622073254626047
1.83200e-06;0.007611581444174782
1.83225e-06;0.007601089633723525
1.83250e-06;0.007590597823272269
1.83275e-06;0.0075801060128210035
1.83300e-06;0.007569614202369747
1.83325e-06;0.007559122391918482
1.83350e-06;0.007548630581467226
1.83375e-06;0.00754403286598989
1.83400e-06;0.007562617571840082
1.83425e-06;0.007581202277690258
1.83450e-06;0.007599786983540451
1.83475e-06;0.007618371689390628
1.83500e-06;0.0076369563952408195
1.83525e-06;0.007655541101090996
1.83550e-06;0.007674125806941173
1.83575e-06;0.007692710512791365
1.83600e-06;0.0077311427089826155
1.83625e-06;0.007775067653457946
1.83650e-06;0.00781899259793324
1.83675e-06;0.007862917542408532
1.83700e-06;0.007906842486883862
1.83725e-06;0.007950767431359156
1.83750e-06;0.007994692375834486
1.83775e-06;0.00803861732030978
1.83800e-06;0.008082542264785072
1.83825e-06;0.008126467209260402
1.83850e-06;0.008175451649588729
1.83875e-06;0.008225836294007726
1.83900e-06;0.008276220938426681
1.83925e-06;0.008326605582845679
1.83950e-06;0.008376990227264633
1.83975e-06;0.008427374871683588
1.84000e-06;0.008477759516102586
1.84025e-06;0.00852814416052154
1.84050e-06;0.008578528804940538
1.84075e-06;0.008628913449359493
1.84100e-06;0.008663926797946886
1.84125e-06;0.008694686175007025
1.84150e-06;0.008725445552067137
1.84175e-06;0.008756204929127275
1.84200e-06;0.008786964306187387
1.84225e-06;0.0088177236832475
1.84250e-06;0.008848483060307638
1.84275e-06;0.00887924243736775
1.84300e-06;0.008910001814427889
1.84325e-06;0.008940761191488001
1.84350e-06;0.008971520568548113
1.84375e-06;0.009002279945608252
1.84400e-06;0.009033039322668364
1.84425e-06;0.009060458813070363
1.84450e-06;0.00907942647355927
1.84475e-06;0.009098394134048192
1.84500e-06;0.009117361794537098
1.84525e-06;0.009136329455026005
1.84550e-06;0.009155297115514927
1.84575e-06;0.009174264776003834
1.84600e-06;0.009193232436492756
1.84625e-06;0.009212200096981663
1.84650e-06;0.009231167757470569
1.84675e-06;0.009250135417959491
1.84700e-06;0.009269103078448398
1.84725e-06;0.00928807073893732
1.84750e-06;0.009307038399426227
1.84775e-06;0.009322653670492587
1.84800e-06;0.009337341175331094
1.84825e-06;0.009352028680169587
1.84850e-06;0.009366716185008095
1.84875e-06;0.009381403689846588
1.84900e-06;0.009396091194685095
1.84925e-06;0.009410778699523588
1.84950e-06;0.009425466204362083
1.84975e-06;0.009438913751024913
1.85000e-06;0.009449223491925906
1.85025e-06;0.00945953323282691
1.85050e-06;0.009469842973727903
1.85075e-06;0.009480152714628896
1.85100e-06;0.009490462455529898
1.85125e-06;0.009500772196430893
1.85150e-06;0.009511081937331895
1.85175e-06;0.009521391678232889
1.85200e-06;0.009517734331848594
1.85225e-06;0.009510211625492274
1.85250e-06;0.00950268891913596
1.85275e-06;0.00949516621277964
1.85300e-06;0.009487643506423327
1.85325e-06;0.009480120800067007
1.85350e-06;0.009472598093710694
1.85375e-06;0.00946507538735438
1.85400e-06;0.00945755268099806
1.85425e-06;0.009426553301794122
1.85450e-06;0.009389056806216066
1.85475e-06;0.009351560310638041
1.85500e-06;0.009314063815060019
1.85525e-06;0.009276567319481961
1.85550e-06;0.009239070823903938
1.85575e-06;0.009201574328325883
1.85600e-06;0.009164077832747858
1.85625e-06;0.009126581337169834
1.85650e-06;0.009070907154914293
1.85675e-06;0.009010202338781508
1.85700e-06;0.008949497522648673
1.85725e-06;0.008888792706515889
1.85750e-06;0.008828087890383054
1.85775e-06;0.00876738307425027
1.85800e-06;0.008706678258117486
1.85825e-06;0.008645973441984652
1.85850e-06;0.008585268625851867
1.85875e-06;0.008524563809719032
1.85900e-06;0.008464468229525523
1.85925e-06;0.008404541254007058
1.85950e-06;0.008344614278488541
1.85975e-06;0.008284687302970077
1.86000e-06;0.00822476032745156
1.86025e-06;0.008164833351933095
1.86050e-06;0.00810490637641463
1.86075e-06;0.008044979400896116
1.86100e-06;0.00798505242537765
1.86125e-06;0.007925125449859134
1.86150e-06;0.007889231482412684
1.86175e-06;0.007859988595861164
1.86200e-06;0.007830745709309668
1.86225e-06;0.0078015028227581724
1.86250e-06;0.007772259936206651
1.86275e-06;0.0077430170496551555
1.86300e-06;0.007713774163103634
1.86325e-06;0.0076845312765521385
1.86350e-06;0.007655288390000642
1.86375e-06;0.0076260455034491215
1.86400e-06;0.007596802616897625
1.86425e-06;0.0075675597303461045
1.86450e-06;0.007538316843794608
1.86475e-06;0.007509073957243112
1.86500e-06;0.007487271180381175
1.86525e-06;0.007484296150702994
1.86550e-06;0.007481321121024812
1.86575e-06;0.007478346091346631
1.86600e-06;0.007475371061668449
1.86625e-06;0.007472396031990268
1.86650e-06;0.007469421002312088
1.86675e-06;0.007466445972633905
1.86700e-06;0.0074634709429557255
1.86725e-06;0.007460495913277542
1.86750e-06;0.0074575208835993625
1.86775e-06;0.007454545853921182
1.86800e-06;0.007451570824243
1.86825e-06;0.007448595794564819
1.86850e-06;0.007445620764886637
1.86875e-06;0.007448787165329108
1.86900e-06;0.007453653192735392
1.86925e-06;0.00745851922014168
1.86950e-06;0.007463385247547964
1.86975e-06;0.007468251274954252
1.87000e-06;0.0074731173023605355
1.87025e-06;0.007477983329766824
1.87050e-06;0.007482849357173107
1.87075e-06;0.007487715384579391
1.87100e-06;0.007492581411985679
1.87125e-06;0.007497447439391963
1.87150e-06;0.00750231346679825
1.87175e-06;0.007507179494204534
1.87200e-06;0.007512045521610818
1.87225e-06;0.007516276250901364
1.87250e-06;0.007520331162868198
1.87275e-06;0.007524386074835037
1.87300e-06;0.007528440986801871
1.87325e-06;0.0075324958987687055
1.87350e-06;0.007536550810735544
1.87375e-06;0.0075406057227023785
1.87400e-06;0.007544660634669217
1.87425e-06;0.007548715546636052
1.87450e-06;0.0075527704586028895
1.87475e-06;0.007556825370569725
1.87500e-06;0.007560880282536559
1.87525e-06;0.007564935194503398
1.87550e-06;0.007568990106470232
1.87575e-06;0.007573902862229001
1.87600e-06;0.007579053024326482
1.87625e-06;0.0075842031864239625
1.87650e-06;0.007589353348521448
1.87675e-06;0.007594503510618928
1.87700e-06;0.007599653672716413
1.87725e-06;0.007604803834813894
1.87750e-06;0.007609953996911374
1.87775e-06;0.007615104159008859
1.87800e-06;0.007620254321106339
1.87825e-06;0.007625404483203825
1.87850e-06;0.007630554645301305
1.87875e-06;0.007635704807398786
1.87900e-06;0.0076408549694962705
1.87925e-06;0.0076460051315937515
1.87950e-06;0.007651155293691236
1.87975e-06;0.007656305455788716
1.88000e-06;0.007661455617886202
1.88025e-06;0.007665716865131052
1.88050e-06;0.0076697321071910775
1.88075e-06;0.007673747349251106
1.88100e-06;0.007677762591311132
1.88125e-06;0.007681777833371161
1.88150e-06;0.007685793075431186
1.88175e-06;0.007689808317491212
1.88200e-06;0.007693823559551241
1.88225e-06;0.007697838801611266
1.88250e-06;0.007701854043671295
1.88275e-06;0.007705869285731321
1.88300e-06;0.007709884527791346
1.88325e-06;0.007713899769851375
1.88350e-06;0.007717915011911401
1.88375e-06;0.00772193025397143
1.88400e-06;0.007725945496031455
1.88425e-06;0.007729960738091484
1.88450e-06;0.00773397598015151
1.88475e-06;0.007740628174357089
1.88500e-06;0.007748010139134062
1.88525e-06;0.007755392103911029
1.88550e-06;0.007762774068688002
1.88575e-06;0.007770156033464969
1.88600e-06;0.007777537998241936
1.88625e-06;0.007784919963018909
1.88650e-06;0.007792301927795876
1.88675e-06;0.007799683892572849
1.88700e-06;0.007807065857349816
1.88725e-06;0.007814447822126782
1.88750e-06;0.007821829786903756
1.88775e-06;0.007829211751680722
1.88800e-06;0.007836593716457696
1.88825e-06;0.007843975681234662
1.88850e-06;0.007851357646011636
1.88875e-06;0.007858739610788602
1.88900e-06;0.00786612157556557
1.88925e-06;0.007872503470607379
1.88950e-06;0.007876354615307815
1.88975e-06;0.007880205760008255
1.89000e-06;0.007884056904708692
1.89025e-06;0.00788790804940913
1.89050e-06;0.00789175919410957
1.89075e-06;0.007895610338810007
1.89100e-06;0.007899461483510447
1.89125e-06;0.007903312628210885
1.89150e-06;0.007907163772911322
1.89175e-06;0.007911014917611762
1.89200e-06;0.007914866062312198
1.89225e-06;0.00791871720701264
1.89250e-06;0.007922568351713077
1.89275e-06;0.007926419496413517
1.89300e-06;0.007930270641113953
1.89325e-06;0.007934121785814392
1.89350e-06;0.007937972930514832
1.89375e-06;0.007941824075215268
1.89400e-06;0.007934290425922622
1.89425e-06;0.00792360606051599
1.89450e-06;0.007912921695109357
1.89475e-06;0.007902237329702716
1.89500e-06;0.007891552964296084
1.89525e-06;0.007880868598889442
1.89550e-06;0.00787018423348281
1.89575e-06;0.007859499868076178
1.89600e-06;0.007848815502669537
1.89625e-06;0.007838131137262904
1.89650e-06;0.007827446771856261
1.89675e-06;0.007816762406449629
1.89700e-06;0.007806078041042988
1.89725e-06;0.007795393675636355
1.89750e-06;0.007784709310229723
1.89775e-06;0.007774024944823082
1.89800e-06;0.007759770358883501
1.89825e-06;0.007744527722446892
1.89850e-06;0.007729285086010296
1.89875e-06;0.007714042449573699
1.89900e-06;0.00769879981313709
1.89925e-06;0.007683557176700493
1.89950e-06;0.007668314540263884
1.89975e-06;0.007653071903827287
1.90000e-06;0.007637829267390691
1.90025e-06;0.007622586630954081
1.90050e-06;0.007607343994517485
1.90075e-06;0.007592101358080875
1.90100e-06;0.007576858721644279
1.90125e-06;0.007561616085207669
1.90150e-06;0.007546373448771073
