Time(s);Current(A)
3.30000e-06;0.003037636149382723
3.30025e-06;0.0030196988765956185
3.30050e-06;0.0030017616038085448
3.30075e-06;0.0029967523954309403
3.30100e-06;0.002998444142887731
3.30125e-06;0.0030001358903445218
3.30150e-06;0.003014225326372375
3.30175e-06;0.0030347408104868744
3.30200e-06;0.003055256294601374
3.30225e-06;0.0030871050352841694
3.30250e-06;0.0031248281009485404
3.30275e-06;0.0031625511666129114
3.30300e-06;0.0032102862007723247
3.30325e-06;0.003263210701550553
3.30350e-06;0.0033161352023288702
3.30375e-06;0.003380475825985298
3.30400e-06;0.003450733726411209
3.30425e-06;0.0035209916268372395
3.30450e-06;0.0035912495272632694
3.30475e-06;0.0036615074276891806
3.30500e-06;0.003731765328115211
3.30525e-06;0.0038035503950757067
3.30550e-06;0.003883436129177597
3.30575e-06;0.003963321863279352
3.30600e-06;0.004043207597381243
3.30625e-06;0.004123093331483132
3.30650e-06;0.004202979065584887
3.30675e-06;0.004282864799686778
3.30700e-06;0.0043538071327480134
3.30725e-06;0.004420113865808642
3.30750e-06;0.004486420598869157
3.30775e-06;0.004552727331929785
3.30800e-06;0.004619034064990413
3.30825e-06;0.00468534079805093
3.30850e-06;0.004751647531111558
3.30875e-06;0.004817954264172186
3.30900e-06;0.004865633028260397
3.30925e-06;0.004903656426052528
3.30950e-06;0.004941679823844658
3.30975e-06;0.004979703221636789
3.31000e-06;0.0050177266194288556
3.31025e-06;0.005055750017220986
3.31050e-06;0.005093773415013117
3.31075e-06;0.005131796812805183
3.31100e-06;0.005152242142897075
3.31125e-06;0.005163576298137862
3.31150e-06;0.005174910453378649
3.31175e-06;0.0051862446086194175
3.31200e-06;0.005197578763860204
3.31225e-06;0.005208912919100991
3.31250e-06;0.005220247074341759
3.31275e-06;0.005231581229582546
3.31300e-06;0.005242915384823333
3.31325e-06;0.005254249540064101
3.31350e-06;0.005265583695304888
3.31375e-06;0.0052740600009254365
3.31400e-06;0.0052673771945605675
3.31425e-06;0.005260694388195709
3.31450e-06;0.00525401158183084
3.31475e-06;0.00524732877546597
3.31500e-06;0.005240645969101112
3.31525e-06;0.005233963162736242
3.31550e-06;0.005227280356371373
3.31575e-06;0.0052205975500065034
3.31600e-06;0.005213914743641646
3.31625e-06;0.005207231937276776
3.31650e-06;0.005200549130911907
3.31675e-06;0.005191842007574103
3.31700e-06;0.00518208562750286
3.31725e-06;0.0051723292474316175
3.31750e-06;0.005162572867360392
3.31775e-06;0.005152816487289149
3.31800e-06;0.005143060107217906
3.31825e-06;0.005133303727146664
3.31850e-06;0.005123547347075438
3.31875e-06;0.005113790967004195
3.31900e-06;0.00509883343466837
3.31925e-06;0.0050811800083059916
3.31950e-06;0.005063526581943583
3.31975e-06;0.005045873155581175
3.32000e-06;0.0050282197292187665
3.32025e-06;0.005010566302856388
3.32050e-06;0.004992912876493979
3.32075e-06;0.004975259450131571
3.32100e-06;0.004957606023769192
3.32125e-06;0.004931549476514674
3.32150e-06;0.00490113737067125
3.32175e-06;0.004862120169019673
3.32200e-06;0.004818642719867469
3.32225e-06;0.004775165270715264
3.32250e-06;0.00473168782156306
3.32275e-06;0.004688210372410928
3.32300e-06;0.004644732923258723
3.32325e-06;0.004601255474106519
3.32350e-06;0.004557778024954388
3.32375e-06;0.0045143005758021834
3.32400e-06;0.004462287019911783
3.32425e-06;0.004405848975370372
3.32450e-06;0.004349410930829055
3.32475e-06;0.004292972886287643
3.32500e-06;0.004236534841746231
3.32525e-06;0.004180096797204914
3.32550e-06;0.004123658752663503
3.32575e-06;0.004067220708122091
3.32600e-06;0.004010782663580775
3.32625e-06;0.0039577160871156316
3.32650e-06;0.003906397031235523
3.32675e-06;0.003855077975355413
3.32700e-06;0.0038037589194753903
3.32725e-06;0.003752439863595281
3.32750e-06;0.0037011208077151712
3.32775e-06;0.0036498017518351487
3.32800e-06;0.0035984826959550393
3.32825e-06;0.00354716364007493
3.32850e-06;0.0035093228232315277
3.32875e-06;0.0034784681322046406
3.32900e-06;0.0034476134411777016
3.32925e-06;0.0034167587501507625
3.32950e-06;0.0033859040591238754
3.32975e-06;0.003355049368096936
3.33000e-06;0.003324194677069997
3.33025e-06;0.0032933399860431097
3.33050e-06;0.00326248529501617
3.33075e-06;0.0032447624354590416
3.33100e-06;0.0032338461495649046
3.33125e-06;0.0032229298636707857
3.33150e-06;0.0032120135777766487
3.33175e-06;0.0032010972918825116
3.33200e-06;0.0031901810059883928
3.33225e-06;0.0031792647200942557
3.33250e-06;0.0031683484342001187
3.33275e-06;0.003157432148305981
3.33300e-06;0.0031465158624118627
3.33325e-06;0.0031355995765177253
3.33350e-06;0.003133237287834164
3.33375e-06;0.0031353087609043277
3.33400e-06;0.0031373802339744947
3.33425e-06;0.0031394517070446617
3.33450e-06;0.003141523180114825
3.33475e-06;0.003143594653184992
3.33500e-06;0.003145666126255159
3.33525e-06;0.003147737599325326
3.33550e-06;0.0031498090723954897
3.33575e-06;0.0031518805454656567
3.33600e-06;0.0031539520185358233
3.33625e-06;0.003158181953477869
3.33650e-06;0.0031635306759830875
3.33675e-06;0.0031688793984883056
3.33700e-06;0.003174228120993524
3.33725e-06;0.0031795768434987335
3.33750e-06;0.0031849255660039515
3.33775e-06;0.00319027428850917
3.33800e-06;0.0031956230110143794
3.33825e-06;0.0032013569647203572
3.33850e-06;0.00320913432997361
3.33875e-06;0.00321691169522685
3.33900e-06;0.0032246890604801025
3.33925e-06;0.0032324664257333555
3.33950e-06;0.0032402437909866085
3.33975e-06;0.003248021156239848
3.34000e-06;0.003255798521493101
3.34025e-06;0.003263575886746354
3.34050e-06;0.003280957217947771
3.34075e-06;0.0033033165373176727
3.34100e-06;0.003325675856687574
3.34125e-06;0.003348035176057475
3.34150e-06;0.0033703944954273386
3.34175e-06;0.0033927538147972397
3.34200e-06;0.0034151131341671414
3.34225e-06;0.003437472453537005
3.34250e-06;0.003459831772906906
3.34275e-06;0.0034821910922768072
3.34300e-06;0.0035045504116466707
3.34325e-06;0.003536264603363802
3.34350e-06;0.003572827671484119
3.34375e-06;0.003609390739604436
3.34400e-06;0.003645953807724691
3.34425e-06;0.003682516875845008
3.34450e-06;0.0037190799439653253
3.34475e-06;0.0037556430120855803
3.34500e-06;0.0037922060802058973
3.34525e-06;0.0038287691483262143
3.34550e-06;0.0038653322164465312
3.34575e-06;0.003901895284566786
3.34600e-06;0.003936826504597552
3.34625e-06;0.0039709118948402155
3.34650e-06;0.004004997285082822
3.34675e-06;0.004039082675325484
3.34700e-06;0.0040731680655681475
3.34725e-06;0.004107253455810754
3.34750e-06;0.004141338846053417
3.34775e-06;0.00417542423629608
3.34800e-06;0.004209509626538743
3.34825e-06;0.004243595016781349
3.34850e-06;0.0042776804070240124
3.34875e-06;0.004301370270981457
3.34900e-06;0.004319671860226573
3.34925e-06;0.004337973449471719
3.34950e-06;0.0043562750387168645
3.34975e-06;0.00437457662796201
3.35000e-06;0.004392878217207126
3.35025e-06;0.004411179806452272
3.35050e-06;0.004429481395697417
3.35075e-06;0.004447782984942533
3.35100e-06;0.004466084574187679
3.35125e-06;0.0044843861634328245
3.35150e-06;0.0044948185758381465
3.35175e-06;0.004501172186900461
3.35200e-06;0.004507525797962775
3.35225e-06;0.004513879409025089
3.35250e-06;0.004520233020087392
3.35275e-06;0.004526586631149706
3.35300e-06;0.0045329402422120205
3.35325e-06;0.004539293853274323
3.35350e-06;0.004545647464336638
3.35375e-06;0.004552001075398952
3.35400e-06;0.004558354686461266
3.35425e-06;0.004564708297523569
3.35450e-06;0.004571061908585883
3.35475e-06;0.004577415519648197
3.35500e-06;0.00458283153707625
3.35525e-06;0.004583274204330336
3.35550e-06;0.004583716871584422
3.35575e-06;0.004584159538838508
3.35600e-06;0.004584602206092594
3.35625e-06;0.00458504487334668
3.35650e-06;0.0045854875406007665
3.35675e-06;0.004585930207854852
3.35700e-06;0.004586372875108938
3.35725e-06;0.0045868155423630244
3.35750e-06;0.00458725820961711
3.35775e-06;0.004587700876871196
3.35800e-06;0.004588143544125282
3.35825e-06;0.004588586211379368
3.35850e-06;0.004589028878633454
3.35875e-06;0.004580381852873042
3.35900e-06;0.004567023400132203
3.35925e-06;0.0045536649473913865
3.35950e-06;0.004540306494650548
3.35975e-06;0.0045269480419097095
3.36000e-06;0.004513589589168893
3.36025e-06;0.004500231136428054
3.36050e-06;0.004486872683687215
3.36075e-06;0.004468359311488747
3.36100e-06;0.0044225023027231036
3.36125e-06;0.004376645293957382
3.36150e-06;0.004330788285191661
3.36175e-06;0.004284931276426018
3.36200e-06;0.004239074267660297
3.36225e-06;0.004193217258894576
3.36250e-06;0.004147360250128855
3.36275e-06;0.004101503241363212
3.36300e-06;0.0040381470824316455
3.36325e-06;0.00396572065367936
3.36350e-06;0.0038932942249271956
3.36375e-06;0.0038208677961749098
3.36400e-06;0.0037484413674226235
3.36425e-06;0.00367601493867046
3.36450e-06;0.003603588509918174
3.36475e-06;0.003524037978150978
3.36500e-06;0.0034407948364019027
3.36525e-06;0.0033575516946529682
3.36550e-06;0.0032743085529038925
3.36575e-06;0.003191065411154817
3.36600e-06;0.0031078222694058827
3.36625e-06;0.0030245791276568073
3.36650e-06;0.0029454556870964297
3.36675e-06;0.0028684675960249833
3.36700e-06;0.002791479504953667
3.36725e-06;0.00271449141388222
3.36750e-06;0.002637503322810773
3.36775e-06;0.0025605152317394572
3.36800e-06;0.0024966158359612067
3.36825e-06;0.0024395006552328704
3.36850e-06;0.0023823854745046312
3.36875e-06;0.002325270293776295
3.36900e-06;0.002268155113047959
3.36925e-06;0.0022110399323196227
3.36950e-06;0.0021634196598694323
3.36975e-06;0.0021207208481297444
3.37000e-06;0.0020780220363900564
3.37025e-06;0.002035323224650441
3.37050e-06;0.001992624412910753
3.37075e-06;0.0019499256011710649
3.37100e-06;0.001907226789431377
3.37125e-06;0.0018659422924726266
3.37150e-06;0.0018321598544080153
3.37175e-06;0.0017983774163434043
3.37200e-06;0.0017645949782788505
3.37225e-06;0.0017308125402142392
3.37250e-06;0.0016970301021496281
3.37275e-06;0.0016632476640850743
3.37300e-06;0.0016294652260204633
3.37325e-06;0.0015991276882674564
3.37350e-06;0.001570575732959221
3.37375e-06;0.001542023777651034
3.37400e-06;0.0015134718223427988
3.37425e-06;0.0014849198670345634
3.37450e-06;0.0014563679117263765
3.37475e-06;0.0014278159564181413
3.37500e-06;0.001399264001109906
3.37525e-06;0.0013707120458016707
3.37550e-06;0.0013421600904934838
3.37575e-06;0.0013147304860822596
3.37600e-06;0.0012932542540346694
3.37625e-06;0.0012717780219871156
3.37650e-06;0.0012503017899395254
3.37675e-06;0.0012288255578919354
3.37700e-06;0.0012073493258443816
3.37725e-06;0.0011858730937967913
3.37750e-06;0.0011643968617492011
3.37775e-06;0.0011429206297016111
3.37800e-06;0.0011214443976540573
3.37825e-06;0.0010999681656064671
3.37850e-06;0.0010851982940388932
3.37875e-06;0.0010739045055096867
3.37900e-06;0.001062610716980461
3.37925e-06;0.0010513169284512354
3.37950e-06;0.0010400231399220288
3.37975e-06;0.0010287293513928032
3.38000e-06;0.0010174355628635775
3.38025e-06;0.001006141774334352
3.38050e-06;0.0009948479858051453
3.38075e-06;0.0009835541972759198
3.38100e-06;0.0009735766056243731
3.38125e-06;0.0009705806185120545
3.38150e-06;0.0009675846313997307
3.38175e-06;0.0009645886442874071
3.38200e-06;0.0009615926571750834
3.38225e-06;0.0009585966700627647
3.38250e-06;0.0009556006829504411
3.38275e-06;0.0009526046958381174
3.38300e-06;0.0009496087087257989
3.38325e-06;0.0009466127216134751
3.38350e-06;0.0009436167345011514
3.38375e-06;0.0009437871242882477
3.38400e-06;0.0009455987305095414
3.38425e-06;0.0009474103367308349
3.38450e-06;0.0009492219429521286
3.38475e-06;0.0009510335491734192
3.38500e-06;0.0009528451553947128
3.38525e-06;0.0009546567616160064
3.38550e-06;0.000956468367837297
3.38575e-06;0.0009582799740585907
3.38600e-06;0.0009602866694388769
3.38625e-06;0.0009633281912810275
3.38650e-06;0.0009663697131231729
3.38675e-06;0.0009694112349653236
3.38700e-06;0.0009724527568074741
3.38725e-06;0.0009754942786496195
3.38750e-06;0.00097853580049177
3.38775e-06;0.0009815773223339206
3.38800e-06;0.0009846188441760661
3.38825e-06;0.0009876603660182166
3.38850e-06;0.000991699725874308
3.38875e-06;0.0009962562914198072
3.38900e-06;0.0010008128569652986
3.38925e-06;0.0010053694225107981
3.38950e-06;0.0010099259880562974
3.38975e-06;0.0010206430969399015
3.39000e-06;0.001034553377480487
3.39025e-06;0.0010484636580210727
3.39050e-06;0.001062373938561658
3.39075e-06;0.0010762842191022201
3.39100e-06;0.0010951055953784213
3.39125e-06;0.0011164725217541979
3.39150e-06;0.0011422409516447655
3.39175e-06;0.0011702907965827855
3.39200e-06;0.0011983406415208052
3.39225e-06;0.0012306011625257828
3.39250e-06;0.0012650441876925725
3.39275e-06;0.0012994872128593623
3.39300e-06;0.0013378202657090097
3.39325e-06;0.0013781696222286207
3.39350e-06;0.0014185189787482998
3.39375e-06;0.0014632711933471358
3.39400e-06;0.0015103055250996643
3.39425e-06;0.0015573398568522725
3.39450e-06;0.0016043741886048808
3.39475e-06;0.001651408520357489
3.39500e-06;0.0016984428521100176
3.39525e-06;0.001747378110468056
3.39550e-06;0.0017972986690870587
3.39575e-06;0.0018472192277059765
3.39600e-06;0.001897139786324979
3.39625e-06;0.0019470603449439816
3.39650e-06;0.0019969809035628996
3.39675e-06;0.002042721117346917
3.39700e-06;0.0020862945484444667
3.39725e-06;0.0021298679795420166
3.39750e-06;0.0021734414106394924
3.39775e-06;0.0022170148417370423
3.39800e-06;0.002260588272834592
3.39825e-06;0.0023023379767640605
3.39850e-06;0.0023344139441171803
3.39875e-06;0.0023664899114702997
3.39900e-06;0.0023985658788234195
3.39925e-06;0.002430641846176485
3.39950e-06;0.0024627178135296045
3.39975e-06;0.0024947937808827243
3.40000e-06;0.002525335038901818
3.40025e-06;0.002555080816704626
3.40050e-06;0.002584826594507434
3.40075e-06;0.0026145723723101913
3.40100e-06;0.0026443181501129994
3.40125e-06;0.0026740639279158075
3.40150e-06;0.002703809705718615
3.40175e-06;0.002733555483521373
3.40200e-06;0.0027633012613241807
3.40225e-06;0.002793047039126989
3.40250e-06;0.0028227928169297463
3.40275e-06;0.0028525385947325544
3.40300e-06;0.002882284372535362
3.40325e-06;0.00291203015033817
3.40350e-06;0.002942604724363995
3.40375e-06;0.002973608885272711
3.40400e-06;0.0030046130461814273
3.40425e-06;0.0030356172070900907
3.40450e-06;0.003066621367998807
3.40475e-06;0.003097625528907523
3.40500e-06;0.0031286296898161863
3.40525e-06;0.0031596338507249026
3.40550e-06;0.0031906380116336185
3.40575e-06;0.003221642172542335
3.40600e-06;0.0032526463334509982
3.40625e-06;0.003283650494359714
3.40650e-06;0.0033146546552684304
3.40675e-06;0.003345658816177094
3.40700e-06;0.0033723495038240387
3.40725e-06;0.003396804404818941
3.40750e-06;0.003421259305813844
3.40775e-06;0.0034457142068087055
3.40800e-06;0.0034701691078036084
3.40825e-06;0.0034946240087985114
3.40850e-06;0.0035190789097933727
3.40875e-06;0.0035317453986942
3.40900e-06;0.003538301643527332
3.40925e-06;0.0035448578883604527
3.40950e-06;0.0035514141331935848
3.40975e-06;0.003557970378026717
3.41000e-06;0.003564526622859849
3.41025e-06;0.0035710828676929697
3.41050e-06;0.0035565299313141193
3.41075e-06;0.003531035551062667
3.41100e-06;0.0035055411708112575
3.41125e-06;0.0034800467905598056
3.41150e-06;0.0034545524103083533
3.41175e-06;0.003429058030056901
3.41200e-06;0.003403563649805492
3.41225e-06;0.0033780692695540397
3.41250e-06;0.0033476245577993345
3.41275e-06;0.0032909214211134085
3.41300e-06;0.0032342182844273862
3.41325e-06;0.003177515147741364
3.41350e-06;0.003120812011055438
3.41375e-06;0.0030641088743694157
3.41400e-06;0.0030074057376833934
3.41425e-06;0.0029507026009973716
3.41450e-06;0.002893999464311445
3.41475e-06;0.002828117127556731
3.41500e-06;0.0027574769699589704
3.41525e-06;0.00268683681236133
3.41550e-06;0.0026161966547635696
3.41575e-06;0.002545556497165809
3.41600e-06;0.0024749163395680488
3.41625e-06;0.002405750356910347
3.41650e-06;0.002337348477900246
3.41675e-06;0.0022689465988901445
3.41700e-06;0.0022005447198801594
3.41725e-06;0.002132142840870058
3.41750e-06;0.002063740961859957
3.41775e-06;0.0020022456997863852
3.41800e-06;0.0019443303189409177
3.41825e-06;0.0018864149380954506
3.41850e-06;0.0018357621179171252
3.41875e-06;0.0017888736739653992
3.41900e-06;0.0017419852300135938
3.41925e-06;0.0016977629776313658
3.41950e-06;0.0016549226824706283
3.41975e-06;0.0016120823873098183
3.42000e-06;0.0015726667784168608
3.42025e-06;0.0015350262744987255
3.42050e-06;0.0014973857705806537
3.42075e-06;0.0014597452666625184
3.42100e-06;0.0014221047627443828
3.42125e-06;0.0013844642588263113
3.42150e-06;0.0013468237549081757
3.42175e-06;0.0013096504798699785
3.42200e-06;0.0012749555629909038
3.42225e-06;0.0012402606461117704
3.42250e-06;0.001205565729232637
3.42275e-06;0.0011708708123535035
3.42300e-06;0.0011361758954744289
3.42325e-06;0.0011014809785952955
3.42350e-06;0.001066786061716162
3.42375e-06;0.0010327278640035267
3.42400e-06;0.0009989996945829317
3.42425e-06;0.0009652715251623365
3.42450e-06;0.0009315433557417414
3.42475e-06;0.0008978151863212033
3.42500e-06;0.0008640870169006081
3.42525e-06;0.0008308235462622059
3.42550e-06;0.0008000250131905699
3.42575e-06;0.0007692264801188817
3.42600e-06;0.0007384279470471936
3.42625e-06;0.0007076294139755576
3.42650e-06;0.0006768308809038695
3.42675e-06;0.0006460323478321813
3.42700e-06;0.0006178697625844235
3.42725e-06;0.0005910734584293277
3.42750e-06;0.0005642771542741866
3.42775e-06;0.0005392220467515188
3.42800e-06;0.000515069447243617
3.42825e-06;0.0004928694043279382
3.42850e-06;0.00047168142285372485
3.42875e-06;0.0004525384086520615
3.42900e-06;0.00043445535477824025
3.42925e-06;0.0004174708398148162
3.42950e-06;0.0004010557264644397
3.42975e-06;0.00038563634250704846
3.43000e-06;0.0003707330712854927
3.43025e-06;0.0003571263194164545
3.43050e-06;0.0003441915876312684
3.43075e-06;0.0003328005863875102
3.43100e-06;0.0003222097412894121
3.43125e-06;0.0003116188961913139
3.43150e-06;0.00030188257993141757
3.43175e-06;0.00029258918844571904
3.43200e-06;0.00028405311983232477
3.43225e-06;0.0002759095915841551
3.43250e-06;0.00026886780016836034
3.43275e-06;0.00026239706793270014
3.43300e-06;0.00025592633569704
3.43325e-06;0.00025024831113265513
3.43350e-06;0.0002449811678055332
3.43375e-06;0.00023971402447841127
3.43400e-06;0.00023515951617889585
3.43425e-06;0.00023097438535921755
3.43450e-06;0.00022678925453953924
3.43475e-06;0.00022334463274267495
3.43500e-06;0.00022028383625056277
3.43525e-06;0.00021722303975845058
3.43550e-06;0.00021468477029872138
3.43575e-06;0.0002124173403443529
3.43600e-06;0.00021014991038998052
3.43625e-06;0.00020788248043560818
3.43650e-06;0.0002056150504812397
3.43675e-06;0.0002038942274963827
3.43700e-06;0.0002024567252816976
3.43725e-06;0.00020101922306701254
3.43750e-06;0.0001995817208523299
3.43775e-06;0.0001981442186376448
3.43800e-06;0.00019684633303195776
3.43825e-06;0.00019567024001237545
3.43850e-06;0.00019457532509593457
3.43875e-06;0.00019387280323301695
3.43900e-06;0.00019463657247376564
3.43925e-06;0.00019822390769917846
3.43950e-06;0.0002053036093118393
3.43975e-06;0.0002158582943724932
3.44000e-06;0.0002296954523832405
3.44025e-06;0.0002466225032979881
3.44050e-06;0.000266446857486409
3.44075e-06;0.00028916507376112674
3.44100e-06;0.00031525141231416177
3.44125e-06;0.0003453575601172163
3.44150e-06;0.0003797039253647785
3.44175e-06;0.0004180810515378649
3.44200e-06;0.00046016980590274934
3.44225e-06;0.0005056510358545826
3.44250e-06;0.0005542056462935828
3.44275e-06;0.0006066363620618973
3.44300e-06;0.0006605516154366229
3.44325e-06;0.0007186165319767782
3.44350e-06;0.0007788323280879298
3.44375e-06;0.0008432007648503946
3.44400e-06;0.0009097216244929698
3.44425e-06;0.0009762424841354323
3.44450e-06;0.0010464907905129576
3.44475e-06;0.0011186711305795098
3.44500e-06;0.0011908514706459397
3.44525e-06;0.001263031810712492
3.44550e-06;0.0013352121507790439
3.44575e-06;0.0014079522990670238
3.44600e-06;0.0014809826106811752
3.44625e-06;0.00155401292229545
3.44650e-06;0.001627043233909725
3.44675e-06;0.0017000735455238764
3.44700e-06;0.0017692940350001697
3.44725e-06;0.0018365397934492075
3.44750e-06;0.0019037855518981314
3.44775e-06;0.001965474401777665
3.44800e-06;0.002024282959777296
3.44825e-06;0.002083091517776927
