Time(s);Current(A)
1.43000e-05;0.005899760957600914
1.43003e-05;0.005890106063468408
1.43005e-05;0.005880451169335902
1.43008e-05;0.005872984915894545
1.43010e-05;0.005867937930697748
1.43013e-05;0.005862890945500952
1.43015e-05;0.00585784396030419
1.43018e-05;0.005852796975107394
1.43020e-05;0.005847749989910597
1.43023e-05;0.005842703004713835
1.43025e-05;0.005837656019517038
1.43028e-05;0.005832609034320242
1.43030e-05;0.00582756204912348
1.43033e-05;0.005822515063926684
1.43035e-05;0.005817468078729887
1.43038e-05;0.005812421093533126
1.43040e-05;0.005807374108336329
1.43043e-05;0.005802327123139533
1.43045e-05;0.005797280137942736
1.43048e-05;0.005792233152745975
1.43050e-05;0.005787186167549178
1.43053e-05;0.005782139182352382
1.43055e-05;0.005777092197155619
1.43058e-05;0.005772045211958823
1.43060e-05;0.005766998226762026
1.43063e-05;0.005757883334562012
1.43065e-05;0.005744271880511024
1.43068e-05;0.005730660426460036
1.43070e-05;0.005717048972409141
1.43073e-05;0.005703437518358153
1.43075e-05;0.005689826064307165
1.43078e-05;0.005676214610256269
1.43080e-05;0.005662603156205281
1.43083e-05;0.005634585230342371
1.43085e-05;0.005590642753719908
1.43088e-05;0.005546700277097148
1.43090e-05;0.005502757800474388
1.43093e-05;0.005458815323851925
1.43095e-05;0.005414872847229165
1.43098e-05;0.005370930370606404
1.43100e-05;0.0053269878939839425
1.43103e-05;0.005269604795849857
1.43105e-05;0.0051973647735283155
1.43108e-05;0.005125124751207262
1.43110e-05;0.0050528847288857206
1.43113e-05;0.004980644706564178
1.43115e-05;0.004908404684243126
1.43118e-05;0.004836164661921584
1.43120e-05;0.0047639246396000414
1.43123e-05;0.004677723507239995
1.43125e-05;0.00459116402780471
1.43128e-05;0.004504604548369425
1.43130e-05;0.004418045068934139
1.43133e-05;0.004331485589499442
1.43135e-05;0.004244926110064156
1.43138e-05;0.004158366630628871
1.43140e-05;0.0040747737707879286
1.43143e-05;0.0039944601374588265
1.43145e-05;0.003914146504129724
1.43148e-05;0.003833832870801167
1.43150e-05;0.003753519237472065
1.43153e-05;0.003673205604142963
1.43155e-05;0.0035928919708144054
1.43158e-05;0.0035243889095900403
1.43160e-05;0.0034689409570342815
1.43163e-05;0.0034134930044788987
1.43165e-05;0.00335804505192314
1.43168e-05;0.0033025970993673815
1.43170e-05;0.0032471491468119987
1.43173e-05;0.00319170119425624
1.43175e-05;0.003144886916659992
1.43178e-05;0.0031076160857160637
1.43180e-05;0.003070345254771883
1.43183e-05;0.0030395162765573607
1.43185e-05;0.0030158079599565007
1.43188e-05;0.00299209964335548
1.43190e-05;0.002968391326754459
1.43193e-05;0.002944683010153599
1.43195e-05;0.0029332082425135016
1.43198e-05;0.0029220474797398816
1.43200e-05;0.0029108867169663375
1.43203e-05;0.0028997259541927176
1.43205e-05;0.0028922139670005693
1.43208e-05;0.002892933744033965
1.43210e-05;0.0028982944367734556
1.43213e-05;0.0029036551295129466
1.43215e-05;0.002909015822252437
1.43218e-05;0.0029143765149918914
1.43220e-05;0.0029197372077313824
1.43223e-05;0.002925097900470873
1.43225e-05;0.0029304585932103276
1.43228e-05;0.002935819285949818
1.43230e-05;0.0029452500111726092
1.43233e-05;0.0029591796477006303
1.43235e-05;0.002973109284228746
1.43238e-05;0.0029870389207568614
1.43240e-05;0.003000968557284883
1.43243e-05;0.0030148981938129984
1.43245e-05;0.003028827830341114
1.43248e-05;0.003042757466869135
1.43250e-05;0.0030566871033972506
1.43253e-05;0.003068264623775633
1.43255e-05;0.003077242174256619
1.43258e-05;0.003086219724737666
1.43260e-05;0.0030951972752187133
1.43263e-05;0.003104174825699699
1.43265e-05;0.0031131523761807464
1.43268e-05;0.0031221299266617933
1.43270e-05;0.0031311074771427794
1.43273e-05;0.0031400850276238263
1.43275e-05;0.003149062578104873
1.43278e-05;0.0031580401285858594
1.43280e-05;0.0031670176790669063
1.43283e-05;0.003175995229547953
1.43285e-05;0.0031849727800289393
1.43288e-05;0.0031939503305099862
1.43290e-05;0.003202927880991033
1.43293e-05;0.0032119054314720193
1.43295e-05;0.003220882981953066
1.43298e-05;0.0032254258468844836
1.43300e-05;0.00322985488443415
1.43303e-05;0.003234283921983786
1.43305e-05;0.0032387129595334518
1.43308e-05;0.0032431419970831176
1.43310e-05;0.0032475710346327536
1.43313e-05;0.00325200007218242
1.43315e-05;0.0032564291097320858
1.43318e-05;0.0032608581472817217
1.43320e-05;0.0032652871848313876
1.43323e-05;0.003269716222381054
1.43325e-05;0.00327414525993069
1.43328e-05;0.0032785742974803557
1.43330e-05;0.0032830033350300216
1.43333e-05;0.0032874323725796575
1.43335e-05;0.003291861410129324
1.43338e-05;0.0032962904476789897
1.43340e-05;0.0032998737834864737
1.43343e-05;0.003302522301907233
1.43345e-05;0.0033051708203279922
1.43348e-05;0.003307819338748734
1.43350e-05;0.0033104678571694935
1.43353e-05;0.003313116375590253
1.43355e-05;0.0033157648940109943
1.43358e-05;0.0033184134124317538
1.43360e-05;0.0033210619308525133
1.43363e-05;0.0033237104492732546
1.43365e-05;0.003322550226799633
1.43368e-05;0.0033171799181545597
1.43370e-05;0.003311809609509523
1.43373e-05;0.0033064393008644497
1.43375e-05;0.0033010689922193764
1.43378e-05;0.0032956986835743396
1.43380e-05;0.0032903283749292664
1.43383e-05;0.003284958066284193
1.43385e-05;0.00327958775763912
1.43388e-05;0.003274217448994083
1.43390e-05;0.0032613951655964244
1.43393e-05;0.003240335657160996
1.43395e-05;0.0032192761487257106
1.43398e-05;0.0031982166402902824
1.43400e-05;0.003177157131854854
1.43403e-05;0.003156097623419569
1.43405e-05;0.003135038114984141
1.43408e-05;0.0031139786065487126
1.43410e-05;0.003092919098113427
1.43413e-05;0.0030718595896779993
1.43415e-05;0.003046059177207564
1.43418e-05;0.003015018288928098
1.43420e-05;0.0029839774006484216
1.43423e-05;0.0029529365123687453
1.43425e-05;0.0029218956240892793
1.43428e-05;0.0028908547358096025
1.43430e-05;0.002859813847529926
1.43433e-05;0.00282877295925046
1.43435e-05;0.0027977320709707838
1.43438e-05;0.002766691182691107
1.43440e-05;0.00273607205245979
1.43443e-05;0.002705919122942851
1.43445e-05;0.002675766193425912
1.43448e-05;0.0026456132639091773
1.43450e-05;0.0026154603343922383
1.43453e-05;0.0025853074048752993
1.43455e-05;0.0025551544753585646
1.43458e-05;0.002534797642115689
1.43460e-05;0.00251469225037489
1.43463e-05;0.002494586858634227
1.43465e-05;0.002474481466893428
1.43468e-05;0.002454376075152629
1.43470e-05;0.0024342706834118303
1.43473e-05;0.0024215411887752994
1.43475e-05;0.0024169648248640475
1.43478e-05;0.002412388460952795
1.43480e-05;0.002413070220700693
1.43483e-05;0.0024195641777930723
1.43485e-05;0.002426058134885452
1.43488e-05;0.0024382882905509156
1.43490e-05;0.002456859095519434
1.43493e-05;0.0024754299004879523
1.43495e-05;0.0024995211454920266
1.43498e-05;0.0025297145457508457
1.43500e-05;0.0025599079460096653
1.43503e-05;0.0025976439110629956
1.43505e-05;0.0026437172371057156
1.43508e-05;0.002689790563148436
1.43510e-05;0.002735863889190844
1.43513e-05;0.0027819372152335644
1.43515e-05;0.0028280105412762844
1.43518e-05;0.0028740838673186925
1.43520e-05;0.0029266786243062636
1.43523e-05;0.002986482006666773
1.43525e-05;0.0030462853890268773
1.43528e-05;0.003106088771387387
1.43530e-05;0.0031658921537478964
1.43533e-05;0.0032256955361080007
1.43535e-05;0.00328549891846851
1.43538e-05;0.0033449158723436443
1.43540e-05;0.003403905677911786
1.43543e-05;0.003462895483480328
1.43545e-05;0.00352188528904887
1.43548e-05;0.003580875094617012
1.43550e-05;0.0036398649001855537
1.43553e-05;0.0036988547057540955
1.43555e-05;0.003749455142586028
1.43558e-05;0.0037907821826960635
1.43560e-05;0.0038321092228063795
1.43563e-05;0.003873436262916695
1.43565e-05;0.00391476330302673
1.43568e-05;0.003956090343137046
1.43570e-05;0.0039974173832473614
1.43573e-05;0.004023050086998322
1.43575e-05;0.004031334666960825
1.43578e-05;0.0040396192469233285
1.43580e-05;0.004047903826885775
1.43583e-05;0.004056188406848279
1.43585e-05;0.004064472986810782
1.43588e-05;0.00407275756677323
1.43590e-05;0.004081042146735733
1.43593e-05;0.004089326726698235
1.43595e-05;0.004097611306660683
1.43598e-05;0.004089527400020262
1.43600e-05;0.004063350180905028
1.43603e-05;0.004037172961789973
1.43605e-05;0.004010995742674739
1.43608e-05;0.003984818523559507
1.43610e-05;0.00395864130444445
1.43613e-05;0.003932464085329218
1.43615e-05;0.003906286866213984
1.43618e-05;0.0038801096470989288
1.43620e-05;0.0038539324279836954
1.43623e-05;0.0038199076178190706
1.43625e-05;0.003777208278330218
1.43628e-05;0.0037345089388410757
1.43630e-05;0.003691809599351934
1.43633e-05;0.003649110259863081
1.43635e-05;0.003606410920373939
1.43638e-05;0.0035637115808847966
1.43640e-05;0.0035210122413956548
1.43643e-05;0.0034799884941981232
1.43645e-05;0.003439007755300005
1.43648e-05;0.0033980270164018864
1.43650e-05;0.0033570462775040456
1.43653e-05;0.0033160655386059276
1.43655e-05;0.0032750847997078092
1.43658e-05;0.0032341040608099684
1.43660e-05;0.003203238899025148
1.43663e-05;0.0031835552411901853
1.43665e-05;0.0031638715833553557
1.43668e-05;0.003144187925520393
1.43670e-05;0.00312450426768543
1.43673e-05;0.003104820609850601
1.43675e-05;0.003085136952015638
1.43678e-05;0.003065453294180675
1.43680e-05;0.003085337253104874
1.43683e-05;0.003106236814649171
1.43685e-05;0.0031271363761934683
1.43688e-05;0.0031480359377376236
1.43690e-05;0.003168935499281921
1.43693e-05;0.003189835060826218
1.43695e-05;0.0032107346223703734
1.43698e-05;0.003245670697834513
1.43700e-05;0.003296122381956797
1.43703e-05;0.0033465740660787394
1.43705e-05;0.003403807343674492
1.43708e-05;0.003468536823747348
1.43710e-05;0.0035332663038197655
1.43713e-05;0.003606223557028749
1.43715e-05;0.0036882755832593045
1.43718e-05;0.003770327609489304
1.43720e-05;0.003852379635719859
1.43723e-05;0.003934431661950414
1.43725e-05;0.00401648368818097
1.43728e-05;0.004098535714410969
1.43730e-05;0.004189688226769439
1.43733e-05;0.004281074326043781
1.43735e-05;0.004372460425317503
1.43738e-05;0.004463846524591845
1.43740e-05;0.004555232623866187
1.43743e-05;0.004646618723139909
1.43745e-05;0.004732257241309636
1.43748e-05;0.004811542528208836
1.43750e-05;0.004890827815107499
1.43753e-05;0.0049701131020067
1.43755e-05;0.005049398388905901
1.43758e-05;0.005128683675804564
1.43760e-05;0.005207968962703764
1.43763e-05;0.005269202636293553
1.43765e-05;0.005310482511567489
1.43768e-05;0.005351762386841704
1.43770e-05;0.00539304226211592
1.43773e-05;0.005434322137389856
1.43775e-05;0.005475602012664071
1.43778e-05;0.005516881887938287
1.43780e-05;0.005540737882913962
1.43783e-05;0.0055453339598197
1.43785e-05;0.005549930036725437
1.43788e-05;0.005543689822643582
1.43790e-05;0.005525471445659301
1.43793e-05;0.00550725306867502
1.43795e-05;0.005472216968022387
1.43798e-05;0.0054185909795588265
1.43800e-05;0.0053649649910952665
1.43803e-05;0.005311339002632069
1.43805e-05;0.005257713014168508
1.43808e-05;0.005204087025704947
1.43810e-05;0.0051504610372413865
1.43813e-05;0.005096835048778189
1.43815e-05;0.005008566552901355
1.43818e-05;0.004919408869747408
1.43820e-05;0.004830251186594065
1.43823e-05;0.004741093503440118
1.43825e-05;0.00465193582028617
1.43828e-05;0.004562778137132828
1.43830e-05;0.00447362045397888
1.43833e-05;0.0043796634980810675
1.43835e-05;0.004280401547069825
1.43838e-05;0.004181139596057908
1.43840e-05;0.0040818776450459926
1.43843e-05;0.003982615694034749
1.43845e-05;0.0038833537430228333
1.43848e-05;0.0037904901956666353
1.43850e-05;0.0037046992824256116
1.43853e-05;0.003618908369184007
1.43855e-05;0.003533117455942402
1.43858e-05;0.0034473265427013783
1.43860e-05;0.003361535629459773
1.43863e-05;0.003287436724068735
1.43865e-05;0.003226261869432957
1.43868e-05;0.0031650870147967645
1.43870e-05;0.003113284109418538
1.43873e-05;0.0030718407205097176
1.43875e-05;0.0030383092889519833
1.43878e-05;0.00301352353561237
1.43880e-05;0.0029967734330759075
1.43883e-05;0.002988905736380851
1.43885e-05;0.0029892956972872703
1.43888e-05;0.002998813464753843
1.43890e-05;0.0030166232276106963
1.43893e-05;0.0030435987531538815
1.43895e-05;0.003078360109645889
1.43898e-05;0.003121727727409174
1.43900e-05;0.0031739898277547544
1.43903e-05;0.0032360836649414485
1.43905e-05;0.003298177502127722
1.43908e-05;0.00336983350112179
1.43910e-05;0.0034520592727426596
1.43913e-05;0.0035342850443629724
1.43915e-05;0.0036267998956923653
1.43918e-05;0.003730688036373255
1.43920e-05;0.00383457617705344
1.43923e-05;0.003938464317734329
1.43925e-05;0.004042352458415219
1.43928e-05;0.004146240599095404
1.43930e-05;0.004255780577605901
1.43933e-05;0.004371567955186902
1.43935e-05;0.004487355332767118
1.43938e-05;0.004603142710348118
1.43940e-05;0.0047189300879291185
1.43943e-05;0.004834717465509334
1.43945e-05;0.004944721496875143
1.43948e-05;0.00504833276311562
1.43950e-05;0.005151944029355396
1.43953e-05;0.005255555295595874
1.43955e-05;0.005359166561836351
1.43958e-05;0.005462777828076126
1.43960e-05;0.005551066773057493
1.43963e-05;0.005622418810348226
1.43965e-05;0.005693770847638474
1.43968e-05;0.005765122884929206
1.43970e-05;0.005836474922219939
1.43973e-05;0.005907826959510187
1.43975e-05;0.005959391204232703
1.43978e-05;0.005989082521839282
1.43980e-05;0.00601877383944586
1.43983e-05;0.006048465157052237
1.43985e-05;0.006078156474658815
1.43988e-05;0.0061078477922653935
1.43990e-05;0.0061375391098717706
1.43993e-05;0.006167230427478349
1.43995e-05;0.006196921745084927
1.43998e-05;0.006226613062691304
1.44000e-05;0.0062563043802978825
1.44003e-05;0.006247701720680757
1.44005e-05;0.0062381161496046205
1.44008e-05;0.006228530578528419
1.44010e-05;0.006218945007452218
1.44013e-05;0.006209359436376082
1.44015e-05;0.006199773865299881
1.44018e-05;0.006190188294223679
1.44020e-05;0.006180602723147543
1.44023e-05;0.0061710171520713425
1.44025e-05;0.006161431580995141
1.44028e-05;0.006144024846814059
1.44030e-05;0.006117972796083297
1.44033e-05;0.006091920745352536
1.44035e-05;0.0060658686946219505
1.44038e-05;0.006039816643891189
1.44040e-05;0.006013764593160428
1.44043e-05;0.005987712542429843
1.44045e-05;0.005961660491699082
1.44048e-05;0.00593560844096832
1.44050e-05;0.005912760565240017
1.44053e-05;0.005889994932740349
1.44055e-05;0.005867229300240683
1.44058e-05;0.005844463667741171
1.44060e-05;0.0058216980352415034
1.44063e-05;0.005798932402741837
1.44065e-05;0.0057761667702421705
1.44068e-05;0.0057534011377426576
1.44070e-05;0.005732148811810374
1.44073e-05;0.005712569256812269
1.44075e-05;0.005692989701814296
1.44078e-05;0.0056734101468161905
1.44080e-05;0.0056538305918180844
1.44083e-05;0.005634251036820112
1.44085e-05;0.005614671481822007
1.44088e-05;0.0055950919268239006
1.44090e-05;0.005575512371825928
1.44093e-05;0.005555932816827822
1.44095e-05;0.005536353261829717
1.44098e-05;0.005516773706831744
1.44100e-05;0.005497194151833638
1.44103e-05;0.005477614596835533
1.44105e-05;0.005458035041837559
1.44108e-05;0.005438455486839454
1.44110e-05;0.00541673421487944
1.44113e-05;0.005394957970354601
1.44115e-05;0.005373181725829615
1.44118e-05;0.005351405481304628
1.44120e-05;0.005329629236779789
1.44123e-05;0.005307852992254803
1.44125e-05;0.005286076747729816
1.44128e-05;0.005264300503204977
1.44130e-05;0.005242524258679991
1.44133e-05;0.005220748014155004
1.44135e-05;0.005198971769630165
1.44138e-05;0.005177195525105179
1.44140e-05;0.0051554192805801915
1.44143e-05;0.005133643036055353
1.44145e-05;0.005111866791530366
1.44148e-05;0.005092236143612085
1.44150e-05;0.005074977184100286
1.44153e-05;0.00505771822458837
1.44155e-05;0.0050404592650764544
1.44158e-05;0.005023200305564538
1.44160e-05;0.005005941346052739
1.44163e-05;0.004988682386540823
1.44165e-05;0.004971423427028908
1.44168e-05;0.004948429619726446
1.44170e-05;0.004925288613097775
1.44173e-05;0.004902147606469102
1.44175e-05;0.004879006599840587
1.44178e-05;0.0048558655932119145
1.44180e-05;0.004832724586583242
1.44183e-05;0.004809583579954727
1.44185e-05;0.0047759735203567
1.44188e-05;0.0047307912334915185
1.44190e-05;0.004685608946626643
1.44193e-05;0.004640426659761462
1.44195e-05;0.004595244372896281
1.44198e-05;0.004550062086031406
1.44200e-05;0.0045048797991662235
1.44203e-05;0.004459697512301042
1.44205e-05;0.004414515225436167
1.44208e-05;0.00435940014491251
1.44210e-05;0.004293305604645983
1.44213e-05;0.004227211064379904
1.44215e-05;0.004161116524113377
1.44218e-05;0.00409502198384685
1.44220e-05;0.004028927443580771
1.44223e-05;0.003962832903314244
1.44225e-05;0.0038967383630477167
1.44228e-05;0.0038306438227816374
1.44230e-05;0.003762139559652594
1.44233e-05;0.0036909716496108767
1.44235e-05;0.0036198037395696416
1.44238e-05;0.0035486358295279243
1.44240e-05;0.003477467919486207
1.44243e-05;0.0034063000094444896
1.44245e-05;0.0033351320994032545
1.44248e-05;0.00327454781493817
1.44250e-05;0.0032142351859055763
1.44253e-05;0.0031539225568733916
1.44255e-05;0.003093609927840798
1.44258e-05;0.0030332972988082046
1.44260e-05;0.00297298466977602
1.44263e-05;0.002921362111466112
1.44265e-05;0.0028793453382919055
1.44268e-05;0.0028373285651179837
1.44270e-05;0.0028031235743672567
1.44273e-05;0.0027775535310045796
1.44275e-05;0.0027586551928130486
1.44278e-05;0.0027471315893513267
1.44280e-05;0.002742227382609622
1.44283e-05;0.0027446400901544768
1.44285e-05;0.0027539348978560868
1.44288e-05;0.002770837005601553
1.44290e-05;0.0027949816773436744
1.44293e-05;0.002827132096772728
1.44295e-05;0.0028675918924428497
1.44298e-05;0.002917236663164108
1.44300e-05;0.0029668814338857023
1.44303e-05;0.0030253664434305213
1.44305e-05;0.0030936232301440564
1.44308e-05;0.0031618800168580537
1.44310e-05;0.00323800246111964
1.44313e-05;0.003322819404973159
1.44315e-05;0.0034076363488272526
1.44318e-05;0.0035002513436754048
1.44320e-05;0.003601486107535421
1.44323e-05;0.0037027208713961237
1.44325e-05;0.0038039556352568262
1.44328e-05;0.0039051903991175287
1.44330e-05;0.004006425162977546
1.44333e-05;0.004110698056234581
1.44335e-05;0.0042183292211479565
1.44338e-05;0.004325960386060604
1.44340e-05;0.00443359155097398
1.44343e-05;0.004541222715887356
1.44345e-05;0.004648853880800003
1.44348e-05;0.004747770904329881
1.44350e-05;0.004837055535620487
1.44353e-05;0.0049263401669104884
1.44355e-05;0.005015624798201094
1.44358e-05;0.0051049094294917
1.44360e-05;0.005194194060781702
1.44363e-05;0.005283478692072308
1.44365e-05;0.005356022502031889
1.44368e-05;0.005410061430054929
1.44370e-05;0.005464100358078336
1.44373e-05;0.005518139286101742
1.44375e-05;0.005572178214124783
1.44378e-05;0.005626217142148189
1.44380e-05;0.005680256070171596
1.44383e-05;0.0057162262847308834
1.44385e-05;0.00573222379885959
1.44388e-05;0.005748221312988297
1.44390e-05;0.005764218827116895
1.44393e-05;0.005780216341245602
1.44395e-05;0.005796213855374308
1.44398e-05;0.005812211369502907
1.44400e-05;0.005828208883631614
1.44403e-05;0.00584420639776032
1.44405e-05;0.005860203911888918
1.44408e-05;0.005861870856781846
1.44410e-05;0.005847697151651011
1.44413e-05;0.005833523446520177
1.44415e-05;0.005819349741389438
1.44418e-05;0.005805176036258603
1.44420e-05;0.005791002331127768
1.44423e-05;0.00577682862599703
1.44425e-05;0.005762654920866195
1.44428e-05;0.005748481215735361
1.44430e-05;0.005734307510604622
1.44433e-05;0.005715145133011669
1.44435e-05;0.005690468402621031
1.44438e-05;0.00566579167223056
1.44440e-05;0.005641114941839922
1.44443e-05;0.005616438211449284
1.44445e-05;0.005591761481058813
1.44448e-05;0.005567084750668175
1.44450e-05;0.005542408020277537
1.44453e-05;0.005519912651826923
1.44455e-05;0.005499828505882358
1.44458e-05;0.005479744359937792
1.44460e-05;0.005459660213993363
1.44463e-05;0.005439576068048797
1.44465e-05;0.005419491922104232
1.44468e-05;0.0053994077761598015
1.44470e-05;0.005379323630215236
1.44473e-05;0.00535928841174006
1.44475e-05;0.005339307276456449
1.44478e-05;0.005319326141172701
1.44480e-05;0.005299345005888955
1.44483e-05;0.005279363870605343
1.44485e-05;0.005259382735321596
1.44488e-05;0.005239401600037849
1.44490e-05;0.0052194204647542375
1.44493e-05;0.00519943932947049
1.44495e-05;0.005179458194186743
1.44498e-05;0.005159477058902996
1.44500e-05;0.005139495923619384
