Time(s);Current(A)
4.75000e-06;0.00052965222648021
4.75025e-06;0.0005418697431726951
4.75050e-06;0.0005510348304218562
4.75075e-06;0.0005598809209260017
4.75100e-06;0.0005661803286130399
4.75125e-06;0.0005721293076975742
4.75150e-06;0.0005752806704594294
4.75175e-06;0.0005780358855532582
4.75200e-06;0.0005776284901345248
4.75225e-06;0.0005772210947157915
4.75250e-06;0.0005765676223880925
4.75275e-06;0.0005739496164231875
4.75300e-06;0.0005713316104582825
4.75325e-06;0.0005685058795045666
4.75350e-06;0.0005640217941384367
4.75375e-06;0.0005595377087723068
4.75400e-06;0.000554958856992841
4.75425e-06;0.0005496234457807444
4.75450e-06;0.0005442880345686478
4.75475e-06;0.0005390029212400138
4.75500e-06;0.0005341193566970348
4.75525e-06;0.0005292815241784812
4.75550e-06;0.0005248448734155983
4.75575e-06;0.000520709068021446
4.75600e-06;0.0005164808480894592
4.75625e-06;0.0005107008855684128
4.75650e-06;0.0005044473069626995
4.75675e-06;0.0004944126554671492
4.75700e-06;0.00048394291637239567
4.75725e-06;0.0004699996932061162
4.75750e-06;0.00045577306658504583
4.75775e-06;0.00043910062538226696
4.75800e-06;0.00042073259842267437
4.75825e-06;0.00040021524555176625
4.75850e-06;0.00037704146083979975
4.75875e-06;0.00035115550296295153
4.75900e-06;0.00032277817770796577
4.75925e-06;0.0002921367504076189
4.75950e-06;0.0002594584346661912
4.75975e-06;0.00022495964606884905
4.76000e-06;0.00018873992463223145
4.76025e-06;0.00015064567013184287
4.76050e-06;0.00011048985130295001
4.76075e-06;6.836820828369138e-05
4.76100e-06;2.4549701817027878e-05
4.76125e-06;-2.069269357856443e-05
4.76150e-06;-6.708604299114263e-05
4.76175e-06;-0.0001144007432850419
4.76200e-06;-0.000162626066838239
4.76225e-06;-0.00021100494709973698
4.76250e-06;-0.0002606097340090904
4.76275e-06;-0.0003102145209182757
4.76300e-06;-0.00035978134305497537
4.76325e-06;-0.0004090450767271204
4.76350e-06;-0.0004583088103990985
4.76375e-06;-0.0005072639349792447
4.76400e-06;-0.0005537553056710096
4.76425e-06;-0.0006002466763626171
4.76450e-06;-0.0006463338637765621
4.76475e-06;-0.0006891942890867715
4.76500e-06;-0.0007315785065283811
4.76525e-06;-0.0007701609597998859
4.76550e-06;-0.0008081454075645713
4.76575e-06;-0.0008413557302910892
4.76600e-06;-0.0008742262410091979
4.76625e-06;-0.0009043838920629395
4.76650e-06;-0.0009345657384979919
4.76675e-06;-0.0009649407466589641
4.76700e-06;-0.0009953157548198335
4.76725e-06;-0.0010255394978411771
4.76750e-06;-0.001054555628755566
4.76775e-06;-0.001083571759669857
4.76800e-06;-0.0011126687974338657
4.76825e-06;-0.001142411748007538
4.76850e-06;-0.0011721546985811093
4.76875e-06;-0.0012018976491547813
4.76900e-06;-0.0012316405997283527
4.76925e-06;-0.0012613835503019239
4.76950e-06;-0.001291126500875596
4.76975e-06;-0.0013222813306985022
4.77000e-06;-0.0013543338537968068
4.77025e-06;-0.00138638637689522
4.77050e-06;-0.0014184388999935245
4.77075e-06;-0.001450491423091829
4.77100e-06;-0.0014825439461902423
4.77125e-06;-0.0015146761543032951
4.77150e-06;-0.0015474445208124123
4.77175e-06;-0.0015802128873216405
4.77200e-06;-0.0016129812538307577
4.77225e-06;-0.001645749620339875
4.77250e-06;-0.0016785179868491031
4.77275e-06;-0.0017112863533582203
4.77300e-06;-0.0017440547198674485
4.77325e-06;-0.0017763425016329656
4.77350e-06;-0.0018047935768283005
4.77375e-06;-0.0018332446520237318
4.77400e-06;-0.0018616957272190667
4.77425e-06;-0.0018901468024144015
4.77450e-06;-0.0019185978776098326
4.77475e-06;-0.0019470489528051675
4.77500e-06;-0.0019755000280005023
4.77525e-06;-0.0020031608742666586
4.77550e-06;-0.0020245129964940093
4.77575e-06;-0.0020458651187213604
4.77600e-06;-0.0020660853787427707
4.77625e-06;-0.002077269515126006
4.77650e-06;-0.0020884536515092416
4.77675e-06;-0.002099637787892515
4.77700e-06;-0.0021108219242757503
4.77725e-06;-0.002122006060659024
4.77750e-06;-0.0021315005181761293
4.77775e-06;-0.002127505571187209
4.77800e-06;-0.002123510624198275
4.77825e-06;-0.0021195156772093548
4.77850e-06;-0.0021155207302204345
4.77875e-06;-0.0021115257832315004
4.77900e-06;-0.002105884810657331
4.77925e-06;-0.002087102935755353
4.77950e-06;-0.0020683210608533112
4.77975e-06;-0.002049539185951333
4.78000e-06;-0.002030757311049355
4.78025e-06;-0.0020119754361473128
4.78050e-06;-0.001993193561245335
4.78075e-06;-0.00196764202566516
4.78100e-06;-0.0019377862417795783
4.78125e-06;-0.001907930457894098
4.78150e-06;-0.0018780746740086176
4.78175e-06;-0.001848218890123036
4.78200e-06;-0.0018183631062375558
4.78225e-06;-0.0017880474975469063
4.78250e-06;-0.0017540609174544464
4.78275e-06;-0.0017199964607393992
4.78300e-06;-0.0016853102827703028
4.78325e-06;-0.001650635204115285
4.78350e-06;-0.0016160487358694508
4.78375e-06;-0.001581561701407533
4.78400e-06;-0.001547868487926077
4.78425e-06;-0.0015143644033852016
4.78450e-06;-0.0014823702133180403
4.78475e-06;-0.001450756531664394
4.78500e-06;-0.0014221806058870381
4.78525e-06;-0.0013936046801095855
4.78550e-06;-0.0013656662121878393
4.78575e-06;-0.001342816833701365
4.78600e-06;-0.0013199674552148133
4.78625e-06;-0.0012977388348572592
4.78650e-06;-0.0012804659831168802
4.78675e-06;-0.0012631931313765597
4.78700e-06;-0.0012465501694833012
4.78725e-06;-0.001234935878485876
4.78750e-06;-0.00122332158748849
4.78775e-06;-0.0012123765123371417
4.78800e-06;-0.0012067740637793087
4.78825e-06;-0.0012011716152214949
4.78850e-06;-0.001196142512428361
4.78875e-06;-0.0011956906657592417
4.78900e-06;-0.0011952388190901242
4.78925e-06;-0.0011953362534734677
4.78950e-06;-0.001199818825440429
4.78975e-06;-0.001204301397407375
4.79000e-06;-0.0012095401421574436
4.79025e-06;-0.0012208157266565206
4.79050e-06;-0.0012320913111555593
4.79075e-06;-0.001243366895654636
4.79100e-06;-0.0012546424801536749
4.79125e-06;-0.0012659180646527135
4.79150e-06;-0.0012771936491517905
4.79175e-06;-0.0012884692336508291
4.79200e-06;-0.001302955095117023
4.79225e-06;-0.0013194820971735226
4.79250e-06;-0.001336009099229966
4.79275e-06;-0.0013525361012864095
4.79300e-06;-0.0013690631033429089
4.79325e-06;-0.0013855901053993524
4.79350e-06;-0.0014021171074557958
4.79375e-06;-0.0014186141528116315
4.79400e-06;-0.0014348720414491148
4.79425e-06;-0.0014511299300865978
4.79450e-06;-0.001467387818724136
4.79475e-06;-0.0014836457073616192
4.79500e-06;-0.0014994869045563846
4.79525e-06;-0.0015120014818035868
4.79550e-06;-0.0015245160590507893
4.79575e-06;-0.001537030636298034
4.79600e-06;-0.0015495452135452364
4.79625e-06;-0.001561508084664345
4.79650e-06;-0.0015690664578206625
4.79675e-06;-0.0015766248309769543
4.79700e-06;-0.0015841832041332462
4.79725e-06;-0.0015917415772895636
4.79750e-06;-0.0015992999504458555
4.79775e-06;-0.001606858323602147
4.79800e-06;-0.0016144166967584645
4.79825e-06;-0.0016219750699147564
4.79850e-06;-0.0016295334430710482
4.79875e-06;-0.0016370918162273657
4.79900e-06;-0.0016446501893836573
4.79925e-06;-0.0016522085625399747
4.79950e-06;-0.0016597669356962666
4.79975e-06;-0.0016673253088525584
4.80000e-06;-0.0016726105772798478
4.80025e-06;-0.0016764505727992027
4.80050e-06;-0.0016802905683185577
4.80075e-06;-0.0016841305638379254
4.80100e-06;-0.0016879705593572803
4.80125e-06;-0.0016918105548766353
4.80150e-06;-0.001695650550396003
4.80175e-06;-0.001699490545915358
4.80200e-06;-0.001703330541434713
4.80225e-06;-0.0017071705369540806
4.80250e-06;-0.0017110105324734356
4.80275e-06;-0.0017148505279927905
4.80300e-06;-0.0017186905235121583
4.80325e-06;-0.0017225305190315132
4.80350e-06;-0.0017261699268298044
4.80375e-06;-0.001728207959976748
4.80400e-06;-0.0017302459931236918
4.80425e-06;-0.0017322840262706425
4.80450e-06;-0.0017343220594175862
4.80475e-06;-0.0017363600925645298
4.80500e-06;-0.0017383981257114804
4.80525e-06;-0.0017404361588584242
4.80550e-06;-0.001742474192005368
4.80575e-06;-0.0017445122251523184
4.80600e-06;-0.0017465502582992621
4.80625e-06;-0.0017460589769802161
4.80650e-06;-0.0017439595208920355
4.80675e-06;-0.001741860064803862
4.80700e-06;-0.0017397606087156882
4.80725e-06;-0.0017376611526275076
4.80750e-06;-0.0017355616965393339
4.80775e-06;-0.0017334622404511532
4.80800e-06;-0.0017313627843629795
4.80825e-06;-0.001729263328274806
4.80850e-06;-0.001727163872186625
4.80875e-06;-0.0017243473275373002
4.80900e-06;-0.0017158059686363798
4.80925e-06;-0.0017072646097354306
4.80950e-06;-0.0016987232508345104
4.80975e-06;-0.00169018189193359
4.81000e-06;-0.0016816405330326407
4.81025e-06;-0.0016730991741317205
4.81050e-06;-0.0016645578152308
4.81075e-06;-0.0016560164563298508
4.81100e-06;-0.0016474750974289306
4.81125e-06;-0.0016389337385280102
4.81150e-06;-0.0016283891556294816
4.81175e-06;-0.0016165708939010794
4.81200e-06;-0.0016047526321726372
4.81225e-06;-0.001592934370444235
4.81250e-06;-0.0015811161087158328
4.81275e-06;-0.0015692978469873905
4.81300e-06;-0.0015574795852589885
4.81325e-06;-0.0015456613235305863
4.81350e-06;-0.001533843061802144
4.81375e-06;-0.0015220248000737417
4.81400e-06;-0.0015102789151411721
4.81425e-06;-0.0014991108440723109
4.81450e-06;-0.0014879427730034875
4.81475e-06;-0.001476921129078136
4.81500e-06;-0.001467068473535709
4.81525e-06;-0.0014572158179933156
4.81550e-06;-0.0014475552028288528
4.81575e-06;-0.0014394277253431387
4.81600e-06;-0.0014317541015921168
4.81625e-06;-0.0014277037797151004
4.81650e-06;-0.001424599925433671
4.81675e-06;-0.0014290521130016203
4.81700e-06;-0.0014335043005695848
4.81725e-06;-0.0014388457356270465
4.81750e-06;-0.001451286400786421
4.81775e-06;-0.0014644264911923624
4.81800e-06;-0.0014831503823090411
4.81825e-06;-0.0015027439270299892
4.81850e-06;-0.0015292802757715805
4.81875e-06;-0.001556855236501082
4.81900e-06;-0.001592721865833386
4.81925e-06;-0.0016285884951658116
4.81950e-06;-0.0016654873844561004
4.81975e-06;-0.0017106272314689579
4.82000e-06;-0.0017557670784819684
4.82025e-06;-0.001801892421034422
4.82050e-06;-0.00185588538163665
4.82075e-06;-0.0019098783422386951
4.82100e-06;-0.001964624319696176
4.82125e-06;-0.0020253819418191467
4.82150e-06;-0.0020861395639419113
4.82175e-06;-0.0021473472320371343
4.82200e-06;-0.002212147803066739
4.82225e-06;-0.0022769483740961234
4.82250e-06;-0.0023419833546886185
4.82275e-06;-0.0024088897236696502
4.82300e-06;-0.002475796092650455
4.82325e-06;-0.0025425606478628395
4.82350e-06;-0.0026081930451720076
4.82375e-06;-0.0026738254424809533
4.82400e-06;-0.002738974135185551
4.82425e-06;-0.0028002612141921923
4.82450e-06;-0.0028615482931986258
4.82475e-06;-0.0029221814133252562
4.82500e-06;-0.0029775937095310153
4.82525e-06;-0.0030322589370249454
4.82550e-06;-0.0030809600063428683
4.82575e-06;-0.003128650383662938
4.82600e-06;-0.0031682719892007698
4.82625e-06;-0.0032064549992411105
4.82650e-06;-0.0032331531070722906
4.82675e-06;-0.003257908288522294
4.82700e-06;-0.0032671522859571006
4.82725e-06;-0.0032763962833918755
4.82750e-06;-0.0032833183708640967
4.82775e-06;-0.0032717036918155982
4.82800e-06;-0.0032600890127671396
4.82825e-06;-0.003245979828235732
4.82850e-06;-0.003211955975837619
4.82875e-06;-0.0031779321234396206
4.82900e-06;-0.003141944096352843
4.82925e-06;-0.003090275251235751
4.82950e-06;-0.003037542893567642
4.82975e-06;-0.002975653961472631
4.83000e-06;-0.002907789783316575
4.83025e-06;-0.002834029056286717
4.83050e-06;-0.0027544837003690586
4.83075e-06;-0.0026695346090531294
4.83100e-06;-0.002579711653907734
4.83125e-06;-0.002485547991188671
4.83150e-06;-0.0023875765702399136
4.83175e-06;-0.002286325156836934
4.83200e-06;-0.002182266734671888
4.83225e-06;-0.0020757675208600123
4.83250e-06;-0.001967214903949699
4.83275e-06;-0.001857163870448358
4.83300e-06;-0.0017462637076982729
4.83325e-06;-0.0016351649833938216
4.83350e-06;-0.0015245185237644171
4.83375e-06;-0.001414971514441939
4.83400e-06;-0.0013071369959934526
4.83425e-06;-0.001201561137488969
4.83450e-06;-0.001098802962170156
4.83475e-06;-0.0009995272278099981
4.83500e-06;-0.0009044567057366037
4.83525e-06;-0.0008143155962283419
4.83550e-06;-0.0007298279443790481
4.83575e-06;-0.0006516978385483705
4.83600e-06;-0.0005804044656257232
4.83625e-06;-0.0005158629617929988
4.83650e-06;-0.00045770200115485187
4.83675e-06;-0.00040587776487807544
4.83700e-06;-0.0003606073626166554
4.83725e-06;-0.0003221145898681749
4.83750e-06;-0.00029062312895409426
4.83775e-06;-0.00026634409544597524
4.83800e-06;-0.00024934779635586436
4.83825e-06;-0.0002393510596839386
4.83850e-06;-0.00023589152152574537
4.83875e-06;-0.00023871179452371682
4.83900e-06;-0.0002477180537285004
4.83925e-06;-0.00026282058334290597
4.83950e-06;-0.0002839296400858836
4.83975e-06;-0.0003109476308382444
4.84000e-06;-0.0003436886737668852
4.84025e-06;-0.00038174563196510623
4.84050e-06;-0.0004245989770384696
4.84075e-06;-0.00047185771289581227
4.84100e-06;-0.0005232332983275135
4.84125e-06;-0.0005784398980816593
4.84150e-06;-0.0006373562104099434
4.84175e-06;-0.0007005126575506574
4.84200e-06;-0.0007642176103695616
4.84225e-06;-0.0008323015106293693
4.84250e-06;-0.000900709879539136
4.84275e-06;-0.000971708615730677
4.84300e-06;-0.0010428454356819527
4.84325e-06;-0.0011150846353354654
4.84350e-06;-0.001187278426937105
4.84375e-06;-0.0012591097073026913
4.84400e-06;-0.0013306796192343543
4.84425e-06;-0.0014001629189740131
4.84450e-06;-0.0014691423759490138
4.84475e-06;-0.0015340994479762615
4.84500e-06;-0.001598108138806214
4.84525e-06;-0.0016545455107257665
4.84550e-06;-0.0017109828826455103
4.84575e-06;-0.0017661243324430973
4.84600e-06;-0.0018109199005443572
4.84625e-06;-0.0018557154686454653
4.84650e-06;-0.0018996968149166062
4.84675e-06;-0.001937177891932133
4.84700e-06;-0.001974658968947533
4.84725e-06;-0.0020111887058126346
4.84750e-06;-0.0020401235012221736
4.84775e-06;-0.0020690582966316146
4.84800e-06;-0.002096875298112401
4.84825e-06;-0.0021157684888567074
4.84850e-06;-0.0021346616796009497
4.84875e-06;-0.0021535548703451924
4.84900e-06;-0.002172448061089499
4.84925e-06;-0.0021913412518337412
4.84950e-06;-0.0022038981067399794
4.84975e-06;-0.002212426227555765
4.85000e-06;-0.0022209543483715215
4.85025e-06;-0.0022294824691873067
4.85050e-06;-0.0022380105900030632
4.85075e-06;-0.002245536260692442
4.85100e-06;-0.0022450589578729497
4.85125e-06;-0.0022445816550534592
4.85150e-06;-0.002244104352233969
4.85175e-06;-0.0022436270494144766
4.85200e-06;-0.002243149746594986
4.85225e-06;-0.0022426724437754958
4.85250e-06;-0.0022421951409560036
4.85275e-06;-0.002241717838136513
4.85300e-06;-0.002240705948237152
4.85325e-06;-0.0022354262288214956
4.85350e-06;-0.0022301465094058575
4.85375e-06;-0.0022248667899902193
4.85400e-06;-0.0022195870705745634
4.85425e-06;-0.0022143073511589253
4.85450e-06;-0.002209027631743269
4.85475e-06;-0.002203747912327631
4.85500e-06;-0.0021984681929119927
4.85525e-06;-0.002193278673331055
4.85550e-06;-0.002188809256295475
4.85575e-06;-0.0021843398392598955
4.85600e-06;-0.0021802256067516225
4.85625e-06;-0.0021789469590643364
4.85650e-06;-0.0021776683113770502
4.85675e-06;-0.0021763896636897598
4.85700e-06;-0.0021756809686919276
4.85725e-06;-0.002179522441481573
4.85750e-06;-0.002183363914271231
4.85775e-06;-0.002187205387060876
4.85800e-06;-0.002191401623213002
4.85825e-06;-0.0021991489778763187
4.85850e-06;-0.0022126355764946473
4.85875e-06;-0.002226122175113022
4.85900e-06;-0.0022396087737313504
4.85925e-06;-0.002253095372349679
4.85950e-06;-0.002266581970968053
4.85975e-06;-0.0022800685695863816
4.86000e-06;-0.00229355516820471
4.86025e-06;-0.002307989838086652
4.86050e-06;-0.0023299933525460087
4.86075e-06;-0.0023519968670053654
4.86100e-06;-0.0023740003814647966
4.86125e-06;-0.0023960038959241533
4.86150e-06;-0.00241800741038351
4.86175e-06;-0.002440010924842941
4.86200e-06;-0.002462014439302298
4.86225e-06;-0.002484328342978279
4.86250e-06;-0.0025091202120028047
4.86275e-06;-0.002533912081027246
4.86300e-06;-0.002558703950051771
4.86325e-06;-0.0025834958190762126
4.86350e-06;-0.0026082876881006536
4.86375e-06;-0.002633079557125179
4.86400e-06;-0.0026578714261496204
4.86425e-06;-0.0026798017154681837
4.86450e-06;-0.002699912570968151
4.86475e-06;-0.0027200234264680495
4.86500e-06;-0.0027401342819679485
4.86525e-06;-0.0027602451374679152
4.86550e-06;-0.0027803559929678143
4.86575e-06;-0.002800466848467713
4.86600e-06;-0.0028192570814383807
4.86625e-06;-0.0028275042391665084
4.86650e-06;-0.002835751396894636
4.86675e-06;-0.0028439985546227916
4.86700e-06;-0.0028522457123509194
4.86725e-06;-0.002860492870079075
4.86750e-06;-0.0028601825441955126
4.86775e-06;-0.0028544312463016615
4.86800e-06;-0.002848679948407791
4.86825e-06;-0.00284292865051394
4.86850e-06;-0.0028371773526200887
4.86875e-06;-0.0028298122797754555
4.86900e-06;-0.002809563774799024
4.86925e-06;-0.0027893152698225928
4.86950e-06;-0.0027690667648460924
4.86975e-06;-0.002748818259869661
4.87000e-06;-0.0027285697548932292
4.87025e-06;-0.0027070082263401297
4.87050e-06;-0.0026749642881255496
4.87075e-06;-0.002642920349910969
4.87100e-06;-0.0026108764116962806
4.87125e-06;-0.0025788324734817
4.87150e-06;-0.0025467885352670116
4.87175e-06;-0.002514172452145506
4.87200e-06;-0.0024769886998620523
4.87225e-06;-0.002439639177088417
4.87250e-06;-0.0024009662400081527
4.87275e-06;-0.0023622184781303917
4.87300e-06;-0.002322873358981766
4.87325e-06;-0.002283555012959638
4.87350e-06;-0.00224445040786604
4.87375e-06;-0.00220547090817499
4.87400e-06;-0.0021674901765983087
4.87425e-06;-0.0021297258589666004
4.87450e-06;-0.002093689263264307
4.87475e-06;-0.002058080285966713
4.87500e-06;-0.0020258851630541867
4.87525e-06;-0.0019936900401415513
4.87550e-06;-0.001962066405550815
4.87575e-06;-0.001935005198330765
4.87600e-06;-0.001908107817763058
4.87625e-06;-0.0018825183330416358
4.87650e-06;-0.001856682771409852
4.87675e-06;-0.001828882676142258
4.87700e-06;-0.0018008946808708015
4.87725e-06;-0.0017714066022417245
4.87750e-06;-0.0017419185236127474
4.87775e-06;-0.0017123266462035003
4.87800e-06;-0.00168190610024914
4.87825e-06;-0.0016509468196404498
4.87850e-06;-0.0016156865977195423
4.87875e-06;-0.0015804263757985154
4.87900e-06;-0.0015451661538776079
4.87925e-06;-0.001509371859273312
4.87950e-06;-0.0014693138417976458
4.87975e-06;-0.0014292558243221153
4.88000e-06;-0.001389197806846449
4.88025e-06;-0.001348679260711872
4.88050e-06;-0.00130448412403564
4.88075e-06;-0.0012602889873592582
4.88100e-06;-0.0012158171691259876
4.88125e-06;-0.001169136487718536
4.88150e-06;-0.0011223806445815093
4.88175e-06;-0.0010750247543074615
4.88200e-06;-0.0010276201546971298
4.88225e-06;-0.000979826688332003
4.88250e-06;-0.00093198591543372
4.88275e-06;-0.000883767474936426
4.88300e-06;-0.0008356224434746135
4.88325e-06;-0.0007880634666716386
4.88350e-06;-0.0007407066036467538
4.88375e-06;-0.0006949632984104976
4.88400e-06;-0.0006494892147138414
4.88425e-06;-0.000606164437788548
4.88450e-06;-0.0005631603276908899
4.88475e-06;-0.0005227162333524356
4.88500e-06;-0.0004825906028251351
4.88525e-06;-0.00044526411665141716
4.88550e-06;-0.00041027712242457885
4.88575e-06;-0.0003778983216649791
4.88600e-06;-0.00034806316784271246
4.88625e-06;-0.0003199569650656347
4.88650e-06;-0.00029258754972756227
4.88675e-06;-0.00026568875517182837
4.88700e-06;-0.00023952124113304704
4.88725e-06;-0.00021459447973487067
4.88750e-06;-0.00018987032779355255
4.88775e-06;-0.00016691112446835725
4.88800e-06;-0.0001452245895601244
4.88825e-06;-0.0001243249981662971
4.88850e-06;-0.00010361547473788024
4.88875e-06;-8.295397585651612e-05
4.88900e-06;-6.249107825370338e-05
4.88925e-06;-4.2384271233398805e-05
4.88950e-06;-2.279099094746089e-05
4.88975e-06;-3.856672401238515e-06
4.89000e-06;1.440401491203749e-05
4.89025e-06;3.227069841515852e-05
4.89050e-06;5.0092584859519824e-05
4.89075e-06;6.792233855911553e-05
4.89100e-06;8.558295397186675e-05
4.89125e-06;0.00010316957071813985
4.89150e-06;0.00012016542553948639
4.89175e-06;0.00013704585594533935
4.89200e-06;0.0001530048055584138
4.89225e-06;0.00016896375517154233
4.89250e-06;0.0001848712519371948
4.89275e-06;0.00020036797936564632
4.89300e-06;0.00021576472279544875
4.89325e-06;0.00023036325265893048
4.89350e-06;0.0002449617825224617
4.89375e-06;0.00025938538641955374
