Time(s);Current(A)
1.20500e-05;-0.0008277243002762488
1.20503e-05;-0.0008284271524901694
1.20505e-05;-0.0008291300047040949
1.20508e-05;-0.0008298328569180203
1.20510e-05;-0.0008305357091319411
1.20513e-05;-0.0008312385613458665
1.20515e-05;-0.0008345087109962546
1.20518e-05;-0.0008380305919778365
1.20520e-05;-0.0008415524729594422
1.20523e-05;-0.0008450743539410478
1.20525e-05;-0.0008485962349226297
1.20528e-05;-0.0008533312303069919
1.20530e-05;-0.000859806863627701
1.20533e-05;-0.0008662824969483663
1.20535e-05;-0.0008727581302690753
1.20538e-05;-0.0008792337635897844
1.20540e-05;-0.0008857093969104495
1.20543e-05;-0.0008921850302311586
1.20545e-05;-0.0008986606635518677
1.20548e-05;-0.0009069606566544954
1.20550e-05;-0.0009154395337891165
1.20553e-05;-0.0009239184109237377
1.20555e-05;-0.0009323972880583013
1.20558e-05;-0.0009408761651929225
1.20560e-05;-0.0009493550423275436
1.20562e-05;-0.0009578339194621073
1.20565e-05;-0.0009663835744427897
1.20568e-05;-0.0009750347850588219
1.20570e-05;-0.0009836859956747956
1.20573e-05;-0.000992115437831489
1.20575e-05;-0.0010002266753797806
1.20578e-05;-0.0010083379129280723
1.20580e-05;-0.0010160507003683793
1.20583e-05;-0.0010231917714296724
1.20585e-05;-0.0010303328424909658
1.20588e-05;-0.0010369957048920256
1.20590e-05;-0.0010429724093069595
1.20593e-05;-0.0010487836838542783
1.20595e-05;-0.0010543575912556533
1.20598e-05;-0.0010601673318426145
1.20600e-05;-0.0010663154578189385
1.20603e-05;-0.0010726679008378755
1.20605e-05;-0.0010793135082894734
1.20608e-05;-0.0010859591157410713
1.20610e-05;-0.0010928119727107704
1.20613e-05;-0.0010999622017773807
1.20615e-05;-0.001107112430843991
1.20618e-05;-0.0011147851027323188
1.20620e-05;-0.001123207402020532
1.20623e-05;-0.0011316297013087453
1.20625e-05;-0.0011404914894243556
1.20628e-05;-0.001149983878350802
1.20630e-05;-0.0011594762672772485
1.20633e-05;-0.0011689686562036308
1.20635e-05;-0.0011789520873548474
1.20638e-05;-0.0011896400907402869
1.20640e-05;-0.001200328094125654
1.20643e-05;-0.0012110160975110935
1.20645e-05;-0.001222053025330528
1.20647e-05;-0.0012335906075857765
1.20650e-05;-0.0012451281898411032
1.20653e-05;-0.00125666577209643
1.20655e-05;-0.0012682033543516787
1.20658e-05;-0.0012797409366070054
1.20660e-05;-0.0012912785188623323
1.20663e-05;-0.001302441541456094
1.20665e-05;-0.0013135678373343556
1.20668e-05;-0.0013246941332126926
1.20670e-05;-0.0013358204290910296
1.20673e-05;-0.001346946724969291
1.20675e-05;-0.001358073020847628
1.20678e-05;-0.0013686807154226386
1.20680e-05;-0.0013785442946026634
1.20683e-05;-0.0013881226985095775
1.20685e-05;-0.0013970609860574235
1.20688e-05;-0.0014054062444201975
1.20690e-05;-0.0014130482375917398
1.20693e-05;-0.0014196748291323783
1.20695e-05;-0.0014246814368888612
1.20698e-05;-0.0014275252759047767
1.20700e-05;-0.0014280487595549722
1.20703e-05;-0.001425865233667663
1.20705e-05;-0.0014217373209786486
1.20708e-05;-0.001416312242098163
1.20710e-05;-0.001408177545609843
1.20713e-05;-0.001397889392634566
1.20715e-05;-0.0013846366085402137
1.20718e-05;-0.0013690573863044905
1.20720e-05;-0.0013518880053256291
1.20723e-05;-0.001331463147246721
1.20725e-05;-0.00130873364852474
1.20728e-05;-0.0012838612994357339
1.20730e-05;-0.0012569937711253136
1.20732e-05;-0.0012281995320092619
1.20735e-05;-0.0011974324076092042
1.20738e-05;-0.0011646704351423339
1.20740e-05;-0.0011300427883352573
1.20743e-05;-0.0010937622430969548
1.20745e-05;-0.001056047496005269
1.20748e-05;-0.0010171172706587915
1.20750e-05;-0.0009771815587181969
1.20753e-05;-0.000936400571567926
1.20755e-05;-0.0008948627541895905
1.20758e-05;-0.0008526717244056544
1.20760e-05;-0.000810025802024811
1.20763e-05;-0.0007671755917439212
1.20765e-05;-0.000724375402833805
1.20768e-05;-0.000681879544564412
1.20770e-05;-0.0006399368517210621
1.20773e-05;-0.0005987650195272922
1.20775e-05;-0.0005585366911905367
1.20778e-05;-0.0005194340299717613
1.20780e-05;-0.0004816984868803294
1.20783e-05;-0.0004456042755606671
1.20785e-05;-0.0004114279562033751
1.20788e-05;-0.0003794459860941691
1.20790e-05;-0.00034993522892097907
1.20793e-05;-0.0003231642384490886
1.20795e-05;-0.00029935577008312065
1.20798e-05;-0.000278647044251149
1.20800e-05;-0.00026110547364197175
1.20803e-05;-0.00024677614608425736
1.20805e-05;-0.00023570323937226526
1.20808e-05;-0.00022793092558679465
1.20810e-05;-0.00022350356337519744
1.20813e-05;-0.00022246032041289786
1.20815e-05;-0.0002248116471120568
1.20817e-05;-0.00023051443564954738
1.20820e-05;-0.00023948184331865557
1.20823e-05;-0.0002516130417282608
1.20825e-05;-0.0002668066443071515
1.20828e-05;-0.0002849612447348672
1.20830e-05;-0.0003059755887023035
1.20833e-05;-0.0003297451374267818
1.20835e-05;-0.0003561473870110523
1.20838e-05;-0.0003850262888510076
1.20840e-05;-0.00041660656395605013
1.20843e-05;-0.00045005721156233787
1.20845e-05;-0.00048498233055802606
1.20848e-05;-0.0005220230957224461
1.20850e-05;-0.0005602211766839669
1.20853e-05;-0.0006000798329208688
1.20855e-05;-0.0006407513785365328
1.20858e-05;-0.0006825892989710222
1.20860e-05;-0.0007248428141358923
1.20863e-05;-0.0007676926456518155
1.20865e-05;-0.0008105482863376523
1.20868e-05;-0.0008534122623151774
1.20870e-05;-0.0008958716522987397
1.20873e-05;-0.0009377505218226814
1.20875e-05;-0.000978797412987083
1.20878e-05;-0.001018650539496198
1.20880e-05;-0.0010572112690709907
1.20883e-05;-0.0010939176021196324
1.20885e-05;-0.0011288632784755073
1.20888e-05;-0.0011612826755053134
1.20890e-05;-0.0011910235032009428
1.20893e-05;-0.001216920984058812
1.20895e-05;-0.0012428184649165054
1.20898e-05;-0.001265583966322852
1.20900e-05;-0.0012838555451091258
1.20902e-05;-0.001302127123895276
1.20905e-05;-0.001317048062557406
1.20908e-05;-0.0013271613332002856
1.20910e-05;-0.0013372746038430967
1.20913e-05;-0.0013440162129749887
1.20915e-05;-0.001345919991537936
1.20918e-05;-0.0013478237701008836
1.20920e-05;-0.0013472006154060506
1.20923e-05;-0.0013429516889899966
1.20925e-05;-0.0013372385169979053
1.20928e-05;-0.0013284670774758975
1.20930e-05;-0.0013173859989528453
1.20933e-05;-0.0013040819682891844
1.20935e-05;-0.0012887225852719788
1.20938e-05;-0.0012715020893515373
1.20940e-05;-0.0012525679939001948
1.20943e-05;-0.0012320345897163828
1.20945e-05;-0.0012100133818870099
1.20948e-05;-0.0011866158692695414
1.20950e-05;-0.001161957934873458
1.20953e-05;-0.0011361838977468862
1.20955e-05;-0.001109488649075003
1.20958e-05;-0.001082083709567007
1.20960e-05;-0.001054151263345213
1.20963e-05;-0.0010258527473118858
1.20965e-05;-0.0009973478832887663
1.20968e-05;-0.000968796393097013
1.20970e-05;-0.0009403606999420402
1.20973e-05;-0.000912220920808293
1.20975e-05;-0.0008845889520357364
1.20978e-05;-0.0008576870753580449
1.20980e-05;-0.0008317192350689172
1.20983e-05;-0.0008068762753985612
1.20985e-05;-0.000783347963717294
1.20987e-05;-0.0007613240705103262
1.20990e-05;-0.0007409899748298187
1.20993e-05;-0.0007224985494308361
1.20995e-05;-0.0007059313795335267
1.20998e-05;-0.0006913163425910989
1.21000e-05;-0.0006791012930451159
1.21003e-05;-0.0006686689668102388
1.21005e-05;-0.0006599495807916093
1.21008e-05;-0.0006536880080841436
1.21010e-05;-0.000649193319595213
1.21013e-05;-0.0006472338460020591
1.21015e-05;-0.0006469964686423447
1.21018e-05;-0.0006492300421107543
1.21020e-05;-0.0006530904820615611
1.21023e-05;-0.0006592852323742979
1.21025e-05;-0.0006670212296506052
1.21028e-05;-0.0006769686860700057
1.21030e-05;-0.0006883634864877742
1.21033e-05;-0.0007018350093219262
1.21035e-05;-0.0007165981521431513
1.21038e-05;-0.000733214576688797
1.21040e-05;-0.0007509353292711834
1.21043e-05;-0.0007702406276087655
1.21045e-05;-0.0007904689863574349
1.21048e-05;-0.0008120217988983386
1.21050e-05;-0.0008343112285644027
1.21053e-05;-0.000857657593761033
1.21055e-05;-0.0008815154767141358
1.21058e-05;-0.0009061073112311649
1.21060e-05;-0.0009309657818794408
1.21063e-05;-0.000956206835542635
1.21065e-05;-0.0009814734686793883
1.21068e-05;-0.00100677680453976
1.21070e-05;-0.0010318614478527625
1.21072e-05;-0.0010566323000309298
1.21075e-05;-0.001080915994717987
1.21078e-05;-0.0011045006911822276
1.21080e-05;-0.0011273174535952695
1.21083e-05;-0.0011490323453679867
1.21085e-05;-0.001169700917134918
1.21088e-05;-0.0011888681760047746
1.21090e-05;-0.0012064156645048812
1.21093e-05;-0.0012216390245044385
1.21095e-05;-0.0012368623845039957
1.21098e-05;-0.0012500975261192802
1.21100e-05;-0.0012604798713759862
1.21103e-05;-0.0012708622166326925
1.21105e-05;-0.0012791285895728563
1.21108e-05;-0.0012843588583468014
1.21110e-05;-0.0012895891271207465
1.21113e-05;-0.0012926766647393026
1.21115e-05;-0.0012926897032553473
1.21118e-05;-0.0012927027417713919
1.21120e-05;-0.0012910771400755625
1.21123e-05;-0.00128710033447428
1.21125e-05;-0.001281877426005616
1.21128e-05;-0.00127486654607928
1.21130e-05;-0.0012669562249196726
1.21133e-05;-0.001257192878409663
1.21135e-05;-0.001246107595093686
1.21138e-05;-0.0012338108054494585
1.21140e-05;-0.0012203964381765258
1.21143e-05;-0.0012059451504034403
1.21145e-05;-0.001190536570210134
1.21148e-05;-0.0011742502300526308
1.21150e-05;-0.0011571675811008538
1.21153e-05;-0.0011393829693797828
1.21155e-05;-0.001121014716241182
1.21158e-05;-0.0011021919138921481
1.21160e-05;-0.00108303358052313
1.21163e-05;-0.0010636501547939719
1.21165e-05;-0.001044151374771047
1.21168e-05;-0.001024647109496915
1.21170e-05;-0.0010052483131315808
1.21173e-05;-0.0009860739837888992
1.21175e-05;-0.0009672581953670275
1.21178e-05;-0.000948941778242445
1.21180e-05;-0.0009312590913834825
1.21183e-05;-0.0009143392778494701
1.21185e-05;-0.0008983109869663579
1.21188e-05;-0.0008833028711753712
1.21190e-05;-0.0008694483714083809
1.21193e-05;-0.0008569033579876676
1.21195e-05;-0.0008458418147747395
1.21198e-05;-0.0008367359309597307
1.21200e-05;-0.0008290982418368005
1.21203e-05;-0.0008231890438152022
1.21205e-05;-0.0008197599723031366
1.21208e-05;-0.0008163309007910479
1.21210e-05;-0.000815030631175444
1.21213e-05;-0.0008167848742574924
1.21215e-05;-0.0008185391173395529
1.21218e-05;-0.0008224428729262602
1.21220e-05;-0.0008294308578393196
1.21223e-05;-0.0008364188427524261
1.21225e-05;-0.0008453506365767939
1.21228e-05;-0.000857071505801233
1.21230e-05;-0.0008687923750257515
1.21233e-05;-0.0008822423608932555
1.21235e-05;-0.0008981733708289836
1.21238e-05;-0.0009141043807648195
1.21240e-05;-0.0009314642712590335
1.21243e-05;-0.0009508743918926432
1.21245e-05;-0.0009702845125263845
1.21248e-05;-0.0009905852211859257
1.21250e-05;-0.0010121637906166372
1.21253e-05;-0.0010342533279646523
1.21255e-05;-0.0010570760279398747
1.21258e-05;-0.0010802216030292135
1.21260e-05;-0.0011038304556725731
1.21263e-05;-0.001127535697510532
1.21265e-05;-0.0011513792434428548
1.21268e-05;-0.0011750892501785554
1.21270e-05;-0.0011986076481170155
1.21273e-05;-0.0012217692721621753
1.21275e-05;-0.0012444189789690093
1.21278e-05;-0.001266478182429825
1.21280e-05;-0.001287690101804589
1.21283e-05;-0.0013082983455993834
1.21285e-05;-0.0013275511917093252
1.21288e-05;-0.0013455478517897712
1.21290e-05;-0.0013621132189556848
1.21293e-05;-0.0013765044830099473
1.21295e-05;-0.0013890857196704278
1.21298e-05;-0.001399650528808044
1.21300e-05;-0.0014073220656858213
1.21303e-05;-0.0014124464926009144
1.21305e-05;-0.0014139161972338654
1.21308e-05;-0.0014153859018668266
1.21310e-05;-0.0014137477721608215
1.21313e-05;-0.0014076503644597205
1.21315e-05;-0.001401552956758578
1.21318e-05;-0.001392696424304128
1.21320e-05;-0.0013798809600162184
1.21323e-05;-0.0013655038569045288
1.21325e-05;-0.0013479111466475975
1.21328e-05;-0.0013279944525631888
1.21330e-05;-0.0013058681528916713
1.21333e-05;-0.0012816108682038923
1.21335e-05;-0.0012552555650515735
1.21338e-05;-0.0012268616058701773
1.21340e-05;-0.0011965713616475893
1.21343e-05;-0.0011645701052295618
1.21345e-05;-0.0011310461487949433
1.21348e-05;-0.0010961877359186704
1.21350e-05;-0.0010601789505236248
1.21353e-05;-0.001023181604126216
1.21355e-05;-0.0009853289508367487
1.21358e-05;-0.0009467705743262194
1.21360e-05;-0.0009077080493027299
1.21363e-05;-0.000868369967608327
1.21365e-05;-0.0008289867016546803
1.21368e-05;-0.0007897885687607282
1.21370e-05;-0.0007510033251823112
1.21373e-05;-0.0007128447222094035
1.21375e-05;-0.0006755085549137005
1.21378e-05;-0.0006392008842329025
1.21380e-05;-0.0006041603841331708
1.21383e-05;-0.0005706425498429794
1.21385e-05;-0.0005389040293344023
1.21388e-05;-0.0005092013541648775
1.21390e-05;-0.0004817559051598928
1.21393e-05;-0.0004565762600134924
1.21395e-05;-0.00043332229692116364
1.21398e-05;-0.00041161332544664654
1.21400e-05;-0.00039137192335254845
1.21403e-05;-0.0003727078206375158
1.21405e-05;-0.0003557449518073017
1.21408e-05;-0.0003406071947171266
1.21410e-05;-0.00032739640299507815
1.21413e-05;-0.00031608107198748245
1.21415e-05;-0.00030641130315697796
1.21418e-05;-0.0002981118126116968
1.21420e-05;-0.0002910973213702973
1.21423e-05;-0.00028568349732962394
1.21425e-05;-0.00028146706534027516
1.21427e-05;-0.00027811863215121207
1.21430e-05;-0.00027686606944691004
1.21433e-05;-0.0002768337350912725
1.21435e-05;-0.00027766656666895463
1.21438e-05;-0.00027974078211368377
1.21440e-05;-0.00028252665676688763
1.21443e-05;-0.00028633365606936973
1.21445e-05;-0.00029083195260201953
1.21448e-05;-0.0002963221573870387
1.21450e-05;-0.00030244796428179895
1.21453e-05;-0.0003094857652513072
1.21455e-05;-0.0003169250264984084
1.21458e-05;-0.0003249403232695995
1.21460e-05;-0.0003332005614310961
1.21463e-05;-0.00034181225389600653
1.21465e-05;-0.0003505957890262746
1.21468e-05;-0.00035962589270968506
1.21470e-05;-0.0003687326152840498
1.21473e-05;-0.00037794927452074916
1.21475e-05;-0.00038703555613610644
1.21478e-05;-0.00039593476534209896
1.21480e-05;-0.00040445097771000415
1.21483e-05;-0.0004124176468310864
1.21485e-05;-0.00042038431595222266
1.21488e-05;-0.00042793868140990376
1.21490e-05;-0.0004346821505529903
1.21493e-05;-0.00044103182484407893
1.21495e-05;-0.00044752694699854004
1.21498e-05;-0.00045439367565262476
1.21500e-05;-0.0004617491117066339
1.21503e-05;-0.0004698057698715424
1.21505e-05;-0.00047786242803639627
1.21508e-05;-0.00048622501591003887
1.21510e-05;-0.0004950265672129338
1.21512e-05;-0.0005043358391942219
1.21515e-05;-0.0005143736145008738
1.21518e-05;-0.0005244113898075259
1.21520e-05;-0.000535292546659123
1.21523e-05;-0.0005473838300350592
1.21525e-05;-0.0005594751134110774
1.21528e-05;-0.0005721865857554626
1.21530e-05;-0.0005857879366194998
1.21533e-05;-0.0005993892874836292
1.21535e-05;-0.0006129906383477587
1.21538e-05;-0.0006281897373060626
1.21540e-05;-0.0006435455003316445
1.21543e-05;-0.0006589012633572264
1.21545e-05;-0.0006746898135467817
1.21548e-05;-0.0006910993486629874
1.21550e-05;-0.000707508883779193
1.21553e-05;-0.0007240877374801444
1.21555e-05;-0.0007409095380560465
1.21558e-05;-0.0007577313386319485
1.21560e-05;-0.0007745812766288173
1.21563e-05;-0.0007914715876216144
1.21565e-05;-0.0008083618986144117
1.21568e-05;-0.0008249177081840754
1.21570e-05;-0.0008409935581828177
1.21573e-05;-0.0008570694081815601
1.21575e-05;-0.0008725861992590137
1.21578e-05;-0.0008873008243021873
1.21580e-05;-0.000902015449345361
1.21583e-05;-0.0009154839922406115
1.21585e-05;-0.0009271645934053101
1.21588e-05;-0.0009388451945700088
1.21590e-05;-0.0009505257957346282
1.21593e-05;-0.0009622063968993267
1.21595e-05;-0.0009722496870298456
1.21597e-05;-0.0009799436804231252
1.21600e-05;-0.000987637673816457
1.21603e-05;-0.0009953316672097886
1.21605e-05;-0.0010030256606031204
1.21608e-05;-0.0010087355522357486
1.21610e-05;-0.0010115985542454434
1.21613e-05;-0.001014461556255138
1.21615e-05;-0.0010173245582648133
1.21618e-05;-0.0010201875602745079
1.21620e-05;-0.0010230505622842027
1.21623e-05;-0.0010259135642938777
1.21625e-05;-0.0010287765663035725
1.21628e-05;-0.001029744063569931
1.21630e-05;-0.0010279917946977176
1.21633e-05;-0.0010262395258254923
1.21635e-05;-0.001024487256953267
1.21638e-05;-0.0010227349880810536
1.21640e-05;-0.0010209827192088283
1.21643e-05;-0.001019230450336603
1.21645e-05;-0.0010174781814643896
1.21648e-05;-0.0010148211263653238
1.21650e-05;-0.001010865838196039
1.21653e-05;-0.0010069105500267812
1.21655e-05;-0.00100267857323257
1.21658e-05;-0.000998049589595873
1.21660e-05;-0.0009934206059592071
1.21663e-05;-0.0009886608721653269
1.21665e-05;-0.0009837135314285403
1.21668e-05;-0.0009787661906917873
1.21670e-05;-0.0009738005219831873
1.21673e-05;-0.0009688085553730337
1.21675e-05;-0.000963816588762914
1.21678e-05;-0.000958973081911921
1.21680e-05;-0.0009543425926370617
1.21682e-05;-0.0009497121033622336
1.21685e-05;-0.0009456112039989952
1.21688e-05;-0.0009415622325397256
1.21690e-05;-0.0009377200794924716
1.21693e-05;-0.0009341746799700868
1.21695e-05;-0.0009304369443208712
1.21698e-05;-0.000926423235062583
1.21700e-05;-0.0009220329019209455
1.21703e-05;-0.0009171021697700729
1.21705e-05;-0.0009121714376192005
1.21708e-05;-0.0009069153839686978
1.21710e-05;-0.0009011925425655612
1.21713e-05;-0.0008954697011624245
1.21715e-05;-0.0008890538419579361
1.21718e-05;-0.0008816436057375432
1.21720e-05;-0.0008742333695171503
1.21723e-05;-0.0008668231332968076
1.21725e-05;-0.0008594128970764147
1.21728e-05;-0.0008503935400390395
1.21730e-05;-0.0008412164038041626
1.21733e-05;-0.0008320392675692235
1.21735e-05;-0.0008228621313342844
1.21738e-05;-0.0008131217924630278
1.21740e-05;-0.0008025733419446283
1.21743e-05;-0.0007920248914262288
1.21745e-05;-0.0007812220685808794
1.21748e-05;-0.0007700542594465302
1.21750e-05;-0.0007587907782993301
1.21753e-05;-0.0007473900221060824
1.21755e-05;-0.0007358979926131426
1.21758e-05;-0.0007242749995704501
1.21760e-05;-0.0007126265585374125
1.21763e-05;-0.0007009416034396775
1.21765e-05;-0.0006893464036073691
1.21767e-05;-0.0006778799891726114
1.21770e-05;-0.0006666068790595837
1.21773e-05;-0.0006556111317708947
1.21775e-05;-0.0006448588556503296
1.21778e-05;-0.0006344559242842842
1.21780e-05;-0.000624287176585791
1.21783e-05;-0.0006146503097351578
1.21785e-05;-0.0006055202925313314
1.21788e-05;-0.0005969701308914635
1.21790e-05;-0.000589097437339165
1.21793e-05;-0.0005821388553370788
1.21795e-05;-0.0005765297934306944
1.21798e-05;-0.0005726563297746596
1.21800e-05;-0.0005709998648892188
1.21803e-05;-0.0005709508249348991
1.21805e-05;-0.0005723332792657013
1.21808e-05;-0.0005757697140468685
1.21810e-05;-0.0005806262996923678
1.21813e-05;-0.0005875205896739649
1.21815e-05;-0.0005960740551625911
1.21818e-05;-0.0006070081896422032
1.21820e-05;-0.0006195825540841285
1.21823e-05;-0.0006345104034904039
1.21825e-05;-0.0006508841744831607
1.21828e-05;-0.0006693326269483969
1.21830e-05;-0.0006893947298323032
1.21833e-05;-0.0007117721800066447
1.21835e-05;-0.0007341496301809864
1.21838e-05;-0.0007583476376382915
1.21840e-05;-0.0007851578728269446
1.21843e-05;-0.0008119681080155976
1.21845e-05;-0.0008399047644140092
1.21848e-05;-0.0008694576669746903
1.21850e-05;-0.0008996180939886995
1.21852e-05;-0.0009306502278359642
1.21855e-05;-0.0009621400908263062
1.21858e-05;-0.0009942867267572915
1.21860e-05;-0.001026640054398165
1.21863e-05;-0.0010592899537651866
1.21865e-05;-0.0010918267536090126
1.21868e-05;-0.001124201272532474
1.21870e-05;-0.0011561576746380172
1.21873e-05;-0.001187514141572102
1.21875e-05;-0.0012182090085673754
1.21878e-05;-0.0012479545784854784
1.21880e-05;-0.00127673171431089
1.21883e-05;-0.0013041192918855902
1.21885e-05;-0.0013301885942288627
1.21888e-05;-0.0013543663685501505
1.21890e-05;-0.0013768412192927662
1.21893e-05;-0.0013968726290964084
1.21895e-05;-0.0014147459680321326
1.21898e-05;-0.001429522797662269
1.21900e-05;-0.0014413972893639994
1.21903e-05;-0.001449107359713293
1.21905e-05;-0.0014568174300625865
1.21908e-05;-0.0014609848468980827
1.21910e-05;-0.0014600690851714806
1.21913e-05;-0.0014591533234448784
1.21915e-05;-0.001455166654261397
1.21918e-05;-0.0014467736916342557
1.21920e-05;-0.0014365771609571873
1.21923e-05;-0.0014226510744156271
1.21925e-05;-0.0014059910538325243
1.21928e-05;-0.0013867091177685422
