Time(s);Current(A)
5.30000e-06;8.864448733523884e-05
5.30025e-06;8.163337821616674e-05
5.30050e-06;7.520036882674844e-05
5.30075e-06;6.878808920924143e-05
5.30100e-06;6.293121099169125e-05
5.30125e-06;5.7528783081489215e-05
5.30150e-06;5.2331653927606926e-05
5.30175e-06;4.714132773563875e-05
5.30200e-06;4.1224268670116506e-05
5.30225e-06;3.4577234941051176e-05
5.30250e-06;2.7279263208644734e-05
5.30275e-06;1.9411359157735288e-05
5.30300e-06;1.1054528721390562e-05
5.30325e-06;2.289330078870176e-06
5.30350e-06;-6.925342136144074e-06
5.30375e-06;-1.6847599010473442e-05
5.30400e-06;-2.7708763081123042e-05
5.30425e-06;-3.951658073266857e-05
5.30450e-06;-5.2174325991562526e-05
5.30475e-06;-6.558183363160702e-05
5.30500e-06;-7.963894620643119e-05
5.30525e-06;-9.424578046084919e-05
5.30550e-06;-0.00010937868481751278
5.30575e-06;-0.00012514992456800822
5.30600e-06;-0.00014198682970745756
5.30625e-06;-0.000158861150570738
5.30650e-06;-0.00017703378685734637
5.30675e-06;-0.00019525297874885977
5.30700e-06;-0.00021347217064031146
5.30725e-06;-0.00023263070118105902
5.30750e-06;-0.00025182291496864557
5.30775e-06;-0.0002710151287562321
5.30800e-06;-0.0002902073425438837
5.30825e-06;-0.0003094537866982552
5.30850e-06;-0.00032876252898924604
5.30875e-06;-0.00034807127128030235
5.30900e-06;-0.00036738001357129323
5.30925e-06;-0.00038668875586228405
5.30950e-06;-0.0004046999998651675
5.30975e-06;-0.0004226647175643823
5.31000e-06;-0.00044062943526359714
5.31025e-06;-0.00045676533417835484
5.31050e-06;-0.0004728356544493104
5.31075e-06;-0.000488905974720266
5.31100e-06;-0.0005021203770825512
5.31125e-06;-0.0005152323705977943
5.31150e-06;-0.0005283443641130818
5.31175e-06;-0.000538394596576579
5.31200e-06;-0.0005483350389729069
5.31225e-06;-0.000555625659470584
5.31250e-06;-0.0005628212614088763
5.31275e-06;-0.0005672789313302143
5.31300e-06;-0.0005716384231981736
5.31325e-06;-0.0005731749073354673
5.31350e-06;-0.0005746101627344411
5.31375e-06;-0.0005725209853062586
5.31400e-06;-0.0005703054271089093
5.31425e-06;-0.00056808986891156
5.31450e-06;-0.0005619189830707538
5.31475e-06;-0.0005556062652319201
5.31500e-06;-0.0005492935473930863
5.31525e-06;-0.0005393893120355939
5.31550e-06;-0.0005293562903545832
5.31575e-06;-0.0005193232686735384
5.31600e-06;-0.0005062126115093322
5.31625e-06;-0.0004929915950451983
5.31650e-06;-0.0004797705785810194
5.31675e-06;-0.0004641584606706597
5.31700e-06;-0.0004484606015206126
5.31725e-06;-0.00043276274237051234
5.31750e-06;-0.0004153958389488212
5.31775e-06;-0.0003979690861530455
5.31800e-06;-0.00038054233335721075
5.31825e-06;-0.00036229609464955633
5.31850e-06;-0.00034402047043084906
5.31875e-06;-0.00032574484621207984
5.31900e-06;-0.000307566191823793
5.31925e-06;-0.0002893910146252687
5.31950e-06;-0.0002712158374266829
5.31975e-06;-0.0002540880402262459
5.32000e-06;-0.0002369978004700683
5.32025e-06;-0.00021990756071394853
5.32050e-06;-0.00020445426750385288
5.32075e-06;-0.00018905967269243197
5.32100e-06;-0.000174998059503763
5.32125e-06;-0.0001620290214007492
5.32150e-06;-0.0001503105770468462
5.32175e-06;-0.00014008735744107294
5.32200e-06;-0.0001315454027748749
5.32225e-06;-0.00012473958570225993
5.32250e-06;-0.00011967147005561952
5.32275e-06;-0.00011634087393598462
5.32300e-06;-0.00011474757329990155
5.32325e-06;-0.00011489149009847891
5.32350e-06;-0.00011680461651871138
5.32375e-06;-0.00012056410043808905
5.32400e-06;-0.00012621037240828132
5.32425e-06;-0.00013370167767550516
5.32450e-06;-0.00014296290725664766
5.32475e-06;-0.00015391782492721142
5.32500e-06;-0.0001664902072515272
5.32525e-06;-0.00018060388749022591
5.32550e-06;-0.00019620280384940507
5.32575e-06;-0.00021325920600014773
5.32600e-06;-0.00023172231060061865
5.32625e-06;-0.0002520580285354949
5.32650e-06;-0.0002724591515735915
5.32675e-06;-0.000294893782248061
5.32700e-06;-0.0003174013313951826
5.32725e-06;-0.00034177620535929024
5.32750e-06;-0.00036621803873431206
5.32775e-06;-0.0003906598721093339
5.32800e-06;-0.0004164802804408692
5.32825e-06;-0.0004423501223610811
5.32850e-06;-0.0004682199642813807
5.32875e-06;-0.0004942211003925073
5.32900e-06;-0.0005202269445124436
5.32925e-06;-0.0005462327886324679
5.32950e-06;-0.000571073496315898
5.32975e-06;-0.0005958724239893471
5.33000e-06;-0.0006206713516628803
5.33025e-06;-0.0006429934559604593
5.33050e-06;-0.0006652267451612719
5.33075e-06;-0.0006874600343621598
5.33100e-06;-0.0007058053522086015
5.33125e-06;-0.0007240112533508112
5.33150e-06;-0.0007422171544930827
5.33175e-06;-0.0007572773520885467
5.33200e-06;-0.0007722247495677133
5.33225e-06;-0.0007871721470469304
5.33250e-06;-0.0007977389892627846
5.33275e-06;-0.000808148751469145
5.33300e-06;-0.00081855851367547
5.33325e-06;-0.0008289682758817952
5.33350e-06;-0.0008393780380881555
5.33375e-06;-0.0008497878002944806
5.33400e-06;-0.0008601975625008056
5.33425e-06;-0.000870607324707166
5.33450e-06;-0.0008785910607653685
5.33475e-06;-0.0008837878544276421
5.33500e-06;-0.0008889846480899332
5.33525e-06;-0.0008941814417522067
5.33550e-06;-0.0008993782354144803
5.33575e-06;-0.0009045750290767715
5.33600e-06;-0.000909771822739045
5.33625e-06;-0.0009149686164013186
5.33650e-06;-0.0009201654100636097
5.33675e-06;-0.0009223078562508286
5.33700e-06;-0.0009243407782107921
5.33725e-06;-0.0009263737001707485
5.33750e-06;-0.000928406622130705
5.33775e-06;-0.0009304395440906684
5.33800e-06;-0.0009324724660506249
5.33825e-06;-0.0009345053880105814
5.33850e-06;-0.0009365383099705448
5.33875e-06;-0.0009385712319305012
5.33900e-06;-0.0009391328110670735
5.33925e-06;-0.0009396416301011913
5.33950e-06;-0.0009401504491353075
5.33975e-06;-0.0009406592681694236
5.34000e-06;-0.0009411680872035414
5.34025e-06;-0.0009416769062376575
5.34050e-06;-0.0009421857252717737
5.34075e-06;-0.0009426945443058916
5.34100e-06;-0.0009432033633400077
5.34125e-06;-0.0009422108726201855
5.34150e-06;-0.0009411645472296476
5.34175e-06;-0.0009401182218391098
5.34200e-06;-0.0009390718964485685
5.34225e-06;-0.0009380255710580306
5.34250e-06;-0.0009369792456674929
5.34275e-06;-0.0009359329202769514
5.34300e-06;-0.0009329376932053356
5.34325e-06;-0.000927703629291912
5.34350e-06;-0.0009224695653784707
5.34375e-06;-0.000917235501465047
5.34400e-06;-0.0009120014375516234
5.34425e-06;-0.000906767373638182
5.34450e-06;-0.0009015333097247584
5.34475e-06;-0.0008962992458113348
5.34500e-06;-0.0008867517165043016
5.34525e-06;-0.0008770495129281205
5.34550e-06;-0.0008673473093519066
5.34575e-06;-0.0008576451057757255
5.34600e-06;-0.0008479429021995445
5.34625e-06;-0.0008382406986233306
5.34650e-06;-0.0008285384950471495
5.34675e-06;-0.0008188362914709685
5.34700e-06;-0.0008079706282890466
5.34725e-06;-0.0007957684193725567
5.34750e-06;-0.0007835662104560668
5.34775e-06;-0.0007713640015395356
5.34800e-06;-0.0007591617926230457
5.34825e-06;-0.0007469595837065558
5.34850e-06;-0.0007347573747900246
5.34875e-06;-0.0007225551658735347
5.34900e-06;-0.0007103529569570448
5.34925e-06;-0.0006984985202715527
5.34950e-06;-0.0006866565541661881
5.34975e-06;-0.0006748145880607833
5.35000e-06;-0.0006635773069383168
5.35025e-06;-0.0006530346688706337
5.35050e-06;-0.0006424920308029148
5.35075e-06;-0.0006319493927352316
5.35100e-06;-0.0006229692000923649
5.35125e-06;-0.0006140450343517255
5.35150e-06;-0.0006075120918085543
5.35175e-06;-0.0006010648948704568
5.35200e-06;-0.0005997451673669521
5.35225e-06;-0.0005986093030718867
5.35250e-06;-0.0006030086422792242
5.35275e-06;-0.0006076064654147946
5.35300e-06;-0.0006173446823008022
5.35325e-06;-0.0006272672258413991
5.35350e-06;-0.0006424796637509348
5.35375e-06;-0.0006578817891784342
5.35400e-06;-0.000679700753121765
5.35425e-06;-0.0007017498150757865
5.35450e-06;-0.000729883841592392
5.35475e-06;-0.0007582360656276766
5.35500e-06;-0.000791838792964894
5.35525e-06;-0.0008256297953166846
5.35550e-06;-0.0008641778730696842
5.35575e-06;-0.0009028965322675958
5.35600e-06;-0.0009475575015509047
5.35625e-06;-0.0009924315529816299
5.35650e-06;-0.0010373056044122029
5.35675e-06;-0.0010874686792252542
5.35700e-06;-0.0011378214103241564
5.35725e-06;-0.0011881741414228877
5.35750e-06;-0.0012417263711920036
5.35775e-06;-0.0012953933300880079
5.35800e-06;-0.0013490602889838302
5.35825e-06;-0.0014042743821380233
5.35850e-06;-0.0014595439531592226
5.35875e-06;-0.0015148135241804218
5.35900e-06;-0.0015688936835284585
5.35925e-06;-0.0016229311923936561
5.35950e-06;-0.0016769687012588535
5.35975e-06;-0.001727403435338414
5.36000e-06;-0.001777708979426698
5.36025e-06;-0.0018280145235149822
5.36050e-06;-0.0018721215657358094
5.36075e-06;-0.0019160063391640506
5.36100e-06;-0.001959891112592292
5.36125e-06;-0.001995164995046959
5.36150e-06;-0.0020301301041270353
5.36175e-06;-0.0020650952132071116
5.36200e-06;-0.002093922283740606
5.36225e-06;-0.0021225292536037822
5.36250e-06;-0.0021511362234670553
5.36275e-06;-0.0021677666356950285
5.36300e-06;-0.0021839675868921098
5.36325e-06;-0.0022001685380892456
5.36350e-06;-0.002216369489286327
5.36375e-06;-0.002232570440483408
5.36400e-06;-0.002248771391680544
5.36425e-06;-0.0022649723428776252
5.36450e-06;-0.0022811732940747065
5.36475e-06;-0.0022973742452718424
5.36500e-06;-0.002300021597583674
5.36525e-06;-0.0023021829385786413
5.36550e-06;-0.002304344279573616
5.36575e-06;-0.0023065056205685834
5.36600e-06;-0.0023086669615635506
5.36625e-06;-0.0023108283025585256
5.36650e-06;-0.0023129896435534927
5.36675e-06;-0.0023151509845484673
5.36700e-06;-0.002317312325543435
5.36725e-06;-0.002313073120776872
5.36750e-06;-0.0023086044022332087
5.36775e-06;-0.00230413568368956
5.36800e-06;-0.002299666965145911
5.36825e-06;-0.0022933246141569096
5.36850e-06;-0.002286915077575423
5.36875e-06;-0.0022805055409939367
5.36900e-06;-0.0022740960044124285
5.36925e-06;-0.002266924438931584
5.36950e-06;-0.002259991869441622
5.36975e-06;-0.0022530688498216735
5.37000e-06;-0.0022461458302017487
5.37025e-06;-0.0022392228105818242
5.37050e-06;-0.002232299790961876
5.37075e-06;-0.0022253767713419515
5.37100e-06;-0.0022184537517220032
5.37125e-06;-0.002214356003595692
5.37150e-06;-0.002210359565381935
5.37175e-06;-0.0022063631271681643
5.37200e-06;-0.0022023666889544073
5.37225e-06;-0.00219837025074065
5.37250e-06;-0.0021943738125268794
5.37275e-06;-0.0021903773743131225
5.37300e-06;-0.002191580848842405
5.37325e-06;-0.002192970784285757
5.37350e-06;-0.0021943607197291042
5.37375e-06;-0.0021957506551724512
5.37400e-06;-0.002197140590615803
5.37425e-06;-0.0021985305260591504
5.37450e-06;-0.0021999204615024974
5.37475e-06;-0.002201310396945849
5.37500e-06;-0.0022027003323891966
5.37525e-06;-0.0022040902678325484
5.37550e-06;-0.0022054802032758954
5.37575e-06;-0.0022117274950622027
5.37600e-06;-0.002218148964214198
5.37625e-06;-0.002224570433366172
5.37650e-06;-0.0022309919025181456
5.37675e-06;-0.002237413371670141
5.37700e-06;-0.0022438348408221147
5.37725e-06;-0.0022502563099740885
5.37750e-06;-0.0022566777791260843
5.37775e-06;-0.002263099248278058
5.37800e-06;-0.0022695207174300317
5.37825e-06;-0.002275942186582027
5.37850e-06;-0.0022835699551801373
5.37875e-06;-0.0022912409798304723
5.37900e-06;-0.002298912004480834
5.37925e-06;-0.002306583029131169
5.37950e-06;-0.0023142540537815304
5.37975e-06;-0.0023211158589219135
5.38000e-06;-0.002327948646688966
5.38025e-06;-0.002334781434456042
5.38050e-06;-0.0023416142222230946
5.38075e-06;-0.002348447009990147
5.38100e-06;-0.002354248639648262
5.38125e-06;-0.0023595455457070848
5.38150e-06;-0.002363675752091769
5.38175e-06;-0.002364867429404382
5.38200e-06;-0.0023615631944991174
5.38225e-06;-0.002351186397597672
5.38250e-06;-0.002340561636835779
5.38275e-06;-0.0023195099876100332
5.38300e-06;-0.002298084446119717
5.38325e-06;-0.002276658904629328
5.38350e-06;-0.0022449624655477922
5.38375e-06;-0.0022128977277956034
5.38400e-06;-0.0021701963905071766
5.38425e-06;-0.0021271136410361082
5.38450e-06;-0.0020739375628344653
5.38475e-06;-0.00202039955331012
5.38500e-06;-0.0019602665463850505
5.38525e-06;-0.0018960198705837085
5.38550e-06;-0.0018278995996103293
5.38575e-06;-0.001755635728143658
5.38600e-06;-0.0016790423953586915
5.38625e-06;-0.0015984098752796327
5.38650e-06;-0.0015142454338723972
5.38675e-06;-0.001427063510443842
5.38700e-06;-0.0013373787690724136
5.38725e-06;-0.0012457050951981384
5.38750e-06;-0.001152401928573505
5.38775e-06;-0.001057561763441817
5.38800e-06;-0.0009613291951317206
5.38825e-06;-0.0008641473835447875
5.38850e-06;-0.0007665955938549894
5.38875e-06;-0.0006692572535369065
5.38900e-06;-0.0005727158903618918
5.38925e-06;-0.00047755455849251356
5.38950e-06;-0.0003842596997513914
5.38975e-06;-0.00029315009720197016
5.39000e-06;-0.00020457768598785366
5.39025e-06;-0.00011908100520333361
5.39050e-06;-3.7283869705136334e-05
5.39075e-06;4.01872089808925e-05
5.39100e-06;0.00011270578996168747
5.39125e-06;0.0001796457165811643
5.39150e-06;0.00024044712051453476
5.39175e-06;0.00029475602330909204
5.39200e-06;0.00034241825624912716
5.39225e-06;0.000383325495478235
5.39250e-06;0.0004173547424176698
5.39275e-06;0.0004443824502993983
5.39300e-06;0.00046428515765235237
5.39325e-06;0.0004769395184129317
5.39350e-06;0.0004822639136107881
5.39375e-06;0.00048030558110419915
5.39400e-06;0.0004712369151972634
5.39425e-06;0.0004552590500669011
5.39450e-06;0.0004325639650073026
5.39475e-06;0.0004033431953493121
5.39500e-06;0.00036778844197914287
5.39525e-06;0.00032609138373153275
5.39550e-06;0.0002784698280291669
5.39575e-06;0.00022522234096001328
5.39600e-06;0.00016672584575812263
5.39625e-06;0.00010337527826888559
5.39650e-06;3.555972422709064e-05
5.39675e-06;-3.633193901651976e-05
5.39700e-06;-0.00011191080864463186
5.39725e-06;-0.0001907879886131172
5.39750e-06;-0.0002725582157520127
5.39775e-06;-0.0003567657773103913
5.39800e-06;-0.00044358080543688435
5.39825e-06;-0.0005304863274760445
5.39850e-06;-0.0006191030008338503
5.39875e-06;-0.0007077810334596174
5.39900e-06;-0.0007961922632523514
5.39925e-06;-0.0008845939259038008
5.39950e-06;-0.0009707150087395235
5.39975e-06;-0.0010567543134727998
5.40000e-06;-0.0011383229287847863
5.40025e-06;-0.001219731232016063
5.40050e-06;-0.0012943913566069861
5.40075e-06;-0.0013688095018388887
5.40100e-06;-0.001434205406965489
5.40125e-06;-0.001499277788368786
5.40150e-06;-0.0015546375464310395
5.40175e-06;-0.0016096490246837484
5.40200e-06;-0.0016579237314098632
5.40225e-06;-0.001705956867818802
5.40250e-06;-0.0017454464882724165
5.40275e-06;-0.0017846297513184628
5.40300e-06;-0.0018238130143646415
5.40325e-06;-0.001851128346462314
5.40350e-06;-0.0018780181127183286
5.40375e-06;-0.0019049078789744342
5.40400e-06;-0.0019227279972358555
5.40425e-06;-0.0019402228918000072
5.40450e-06;-0.0019577177863642184
5.40475e-06;-0.0019667350789838185
5.40500e-06;-0.001975448377771492
5.40525e-06;-0.001984161676559195
5.40550e-06;-0.0019846680722606677
5.40575e-06;-0.0019848801809770372
5.40600e-06;-0.001985092289693406
5.40625e-06;-0.0019796597315701364
5.40650e-06;-0.0019740247643324064
5.40675e-06;-0.0019683897970946954
5.40700e-06;-0.001957514975065996
5.40725e-06;-0.0019464522598633882
5.40750e-06;-0.0019353895446608182
5.40775e-06;-0.001920631336753715
5.40800e-06;-0.001905740614133674
5.40825e-06;-0.0018908498915136836
5.40850e-06;-0.0018741100926480524
5.40875e-06;-0.0018573039887379865
5.40900e-06;-0.0018404978848279773
5.40925e-06;-0.0018227031269501231
5.40950e-06;-0.0018048729174539421
5.40975e-06;-0.0017870427079578215
5.41000e-06;-0.0017702058726144023
5.41025e-06;-0.00175340465814791
5.41050e-06;-0.0017366034436814175
5.41075e-06;-0.0017229004686812645
5.41100e-06;-0.0017093085918069022
5.41125e-06;-0.00169571671493254
5.41150e-06;-0.0016821248380581315
5.41175e-06;-0.001669521198442205
5.41200e-06;-0.001658052814648171
5.41225e-06;-0.0016465844308540983
5.41250e-06;-0.0016351160470600644
5.41275e-06;-0.0016236476632660306
5.41300e-06;-0.0016132118948445225
5.41325e-06;-0.0016028131544299925
5.41350e-06;-0.0015924144140154624
5.41375e-06;-0.001582015673600897
5.41400e-06;-0.001571616933186367
5.41425e-06;-0.0015612181927718018
5.41450e-06;-0.0015508194523572718
5.41475e-06;-0.0015404207119427418
5.41500e-06;-0.0015300382252601424
5.41525e-06;-0.0015196563214115316
5.41550e-06;-0.0015092744175629208
5.41575e-06;-0.0014988925137142746
5.41600e-06;-0.0014885106098656638
5.41625e-06;-0.001478128706017053
5.41650e-06;-0.001467746802168407
5.41675e-06;-0.0014573648983197962
5.41700e-06;-0.0014471913428711753
5.41725e-06;-0.0014370252584772819
5.41750e-06;-0.001426859174083423
5.41775e-06;-0.001416693089689564
5.41800e-06;-0.0014065270052956707
5.41825e-06;-0.0013963609209018118
5.41850e-06;-0.0013861948365079184
5.41875e-06;-0.0013760287521140595
5.41900e-06;-0.0013673336234390568
5.41925e-06;-0.0013586912409849004
5.41950e-06;-0.0013500488585307733
5.41975e-06;-0.0013414064760766463
5.42000e-06;-0.00133276409362249
5.42025e-06;-0.0013241217111683628
5.42050e-06;-0.0013154793287142358
5.42075e-06;-0.0013068369462600794
5.42100e-06;-0.0013003283308868083
5.42125e-06;-0.001293896229135441
5.42150e-06;-0.001287464127384052
5.42175e-06;-0.0012844626635175349
5.42200e-06;-0.0012815842170751492
5.42225e-06;-0.001278705770632754
5.42250e-06;-0.001280604451013453
5.42275e-06;-0.0012826744318508647
5.42300e-06;-0.0012847444126882694
5.42325e-06;-0.0012913934598914848
5.42350e-06;-0.0012982067054065365
5.42375e-06;-0.001305019950921565
5.42400e-06;-0.0013171914304686218
5.42425e-06;-0.0013295550480875425
5.42450e-06;-0.001341918665706421
5.42475e-06;-0.0013626562519252062
5.42500e-06;-0.0013836941158419948
5.42525e-06;-0.0014047319797587123
5.42550e-06;-0.0014257698436754298
5.42575e-06;-0.0014468077075922186
5.42600e-06;-0.001467845571508936
5.42625e-06;-0.0014888834354256535
5.42650e-06;-0.0015099212993424423
5.42675e-06;-0.001538784724105818
5.42700e-06;-0.0015679287615044265
5.42725e-06;-0.0015970727989029362
5.42750e-06;-0.0016262168363014458
5.42775e-06;-0.0016553608737000542
5.42800e-06;-0.0016845049110985639
5.42825e-06;-0.0017136489484970735
5.42850e-06;-0.0017427929858956819
5.42875e-06;-0.0017731068003098871
5.42900e-06;-0.0018034625611375477
5.42925e-06;-0.0018338183219653113
5.42950e-06;-0.0018626064194760595
5.42975e-06;-0.0018913383029795562
5.43000e-06;-0.0019200701864831502
5.43025e-06;-0.0019458880675785948
5.43050e-06;-0.001971601457007548
5.43075e-06;-0.0019973148464365884
5.43100e-06;-0.0020193418463743357
5.43125e-06;-0.0020412366580270106
5.43150e-06;-0.0020586658375985906
5.43175e-06;-0.002075934886438398
5.43200e-06;-0.0020846070550091093
5.43225e-06;-0.002092970952610873
5.43250e-06;-0.0021013348502126362
5.43275e-06;-0.0020990397461280743
5.43300e-06;-0.0020963624265566984
5.43325e-06;-0.0020936851069853226
5.43350e-06;-0.002080072842219228
5.43375e-06;-0.0020660684670545204
5.43400e-06;-0.002052064091889813
5.43425e-06;-0.002026388347760754
5.43450e-06;-0.00200029408620389
5.43475e-06;-0.0019741998246470263
5.43500e-06;-0.0019395054985690734
5.43525e-06;-0.001904502787340047
5.43550e-06;-0.0018633171958053144
5.43575e-06;-0.0018219098956459793
5.43600e-06;-0.001774516220974282
5.43625e-06;-0.0017269078840746912
5.43650e-06;-0.0016753702742008931
5.43675e-06;-0.001621466873739052
5.43700e-06;-0.001565554934561252
5.43725e-06;-0.0015079406491141057
5.43750e-06;-0.0014488771438062723
5.43775e-06;-0.0013885302300322457
5.43800e-06;-0.001327100080735562
5.43825e-06;-0.001264903181056275
5.43850e-06;-0.0012023059920153259
5.43875e-06;-0.001139676843631466
5.43900e-06;-0.0010773838492120346
5.43925e-06;-0.0010157953387751502
5.43950e-06;-0.0009552455976369269
5.43975e-06;-0.0008960147565304917
5.44000e-06;-0.0008384043118439041
5.44025e-06;-0.0007827885207949482
5.44050e-06;-0.0007309346794886895
5.44075e-06;-0.0006792132437499621
5.44100e-06;-0.0006319694372291062
5.44125e-06;-0.0005883926147148651
5.44150e-06;-0.0005482569513309479
5.44175e-06;-0.0005103115484613258
5.44200e-06;-0.00047334343823750833
5.44225e-06;-0.00043713787644869583
5.44250e-06;-0.0004025997028379985
5.44275e-06;-0.000368120380343874
5.44300e-06;-0.000335828147099183
