Time(s);Current(A)
1.47500e-05;0.0041040003136313
1.47503e-05;0.0040294906981884005
1.47505e-05;0.003956857566996612
1.47508e-05;0.0038842244358043313
1.47510e-05;0.003811591304612051
1.47513e-05;0.003738958173420262
1.47515e-05;0.0036663250422279813
1.47518e-05;0.0035942300406029324
1.47520e-05;0.003535731496605723
1.47523e-05;0.003477232952608117
1.47525e-05;0.0034192774792227666
1.47528e-05;0.003375043304608915
1.47530e-05;0.0033308091299947633
1.47533e-05;0.0032871546148194
1.47535e-05;0.003258145856875688
1.47538e-05;0.0032291370989317794
1.47540e-05;0.003200744722217499
1.47543e-05;0.003187925920690335
1.47545e-05;0.0031751071191630843
1.47548e-05;0.0031629034046793975
1.47550e-05;0.0031662405662948806
1.47553e-05;0.0031695777279103867
1.47555e-05;0.0031734808772776253
1.47558e-05;0.003191684353100548
1.47560e-05;0.003209887828923594
1.47563e-05;0.003228612581029053
1.47565e-05;0.003260507973292766
1.47568e-05;0.003292403365556695
1.47570e-05;0.0033249601113828986
1.47573e-05;0.003374226709703332
1.47575e-05;0.003423493308023431
1.47578e-05;0.0034727599063438643
1.47580e-05;0.003522026504664297
1.47583e-05;0.0035712931029843963
1.47585e-05;0.0036205597013048295
1.47588e-05;0.003670283774138359
1.47590e-05;0.0037315664626236685
1.47593e-05;0.0037928491511093933
1.47595e-05;0.0038541318395951176
1.47598e-05;0.003915414528080427
1.47600e-05;0.003976697216566152
1.47603e-05;0.004037979905051876
1.47605e-05;0.0040990332668055995
1.47608e-05;0.004154292426970876
1.47610e-05;0.004209551587136151
1.47613e-05;0.004264810747301053
1.47615e-05;0.004320069907466329
1.47618e-05;0.004375329067631604
1.47620e-05;0.004430588227796506
1.47623e-05;0.00448480287850131
1.47625e-05;0.004512626805648384
1.47628e-05;0.004540450732795271
1.47630e-05;0.004568274659942346
1.47633e-05;0.00459609858708942
1.47635e-05;0.004623922514236307
1.47638e-05;0.004651746441383381
1.47640e-05;0.004678471354673102
1.47643e-05;0.004677428428609964
1.47645e-05;0.004676385502546819
1.47648e-05;0.00467463930159318
1.47650e-05;0.0046551240579239175
1.47653e-05;0.004635608814254522
1.47655e-05;0.004614977265962761
1.47658e-05;0.004566141007412276
1.47660e-05;0.004517304748862121
1.47663e-05;0.0044684684903116365
1.47665e-05;0.004419632231761152
1.47668e-05;0.004370795973210997
1.47670e-05;0.004321959714660512
1.47673e-05;0.0042731234561100276
1.47675e-05;0.004208340005228019
1.47678e-05;0.004129866082121031
1.47680e-05;0.004051392159014042
1.47683e-05;0.003972918235907586
1.47685e-05;0.0038944443128005974
1.47688e-05;0.003815970389693609
1.47690e-05;0.003737496466587153
1.47693e-05;0.0036586927898942345
1.47695e-05;0.003571557512516172
1.47698e-05;0.0034844222351387002
1.47700e-05;0.0033972869577606375
1.47703e-05;0.0033101516803825753
1.47705e-05;0.0032230164030051032
1.47708e-05;0.0031363095204199254
1.47710e-05;0.0030604265211934744
1.47713e-05;0.002984543521967538
1.47715e-05;0.002908660522741087
1.47718e-05;0.002832777523514636
1.47720e-05;0.0027568945242886994
1.47723e-05;0.0026817425008519307
1.47725e-05;0.002625059414993109
1.47728e-05;0.002568376329134671
1.47730e-05;0.0025120354609369827
1.47733e-05;0.0024643411125172764
1.47735e-05;0.0024166467640978936
1.47738e-05;0.0023692947012988025
1.47740e-05;0.0023305908753531467
1.47743e-05;0.0022918870494074914
1.47745e-05;0.002253542930363524
1.47748e-05;0.0022242872167169132
1.47750e-05;0.002195031503070303
1.47753e-05;0.002166220858898176
1.47755e-05;0.002148655402953063
1.47758e-05;0.0021310899470079496
1.47760e-05;0.002113524491062956
1.47763e-05;0.0020959590351178428
1.47765e-05;0.0020783935791727293
1.47768e-05;0.0020608281232277355
1.47770e-05;0.002043262667282622
1.47773e-05;0.002025697211337509
1.47775e-05;0.0020151582170719715
1.47778e-05;0.0020106513553905243
1.47780e-05;0.002006144493709077
1.47783e-05;0.0020016376320276604
1.47785e-05;0.0019971307703462128
1.47788e-05;0.0019926239086647656
1.47790e-05;0.001988117046983349
1.47793e-05;0.0019836101853019017
1.47795e-05;0.0019793286722861025
1.47798e-05;0.001980740850503355
1.47800e-05;0.001982153028720618
1.47803e-05;0.00198356520693788
1.47805e-05;0.001984977385155133
1.47808e-05;0.001986389563372395
1.47810e-05;0.0019878017415896577
1.47813e-05;0.0019892139198069104
1.47815e-05;0.0019906260980241727
1.47818e-05;0.001992038276241435
1.47820e-05;0.0019934504544586876
1.47823e-05;0.0019948626326759503
1.47825e-05;0.0019962748108932125
1.47828e-05;0.0019976869891104748
1.47830e-05;0.0020008788709061772
1.47833e-05;0.0020055986067537587
1.47835e-05;0.00201031834260134
1.47838e-05;0.0020150380784488896
1.47840e-05;0.002019757814296471
1.47843e-05;0.0020244775501440525
1.47845e-05;0.0020291972859916023
1.47848e-05;0.0020339170218391838
1.47850e-05;0.0020386367576867652
1.47853e-05;0.0020433564935343146
1.47855e-05;0.002048076229381896
1.47858e-05;0.0020527959652294776
1.47860e-05;0.002057515701077027
1.47863e-05;0.002062435824252074
1.47865e-05;0.002072418961967682
1.47868e-05;0.0020824020996832223
1.47870e-05;0.00209238523739883
1.47873e-05;0.002102368375114438
1.47875e-05;0.0021123515128299783
1.47878e-05;0.002122334650545586
1.47880e-05;0.002132317788261194
1.47883e-05;0.0021423009259767343
1.47885e-05;0.002152284063692342
1.47888e-05;0.00216226720140795
1.47890e-05;0.0021722503391234903
1.47893e-05;0.002182242916567205
1.47895e-05;0.0021924739995157505
1.47898e-05;0.0022027050824642265
1.47900e-05;0.0022129361654127724
1.47903e-05;0.002223167248361318
1.47905e-05;0.002233398331309794
1.47908e-05;0.00224362941425834
1.47910e-05;0.0022538604972068854
1.47913e-05;0.002264091580155431
1.47915e-05;0.0022743226631039073
1.47918e-05;0.002284553746052453
1.47920e-05;0.0022947848290009987
1.47923e-05;0.0023050576993524944
1.47925e-05;0.002316386376136974
1.47928e-05;0.0023277150529214543
1.47930e-05;0.0023390437297058577
1.47933e-05;0.002350372406490338
1.47935e-05;0.002361701083274818
1.47938e-05;0.002373029760059221
1.47940e-05;0.002384358436843701
1.47943e-05;0.002395687113628181
1.47945e-05;0.0024070157904125845
1.47948e-05;0.0024183444671970647
1.47950e-05;0.002429673143981545
1.47953e-05;0.0024410018207659478
1.47955e-05;0.002452330497550428
1.47958e-05;0.0024698531838471447
1.47960e-05;0.002492693352588004
1.47963e-05;0.0025155335213290185
1.47965e-05;0.002538373690070033
1.47968e-05;0.0025612138588108923
1.47970e-05;0.0025840540275519066
1.47973e-05;0.002606894196292921
1.47975e-05;0.0026297343650337804
1.47978e-05;0.0026525745337747948
1.47980e-05;0.002675414702515809
1.47983e-05;0.0026982548712566686
1.47985e-05;0.002721095039997683
1.47988e-05;0.0027439352087386968
1.47990e-05;0.0027669019385399207
1.47993e-05;0.0027930663779919657
1.47995e-05;0.0028192308174440107
1.47998e-05;0.0028453952568960558
1.48000e-05;0.002871559696347924
1.48003e-05;0.002897724135799969
1.48005e-05;0.002923888575252014
1.48008e-05;0.0029500530147038816
1.48010e-05;0.0029762174541559266
1.48013e-05;0.0029981364624048273
1.48015e-05;0.0030164108191801276
1.48018e-05;0.003034685175955552
1.48020e-05;0.0030529595327309757
1.48023e-05;0.003071233889506276
1.48025e-05;0.0030895082462817003
1.48028e-05;0.003107782603057124
1.48030e-05;0.0031260569598324244
1.48033e-05;0.0031434631849354367
1.48035e-05;0.0031389350724033037
1.48038e-05;0.003134406959871201
1.48040e-05;0.0031298788473390674
1.48043e-05;0.0031253507348069343
1.48045e-05;0.0031208226222748316
1.48048e-05;0.003116294509742698
1.48050e-05;0.003111766397210565
1.48053e-05;0.0031072382846784622
1.48055e-05;0.003102710172146329
1.48058e-05;0.0030981820596141956
1.48060e-05;0.003079890371200224
1.48063e-05;0.0030497828189258325
1.48065e-05;0.0030196752666514417
1.48068e-05;0.002989567714377255
1.48070e-05;0.0029594601621028642
1.48073e-05;0.0029293526098284734
1.48075e-05;0.0028992450575542864
1.48078e-05;0.0028691375052798955
1.48080e-05;0.0028390299530055047
1.48083e-05;0.002808922400731114
1.48085e-05;0.0027783930953405108
1.48088e-05;0.0027372077160460985
1.48090e-05;0.0026960223367516857
1.48093e-05;0.0026548369574575523
1.48095e-05;0.00261365157816314
1.48098e-05;0.0025724661988687273
1.48100e-05;0.0025312808195745943
1.48103e-05;0.0024902096452345895
1.48105e-05;0.002452023989429972
1.48108e-05;0.002413838333625614
1.48110e-05;0.0023756526778209966
1.48113e-05;0.00233746702201638
1.48115e-05;0.0022992813662120215
1.48118e-05;0.002261095710407404
1.48120e-05;0.0022232572079813615
1.48123e-05;0.0021941899319358783
1.48125e-05;0.0021651226558901983
1.48128e-05;0.0021364251152078454
1.48130e-05;0.0021170693605295286
1.48133e-05;0.0020977136058510804
1.48135e-05;0.0020787867586132573
1.48138e-05;0.0020706967474586817
1.48140e-05;0.0020626067363040514
1.48143e-05;0.0020549535986302244
1.48145e-05;0.0020583385681378712
1.48148e-05;0.002061723537645541
1.48150e-05;0.002065562840326751
1.48153e-05;0.0020808813892543862
1.48155e-05;0.0020961999381821253
1.48158e-05;0.0021119345620162575
1.48160e-05;0.002138181793305824
1.48163e-05;0.0021644290245955685
1.48165e-05;0.002191045113684059
1.48168e-05;0.002226980816107314
1.48170e-05;0.0022629165185303252
1.48173e-05;0.0022992988251496647
1.48175e-05;0.0023469650965817525
1.48178e-05;0.0023946313680135176
1.48180e-05;0.0024422976394456054
1.48183e-05;0.0024899639108776936
1.48185e-05;0.0025376301823094587
1.48188e-05;0.0025852964537415465
1.48190e-05;0.00263678196081202
1.48193e-05;0.002691546235605971
1.48195e-05;0.0027463105104002924
1.48198e-05;0.0028010747851946144
1.48200e-05;0.002855839059988565
1.48203e-05;0.0029106033347828866
1.48205e-05;0.0029651274476684467
1.48208e-05;0.0030135835957795128
1.48210e-05;0.003062039743890907
1.48213e-05;0.003110495892002302
1.48215e-05;0.003158952040113368
1.48218e-05;0.0032074081882247623
1.48220e-05;0.0032558643363361566
1.48223e-05;0.003303478313769218
1.48225e-05;0.0033298138876574684
1.48228e-05;0.0033561494615457193
1.48230e-05;0.0033824850354337915
1.48233e-05;0.0034088206093220424
1.48235e-05;0.0034351561832102933
1.48238e-05;0.0034614917570983655
1.48240e-05;0.0034870085151751757
1.48243e-05;0.0034918369570632914
1.48245e-05;0.0034966653989513745
1.48248e-05;0.003500590768229111
1.48250e-05;0.0034816989771145113
1.48253e-05;0.0034628071859999117
1.48255e-05;0.0034439153948854404
1.48258e-05;0.0034250236037708407
1.48260e-05;0.003406131812656241
1.48263e-05;0.0033872400215417694
1.48265e-05;0.0033683482304271697
1.48268e-05;0.003348435871672758
1.48270e-05;0.0033027377064779664
1.48273e-05;0.003257039541282865
1.48275e-05;0.0032113413760877633
1.48278e-05;0.0031656432108929716
1.48280e-05;0.0031199450456978702
1.48283e-05;0.003074246880502769
1.48285e-05;0.0030285487153079767
1.48288e-05;0.0029824203569820606
1.48290e-05;0.0029254226781185552
1.48293e-05;0.002868424999255436
1.48295e-05;0.0028114273203919305
1.48298e-05;0.002754429641528425
1.48300e-05;0.0026974319626653057
1.48303e-05;0.0026405470922083716
1.48305e-05;0.0025865124549211125
1.48308e-05;0.0025324778176342194
1.48310e-05;0.0024784431803469603
1.48313e-05;0.0024244085430597012
1.48315e-05;0.0023703739057728086
1.48318e-05;0.0023167281448003233
1.48320e-05;0.0022729077878501595
1.48323e-05;0.0022290874309002923
1.48325e-05;0.0021856303886129943
1.48328e-05;0.0021513529060338426
1.48330e-05;0.002117075423454923
1.48333e-05;0.0020830961118860477
1.48335e-05;0.0020566504312776956
1.48338e-05;0.002030204750669344
1.48340e-05;0.002004095938120659
1.48343e-05;0.0019864984816579776
1.48345e-05;0.0019689010251952963
1.48348e-05;0.001951613996098444
1.48350e-05;0.0019421702687765212
1.48353e-05;0.0019327265414545985
1.48355e-05;0.0019237539150286098
1.48358e-05;0.0019266841905424053
1.48360e-05;0.0019296144660562006
1.48363e-05;0.0019325447415699764
1.48365e-05;0.001935475017083772
1.48368e-05;0.0019384052925975675
1.48370e-05;0.001941335568111343
1.48373e-05;0.0019442658436251386
1.48375e-05;0.0019476795120321666
1.48378e-05;0.001963306653724763
1.48380e-05;0.001978933795417465
1.48383e-05;0.001994560937110167
1.48385e-05;0.0020101880788027634
1.48388e-05;0.0020258152204954655
1.48390e-05;0.0020414423621881676
1.48393e-05;0.002057069503880764
1.48395e-05;0.0020728235388663874
1.48398e-05;0.0020917836777588133
1.48400e-05;0.0021107438166511113
1.48403e-05;0.0021297039555435372
1.48405e-05;0.0021486640944359636
1.48408e-05;0.002167624233328261
1.48410e-05;0.0021865843722206875
1.48413e-05;0.002205544511113114
1.48415e-05;0.0022245046500054115
1.48418e-05;0.00224181429636299
1.48420e-05;0.0022577070147885583
1.48423e-05;0.002273599733214127
1.48425e-05;0.0022894924516395875
1.48428e-05;0.002305385170065156
1.48430e-05;0.002321277888490724
1.48433e-05;0.0023371706069161852
1.48435e-05;0.0023530633253417534
1.48438e-05;0.0023693556702347406
1.48440e-05;0.0023957450340490456
1.48443e-05;0.0024221343978635297
1.48445e-05;0.002448523761678014
1.48448e-05;0.002474913125492319
1.48450e-05;0.002501302489306803
1.48453e-05;0.002527691853121287
1.48455e-05;0.002554081216935592
1.48458e-05;0.002580470580750076
1.48460e-05;0.0026068599445645602
1.48463e-05;0.0026332493083788652
1.48465e-05;0.0026601985204761334
1.48468e-05;0.002701292938583242
1.48470e-05;0.0027423873566900722
1.48473e-05;0.002783481774797181
1.48475e-05;0.0028245761929042894
1.48478e-05;0.0028656706110111196
1.48480e-05;0.002906765029118228
1.48483e-05;0.0029478594472253368
1.48485e-05;0.002988953865332167
1.48488e-05;0.0030300482834392756
1.48490e-05;0.003071142701546384
1.48493e-05;0.0031122864901557044
1.48495e-05;0.0031546776808749773
1.48498e-05;0.0031970688715942507
1.48500e-05;0.003239460062313237
1.48503e-05;0.0032818512530325104
1.48505e-05;0.003324242443751784
1.48508e-05;0.0033666336344710572
1.48510e-05;0.003409024825190043
1.48513e-05;0.0034514160159093165
1.48515e-05;0.003493311396469783
1.48518e-05;0.003522679567317079
1.48520e-05;0.0035520477381645746
1.48523e-05;0.00358141590901207
1.48525e-05;0.003610784079859366
1.48528e-05;0.0036401522507068618
1.48530e-05;0.0036695204215543573
1.48533e-05;0.0036988885924016538
1.48535e-05;0.003728256763249149
1.48538e-05;0.003757212487316768
1.48540e-05;0.0037757472726075085
1.48543e-05;0.0037942820578983744
1.48545e-05;0.0038128168431892403
1.48548e-05;0.0038313516284799805
1.48550e-05;0.003849886413770847
1.48553e-05;0.003868421199061713
1.48555e-05;0.003886955984352453
1.48558e-05;0.003905490769643319
1.48560e-05;0.003924025554934185
1.48563e-05;0.003942560340224926
1.48565e-05;0.003961095125515792
1.48568e-05;0.003979629910806658
1.48570e-05;0.003998164696097398
1.48573e-05;0.004016699481388264
1.48575e-05;0.00403523426667913
1.48578e-05;0.00405376905196987
1.48580e-05;0.004072303837260736
1.48583e-05;0.004090838622551603
1.48585e-05;0.004109373407842343
1.48588e-05;0.004127286843187162
1.48590e-05;0.004138986547050088
1.48593e-05;0.004150686250913014
1.48595e-05;0.004162385954775861
1.48598e-05;0.004174085658638787
1.48600e-05;0.004185785362501713
1.48603e-05;0.004197485066364559
1.48605e-05;0.004209184770227485
1.48608e-05;0.00422088447409041
1.48610e-05;0.004232584177953257
1.48613e-05;0.004244283881816183
1.48615e-05;0.004255983585679109
1.48618e-05;0.004267683289541955
1.48620e-05;0.004279382993404881
1.48623e-05;0.004291082697267807
1.48625e-05;0.004302782401130654
1.48628e-05;0.0043144821049935795
1.48630e-05;0.004326181808856505
1.48633e-05;0.004337881512719352
1.48635e-05;0.004349581216582278
1.48638e-05;0.004359954549307109
1.48640e-05;0.004362426693341267
1.48643e-05;0.004364898837375443
1.48645e-05;0.004367370981409618
1.48648e-05;0.004369843125443777
1.48650e-05;0.004372315269477953
1.48653e-05;0.004374787413512129
1.48655e-05;0.0043772595575462874
1.48658e-05;0.0043797317015804626
1.48660e-05;0.0043822038456146385
1.48663e-05;0.004384675989648797
1.48665e-05;0.004387148133682973
1.48668e-05;0.004389620277717148
1.48670e-05;0.004392092421751308
1.48673e-05;0.004394564565785483
1.48675e-05;0.004397036709819659
1.48678e-05;0.004399508853853817
1.48680e-05;0.004401980997887993
1.48683e-05;0.004403932501384168
1.48685e-05;0.00440278255083516
1.48688e-05;0.00440163260028616
1.48690e-05;0.004400482649737152
1.48693e-05;0.004399332699188145
1.48695e-05;0.004398182748639144
1.48698e-05;0.004397032798090137
1.48700e-05;0.004395882847541129
1.48703e-05;0.004394732896992129
1.48705e-05;0.004393582946443121
1.48708e-05;0.004392432995894114
1.48710e-05;0.004391283045345113
1.48713e-05;0.004390133094796106
1.48715e-05;0.004388983144247098
1.48718e-05;0.004387833193698098
1.48720e-05;0.00438668324314909
1.48723e-05;0.004385533292600083
1.48725e-05;0.004384383342051082
1.48728e-05;0.004384705375810573
1.48730e-05;0.004393796015461403
1.48733e-05;0.004402886655112173
1.48735e-05;0.004411977294763003
1.48738e-05;0.004421067934413834
1.48740e-05;0.004430158574064603
1.48743e-05;0.004439249213715434
1.48745e-05;0.004448339853366265
1.48748e-05;0.004457430493017034
1.48750e-05;0.004466521132667865
1.48753e-05;0.004475611772318696
1.48755e-05;0.004484702411969465
1.48758e-05;0.004493793051620296
1.48760e-05;0.004502883691271126
1.48763e-05;0.004523308929625851
1.48765e-05;0.004550006981405223
1.48768e-05;0.004576705033184595
1.48770e-05;0.004603403084963967
1.48773e-05;0.004630101136743158
1.48775e-05;0.00465679918852253
1.48778e-05;0.004683497240301902
1.48780e-05;0.004710195292081092
1.48783e-05;0.004736893343860464
1.48785e-05;0.004763591395639836
1.48788e-05;0.004790289447419028
1.48790e-05;0.0048169874991984
1.48793e-05;0.004843685550977772
1.48795e-05;0.004870859839554689
1.48798e-05;0.0049008710692374025
1.48800e-05;0.004930882298920116
1.48803e-05;0.004960893528602627
1.48805e-05;0.004990904758285341
1.48808e-05;0.0050209159879680545
1.48810e-05;0.005050927217650564
1.48813e-05;0.005080938447333278
1.48815e-05;0.005109232537692439
1.48818e-05;0.005127297634502792
1.48820e-05;0.0051453627313132674
1.48823e-05;0.005163427828123743
1.48825e-05;0.005181492924934096
1.48828e-05;0.005199558021744571
1.48830e-05;0.005217623118555046
1.48833e-05;0.0052356882153654
1.48835e-05;0.005248343211780483
1.48838e-05;0.005228770257155578
1.48840e-05;0.0052091973025308064
1.48843e-05;0.0051896243479059015
1.48845e-05;0.005170051393280997
1.48848e-05;0.005150478438656225
1.48850e-05;0.005130905484031321
1.48853e-05;0.005111332529406416
1.48855e-05;0.005091759574781512
1.48858e-05;0.0050721866201567396
1.48860e-05;0.005046485508012341
1.48863e-05;0.0049842789807940345
1.48865e-05;0.004922072453576149
1.48868e-05;0.0048598659263578425
1.48870e-05;0.004797659399139536
1.48873e-05;0.00473545287192165
1.48875e-05;0.004673246344703343
1.48878e-05;0.004611039817485036
1.48880e-05;0.004548833290267151
1.48883e-05;0.004486626763048843
1.48885e-05;0.00442175367616713
1.48888e-05;0.004340995901755044
1.48890e-05;0.004260238127342412
1.48893e-05;0.00417948035292978
1.48895e-05;0.0040987225785176955
1.48898e-05;0.0040179648041050635
1.48900e-05;0.0039372070296924315
1.48903e-05;0.00385925242587048
1.48905e-05;0.00378284915761576
1.48908e-05;0.0037064458893610397
1.48910e-05;0.003630042621106837
1.48913e-05;0.003553639352852117
1.48915e-05;0.0034772360845973967
1.48918e-05;0.0034029357742709648
1.48920e-05;0.0033411627777112257
1.48923e-05;0.003279389781151486
1.48925e-05;0.0032195939662205426
1.48928e-05;0.0031715762160368015
1.48930e-05;0.00312355846585306
1.48933e-05;0.0030772888148664847
1.48935e-05;0.0030414325853029304
1.48938e-05;0.0030055763557393766
1.48940e-05;0.0029716507327297802
1.48943e-05;0.0029492257268966243
1.48945e-05;0.0029268007210633165
1.48948e-05;0.0029062193630522916
1.48950e-05;0.002896620609326846
1.48953e-05;0.002887021855601335
1.48955e-05;0.0028790220715891007
1.48958e-05;0.0028805473451356737
1.48960e-05;0.002882072618682257
1.48963e-05;0.002886152905982835
1.48965e-05;0.0029054534021884086
1.48968e-05;0.002924753898394112
1.48970e-05;0.002944054394599816
1.48973e-05;0.002963354890805389
1.48975e-05;0.002982655387011093
1.48978e-05;0.003001955883216797
1.48980e-05;0.00302125637942237
1.48983e-05;0.0030427029128175325
1.48985e-05;0.00307693338300922
1.48988e-05;0.003111163853200675
1.48990e-05;0.0031453943233923625
1.48993e-05;0.00317962479358405
