Time(s);Current(A)
2.50000e-07;-0.00347070088159988
2.50250e-07;-0.0034704106970076727
2.50500e-07;-0.0034701205124154652
2.50750e-07;-0.0034698303278232583
2.51000e-07;-0.003469540143231051
2.51250e-07;-0.003473704049085098
2.51500e-07;-0.003478126783576625
2.51750e-07;-0.0034825495180681523
2.52000e-07;-0.0034869722525596794
2.52250e-07;-0.003491394987051206
2.52500e-07;-0.0034958177215427336
2.52750e-07;-0.0035183024234027526
2.53000e-07;-0.003541836712032637
2.53250e-07;-0.0035653710006625264
2.53500e-07;-0.0036029203939881163
2.53750e-07;-0.0036412842095838146
2.54000e-07;-0.003679648025179521
2.54250e-07;-0.0037349540417885812
2.54500e-07;-0.0037912445751822027
2.54750e-07;-0.003847535108575824
2.55000e-07;-0.003921263601722139
2.55250e-07;-0.003996005420353828
2.55500e-07;-0.004070747238985517
2.55750e-07;-0.004168396196179879
2.56000e-07;-0.004267376294610478
2.56250e-07;-0.004366356393041078
2.56500e-07;-0.004465336491471656
2.56750e-07;-0.004564316589902256
2.57000e-07;-0.004663296688332855
2.57250e-07;-0.004762276786763434
2.57500e-07;-0.004881226616814071
2.57750e-07;-0.005001336894432751
2.58000e-07;-0.005121447172051407
2.58250e-07;-0.005241557449670088
2.58500e-07;-0.005361667727288743
2.58750e-07;-0.005481778004907423
2.59000e-07;-0.005601888282526104
2.59250e-07;-0.005718625791253795
2.59500e-07;-0.00583516730728959
2.59750e-07;-0.005951708823325385
2.60000e-07;-0.006068250339361155
2.60250e-07;-0.006184791855396951
2.60500e-07;-0.006301333371432746
2.60750e-07;-0.006417874887468517
2.61000e-07;-0.00650419501865302
2.61250e-07;-0.0065887589753820235
2.61500e-07;-0.006673322932111009
2.61750e-07;-0.006757886888840012
2.62000e-07;-0.006842450845568998
2.62250e-07;-0.006927014802298001
2.62500e-07;-0.0070115787590270045
2.62750e-07;-0.007050655381842624
2.63000e-07;-0.007087088720961583
2.63250e-07;-0.007123522060080542
2.63500e-07;-0.007159955399199494
2.63750e-07;-0.007196388738318453
2.64000e-07;-0.007232822077437412
2.64250e-07;-0.007269255416556364
2.64500e-07;-0.007305688755675323
2.64750e-07;-0.007342122094794282
2.65000e-07;-0.007357908992577849
2.65250e-07;-0.007347954281645694
2.65500e-07;-0.007337999570713539
2.65750e-07;-0.007328044859781386
2.66000e-07;-0.007318090148849232
2.66250e-07;-0.007308135437917079
2.66500e-07;-0.007298180726984924
2.66750e-07;-0.007288226016052769
2.67000e-07;-0.0072782713051206165
2.67250e-07;-0.007268316594188461
2.67500e-07;-0.007234319367267766
2.67750e-07;-0.007198925021961086
2.68000e-07;-0.007163530676654398
2.68250e-07;-0.00712813633134771
2.68500e-07;-0.00709274198604103
2.68750e-07;-0.007057347640734342
2.69000e-07;-0.007021953295427654
2.69250e-07;-0.006986558950120974
2.69500e-07;-0.006951164604814286
2.69750e-07;-0.006916425403324706
2.70000e-07;-0.006881724272454397
2.70250e-07;-0.006847023141584081
2.70500e-07;-0.006812322010713773
2.70750e-07;-0.006777620879843457
2.71000e-07;-0.006742919748973141
2.71250e-07;-0.006708218618102833
2.71500e-07;-0.006673517487232517
2.71750e-07;-0.0066388163563622015
2.72000e-07;-0.006615172036545242
2.72250e-07;-0.006592170231597389
2.72500e-07;-0.006569168426649536
2.72750e-07;-0.006546166621701688
2.73000e-07;-0.006523164816753835
2.73250e-07;-0.006500163011805982
2.73500e-07;-0.006477161206858133
2.73750e-07;-0.00645415940191028
2.74000e-07;-0.0064311575969624325
2.74250e-07;-0.006408155792014579
2.74500e-07;-0.006385153987066726
2.74750e-07;-0.006362152182118878
2.75000e-07;-0.006339150377171025
2.75250e-07;-0.006316148572223172
2.75500e-07;-0.006292486918711658
2.75750e-07;-0.006268786921186528
2.76000e-07;-0.006245086923661398
2.76250e-07;-0.006221386926136273
2.76500e-07;-0.006197686928611143
2.76750e-07;-0.006173986931086013
2.77000e-07;-0.006150286933560888
2.77250e-07;-0.006126586936035758
2.77500e-07;-0.006102886938510628
2.77750e-07;-0.006079186940985503
2.78000e-07;-0.006055486943460373
2.78250e-07;-0.006031786945935248
2.78500e-07;-0.006008086948410118
2.78750e-07;-0.005984386950884988
2.79000e-07;-0.005963576726053358
2.79250e-07;-0.005942934426848293
2.79500e-07;-0.0059222921276432285
2.79750e-07;-0.005901649828438168
2.80000e-07;-0.005881007529233103
2.80250e-07;-0.0058603652300280385
2.80500e-07;-0.005839722930822978
2.80750e-07;-0.005819080631617913
2.81000e-07;-0.0057984383324128485
2.81250e-07;-0.005783726409905406
2.81500e-07;-0.005769359103507385
2.81750e-07;-0.005754991797109367
2.82000e-07;-0.005740624490711346
2.82250e-07;-0.005726257184313326
2.82500e-07;-0.005711889877915308
2.82750e-07;-0.0056975225715172875
2.83000e-07;-0.0056831552651192664
2.83250e-07;-0.005668787958721249
2.83500e-07;-0.00564884336133365
2.83750e-07;-0.0056285746657614025
2.84000e-07;-0.005608305970189159
2.84250e-07;-0.005588037274616911
2.84500e-07;-0.005567768579044664
2.84750e-07;-0.005547499883472419
2.85000e-07;-0.005527231187900172
2.85250e-07;-0.005506962492327924
2.85500e-07;-0.0054866937967556805
2.85750e-07;-0.005466425101183433
2.86000e-07;-0.005446156405611189
2.86250e-07;-0.005425887710038941
2.86500e-07;-0.005405619014466693
2.86750e-07;-0.0053783030599204255
2.87000e-07;-0.005350577586874123
2.87250e-07;-0.00532285211382782
2.87500e-07;-0.005295126640781522
2.87750e-07;-0.0052674011677352195
2.88000e-07;-0.005239675694688917
2.88250e-07;-0.00521195022164262
2.88500e-07;-0.005184224748596317
2.88750e-07;-0.005156499275550014
2.89000e-07;-0.005128773802503718
2.89250e-07;-0.005101048329457415
2.89500e-07;-0.005073322856411118
2.89750e-07;-0.005045597383364815
2.90000e-07;-0.0050234890337763774
2.90250e-07;-0.005001707097050232
2.90500e-07;-0.004979925160324082
2.90750e-07;-0.004958143223597931
2.91000e-07;-0.004936361286871785
2.91250e-07;-0.004914579350145634
2.91500e-07;-0.004892797413419484
2.91750e-07;-0.004871015476693338
2.92000e-07;-0.004859610337533718
2.92250e-07;-0.0048611428014384075
2.92500e-07;-0.004862675265343097
2.92750e-07;-0.004864207729247786
2.93000e-07;-0.004865740193152476
2.93250e-07;-0.0048672726570571645
2.93500e-07;-0.004868805120961855
2.93750e-07;-0.004870337584866543
2.94000e-07;-0.004871870048771233
2.94250e-07;-0.004906940347114972
2.94500e-07;-0.004943959539873498
2.94750e-07;-0.004980978732632031
2.95000e-07;-0.005017997925390565
2.95250e-07;-0.005055017118149091
2.95500e-07;-0.005092036310907625
2.95750e-07;-0.005129055503666159
2.96000e-07;-0.005166074696424684
2.96250e-07;-0.005203093889183218
2.96500e-07;-0.005265671710183733
2.96750e-07;-0.005329734751344225
2.97000e-07;-0.005393797792504728
2.97250e-07;-0.0054578608336652325
2.97500e-07;-0.005521923874825723
2.97750e-07;-0.005585986915986227
2.98000e-07;-0.005650049957146718
2.98250e-07;-0.005714112998307221
2.98500e-07;-0.005778176039467725
2.98750e-07;-0.005847518743149117
2.99000e-07;-0.005917168249728544
2.99250e-07;-0.005986817756307971
2.99500e-07;-0.006056467262887384
2.99750e-07;-0.006126116769466811
3.00000e-07;-0.006195766276046238
3.00250e-07;-0.006265415782625651
3.00500e-07;-0.006335065289205077
3.00750e-07;-0.006395265217304478
3.01000e-07;-0.006443683582285109
3.01250e-07;-0.006492101947265751
3.01500e-07;-0.006540520312246383
3.01750e-07;-0.006588938677227024
3.02000e-07;-0.006637357042207665
3.02250e-07;-0.006685775407188297
3.02500e-07;-0.0067341937721689385
3.02750e-07;-0.00678261213714958
3.03000e-07;-0.006791828761265925
3.03250e-07;-0.0067987673595316985
3.03500e-07;-0.006805705957797472
3.03750e-07;-0.006812644556063245
3.04000e-07;-0.006819583154329018
3.04250e-07;-0.0068265217525947915
3.04500e-07;-0.006833460350860564
3.04750e-07;-0.0068403989491263376
3.05000e-07;-0.006847337547392112
3.05250e-07;-0.006836543999650691
3.05500e-07;-0.0068036423337686286
3.05750e-07;-0.006770740667886574
3.06000e-07;-0.006737839002004512
3.06250e-07;-0.00670493733612245
3.06500e-07;-0.006672035670240395
3.06750e-07;-0.006639134004358334
3.07000e-07;-0.006606232338476271
3.07250e-07;-0.006573330672594217
3.07500e-07;-0.006540429006712155
3.07750e-07;-0.006488929804161956
3.08000e-07;-0.006436349892736257
3.08250e-07;-0.006383769981310548
3.08500e-07;-0.006331190069884838
3.08750e-07;-0.006278610158459139
3.09000e-07;-0.006226030247033429
3.09250e-07;-0.0061734503356077304
3.09500e-07;-0.006120870424182021
3.09750e-07;-0.006072309063123462
3.10000e-07;-0.0060239812213274905
3.10250e-07;-0.0059756533795315096
3.10500e-07;-0.005927325537735529
3.10750e-07;-0.005878997695939558
3.11000e-07;-0.005830669854143577
3.11250e-07;-0.005782342012347596
3.11500e-07;-0.005734014170551626
3.11750e-07;-0.005715181656814284
3.12000e-07;-0.005698063126137637
3.12250e-07;-0.005680944595460995
3.12500e-07;-0.005663826064784349
3.12750e-07;-0.0056467075341077025
3.13000e-07;-0.00562958900343106
3.13250e-07;-0.005612470472754414
3.13500e-07;-0.005595351942077771
3.13750e-07;-0.005599433267446474
3.14000e-07;-0.005629946188958602
3.14250e-07;-0.005660459110470724
3.14500e-07;-0.005690972031982852
3.14750e-07;-0.005721484953494981
3.15000e-07;-0.005751997875007103
3.15250e-07;-0.005782510796519231
3.15500e-07;-0.00581302371803136
3.15750e-07;-0.005843536639543481
3.16000e-07;-0.005911032436865677
3.16250e-07;-0.005980677321072032
3.16500e-07;-0.006050322205278372
3.16750e-07;-0.0061199670894847265
3.17000e-07;-0.006189611973691081
3.17250e-07;-0.006259256857897421
3.17500e-07;-0.006328901742103776
3.17750e-07;-0.0063985466263101155
3.18000e-07;-0.006484335245833969
3.18250e-07;-0.006571061983042634
3.18500e-07;-0.00665778872025128
3.18750e-07;-0.0067445154574599445
3.19000e-07;-0.006831242194668609
3.19250e-07;-0.006917968931877254
3.19500e-07;-0.007004695669085919
3.19750e-07;-0.007091422406294583
3.20000e-07;-0.007175140887687894
3.20250e-07;-0.0072586845583620585
3.20500e-07;-0.007342228229036224
3.20750e-07;-0.0074055331660546515
3.21000e-07;-0.007467662023709337
3.21250e-07;-0.007529790881364009
3.21500e-07;-0.007591919739018694
3.21750e-07;-0.007654048596673379
3.22000e-07;-0.007716177454328052
3.22250e-07;-0.007778306311982737
3.22500e-07;-0.007840435169637422
3.22750e-07;-0.007882767813236229
3.23000e-07;-0.007900418896074513
3.23250e-07;-0.007918069978912796
3.23500e-07;-0.007935721061751076
3.23750e-07;-0.00795337214458936
3.24000e-07;-0.007971023227427643
3.24250e-07;-0.007988674310265922
3.24500e-07;-0.008006325393104205
3.24750e-07;-0.008023976475942489
3.25000e-07;-0.008000605585112555
3.25250e-07;-0.007974850894114425
3.25500e-07;-0.007949096203116299
3.25750e-07;-0.007923341512118168
3.26000e-07;-0.007897586821120036
3.26250e-07;-0.007871832130121912
3.26500e-07;-0.00784607743912378
3.26750e-07;-0.00782032274812565
3.27000e-07;-0.007794568057127524
3.27250e-07;-0.007743683872246373
3.27500e-07;-0.007691339404341539
3.27750e-07;-0.007638994936436716
3.28000e-07;-0.007586650468531882
3.28250e-07;-0.007534306000627048
3.28500e-07;-0.007481961532722225
3.28750e-07;-0.007429617064817392
3.29000e-07;-0.007377272596912569
3.29250e-07;-0.0073249281290077356
3.29500e-07;-0.007273122926677349
3.29750e-07;-0.00722134906124406
3.30000e-07;-0.00716957519581076
3.30250e-07;-0.00711780133037746
3.30500e-07;-0.00706602746494417
3.30750e-07;-0.00701425359951087
3.31000e-07;-0.006962479734077569
3.31250e-07;-0.00691070586864428
3.31500e-07;-0.00686928178421676
3.31750e-07;-0.0068407616190959055
3.32000e-07;-0.006812241453975057
3.32250e-07;-0.006783721288854204
3.32500e-07;-0.00675520112373335
3.32750e-07;-0.0067266809586125015
3.33000e-07;-0.006698160793491647
3.33250e-07;-0.006669640628370799
3.33500e-07;-0.006641120463249945
3.33750e-07;-0.006641417716463691
3.34000e-07;-0.006643389559184795
3.34250e-07;-0.0066453614019059
3.34500e-07;-0.0066473332446270045
3.34750e-07;-0.006649305087348108
3.35000e-07;-0.006651276930069213
3.35250e-07;-0.006653248772790318
3.35500e-07;-0.006655220615511422
3.35750e-07;-0.006657192458232527
3.36000e-07;-0.006659164300953631
3.36250e-07;-0.006661136143674736
3.36500e-07;-0.006663107986395841
3.36750e-07;-0.006685777298059603
3.37000e-07;-0.00670964934634322
3.37250e-07;-0.006733521394626838
3.37500e-07;-0.006757393442910451
3.37750e-07;-0.006781265491194068
3.38000e-07;-0.006805137539477686
3.38250e-07;-0.006829009587761298
3.38500e-07;-0.006852881636044915
3.38750e-07;-0.006876753684328533
3.39000e-07;-0.006900625732612146
3.39250e-07;-0.006924497780895764
3.39500e-07;-0.006948369829179381
3.39750e-07;-0.00697346280285463
3.40000e-07;-0.006998626724899596
3.40250e-07;-0.0070237906469445615
3.40500e-07;-0.007048954568989523
3.40750e-07;-0.007074118491034488
3.41000e-07;-0.007099282413079449
3.41250e-07;-0.007124446335124415
3.41500e-07;-0.007149610257169381
3.41750e-07;-0.007174774179214341
3.42000e-07;-0.0071948277056536475
3.42250e-07;-0.0072145842653501095
3.42500e-07;-0.007234340825046568
3.42750e-07;-0.00725409738474303
3.43000e-07;-0.007273853944439493
3.43250e-07;-0.007293610504135951
3.43500e-07;-0.007313367063832414
3.43750e-07;-0.007333123623528876
3.44000e-07;-0.007352880183225334
3.44250e-07;-0.007374332697090686
3.44500e-07;-0.007395883763401763
3.44750e-07;-0.0074174348297128346
3.45000e-07;-0.007438985896023911
3.45250e-07;-0.007460536962334983
3.45500e-07;-0.007482088028646059
3.45750e-07;-0.007503639094957135
3.46000e-07;-0.007525190161268207
3.46250e-07;-0.007546741227579284
3.46500e-07;-0.00756829229389036
3.46750e-07;-0.007589843360201431
3.47000e-07;-0.007611394426512507
3.47250e-07;-0.0076329454928235835
3.47500e-07;-0.0076544965591346555
3.47750e-07;-0.007676047625445732
3.48000e-07;-0.007697598691756808
3.48250e-07;-0.0077176648473210015
3.48500e-07;-0.0077376447142410406
3.48750e-07;-0.007757624581161075
3.49000e-07;-0.007777604448081114
3.49250e-07;-0.007797584315001153
3.49500e-07;-0.007817564181921189
3.49750e-07;-0.007837544048841228
3.50000e-07;-0.007857523915761267
3.50250e-07;-0.007877503782681301
3.50500e-07;-0.00789748364960134
3.50750e-07;-0.007917463516521379
3.51000e-07;-0.007937443383441415
3.51250e-07;-0.007957423250361454
3.51500e-07;-0.007977403117281493
3.51750e-07;-0.007997382984201527
3.52000e-07;-0.008017362851121566
3.52250e-07;-0.00802915176537886
3.52500e-07;-0.008040464700725537
3.52750e-07;-0.008051777636072219
3.53000e-07;-0.008063090571418898
3.53250e-07;-0.00807440350676558
3.53500e-07;-0.00808571644211226
3.53750e-07;-0.00809702937745894
3.54000e-07;-0.008108342312805621
3.54250e-07;-0.008119655248152302
3.54500e-07;-0.00813096818349898
3.54750e-07;-0.008142281118845662
3.55000e-07;-0.008153594054192343
3.55250e-07;-0.008164906989539021
3.55500e-07;-0.008176219924885703
3.55750e-07;-0.008187532860232384
3.56000e-07;-0.008198845795579062
3.56250e-07;-0.008210158730925744
3.56500e-07;-0.008221471666272424
3.56750e-07;-0.008232784601619103
3.57000e-07;-0.008242462285496242
3.57250e-07;-0.008250314243264669
3.57500e-07;-0.008258166201033095
3.57750e-07;-0.008266018158801524
3.58000e-07;-0.00827387011656995
3.58250e-07;-0.00828172207433838
3.58500e-07;-0.008289574032106808
3.58750e-07;-0.008297425989875234
3.59000e-07;-0.008305277947643661
3.59250e-07;-0.00831312990541209
3.59500e-07;-0.008320981863180517
3.59750e-07;-0.008328833820948945
3.60000e-07;-0.008336685778717373
3.60250e-07;-0.0083445377364858
3.60500e-07;-0.008352389694254227
3.60750e-07;-0.008360241652022654
3.61000e-07;-0.008368093609791082
3.61250e-07;-0.00837594556755951
3.61500e-07;-0.008383797525327938
3.61750e-07;-0.008391649483096364
3.62000e-07;-0.008404684914471551
3.62250e-07;-0.0084177209469893
3.62500e-07;-0.008430756979507051
3.62750e-07;-0.008443793012024803
3.63000e-07;-0.008456829044542551
3.63250e-07;-0.008469865077060301
3.63500e-07;-0.008482901109578053
3.63750e-07;-0.0084959371420958
3.64000e-07;-0.008508973174613552
3.64250e-07;-0.008522009207131304
3.64500e-07;-0.008542697649949664
3.64750e-07;-0.008571042053369839
3.65000e-07;-0.008599386456790009
3.65250e-07;-0.008627730860210184
3.65500e-07;-0.00865607526363036
3.65750e-07;-0.00868441966705053
3.66000e-07;-0.008712764070470707
3.66250e-07;-0.008741108473890882
3.66500e-07;-0.008769452877311052
3.66750e-07;-0.008797797280731228
3.67000e-07;-0.008826141684151403
3.67250e-07;-0.0088638282243829
3.67500e-07;-0.008901515848049291
3.67750e-07;-0.008939203471715684
3.68000e-07;-0.00897689109538207
3.68250e-07;-0.00901457871904846
3.68500e-07;-0.009052266342714846
3.68750e-07;-0.009089953966381238
3.69000e-07;-0.009127641590047631
3.69250e-07;-0.009165329213714015
3.69500e-07;-0.009199839429768776
3.69750e-07;-0.009234349277330293
3.70000e-07;-0.009268859124891804
3.70250e-07;-0.009303368972453324
3.70500e-07;-0.009337878820014842
3.70750e-07;-0.009372388667576352
3.71000e-07;-0.009406898515137872
3.71250e-07;-0.00944140836269939
3.71500e-07;-0.0094759182102609
3.71750e-07;-0.009490388863292138
3.72000e-07;-0.009504857192319433
3.72250e-07;-0.009519325521346725
3.72500e-07;-0.009533793850374022
3.72750e-07;-0.009548262179401313
3.73000e-07;-0.009562730508428608
3.73250e-07;-0.009577198837455905
3.73500e-07;-0.009591667166483197
3.73750e-07;-0.009572484194271355
3.74000e-07;-0.009553297319419769
3.74250e-07;-0.009534110444568188
3.74500e-07;-0.009514923569716604
3.74750e-07;-0.009495736694865017
3.75000e-07;-0.009476549820013436
3.75250e-07;-0.00945736294516185
3.75500e-07;-0.009438176070310266
3.75750e-07;-0.009388029145435687
3.76000e-07;-0.009337878630033622
3.76250e-07;-0.009287728114631568
3.76500e-07;-0.009237577599229503
3.76750e-07;-0.009187427083827438
3.77000e-07;-0.009137276568425385
3.77250e-07;-0.00908712605302332
3.77500e-07;-0.009036975537621256
3.77750e-07;-0.00897932358941664
3.78000e-07;-0.008914166728153476
3.78250e-07;-0.008849009866890314
3.78500e-07;-0.008783853005627165
3.78750e-07;-0.008718696144364001
3.79000e-07;-0.008653539283100838
3.79250e-07;-0.00858838242183769
3.79500e-07;-0.008523225560574527
3.79750e-07;-0.008458068699311363
3.80000e-07;-0.008401886679657994
3.80250e-07;-0.008345705700843234
3.80500e-07;-0.008289524722028485
3.80750e-07;-0.008233343743213724
3.81000e-07;-0.008177162764398963
3.81250e-07;-0.008120981785584215
3.81500e-07;-0.008064800806769454
3.81750e-07;-0.00802026378133165
3.82000e-07;-0.007987376111430603
3.82250e-07;-0.00795448844152955
3.82500e-07;-0.007921600771628498
3.82750e-07;-0.007888713101727451
3.83000e-07;-0.007855825431826398
3.83250e-07;-0.007822937761925344
3.83500e-07;-0.0077900500920242985
3.83750e-07;-0.007784911525383104
3.84000e-07;-0.007779776176886574
3.84250e-07;-0.007774640828390047
3.84500e-07;-0.007769505479893518
3.84750e-07;-0.00776437013139699
3.85000e-07;-0.007759234782900461
3.85250e-07;-0.007754099434403932
3.85500e-07;-0.007748964085907404
3.85750e-07;-0.007743828737410875
3.86000e-07;-0.0077386933889143465
3.86250e-07;-0.007733558040417818
3.86500e-07;-0.00772842269192129
3.86750e-07;-0.0077232873434247605
3.87000e-07;-0.007737943922141114
3.87250e-07;-0.007752602796185166
3.87500e-07;-0.007767261670229218
3.87750e-07;-0.007781920544273267
3.88000e-07;-0.007796579418317319
3.88250e-07;-0.007811238292361368
3.88500e-07;-0.00782589716640542
3.88750e-07;-0.007840556040449472
3.89000e-07;-0.00785521491449352
3.89250e-07;-0.007869873788537573
3.89500e-07;-0.007884532662581625
3.89750e-07;-0.007899191536625674
3.90000e-07;-0.007913850410669726
3.90250e-07;-0.007930274502883996
3.90500e-07;-0.00794669879981578
3.90750e-07;-0.007963123096747567
3.91000e-07;-0.007979547393679355
3.91250e-07;-0.007995971690611137
3.91500e-07;-0.008012395987542924
3.91750e-07;-0.008028820284474712
3.92000e-07;-0.008045244581406496
3.92250e-07;-0.008061668878338282
3.92500e-07;-0.008078093175270066
3.92750e-07;-0.008094517472201853
3.93000e-07;-0.008123611028135925
3.93250e-07;-0.008152706053361039
3.93500e-07;-0.008181801078586157
3.93750e-07;-0.008210896103811278
3.94000e-07;-0.00823999112903639
3.94250e-07;-0.008269086154261508
3.94500e-07;-0.008298181179486629
3.94750e-07;-0.008327276204711742
3.95000e-07;-0.00835637122993686
3.95250e-07;-0.00838546625516198
3.95500e-07;-0.008414561280387093
3.95750e-07;-0.008462212317527988
3.96000e-07;-0.0085098655066639
3.96250e-07;-0.008557518695799824
3.96500e-07;-0.008605171884935746
3.96750e-07;-0.008652825074071658
