Time(s);Current(A)
5.30000e-06;-0.00665232800681437
5.30025e-06;-0.0067831138977357186
5.30050e-06;-0.006911056528417272
5.30075e-06;-0.007035717206938288
5.30100e-06;-0.0071565018565852715
5.30125e-06;-0.007272600886881246
5.30150e-06;-0.007380902200635736
5.30175e-06;-0.00748610393300337
5.30200e-06;-0.007578767168580691
5.30225e-06;-0.007665084938763778
5.30250e-06;-0.007751402708947157
5.30275e-06;-0.007822468703949455
5.30300e-06;-0.007885816101321797
5.30325e-06;-0.007949163498693923
5.30350e-06;-0.00801251089606605
5.30375e-06;-0.00805784361520917
5.30400e-06;-0.008094059490506955
5.30425e-06;-0.00813027536580474
5.30450e-06;-0.008166491241102648
5.30475e-06;-0.008182477467607769
5.30500e-06;-0.008188225900979153
5.30525e-06;-0.008193974334350557
5.30550e-06;-0.008199722767721943
5.30575e-06;-0.008205471201093328
5.30600e-06;-0.008211219634464733
5.30625e-06;-0.008197113051711877
5.30650e-06;-0.00817295826941665
5.30675e-06;-0.008148803487121341
5.30700e-06;-0.008124648704826114
5.30725e-06;-0.008100493922530805
5.30750e-06;-0.008076339140235578
5.30775e-06;-0.008041452652157813
5.30800e-06;-0.008001135077020856
5.30825e-06;-0.007960817501884035
5.30850e-06;-0.007915724416614088
5.30875e-06;-0.00786821454767421
5.30900e-06;-0.007820704678734492
5.30925e-06;-0.007770994834844363
5.30950e-06;-0.00772017163062485
5.30975e-06;-0.0076693484264055084
5.31000e-06;-0.0076180417553777515
5.31025e-06;-0.007566490412125316
5.31050e-06;-0.007514939068873054
5.31075e-06;-0.007464911918890818
5.31100e-06;-0.007415656130564388
5.31125e-06;-0.007370346374859629
5.31150e-06;-0.007327033621974026
5.31175e-06;-0.007283720869088569
5.31200e-06;-0.007241763370186221
5.31225e-06;-0.007206715572965991
5.31250e-06;-0.00717166777574588
5.31275e-06;-0.00713661997852577
5.31300e-06;-0.007103252407720201
5.31325e-06;-0.00707073516361218
5.31350e-06;-0.007038217919504159
5.31375e-06;-0.007005700675396027
5.31400e-06;-0.006973183431288006
5.31425e-06;-0.006940666187179985
5.31450e-06;-0.0069081489430718535
5.31475e-06;-0.006875631698963832
5.31500e-06;-0.006843103517333951
5.31525e-06;-0.0068105698004577815
5.31550e-06;-0.006778036083581722
5.31575e-06;-0.006745502366705551
5.31600e-06;-0.006712968649829491
5.31625e-06;-0.006680434932953431
5.31650e-06;-0.0066479012160772614
5.31675e-06;-0.006615367499201202
5.31700e-06;-0.0065816542176148525
5.31725e-06;-0.006547343983525036
5.31750e-06;-0.0065130337494353355
5.31775e-06;-0.0064787235153456356
5.31800e-06;-0.006444413281255819
5.31825e-06;-0.0064101030471661186
5.31850e-06;-0.006375792813076419
5.31875e-06;-0.00634179673308926
5.31900e-06;-0.006309402353711902
5.31925e-06;-0.006277007974334544
5.31950e-06;-0.006244613594957077
5.31975e-06;-0.006212219215579719
5.32000e-06;-0.006179824836202251
5.32025e-06;-0.006147430456824894
5.32050e-06;-0.006115036077447536
5.32075e-06;-0.006085617181048863
5.32100e-06;-0.00605770411302683
5.32125e-06;-0.006029791045004796
5.32150e-06;-0.00600267143792792
5.32175e-06;-0.005979597255911399
5.32200e-06;-0.005956523073894879
5.32225e-06;-0.005933448891878281
5.32250e-06;-0.005911659518083391
5.32275e-06;-0.005890520358284769
5.32300e-06;-0.005869381198486075
5.32325e-06;-0.005846679815305942
5.32350e-06;-0.0058231878242429825
5.32375e-06;-0.005799695833179944
5.32400e-06;-0.0057743042947397075
5.32425e-06;-0.005747951435947869
5.32450e-06;-0.005721598577156121
5.32475e-06;-0.005695245718364372
5.32500e-06;-0.005668892859572534
5.32525e-06;-0.005642540000780786
5.32550e-06;-0.005612063863724308
5.32575e-06;-0.005579501023615128
5.32600e-06;-0.005546938183506057
5.32625e-06;-0.005514375343396987
5.32650e-06;-0.005481812503287807
5.32675e-06;-0.0054492496631787365
5.32700e-06;-0.0054133796322053595
5.32725e-06;-0.005375835902580256
5.32750e-06;-0.005338292172955279
5.32775e-06;-0.005300748443330303
5.32800e-06;-0.0052632047137052
5.32825e-06;-0.0052254109348997945
5.32850e-06;-0.005186342291557309
5.32875e-06;-0.0051472736482149565
5.32900e-06;-0.005108205004872603
5.32925e-06;-0.005069136361530118
5.32950e-06;-0.005030067718187765
5.32975e-06;-0.004991599292877712
5.33000e-06;-0.004953434625092415
5.33025e-06;-0.004916438687558418
5.33050e-06;-0.004880034219439273
5.33075e-06;-0.004844973172733064
5.33100e-06;-0.0048105920029072715
5.33125e-06;-0.004777481904526607
5.33150e-06;-0.004746073109236834
5.33175e-06;-0.004716416111075672
5.33200e-06;-0.004688749328622114
5.33225e-06;-0.004663422488098147
5.33250e-06;-0.004641157636177357
5.33275e-06;-0.004622887442152887
5.33300e-06;-0.004609159326238847
5.33325e-06;-0.004600049636613147
5.33350e-06;-0.004595493523713397
5.33375e-06;-0.0045968805089799366
5.33400e-06;-0.004600504750779053
5.33425e-06;-0.0046101091502908
5.33450e-06;-0.004622739979878379
5.33475e-06;-0.00464372480879022
5.33500e-06;-0.0046689374183098665
5.33525e-06;-0.004694150027829427
5.33550e-06;-0.004731276430302031
5.33575e-06;-0.004774432148896967
5.33600e-06;-0.004817587867491756
5.33625e-06;-0.004860743586086546
5.33650e-06;-0.004903899304681482
5.33675e-06;-0.004959283280933363
5.33700e-06;-0.005020855717176867
5.33725e-06;-0.005082428153420163
5.33750e-06;-0.005144000589663458
5.33775e-06;-0.005205573025906962
5.33800e-06;-0.005273133565991987
5.33825e-06;-0.005343724557518829
5.33850e-06;-0.005416458839548981
5.33875e-06;-0.005490277795119441
5.33900e-06;-0.0055654550131220976
5.33925e-06;-0.0056413196187279566
5.33950e-06;-0.005717364480877601
5.33975e-06;-0.005793500567013703
5.34000e-06;-0.0058686110768951935
5.34025e-06;-0.005943202564541296
5.34050e-06;-0.006015715536548762
5.34075e-06;-0.00608717661619118
5.34100e-06;-0.006155489080882642
5.34125e-06;-0.006222208098805746
5.34150e-06;-0.006284461979711785
5.34175e-06;-0.006344456150154008
5.34200e-06;-0.006396997603991931
5.34225e-06;-0.0064457673971546735
5.34250e-06;-0.006494537190317417
5.34275e-06;-0.00653305400362249
5.34300e-06;-0.006566382002836822
5.34325e-06;-0.0065997100020511535
5.34350e-06;-0.006622193235772536
5.34375e-06;-0.006639188165334549
5.34400e-06;-0.0066561830948965615
5.34425e-06;-0.006657376171211538
5.34450e-06;-0.006650572267144154
5.34475e-06;-0.00664376836307677
5.34500e-06;-0.006636964459009362
5.34525e-06;-0.006630160554941978
5.34550e-06;-0.006618835607309628
5.34575e-06;-0.006584460321749183
5.34600e-06;-0.006550085036188738
5.34625e-06;-0.0065157097506281765
5.34650e-06;-0.006481334465067732
5.34675e-06;-0.006446959179507286
5.34700e-06;-0.006401142302118548
5.34725e-06;-0.00634953507951181
5.34750e-06;-0.006297927856905071
5.34775e-06;-0.006240465852277263
5.34800e-06;-0.006180040867534066
5.34825e-06;-0.0061196158827908674
5.34850e-06;-0.006055712121953705
5.34875e-06;-0.005990047826846579
5.34900e-06;-0.005922793687572174
5.34925e-06;-0.005854734962125481
5.34950e-06;-0.005786132993543677
5.34975e-06;-0.005717238168317145
5.35000e-06;-0.0056485748158182246
5.35025e-06;-0.005580536557513431
5.35050e-06;-0.005513538375146377
5.35075e-06;-0.005448025976588551
5.35100e-06;-0.005384456019089183
5.35125e-06;-0.005323280678552459
5.35150e-06;-0.005264949783782337
5.35175e-06;-0.00520991254520635
5.35200e-06;-0.005158618478681087
5.35225e-06;-0.005111590072166279
5.35250e-06;-0.005069574880297185
5.35275e-06;-0.005033386067965587
5.35300e-06;-0.005003491565943991
5.35325e-06;-0.004979999567363915
5.35350e-06;-0.004962914289489075
5.35375e-06;-0.004954365113126404
5.35400e-06;-0.004949046329902757
5.35425e-06;-0.004952392846685736
5.35450e-06;-0.004960124686700194
5.35475e-06;-0.004979197538783615
5.35500e-06;-0.005004009834816521
5.35525e-06;-0.005028822130849426
5.35550e-06;-0.005066192196389492
5.35575e-06;-0.005109917480826831
5.35600e-06;-0.00515364276526417
5.35625e-06;-0.0052084507868139195
5.35650e-06;-0.005268867544874375
5.35675e-06;-0.00532928430293483
5.35700e-06;-0.005397953131377675
5.35725e-06;-0.00547079815636573
5.35750e-06;-0.005548957502930772
5.35775e-06;-0.005629806314125347
5.35800e-06;-0.005714771343795024
5.35825e-06;-0.005801819503707548
5.35850e-06;-0.0058912847400061225
5.35875e-06;-0.00598326097462371
5.35900e-06;-0.006076850186083811
5.35925e-06;-0.006171514567069712
5.35950e-06;-0.00626668990385155
5.35975e-06;-0.006361811654717156
5.36000e-06;-0.006456316213034851
5.36025e-06;-0.0065496506410358205
5.36050e-06;-0.006641296075520938
5.36075e-06;-0.006730745113436454
5.36100e-06;-0.006817436225053129
5.36125e-06;-0.0069007528348788314
5.36150e-06;-0.006978451866172662
5.36175e-06;-0.007053917865716329
5.36200e-06;-0.007122139283640819
5.36225e-06;-0.007186694373561578
5.36250e-06;-0.007241317214535293
5.36275e-06;-0.007290913556483007
5.36300e-06;-0.007340509898430722
5.36325e-06;-0.007378070380041311
5.36350e-06;-0.007409539769837568
5.36375e-06;-0.007441009159633825
5.36400e-06;-0.007459564080151595
5.36425e-06;-0.007471583263638295
5.36450e-06;-0.007483602447124995
5.36475e-06;-0.007483302348035209
5.36500e-06;-0.0074767677231904195
5.36525e-06;-0.00747023309834563
5.36550e-06;-0.007456068952949169
5.36575e-06;-0.007426632753536215
5.36600e-06;-0.007391421732963607
5.36625e-06;-0.007356210712390879
5.36650e-06;-0.007320999691818271
5.36675e-06;-0.007285788671245544
5.36700e-06;-0.007246888082063935
5.36725e-06;-0.007189176392754276
5.36750e-06;-0.007131464703444422
5.36775e-06;-0.007073753014134764
5.36800e-06;-0.007016041324825106
5.36825e-06;-0.0069583296355152525
5.36850e-06;-0.006893449190575301
5.36875e-06;-0.006824940791545728
5.36900e-06;-0.006756432392515923
5.36925e-06;-0.006686129209274294
5.36950e-06;-0.006614917724082114
5.36975e-06;-0.0065435163975207985
5.37000e-06;-0.006472018996298212
5.37025e-06;-0.006401436945845355
5.37050e-06;-0.006331318134863605
5.37075e-06;-0.006262701049498914
5.37100e-06;-0.006196294665003413
5.37125e-06;-0.006133422150063788
5.37150e-06;-0.006071966501671349
5.37175e-06;-0.0060166905917806
5.37200e-06;-0.005964542115537581
5.37225e-06;-0.005912393639294562
5.37250e-06;-0.005867863140588575
5.37275e-06;-0.005827187937583102
5.37300e-06;-0.005786512734577629
5.37325e-06;-0.0057525047563252805
5.37350e-06;-0.005721870918098882
5.37375e-06;-0.0056912370798724845
5.37400e-06;-0.005672481121691944
5.37425e-06;-0.005659736304873536
5.37450e-06;-0.005646991488055129
5.37475e-06;-0.005634246671236678
5.37500e-06;-0.005621501854418271
5.37525e-06;-0.00560875703759982
5.37550e-06;-0.005596012220781412
5.37575e-06;-0.005596742563409441
5.37600e-06;-0.005604292396383628
5.37625e-06;-0.005611842229357789
5.37650e-06;-0.00561939206233195
5.37675e-06;-0.005626941895306137
5.37700e-06;-0.005634491728280299
5.37725e-06;-0.005642041561254461
5.37750e-06;-0.005658667478332346
5.37775e-06;-0.005679886607696047
5.37800e-06;-0.005701105737059747
5.37825e-06;-0.005722324866423519
5.37850e-06;-0.0057435439957872194
5.37875e-06;-0.00576476312515092
5.37900e-06;-0.005785982254514693
5.37925e-06;-0.005807890279020287
5.37950e-06;-0.005833310604518154
5.37975e-06;-0.005858730930015934
5.38000e-06;-0.005884151255513715
5.38025e-06;-0.0059095715810115815
5.38050e-06;-0.005934991906509362
5.38075e-06;-0.005960412232007143
5.38100e-06;-0.005985832557505009
5.38125e-06;-0.006007512822522516
5.38150e-06;-0.006027300322824513
5.38175e-06;-0.006047087823126577
5.38200e-06;-0.006066875323428573
5.38225e-06;-0.00608666282373057
5.38250e-06;-0.006106450324032634
5.38275e-06;-0.006124034087596969
5.38300e-06;-0.00614050258707368
5.38325e-06;-0.006156971086550447
5.38350e-06;-0.0061734395860271575
5.38375e-06;-0.006189908085503924
5.38400e-06;-0.0062063765849806355
5.38425e-06;-0.006223364640364473
5.38450e-06;-0.006240615631894419
5.38475e-06;-0.006257866623424309
5.38500e-06;-0.006275117614954197
5.38525e-06;-0.006292368606484144
5.38550e-06;-0.006309619598014032
5.38575e-06;-0.006326870589543921
5.38600e-06;-0.006344121581073868
5.38625e-06;-0.006361372572603757
5.38650e-06;-0.006380191490314859
5.38675e-06;-0.006399803901972896
5.38700e-06;-0.006419416313630864
5.38725e-06;-0.006439028725288834
5.38750e-06;-0.006458641136946869
5.38775e-06;-0.006478253548604838
5.38800e-06;-0.006497865960262807
5.38825e-06;-0.006517478371920843
5.38850e-06;-0.006537090783578812
5.38875e-06;-0.0065565234127808476
5.38900e-06;-0.006575865057922286
5.38925e-06;-0.006595206703063725
5.38950e-06;-0.006614548348205228
5.38975e-06;-0.006633889993346667
5.39000e-06;-0.006653231638488105
5.39025e-06;-0.006672573283629609
5.39050e-06;-0.006691184546187808
5.39075e-06;-0.006706071985895726
5.39100e-06;-0.006720959425603695
5.39125e-06;-0.006735846865311613
5.39150e-06;-0.006750734305019532
5.39175e-06;-0.0067656217447275005
5.39200e-06;-0.006780509184435419
5.39225e-06;-0.006795396624143337
5.39250e-06;-0.006805771610778277
5.39275e-06;-0.006813862941306536
5.39300e-06;-0.006821954271834821
5.39325e-06;-0.006830045602363079
5.39350e-06;-0.006838136932891338
5.39375e-06;-0.006846228263419624
5.39400e-06;-0.006854319593947882
5.39425e-06;-0.006862410924476141
5.39450e-06;-0.006870502255004426
5.39475e-06;-0.0068785935855326845
5.39500e-06;-0.006886684916060943
5.39525e-06;-0.006894776246589228
5.39550e-06;-0.006902867577117487
5.39575e-06;-0.006910958907645745
5.39600e-06;-0.006918428089803513
5.39625e-06;-0.006922725276391932
5.39650e-06;-0.006927022462980352
5.39675e-06;-0.006931319649568786
5.39700e-06;-0.0069356168361572055
5.39725e-06;-0.006939914022745639
5.39750e-06;-0.006944211209334058
5.39775e-06;-0.006948508395922478
5.39800e-06;-0.006952805582510912
5.39825e-06;-0.006957102769099331
5.39850e-06;-0.00696139995568775
5.39875e-06;-0.006965697142276185
5.39900e-06;-0.006969994328864604
5.39925e-06;-0.006974291515453024
5.39950e-06;-0.006978588702041457
5.39975e-06;-0.006981876718524096
5.40000e-06;-0.006984654015573857
5.40025e-06;-0.006987431312623627
5.40050e-06;-0.006990208609673388
5.40075e-06;-0.006992985906723149
5.40100e-06;-0.006995195349280751
5.40125e-06;-0.006997117412810242
5.40150e-06;-0.0069990394763397405
5.40175e-06;-0.007000961539869232
5.40200e-06;-0.007002883603398723
5.40225e-06;-0.007005108279429568
5.40250e-06;-0.00700748610118299
5.40275e-06;-0.007009863922936413
5.40300e-06;-0.007017107783456983
5.40325e-06;-0.007026814242250217
5.40350e-06;-0.007036520701043452
5.40375e-06;-0.007046227159836719
5.40400e-06;-0.007055933618629953
5.40425e-06;-0.007065640077423187
5.40450e-06;-0.007077200114422347
5.40475e-06;-0.007098210536785083
5.40500e-06;-0.00711922095914782
5.40525e-06;-0.007140231381510627
5.40550e-06;-0.007161241803873364
5.40575e-06;-0.007182252226236171
5.40600e-06;-0.007203262648598908
5.40625e-06;-0.0072317479470265286
5.40650e-06;-0.00726401612055361
5.40675e-06;-0.007296284294080583
5.40700e-06;-0.0073285524676075554
5.40725e-06;-0.007360820641134637
5.40750e-06;-0.00739308881466161
5.40775e-06;-0.007425356988188582
5.40800e-06;-0.007457625161715664
5.40825e-06;-0.007493636634466864
5.40850e-06;-0.007531542510991611
5.40875e-06;-0.007569448387516485
5.40900e-06;-0.007607354264041232
5.40925e-06;-0.007645260140565978
5.40950e-06;-0.007683166017090853
5.40975e-06;-0.007721071893615599
5.41000e-06;-0.007758977770140474
5.41025e-06;-0.0077954945942708825
5.41050e-06;-0.007831308448657292
5.41075e-06;-0.007867122303043822
5.41100e-06;-0.007900475743206032
5.41125e-06;-0.007932584020288475
5.41150e-06;-0.007964692297371028
5.41175e-06;-0.007993684269636418
5.41200e-06;-0.008021099146604087
5.41225e-06;-0.008044839943788018
5.41250e-06;-0.008066721367678609
5.41275e-06;-0.008081165792012377
5.41300e-06;-0.008091846509738963
5.41325e-06;-0.008102527227465512
5.41350e-06;-0.008099659350270174
5.41375e-06;-0.008089934818608757
5.41400e-06;-0.008080210286947375
5.41425e-06;-0.008070485755285958
5.41450e-06;-0.008060761223624575
5.41475e-06;-0.00804654491404196
5.41500e-06;-0.008009427476158988
5.41525e-06;-0.007972310038276142
5.41550e-06;-0.007935192600393296
5.41575e-06;-0.007898075162510326
5.41600e-06;-0.007860957724627481
5.41625e-06;-0.00780819369266051
5.41650e-06;-0.007747511253669037
5.41675e-06;-0.0076868288146777685
5.41700e-06;-0.0076261463756865005
5.41725e-06;-0.007565463936695028
5.41750e-06;-0.007502178812121282
5.41775e-06;-0.0074256240118221765
5.41800e-06;-0.007349069211522813
5.41825e-06;-0.007272514411223709
5.41850e-06;-0.007195959610924345
5.41875e-06;-0.00711940481062524
5.41900e-06;-0.00703927492688528
5.41925e-06;-0.006957335769786471
5.41950e-06;-0.00687520058756103
5.41975e-06;-0.006792966201206345
5.42000e-06;-0.0067117972763455986
5.42025e-06;-0.006631167558786977
5.42050e-06;-0.006552708649455546
5.42075e-06;-0.006475348339794849
5.42100e-06;-0.006401284127713975
5.42125e-06;-0.006328888000206884
5.42150e-06;-0.006262627139677753
5.42175e-06;-0.006199471206704924
5.42200e-06;-0.006136315273732096
5.42225e-06;-0.006087261040037521
5.42250e-06;-0.006045343375107297
5.42275e-06;-0.00600342571017693
5.42300e-06;-0.005961508045246706
5.42325e-06;-0.005919590380316481
5.42350e-06;-0.0058776727153861145
5.42375e-06;-0.00583575505045589
5.42400e-06;-0.005793837385525666
5.42425e-06;-0.0057686512304176785
5.42450e-06;-0.005751932535011808
5.42475e-06;-0.005735213839605937
5.42500e-06;-0.00571849514420001
5.42525e-06;-0.005701776448794139
5.42550e-06;-0.005685057753388269
5.42575e-06;-0.005668339057982342
5.42600e-06;-0.005651620362576471
5.42625e-06;-0.005647835890378752
5.42650e-06;-0.005650597152245135
5.42675e-06;-0.005653358414111509
5.42700e-06;-0.005656119675977892
5.42725e-06;-0.005658880937844266
5.42750e-06;-0.005661642199710639
5.42775e-06;-0.005664403461577022
5.42800e-06;-0.005667164723443396
5.42825e-06;-0.005671596807785606
5.42850e-06;-0.005684547505589846
5.42875e-06;-0.005697498203394042
5.42900e-06;-0.0057104489011982375
5.42925e-06;-0.0057233995990024775
5.42950e-06;-0.005736350296806673
5.42975e-06;-0.005749300994610869
5.43000e-06;-0.005762251692415109
5.43025e-06;-0.005775202390219305
5.43050e-06;-0.005789001151452694
5.43075e-06;-0.0058032290994712325
5.43100e-06;-0.005817457047489722
5.43125e-06;-0.0058313030783415706
5.43150e-06;-0.005843201921647017
5.43175e-06;-0.005855100764952463
5.43200e-06;-0.005866999608257949
5.43225e-06;-0.005877793391933376
5.43250e-06;-0.005888027928536469
5.43275e-06;-0.005901184857614163
5.43300e-06;-0.005915820747094674
5.43325e-06;-0.0059304566365751855
5.43350e-06;-0.0059498167453564295
5.43375e-06;-0.005971567680606279
5.43400e-06;-0.005993318615856129
5.43425e-06;-0.006015069551106054
5.43450e-06;-0.006038502891179367
5.43475e-06;-0.006070513896792918
5.43500e-06;-0.006102524902406577
5.43525e-06;-0.006134535908020129
5.43550e-06;-0.006166546913633788
5.43575e-06;-0.0062056918390867195
5.43600e-06;-0.006248447088974424
5.43625e-06;-0.006291202338862273
5.43650e-06;-0.006333957588749979
5.43675e-06;-0.006376712838637683
5.43700e-06;-0.006425549938142023
5.43725e-06;-0.006477464931815586
5.43750e-06;-0.00652937992548915
5.43775e-06;-0.006581294919162888
5.43800e-06;-0.0066332099128364515
5.43825e-06;-0.006687699637806613
5.43850e-06;-0.006743492379284292
5.43875e-06;-0.006799285120761781
5.43900e-06;-0.006855924727890185
5.43925e-06;-0.006912992915633803
5.43950e-06;-0.006969809579022711
5.43975e-06;-0.007026498951309104
5.44000e-06;-0.007082009390142596
5.44025e-06;-0.0071369231959402925
5.44050e-06;-0.007190038455739109
5.44075e-06;-0.007242243509828536
5.44100e-06;-0.007292102446152635
5.44125e-06;-0.007340774062394136
5.44150e-06;-0.007386151590776757
5.44175e-06;-0.007429862051663116
5.44200e-06;-0.007469243418204398
5.44225e-06;-0.007506433922576518
5.44250e-06;-0.007537447161946797
5.44275e-06;-0.00756533421945989
5.44300e-06;-0.007583551322419514
5.44325e-06;-0.0075968746679515335
5.44350e-06;-0.007610198013483599
5.44375e-06;-0.007611911353468721
5.44400e-06;-0.007607749117662321
5.44425e-06;-0.007603586881855935
5.44450e-06;-0.007582120345735034
5.44475e-06;-0.007551896472883681
5.44500e-06;-0.00752167260003243
5.44525e-06;-0.0074914487271811785
5.44550e-06;-0.0074612248543298254
5.44575e-06;-0.007426047200518728
5.44600e-06;-0.007365612916660751
5.44625e-06;-0.00730517863280257
5.44650e-06;-0.007244744348944592
