Time(s);Current(A)
4.50000e-06;0.012011824506564819
4.50025e-06;0.011953751980556732
4.50050e-06;0.01189567945454884
4.50075e-06;0.011837606928540951
4.50100e-06;0.011779534402532862
4.50125e-06;0.011721461876524973
4.50150e-06;0.011663389350517082
4.50175e-06;0.011605316824508995
4.50200e-06;0.011547244298501104
4.50225e-06;0.011501689451963651
4.50250e-06;0.011457438192014975
4.50275e-06;0.011413186932066449
4.50300e-06;0.011368935672117924
4.50325e-06;0.011324684412169246
4.50350e-06;0.011280433152220722
4.50375e-06;0.011236181892272195
4.50400e-06;0.011199247843904697
4.50425e-06;0.01116307580729096
4.50450e-06;0.0111269037706771
4.50475e-06;0.011090731734063363
4.50500e-06;0.011054559697449626
4.50525e-06;0.011018387660835767
4.50550e-06;0.01098221562422203
4.50575e-06;0.010944788324831636
4.50600e-06;0.010907230302831961
4.50625e-06;0.010869672280832415
4.50650e-06;0.010832114258832867
4.50675e-06;0.010794556236833194
4.50700e-06;0.010756998214833646
4.50725e-06;0.0107194401928341
4.50750e-06;0.010681882170834425
4.50775e-06;0.010644324148834879
4.50800e-06;0.010606766126835332
4.50825e-06;0.01056853112100384
4.50850e-06;0.01052930434634537
4.50875e-06;0.010490077571686768
4.50900e-06;0.010450850797028299
4.50925e-06;0.01041162402236983
4.50950e-06;0.010372397247711227
4.50975e-06;0.010333170473052758
4.51000e-06;0.010293943698394288
4.51025e-06;0.010254716923735686
4.51050e-06;0.010215490149077217
4.51075e-06;0.010176263374418747
4.51100e-06;0.010141795046616484
4.51125e-06;0.01010782226173966
4.51150e-06;0.010073849476862837
4.51175e-06;0.010039876691985899
4.51200e-06;0.010005903907109075
4.51225e-06;0.009971931122232252
4.51250e-06;0.009937958337355312
4.51275e-06;0.009912530633735015
4.51300e-06;0.009887992811769374
4.51325e-06;0.009863454989803816
4.51350e-06;0.009838917167838256
4.51375e-06;0.009814379345872615
4.51400e-06;0.009789841523907057
4.51425e-06;0.0097653037019415
4.51450e-06;0.00974762942650686
4.51475e-06;0.009730669918312113
4.51500e-06;0.009713710410117366
4.51525e-06;0.009696750901922561
4.51550e-06;0.009679791393727814
4.51575e-06;0.009662831885533067
4.51600e-06;0.009645872377338261
4.51625e-06;0.009628912869143514
4.51650e-06;0.009611953360948767
4.51675e-06;0.009594993852753963
4.51700e-06;0.009578034344559215
4.51725e-06;0.009561074836364411
4.51750e-06;0.009544115328169664
4.51775e-06;0.009527155819974917
4.51800e-06;0.009510196311780112
4.51825e-06;0.009494035190583533
4.51850e-06;0.009481258769747716
4.51875e-06;0.009468482348911858
4.51900e-06;0.009455705928076041
4.51925e-06;0.009442929507240226
4.51950e-06;0.009430153086404366
4.51975e-06;0.009417376665568552
4.52000e-06;0.009404600244732735
4.52025e-06;0.009391823823896877
4.52050e-06;0.00937904740306106
4.52075e-06;0.009366270982225245
4.52100e-06;0.009353494561389385
4.52125e-06;0.00934071814055357
4.52150e-06;0.00932794171971771
4.52175e-06;0.009315165298881895
4.52200e-06;0.009302388878046079
4.52225e-06;0.009291075754132414
4.52250e-06;0.00928137323555007
4.52275e-06;0.009271670716967726
4.52300e-06;0.009263375673315297
4.52325e-06;0.009256629793466498
4.52350e-06;0.0092498839136177
4.52375e-06;0.00925308075533737
4.52400e-06;0.009267221240908346
4.52425e-06;0.009281361726479323
4.52450e-06;0.009295502212050348
4.52475e-06;0.009309642697621325
4.52500e-06;0.009323783183192304
4.52525e-06;0.009337923668763327
4.52550e-06;0.009384698205708194
4.52575e-06;0.009432273888110024
4.52600e-06;0.009479849570511694
4.52625e-06;0.009527425252913363
4.52650e-06;0.009575000935315194
4.52675e-06;0.009622576617716863
4.52700e-06;0.009687078846235223
4.52725e-06;0.009770211596693692
4.52750e-06;0.00985334434715188
4.52775e-06;0.009936477097610067
4.52800e-06;0.010019609848068536
4.52825e-06;0.010102742598526724
4.52850e-06;0.010185875348984911
4.52875e-06;0.01026900809944338
4.52900e-06;0.010352140849901569
4.52925e-06;0.010443690666940461
4.52950e-06;0.010544504886918923
4.52975e-06;0.010645319106897044
4.53000e-06;0.010746133326875506
4.53025e-06;0.010846947546853626
4.53050e-06;0.010947761766831748
4.53075e-06;0.01104857598681021
4.53100e-06;0.01114939020678833
4.53125e-06;0.01125020442676645
4.53150e-06;0.01134374751142401
4.53175e-06;0.011429287483976919
4.53200e-06;0.011514827456529828
4.53225e-06;0.011600367429083026
4.53250e-06;0.011685907401635935
4.53275e-06;0.011771447374188844
4.53300e-06;0.011856987346742042
4.53325e-06;0.01190769431000653
4.53350e-06;0.011957546144780534
4.53375e-06;0.012007397979554708
4.53400e-06;0.012057249814328713
4.53425e-06;0.012107101649102886
4.53450e-06;0.01215695348387689
4.53475e-06;0.012184547201389766
4.53500e-06;0.012187642102720546
4.53525e-06;0.012190737004051315
4.53550e-06;0.012193831905382084
4.53575e-06;0.012196926806712863
4.53600e-06;0.012200021708043633
4.53625e-06;0.012203116609374402
4.53650e-06;0.012206211510705181
4.53675e-06;0.012188340037994622
4.53700e-06;0.012147391530618607
4.53725e-06;0.012106443023242453
4.53750e-06;0.012065494515866438
4.53775e-06;0.012024546008490422
4.53800e-06;0.011983597501114268
4.53825e-06;0.011942648993738253
4.53850e-06;0.011901700486362101
4.53875e-06;0.01184802194494218
4.53900e-06;0.011780331851675832
4.53925e-06;0.011712641758409253
4.53950e-06;0.011644951665142905
4.53975e-06;0.011577261571876557
4.54000e-06;0.011509571478609978
4.54025e-06;0.01144188138534363
4.54050e-06;0.011374191292077281
4.54075e-06;0.011306501198810704
4.54100e-06;0.011238811105544354
4.54125e-06;0.01117709481506596
4.54150e-06;0.011115525177691887
4.54175e-06;0.011053955540318024
4.54200e-06;0.01099238590294416
4.54225e-06;0.01093081626557009
4.54250e-06;0.010869246628196227
4.54275e-06;0.010807676990822154
4.54300e-06;0.010746107353448291
4.54325e-06;0.010684537716074428
4.54350e-06;0.010639758717314169
4.54375e-06;0.0106134606513339
4.54400e-06;0.01058716258535363
4.54425e-06;0.010560864519373271
4.54450e-06;0.010534566453393002
4.54475e-06;0.010508268387412733
4.54500e-06;0.010481970321432374
4.54525e-06;0.010455672255452105
4.54550e-06;0.010466065348965263
4.54575e-06;0.010477359187386808
4.54600e-06;0.010488653025808314
4.54625e-06;0.010499946864229821
4.54650e-06;0.010511240702651364
4.54675e-06;0.01052253454107287
4.54700e-06;0.010533828379494415
4.54725e-06;0.010561755452126873
4.54750e-06;0.010607990207415853
4.54775e-06;0.010654224962704989
4.54800e-06;0.010700459717993967
4.54825e-06;0.010746694473282947
4.54850e-06;0.010792929228572083
4.54875e-06;0.010839163983861063
4.54900e-06;0.010885398739150043
4.54925e-06;0.010931633494439178
4.54950e-06;0.010977868249728158
4.54975e-06;0.011024103005017138
4.55000e-06;0.01108174415358067
4.55025e-06;0.011139665321930716
4.55050e-06;0.011197586490280765
4.55075e-06;0.011255507658631007
4.55100e-06;0.011313428826981055
4.55125e-06;0.0113713499953313
4.55150e-06;0.011429271163681346
4.55175e-06;0.011487192332031394
4.55200e-06;0.011545113500381638
4.55225e-06;0.011603034668731685
4.55250e-06;0.01165054561473953
4.55275e-06;0.011686598353366443
4.55300e-06;0.011722651091993233
4.55325e-06;0.011758703830620023
4.55350e-06;0.011794756569246934
4.55375e-06;0.011830809307873724
4.55400e-06;0.011866862046500514
4.55425e-06;0.011902914785127425
4.55450e-06;0.011904242364649483
4.55475e-06;0.011904717463338882
4.55500e-06;0.01190519256202828
4.55525e-06;0.011905667660717677
4.55550e-06;0.011906142759407077
4.55575e-06;0.011906617858096474
4.55600e-06;0.01190709295678587
4.55625e-06;0.011888966842651965
4.55650e-06;0.011850366953122578
4.55675e-06;0.011811767063593192
4.55700e-06;0.011773167174063676
4.55725e-06;0.01173456728453429
4.55750e-06;0.011695967395004905
4.55775e-06;0.011657367505475389
4.55800e-06;0.011618767615946003
4.55825e-06;0.011580167726416617
4.55850e-06;0.0115415678368871
4.55875e-06;0.011478328690033977
4.55900e-06;0.01141448466489895
4.55925e-06;0.011350640639763704
4.55950e-06;0.011286796614628674
4.55975e-06;0.01122295258949343
4.56000e-06;0.011159108564358401
4.56025e-06;0.011095264539223371
4.56050e-06;0.011031420514088126
4.56075e-06;0.010967576488953098
4.56100e-06;0.010904091352191506
4.56125e-06;0.010841001232680402
4.56150e-06;0.010777911113169513
4.56175e-06;0.010714820993658624
4.56200e-06;0.010651730874147522
4.56225e-06;0.010588640754636633
4.56250e-06;0.010533473962341059
4.56275e-06;0.010487028129442683
4.56300e-06;0.010440582296544463
4.56325e-06;0.010394136463646243
4.56350e-06;0.010347690630747867
4.56375e-06;0.010301244797849647
4.56400e-06;0.010268701531277236
4.56425e-06;0.010251460386294568
4.56450e-06;0.010234219241311899
4.56475e-06;0.010216978096329172
4.56500e-06;0.010199736951346504
4.56525e-06;0.010182495806363837
4.56550e-06;0.01016525466138111
4.56575e-06;0.010148013516398442
4.56600e-06;0.010130772371415775
4.56625e-06;0.010113531226433048
4.56650e-06;0.010096290081450379
4.56675e-06;0.01007904893646771
4.56700e-06;0.010061807791484984
4.56725e-06;0.010058064989511725
4.56750e-06;0.010069179393117186
4.56775e-06;0.010080293796722683
4.56800e-06;0.010091408200328144
4.56825e-06;0.010102522603933644
4.56850e-06;0.010113637007539105
4.56875e-06;0.010124751411144566
4.56900e-06;0.010135865814750065
4.56925e-06;0.010146980218355526
4.56950e-06;0.010158094621960987
4.56975e-06;0.010169209025566487
4.57000e-06;0.010180323429171948
4.57025e-06;0.010191437832777409
4.57050e-06;0.010205405736211495
4.57075e-06;0.010222514397999349
4.57100e-06;0.010239623059787203
4.57125e-06;0.010256731721575114
4.57150e-06;0.010273840383362966
4.57175e-06;0.01029094904515082
4.57200e-06;0.01030805770693873
4.57225e-06;0.010325166368726584
4.57250e-06;0.010342275030514495
4.57275e-06;0.010359383692302349
4.57300e-06;0.010376492354090203
4.57325e-06;0.01037808660343271
4.57350e-06;0.010379299983701351
4.57375e-06;0.010380513363969992
4.57400e-06;0.010381726744238639
4.57425e-06;0.01038294012450728
4.57450e-06;0.010384153504775923
4.57475e-06;0.010385366885044567
4.57500e-06;0.01038658026531321
4.57525e-06;0.010387793645581851
4.57550e-06;0.010389007025850498
4.57575e-06;0.010377338535133385
4.57600e-06;0.010351491370388705
4.57625e-06;0.010325644205643938
4.57650e-06;0.010299797040899256
4.57675e-06;0.010273949876154488
4.57700e-06;0.010248102711409808
4.57725e-06;0.010222255546665128
4.57750e-06;0.010196408381920359
4.57775e-06;0.010170561217175678
4.57800e-06;0.010144714052430998
4.57825e-06;0.010118866887686229
4.57850e-06;0.010085303008272756
4.57875e-06;0.010043245581457073
4.57900e-06;0.010001188154641247
4.57925e-06;0.009959130727825564
4.57950e-06;0.00991707330100988
4.57975e-06;0.009875015874194055
4.58000e-06;0.009832958447378371
4.58025e-06;0.009790901020562688
4.58050e-06;0.009748843593746863
4.58075e-06;0.00970678616693118
4.58100e-06;0.009664728740115354
4.58125e-06;0.00962500330950166
4.58150e-06;0.009587844634448128
4.58175e-06;0.009550685959394468
4.58200e-06;0.009513527284340935
4.58225e-06;0.009476368609287402
4.58250e-06;0.009439209934233743
4.58275e-06;0.00940205125918021
4.58300e-06;0.009364892584126677
4.58325e-06;0.00932773390907302
4.58350e-06;0.009312793825342154
4.58375e-06;0.009298399194061531
4.58400e-06;0.009284004562780862
4.58425e-06;0.00926960993150024
4.58450e-06;0.009255215300219619
4.58475e-06;0.009240820668938948
4.58500e-06;0.009226426037658327
4.58525e-06;0.009212031406377656
4.58550e-06;0.009213090297356723
4.58575e-06;0.009231158398791206
4.58600e-06;0.00924922650022575
4.58625e-06;0.009267294601660234
4.58650e-06;0.009285362703094718
4.58675e-06;0.009303430804529262
4.58700e-06;0.009321498905963746
4.58725e-06;0.00933956700739823
4.58750e-06;0.009357635108832774
4.58775e-06;0.009375703210267258
4.58800e-06;0.009393771311701741
4.58825e-06;0.009434829932205532
4.58850e-06;0.009476452955499792
4.58875e-06;0.009518075978794054
4.58900e-06;0.009559699002088454
4.58925e-06;0.009601322025382716
4.58950e-06;0.009642945048677116
4.58975e-06;0.009684568071971378
4.59000e-06;0.009726191095265638
4.59025e-06;0.00976781411856004
4.59050e-06;0.0098094371418543
4.59075e-06;0.009852372210965304
4.59100e-06;0.009896751408026518
4.59125e-06;0.009941130605087578
4.59150e-06;0.009985509802148641
4.59175e-06;0.010029888999209853
4.59200e-06;0.010070553579684545
4.59225e-06;0.010107129597421933
4.59250e-06;0.010143705615159445
4.59275e-06;0.010180281632896833
4.59300e-06;0.010216857650634223
4.59325e-06;0.010249779967489483
4.59350e-06;0.010274040686279073
4.59375e-06;0.010293194209904889
4.59400e-06;0.01031234773353064
4.59425e-06;0.010331501257156393
4.59450e-06;0.010350654780782209
4.59475e-06;0.01036980830440796
4.59500e-06;0.010388961828033711
4.59525e-06;0.010408115351659529
4.59550e-06;0.01042726887528528
4.59575e-06;0.010446422398911031
4.59600e-06;0.010465575922536847
4.59625e-06;0.0104847294461626
4.59650e-06;0.010503882969788351
4.59675e-06;0.010523036493414167
4.59700e-06;0.010542190017039918
4.59725e-06;0.01056134354066567
4.59750e-06;0.010580497064291487
4.59775e-06;0.010589350656877819
4.59800e-06;0.010597951392632525
4.59825e-06;0.010606552128387202
4.59850e-06;0.010615152864141879
4.59875e-06;0.010623753599896585
4.59900e-06;0.010632354335651262
4.59925e-06;0.010640955071405939
4.59950e-06;0.010649555807160644
4.59975e-06;0.01065815654291532
4.60000e-06;0.010666757278669997
4.60025e-06;0.010675358014424704
4.60050e-06;0.01068395875017938
4.60075e-06;0.010692559485934058
4.60100e-06;0.010701160221688764
4.60125e-06;0.010709760957443441
4.60150e-06;0.010718361693198118
4.60175e-06;0.010723608163831302
4.60200e-06;0.01072516269935745
4.60225e-06;0.010726717234883606
4.60250e-06;0.010728271770409754
4.60275e-06;0.010729826305935905
4.60300e-06;0.01073138084146206
4.60325e-06;0.010732935376988209
4.60350e-06;0.010734489912514359
4.60375e-06;0.010736044448040513
4.60400e-06;0.010737598983566663
4.60425e-06;0.010739153519092813
4.60450e-06;0.010740708054618967
4.60475e-06;0.010742262590145117
4.60500e-06;0.010743817125671266
4.60525e-06;0.010745371661197422
4.60550e-06;0.010746926196723572
4.60575e-06;0.01074848073224972
4.60600e-06;0.010750035267775876
4.60625e-06;0.010751589803302024
4.60650e-06;0.01075314433882818
4.60675e-06;0.01075469887435433
4.60700e-06;0.010756253409880479
4.60725e-06;0.010757807945406634
4.60750e-06;0.010759362480932783
4.60775e-06;0.010760917016458933
4.60800e-06;0.010762471551985089
4.60825e-06;0.010764026087511237
4.60850e-06;0.01076248094338871
4.60875e-06;0.010760859704079664
4.60900e-06;0.010759238464770622
4.60925e-06;0.010757617225461582
4.60950e-06;0.010755995986152535
4.60975e-06;0.010754374746843494
4.61000e-06;0.010752753507534452
4.61025e-06;0.010751132268225405
4.61050e-06;0.010749511028916366
4.61075e-06;0.010747889789607319
4.61100e-06;0.010746268550298277
4.61125e-06;0.010744647310989236
4.61150e-06;0.010743026071680189
4.61175e-06;0.010741404832371149
4.61200e-06;0.010739783593062107
4.61225e-06;0.01073816235375306
4.61250e-06;0.010736541114444019
4.61275e-06;0.010734919875134979
4.61300e-06;0.010733298635825932
4.61325e-06;0.01073167739651689
4.61350e-06;0.01073005615720785
4.61375e-06;0.010728434917898802
4.61400e-06;0.010726813678589762
4.61425e-06;0.010725192439280721
4.61450e-06;0.010723571199971674
4.61475e-06;0.010721949960662632
4.61500e-06;0.010722912519797718
4.61525e-06;0.010726718985373489
4.61550e-06;0.01073052545094926
4.61575e-06;0.010734331916525045
4.61600e-06;0.010738138382100818
4.61625e-06;0.010741944847676588
4.61650e-06;0.010745751313252373
4.61675e-06;0.010749557778828144
4.61700e-06;0.010753364244403915
4.61725e-06;0.0107571707099797
4.61750e-06;0.010760977175555471
4.61775e-06;0.010764783641131244
4.61800e-06;0.010768590106707028
4.61825e-06;0.0107723965722828
4.61850e-06;0.01077620303785857
4.61875e-06;0.010780009503434355
4.61900e-06;0.010786659401626035
4.61925e-06;0.010793379104300555
4.61950e-06;0.010800098806975052
4.61975e-06;0.01080681850964955
4.62000e-06;0.010813538212324069
4.62025e-06;0.010820257914998566
4.62050e-06;0.010826977617673064
4.62075e-06;0.010833697320347583
4.62100e-06;0.010840417023022082
4.62125e-06;0.01084713672569658
4.62150e-06;0.0108538564283711
4.62175e-06;0.010860576131045597
4.62200e-06;0.010867295833720094
4.62225e-06;0.010874015536394614
4.62250e-06;0.01088073523906911
4.62275e-06;0.010884565235035506
4.62300e-06;0.01088521462086708
4.62325e-06;0.010885864006698652
4.62350e-06;0.010886513392530228
4.62375e-06;0.010887162778361801
4.62400e-06;0.010887812164193374
4.62425e-06;0.010868711471782302
4.62450e-06;0.010849125927369523
4.62475e-06;0.010829540382956741
4.62500e-06;0.010809954838543894
4.62525e-06;0.010790369294131115
4.62550e-06;0.01075659217208552
4.62575e-06;0.010707194822727759
4.62600e-06;0.010657797473370164
4.62625e-06;0.01060840012401257
4.62650e-06;0.010559002774654809
4.62675e-06;0.010509605425297216
4.62700e-06;0.010460208075939621
4.62725e-06;0.01041081072658186
4.62750e-06;0.010332874435107242
4.62775e-06;0.010254237530549678
4.62800e-06;0.010175600625991849
4.62825e-06;0.010096963721434284
4.62850e-06;0.010018326816876455
4.62875e-06;0.00993968991231889
4.62900e-06;0.009861053007761328
4.62925e-06;0.009776201663207786
4.62950e-06;0.00968451027818449
4.62975e-06;0.009592818893161194
4.63000e-06;0.009501127508137586
4.63025e-06;0.00940943612311429
4.63050e-06;0.009317744738090994
4.63075e-06;0.009226053353067388
4.63100e-06;0.009134361968044092
4.63125e-06;0.009048813249036414
4.63150e-06;0.008970025571114792
4.63175e-06;0.008891237893193437
4.63200e-06;0.008812450215272083
4.63225e-06;0.00873366253735046
4.63250e-06;0.008654874859429106
4.63275e-06;0.008576087181507486
4.63300e-06;0.008497299503586131
4.63325e-06;0.008438749846625411
4.63350e-06;0.008402475548745996
4.63375e-06;0.008366201250866704
4.63400e-06;0.00832992695298741
4.63425e-06;0.008293652655107996
4.63450e-06;0.008257378357228704
4.63475e-06;0.00822110405934941
4.63500e-06;0.008184829761469996
4.63525e-06;0.008148555463590704
4.63550e-06;0.00811228116571141
4.63575e-06;0.008076006867831996
4.63600e-06;0.008039732569952704
4.63625e-06;0.00800345827207341
4.63650e-06;0.0079860802561761
4.63675e-06;0.00798950078907207
4.63700e-06;0.00799292132196805
4.63725e-06;0.007996341854864019
4.63750e-06;0.007999762387759986
4.63775e-06;0.008003182920655967
4.63800e-06;0.008006603453551935
4.63825e-06;0.008010023986447904
4.63850e-06;0.008013444519343884
4.63875e-06;0.008016865052239853
4.63900e-06;0.008020285585135822
4.63925e-06;0.008023706118031802
4.63950e-06;0.008027126650927769
4.63975e-06;0.00803744447909269
4.64000e-06;0.00805535394524869
4.64025e-06;0.008073263411404626
4.64050e-06;0.008091172877560565
4.64075e-06;0.008109082343716564
4.64100e-06;0.0081269918098725
4.64125e-06;0.0081449012760285
4.64150e-06;0.008162187398078854
4.64175e-06;0.008178787424694883
4.64200e-06;0.008195387451310966
4.64225e-06;0.008211987477926995
4.64250e-06;0.008228587504543024
4.64275e-06;0.008245187531159109
4.64300e-06;0.008261787557775136
4.64325e-06;0.008278412200635394
4.64350e-06;0.008295063937828718
4.64375e-06;0.008311715675021984
4.64400e-06;0.008328367412215251
4.64425e-06;0.008345019149408574
4.64450e-06;0.00836167088660184
4.64475e-06;0.008378322623795106
4.64500e-06;0.00839497436098843
4.64525e-06;0.008411626098181696
4.64550e-06;0.008434034384200486
4.64575e-06;0.008462778724143418
4.64600e-06;0.00849152306408635
4.64625e-06;0.00852026740402938
4.64650e-06;0.008549011743972311
4.64675e-06;0.008577756083915243
4.64700e-06;0.008606500423858273
4.64725e-06;0.008635244763801205
4.64750e-06;0.008663989103744137
4.64775e-06;0.008698237913516036
4.64800e-06;0.00873854532171475
4.64825e-06;0.008778852729913465
4.64850e-06;0.008819160138112314
4.64875e-06;0.008859467546311029
4.64900e-06;0.008899774954509743
4.64925e-06;0.008940082362708594
4.64950e-06;0.008980389770907309
4.64975e-06;0.00902069717910616
4.65000e-06;0.009061004587304874
4.65025e-06;0.009101311995503588
4.65050e-06;0.009141619403702438
4.65075e-06;0.009178771372511954
4.65100e-06;0.009212450247506271
4.65125e-06;0.009246129122500703
4.65150e-06;0.009279807997495022
4.65175e-06;0.009313486872489339
4.65200e-06;0.00934716574748377
