Time(s);Current(A)
1.10000e-05;-0.002918203198195407
1.10003e-05;-0.002961190590982264
1.10005e-05;-0.002996198890146738
1.10008e-05;-0.0030300943159682417
1.10010e-05;-0.003057997788041429
1.10013e-05;-0.0030843795673488037
1.10015e-05;-0.0031025682196208293
1.10018e-05;-0.0031207568718927318
1.10020e-05;-0.0031373804749863805
1.10023e-05;-0.0031455775106268864
1.10025e-05;-0.0031526811112823736
1.10028e-05;-0.0031538974185648253
1.10030e-05;-0.0031543263811774267
1.10033e-05;-0.0031499962683812378
1.10035e-05;-0.0031423512898498605
1.10038e-05;-0.003131417744311267
1.10040e-05;-0.003117249924658388
1.10043e-05;-0.0031000391519995073
1.10045e-05;-0.0030801125221107902
1.10047e-05;-0.003057740913989764
1.10050e-05;-0.0030330846494872024
1.10053e-05;-0.0030062794099414317
1.10055e-05;-0.0029774595975611195
1.10058e-05;-0.002946761841896623
1.10060e-05;-0.002914339363153464
1.10062e-05;-0.002880432163060812
1.10065e-05;-0.0028453646585909946
1.10068e-05;-0.0028094258282909336
1.10070e-05;-0.002772836518844363
1.10073e-05;-0.0027358006898953765
1.10075e-05;-0.0026985223740267393
1.10078e-05;-0.0026612065800592647
1.10080e-05;-0.002624069408986424
1.10083e-05;-0.0025873802352915625
1.10085e-05;-0.002551462053816805
1.10088e-05;-0.0025166154736945014
1.10090e-05;-0.0024830980083057654
1.10093e-05;-0.0024511571201553247
1.10095e-05;-0.0024210401483263618
1.10098e-05;-0.0023929890259386933
1.10100e-05;-0.002367140321795147
1.10103e-05;-0.0023431459543884095
1.10105e-05;-0.0023202457626985223
1.10108e-05;-0.002298022424077989
1.10110e-05;-0.00227653259331813
1.10113e-05;-0.0022559372798149195
1.10115e-05;-0.0022363969768214127
1.10118e-05;-0.0022180688868713105
1.10120e-05;-0.0022010439905670955
1.10123e-05;-0.0021851099963385344
1.10125e-05;-0.0021697965657076716
1.10128e-05;-0.0021548479192664825
1.10130e-05;-0.0021403054286820043
1.10132e-05;-0.0021263308445729516
1.10135e-05;-0.002113163107521107
1.10138e-05;-0.002100176223784179
1.10140e-05;-0.0020882737794782336
1.10143e-05;-0.002077029799682654
1.10145e-05;-0.0020661554605505813
1.10147e-05;-0.0020555201799092163
1.10150e-05;-0.002045213116560625
1.10153e-05;-0.0020350461297389956
1.10155e-05;-0.002025633345609614
1.10158e-05;-0.0020162205614802967
1.10160e-05;-0.0020075319020376316
1.10163e-05;-0.0019992218969688523
1.10165e-05;-0.001991007291810992
1.10168e-05;-0.0019833063406619255
1.10170e-05;-0.0019756053895128595
1.10173e-05;-0.0019680539503006264
1.10175e-05;-0.001961307516093153
1.10178e-05;-0.0019545610818856793
1.10180e-05;-0.0019478146476782517
1.10183e-05;-0.0019417282400138994
1.10185e-05;-0.0019359869689566
1.10188e-05;-0.0019302456978993398
1.10190e-05;-0.0019245801223397399
1.10193e-05;-0.001919365105707656
1.10195e-05;-0.0019144304680285276
1.10198e-05;-0.0019098088445638713
1.10200e-05;-0.001905444591943155
1.10203e-05;-0.0019008807029539838
1.10205e-05;-0.0018953519702135187
1.10208e-05;-0.0018884435195484755
1.10210e-05;-0.0018801726333811503
1.10213e-05;-0.0018706483563982613
1.10215e-05;-0.0018599795551606292
1.10217e-05;-0.0018482720762489676
1.10220e-05;-0.0018355761189033765
1.10223e-05;-0.0018216908655013574
1.10225e-05;-0.0018060902682548526
1.10228e-05;-0.001788285126858032
1.10230e-05;-0.0017701079761371843
1.10232e-05;-0.001749711926814484
1.10235e-05;-0.0017278765812993322
1.10238e-05;-0.0017045511999644611
1.10240e-05;-0.0016808687345362884
1.10243e-05;-0.0016552636501619149
1.10245e-05;-0.0016293494667210947
1.10248e-05;-0.0016015838818856799
1.10250e-05;-0.0015726519729799618
1.10253e-05;-0.001542735347905592
1.10255e-05;-0.0015120155598602443
1.10258e-05;-0.0014806727369390646
1.10260e-05;-0.0014488655845327591
1.10263e-05;-0.001416653899829866
1.10265e-05;-0.0013840219464954105
1.10268e-05;-0.0013510399297570104
1.10270e-05;-0.0013178844364888358
1.10273e-05;-0.0012847544821868624
1.10275e-05;-0.001251848860744428
1.10278e-05;-0.0012193659564436823
1.10280e-05;-0.0011874902603262359
1.10283e-05;-0.0011563444706993791
1.10285e-05;-0.0011260039494386306
1.10288e-05;-0.0010965980557370483
1.10290e-05;-0.0010683222903609217
1.10293e-05;-0.0010413867282617769
1.10295e-05;-0.001016001149849708
1.10298e-05;-0.0009923759281671724
1.10300e-05;-0.0009707301614014276
1.10302e-05;-0.0009513123078740818
1.10305e-05;-0.0009343508638204962
1.10308e-05;-0.0009199647164163634
1.10310e-05;-0.000908190391860145
1.10313e-05;-0.0008992600342629718
1.10315e-05;-0.0008936958184370823
1.10317e-05;-0.0008889793958318483
1.10320e-05;-0.000888827677563677
1.10323e-05;-0.0008895453881743517
1.10325e-05;-0.0008949442942432464
1.10328e-05;-0.000901182983871688
1.10330e-05;-0.0009119432520681881
1.10333e-05;-0.0009234846969929207
1.10335e-05;-0.000939232168472513
1.10338e-05;-0.0009557029438020468
1.10340e-05;-0.000976068145437333
1.10343e-05;-0.0009971019417916597
1.10345e-05;-0.0010217355985132218
1.10348e-05;-0.0010469510383570545
1.10350e-05;-0.0010752989259213129
1.10353e-05;-0.0011041236641216598
1.10355e-05;-0.0011355158705595456
1.10358e-05;-0.001167280441900754
1.10360e-05;-0.0012010499074180067
1.10363e-05;-0.001235089267058186
1.10365e-05;-0.0012705817957535588
1.10368e-05;-0.0013062216438613084
1.10370e-05;-0.0013426546919419614
1.10373e-05;-0.001379101142642483
1.10375e-05;-0.0014156197559846788
1.10378e-05;-0.001452018174264979
1.10380e-05;-0.0014877694360131103
1.10383e-05;-0.0015232681814575984
1.10385e-05;-0.0015574073238293126
1.10387e-05;-0.0015911490374859673
1.10390e-05;-0.0016227509079184633
1.10393e-05;-0.001653803371217974
1.10395e-05;-0.001681897706211295
1.10398e-05;-0.0017094926522854134
1.10400e-05;-0.0017341259491328181
1.10402e-05;-0.0017572005543718822
1.10405e-05;-0.0017798235030324543
1.10408e-05;-0.0018026154693627143
1.10410e-05;-0.0018253784878570149
1.10413e-05;-0.0018479856448637216
1.10415e-05;-0.0018704388085007127
1.10418e-05;-0.001892062838114744
1.10420e-05;-0.0019135649494727497
1.10423e-05;-0.0019344978709197774
1.10425e-05;-0.001955900536799355
1.10428e-05;-0.0019774715559987624
1.10430e-05;-0.001999949026337107
1.10433e-05;-0.002022484673164165
1.10435e-05;-0.0020453335549451114
1.10438e-05;-0.0020681824367262125
1.10440e-05;-0.002091059204737956
1.10443e-05;-0.0021139505548283047
1.10445e-05;-0.002137012816589247
1.10448e-05;-0.00216099530420817
1.10450e-05;-0.002184977791826931
1.10453e-05;-0.0022090123460417103
1.10455e-05;-0.0022333272382095565
1.10458e-05;-0.002257642130377238
1.10460e-05;-0.002281902998741215
1.10463e-05;-0.002305872991115595
1.10465e-05;-0.0023298429834898134
1.10468e-05;-0.002353768811039835
1.10470e-05;-0.0023774568455047504
1.10472e-05;-0.0024011448799695057
1.10475e-05;-0.00242459706479023
1.10478e-05;-0.0024467793834826363
1.10480e-05;-0.002468961702174892
1.10483e-05;-0.0024908255916327392
1.10485e-05;-0.0025109749883651888
1.10487e-05;-0.002531124385097502
1.10490e-05;-0.002550930838868925
1.10493e-05;-0.0025688908126437755
1.10495e-05;-0.0025865764794604337
1.10498e-05;-0.0026025695356569315
1.10500e-05;-0.00261713796551002
1.10503e-05;-0.0026297732472015676
1.10505e-05;-0.002639634439867495
1.10508e-05;-0.00264875119448475
1.10510e-05;-0.002653859731637177
1.10513e-05;-0.0026580469830165686
1.10515e-05;-0.002657273830059205
1.10518e-05;-0.0026565006771018416
1.10520e-05;-0.0026545769168061927
1.10523e-05;-0.0026464580346517493
1.10525e-05;-0.002638339152497306
1.10528e-05;-0.002629414520625659
1.10530e-05;-0.002615772927263836
1.10533e-05;-0.002599732466895745
1.10535e-05;-0.0025814105226356385
1.10538e-05;-0.0025609239080942956
1.10540e-05;-0.002538376414693012
1.10543e-05;-0.002513816372555524
1.10545e-05;-0.002487262442476818
1.10548e-05;-0.002458805993095573
1.10550e-05;-0.002428614188557086
1.10553e-05;-0.0023968681206196323
1.10555e-05;-0.0023637497169678922
1.10557e-05;-0.002329439718676008
1.10560e-05;-0.0022941111634505757
1.10563e-05;-0.002257902355195922
1.10565e-05;-0.0022209323970462398
1.10568e-05;-0.0021833669611413405
1.10570e-05;-0.002145418080568707
1.10572e-05;-0.002107307373631642
1.10575e-05;-0.0020692562987414563
1.10578e-05;-0.0020314861459740214
1.10580e-05;-0.001994212850112204
1.10583e-05;-0.0019576309844469724
1.10585e-05;-0.0019219228444250468
1.10588e-05;-0.0018872997732749211
1.10590e-05;-0.001854002589476927
1.10593e-05;-0.0018222775661408536
1.10595e-05;-0.0017923712526837009
1.10598e-05;-0.0017645197976475884
1.10600e-05;-0.0017387718754797682
1.10603e-05;-0.001714319042810952
1.10605e-05;-0.0016896621652843365
1.10608e-05;-0.001663984501009439
1.10610e-05;-0.0016373522756698326
1.10613e-05;-0.0016100221303457615
1.10615e-05;-0.0015822504480452293
1.10618e-05;-0.00155428735299825
1.10620e-05;-0.0015262655184726346
1.10623e-05;-0.0014977806479967886
1.10625e-05;-0.0014679957206046035
1.10628e-05;-0.0014365014485901897
1.10630e-05;-0.0014034417030267634
1.10633e-05;-0.0013690793497112214
1.10635e-05;-0.0013336317949413027
1.10638e-05;-0.0012972495621486272
1.10640e-05;-0.0012607161623891276
1.10642e-05;-0.0012231911296597482
1.10645e-05;-0.001184497651073629
1.10648e-05;-0.0011444813595445562
1.10650e-05;-0.001103334596487561
1.10653e-05;-0.0010613244186503511
1.10655e-05;-0.0010187083778621204
1.10657e-05;-0.0009757281611860424
1.10660e-05;-0.0009327264045845177
1.10663e-05;-0.0008895674250620856
1.10665e-05;-0.0008461399536170724
1.10668e-05;-0.000802449711728548
1.10670e-05;-0.0007587193105766946
1.10673e-05;-0.0007152182025416054
1.10675e-05;-0.0006722158343890254
1.10678e-05;-0.0006299798083795689
1.10680e-05;-0.0005887490404519487
1.10683e-05;-0.0005486303970704807
1.10685e-05;-0.0005096244500222546
1.10688e-05;-0.0004718368305363864
1.10690e-05;-0.0004355091855988257
1.10693e-05;-0.0004009123063650841
1.10695e-05;-0.00036831702852292567
1.10698e-05;-0.0003380000211628396
1.10700e-05;-0.00031034090610874683
1.10703e-05;-0.0002861709634088242
1.10705e-05;-0.0002666055234728317
1.10708e-05;-0.00025224207206905213
1.10710e-05;-0.0002431168526720972
1.10713e-05;-0.0002391521534958614
1.10715e-05;-0.00024027023820918542
1.10718e-05;-0.00024639704252536
1.10720e-05;-0.0002575229965153049
1.10723e-05;-0.00027392139792802
1.10725e-05;-0.00029604346006647375
1.10727e-05;-0.0003240159570678017
1.10730e-05;-0.00035761409012372827
1.10733e-05;-0.00039654173862814577
1.10735e-05;-0.0004405026974704833
1.10738e-05;-0.0004892031373271939
1.10740e-05;-0.0005423896511330916
1.10742e-05;-0.0005999860572133607
1.10745e-05;-0.0006620274725356377
1.10748e-05;-0.0007286218245866067
1.10750e-05;-0.0008000388992366488
1.10753e-05;-0.000872424222014538
1.10755e-05;-0.000950022804734922
1.10758e-05;-0.0010283301079766012
1.10760e-05;-0.001110453317698385
1.10763e-05;-0.0011931047547660437
1.10765e-05;-0.0012786002835310664
1.10768e-05;-0.001364376227930554
1.10770e-05;-0.0014516619915146314
1.10773e-05;-0.0015389059972755685
1.10775e-05;-0.0016259251697720723
1.10778e-05;-0.0017125851702856035
1.10780e-05;-0.001797311310188672
1.10783e-05;-0.0018816011264265315
1.10785e-05;-0.001963160280234372
1.10788e-05;-0.002042198203826303
1.10790e-05;-0.0021181607376246367
1.10793e-05;-0.0021904761225090058
1.10795e-05;-0.0022585729556096504
1.10798e-05;-0.0023214310237376083
1.10800e-05;-0.0023774272591976513
1.10803e-05;-0.0024315553700007793
1.10805e-05;-0.002475625088569998
1.10808e-05;-0.002517745391489005
1.10810e-05;-0.0025493696136632917
1.10812e-05;-0.0025789752553733543
1.10815e-05;-0.002597712417836785
1.10818e-05;-0.0026143669225476805
1.10820e-05;-0.002619807941859209
1.10823e-05;-0.002623685212751365
1.10825e-05;-0.002618131723949672
1.10827e-05;-0.0026061511321476
1.10830e-05;-0.002587925028357135
1.10833e-05;-0.002563630007615198
1.10835e-05;-0.0025334432175724165
1.10838e-05;-0.0024975419012751125
1.10840e-05;-0.002456110780751564
1.10843e-05;-0.00240937937171874
1.10845e-05;-0.002357655628297956
1.10848e-05;-0.0023012945836279903
1.10850e-05;-0.002240656774522063
1.10853e-05;-0.0021760995960186415
1.10855e-05;-0.0021079804431548403
1.10858e-05;-0.0020366569297873885
1.10860e-05;-0.001962491513144983
1.10863e-05;-0.0018858744445350718
1.10865e-05;-0.0018072448414891377
1.10868e-05;-0.001727071913898088
1.10870e-05;-0.0016458279250354429
1.10873e-05;-0.0015639830763866031
1.10875e-05;-0.001482007587671839
1.10878e-05;-0.001400371886199362
1.10880e-05;-0.0013195492859538543
1.10883e-05;-0.0012400305409488246
1.10885e-05;-0.0011623370910487795
1.10888e-05;-0.001087009020618252
1.10890e-05;-0.001014588238758317
1.10893e-05;-0.0009456154055748556
1.10895e-05;-0.0008806313102110515
1.10897e-05;-0.0008201752486629312
1.10900e-05;-0.000764756577245375
1.10903e-05;-0.0007147241291968091
1.10905e-05;-0.0006701985961775735
1.10908e-05;-0.0006312330963378838
1.10910e-05;-0.0005979279792009719
1.10912e-05;-0.0005704023776140234
1.10915e-05;-0.0005487753262432423
1.10918e-05;-0.0005331649935996517
1.10920e-05;-0.000523670816429816
1.10923e-05;-0.0005202915764365475
1.10925e-05;-0.000522883151607107
1.10928e-05;-0.0005312591753525365
1.10930e-05;-0.0005452628125258674
1.10933e-05;-0.0005647490005190373
1.10935e-05;-0.0005895726276330692
1.10938e-05;-0.000619588044240891
1.10940e-05;-0.0006546378787213713
1.10943e-05;-0.0006945016584223718
1.10945e-05;-0.0007391748238902036
1.10948e-05;-0.0007890489521983508
1.10950e-05;-0.0008400471135773898
1.10953e-05;-0.0008970973151532064
1.10955e-05;-0.0009550768471119245
1.10958e-05;-0.0010180600973573764
1.10960e-05;-0.0010817610898187402
1.10963e-05;-0.0011493265635466221
1.10965e-05;-0.0012173517562607116
1.10968e-05;-0.0012878521766666946
1.10970e-05;-0.0013585503085129134
1.10973e-05;-0.0014303129620462827
1.10975e-05;-0.0015020139088222266
1.10978e-05;-0.0015733826129065336
1.10980e-05;-0.0016445390906047188
1.10983e-05;-0.0017143140183354842
1.10985e-05;-0.00178248717307148
1.10988e-05;-0.001848336859397756
1.10990e-05;-0.001910825926601629
1.10993e-05;-0.001971902649407347
1.10995e-05;-0.002025375000690182
1.10997e-05;-0.0020788473519726546
1.11000e-05;-0.0021307623917418412
1.11003e-05;-0.0021742925252946905
1.11005e-05;-0.0022167570320245082
1.11008e-05;-0.0022534839705851133
1.11010e-05;-0.0022902109091457183
1.11013e-05;-0.0023254868393322147
1.11015e-05;-0.002352950222683792
1.11018e-05;-0.0023804136060355547
1.11020e-05;-0.0024066001178217004
1.11023e-05;-0.0024259116734828305
1.11025e-05;-0.002444493944263364
1.11028e-05;-0.0024591495855434786
1.11030e-05;-0.0024730851870154217
1.11033e-05;-0.002483143936482556
1.11035e-05;-0.002492426975122449
1.11038e-05;-0.0024975334167990485
1.11040e-05;-0.002502068414519307
1.11043e-05;-0.0025032309363954056
1.11045e-05;-0.0025025592049536384
1.11048e-05;-0.002500351689558045
1.11050e-05;-0.0024966638089053933
1.11053e-05;-0.002491498174614838
1.11055e-05;-0.0024848564894402996
1.11058e-05;-0.002476742781752443
1.11060e-05;-0.002467196286457103
1.11063e-05;-0.0024564194137696163
1.11065e-05;-0.002444760247440277
1.11068e-05;-0.0024324647503342393
1.11070e-05;-0.002419627515811214
1.11073e-05;-0.0024063085272255616
1.11075e-05;-0.0023925685169056553
1.11078e-05;-0.002378469151379807
1.11080e-05;-0.0023640938298729276
1.11082e-05;-0.0023496286805937917
1.11085e-05;-0.002335350743419631
1.11088e-05;-0.0023214734893310957
1.11090e-05;-0.0023081148229651682
1.11093e-05;-0.002295371834700074
1.11095e-05;-0.0022834111444249737
1.11098e-05;-0.002272494996112584
1.11100e-05;-0.0022619481948337053
1.11103e-05;-0.00225339003886492
1.11105e-05;-0.0022448318828961348
1.11108e-05;-0.0022369003203858723
1.11110e-05;-0.0022323424742718206
1.11113e-05;-0.002227784628157769
1.11115e-05;-0.002223226782043748
1.11118e-05;-0.002218668935929696
1.11120e-05;-0.0022149192951583284
1.11123e-05;-0.002215521208938299
1.11125e-05;-0.002216123122718274
1.11128e-05;-0.0022167250364982486
1.11130e-05;-0.0022173269502782193
1.11133e-05;-0.0022187792367267182
1.11135e-05;-0.002224810115843208
1.11138e-05;-0.002230840994959657
1.11140e-05;-0.002236871874076147
1.11143e-05;-0.002242902753192637
1.11145e-05;-0.002248933632309086
1.11148e-05;-0.002254964511425576
1.11150e-05;-0.00226167379496088
1.11153e-05;-0.0022720357564490227
1.11155e-05;-0.0022823977179372355
1.11158e-05;-0.0022927596794254483
1.11160e-05;-0.0023031216409135913
1.11163e-05;-0.002313483602401804
1.11165e-05;-0.002323845563890017
1.11167e-05;-0.0023344242180016587
1.11170e-05;-0.002346169592651422
1.11173e-05;-0.002357914967301185
1.11175e-05;-0.0023696466414947974
1.11178e-05;-0.0023813045494327613
1.11180e-05;-0.002392962457370725
1.11183e-05;-0.0024044985321492007
1.11185e-05;-0.0024153786305168576
1.11188e-05;-0.0024262587288845882
1.11190e-05;-0.002436997081628734
1.11193e-05;-0.002446880049456545
1.11195e-05;-0.0024561616934869164
1.11198e-05;-0.0024647559053531205
1.11200e-05;-0.0024724908691714314
1.11203e-05;-0.002478813557922542
1.11205e-05;-0.002482901802381976
1.11208e-05;-0.0024843123988546665
1.11210e-05;-0.0024828433471301955
1.11213e-05;-0.0024781104822213054
1.11215e-05;-0.0024726131391576943
1.11218e-05;-0.0024629996782965153
1.11220e-05;-0.0024525719398854444
1.11223e-05;-0.0024377599528282168
1.11225e-05;-0.002421988830515146
1.11228e-05;-0.002401053513945043
1.11230e-05;-0.0023794398059813703
1.11233e-05;-0.0023537613459501156
1.11235e-05;-0.0023254817543293662
1.11238e-05;-0.002294791256444919
1.11240e-05;-0.002261846576718418
1.11243e-05;-0.0022266544601679105
1.11245e-05;-0.0021891168443711495
1.11248e-05;-0.0021492839581315486
1.11250e-05;-0.0021073778802222017
1.11252e-05;-0.00206365685629694
1.11255e-05;-0.0020183792189604755
1.11258e-05;-0.001971801599409335
1.11260e-05;-0.0019241599790065264
1.11263e-05;-0.0018755965588467555
1.11265e-05;-0.0018261873519750174
1.11268e-05;-0.001776101557335062
1.11270e-05;-0.0017256161917541862
1.11273e-05;-0.00167503055902412
1.11275e-05;-0.00162464398117248
1.11278e-05;-0.0015747550943084774
1.11280e-05;-0.001525649177116866
1.11283e-05;-0.001477553020093462
1.11285e-05;-0.0014306518756102922
1.11288e-05;-0.001385189052441075
1.11290e-05;-0.0013414756770084115
1.11293e-05;-0.0012998369772520408
1.11295e-05;-0.0012605979482802334
1.11298e-05;-0.001224073450843982
1.11300e-05;-0.001190396190423254
1.11303e-05;-0.0011588609869166585
1.11305e-05;-0.0011280705759101127
1.11308e-05;-0.0010972616034165424
1.11310e-05;-0.001066513810430879
1.11313e-05;-0.0010360899645695519
1.11315e-05;-0.001006252931629444
1.11318e-05;-0.0009772592954985233
1.11320e-05;-0.000949251246178655
1.11323e-05;-0.0009218462260558612
1.11325e-05;-0.0008942283060731894
1.11328e-05;-0.0008659785995928173
1.11330e-05;-0.0008372064366494289
1.11333e-05;-0.0008081356712859865
1.11335e-05;-0.0007789903574100585
1.11337e-05;-0.0007499904012186057
1.11340e-05;-0.0007212842059689238
1.11343e-05;-0.0006926913657533017
1.11345e-05;-0.0006637601050520896
1.11348e-05;-0.0006342874027113827
1.11350e-05;-0.0006044010737635944
1.11353e-05;-0.0005743006723051934
1.11355e-05;-0.0005442122774801458
1.11358e-05;-0.0005143960143576617
1.11360e-05;-0.0004846620656600363
1.11363e-05;-0.00045537131585239273
1.11365e-05;-0.0004260815074190547
1.11368e-05;-0.00039681244952941247
1.11370e-05;-0.0003676723837131475
1.11373e-05;-0.0003388456490732636
1.11375e-05;-0.0003105165556095268
1.11378e-05;-0.00028286784337242226
1.11380e-05;-0.0002560541308419214
1.11383e-05;-0.00023010106657224202
1.11385e-05;-0.00020492775785204358
1.11388e-05;-0.0001805509686965725
1.11390e-05;-0.0001571172707039209
1.11393e-05;-0.0001348013875807012
1.11395e-05;-0.00011377802550001927
1.11398e-05;-9.42188638289858e-05
1.11400e-05;-7.624059274216785e-05
1.11403e-05;-5.9703497917045425e-05
1.11405e-05;-4.424114419938946e-05
1.11408e-05;-2.9651286990339233e-05
1.11410e-05;-1.5971658740396663e-05
1.11413e-05;-3.293455688329378e-06
1.11415e-05;8.292168070546404e-06
1.11418e-05;1.8695943226610305e-05
1.11420e-05;2.7863060949867255e-05
1.11422e-05;3.589932585232488e-05
1.11425e-05;4.305254328654632e-05
1.11428e-05;4.946765015671752e-05
1.11430e-05;5.5139256126144255e-05
1.11433e-05;6.002848667410295e-05
1.11435e-05;6.409649695342701e-05
1.11438e-05;6.73056322023922e-05
