Time(s);Current(A)
7.00000e-06;0.0037152765331520204
7.00025e-06;0.0037156771451395012
7.00050e-06;0.003716077757126982
7.00075e-06;0.003695900892149872
7.00100e-06;0.0036672576783165
7.00125e-06;0.0036386144644831283
7.00150e-06;0.0036099712506496595
7.00175e-06;0.0035813280368162874
7.00200e-06;0.0035526848229829157
7.00225e-06;0.003524041609149447
7.00250e-06;0.0034953983953160753
7.00275e-06;0.003466755181482606
7.00300e-06;0.003411798954081562
7.00325e-06;0.00334601656209796
7.00350e-06;0.0032802341701141354
7.00375e-06;0.0032144517781305336
7.00400e-06;0.003148669386146932
7.00425e-06;0.0030828869941631073
7.00450e-06;0.0030171046021795055
7.00475e-06;0.002951322210195904
7.00500e-06;0.002885539818212079
7.00525e-06;0.0028059243588239237
7.00550e-06;0.00272061745462992
7.00575e-06;0.0026353105504356273
7.00600e-06;0.002550003646241624
7.00625e-06;0.00246469674204762
7.00650e-06;0.002378946418247026
7.00675e-06;0.002291512775454568
7.00700e-06;0.002204079132661814
7.00725e-06;0.0021166454898693563
7.00750e-06;0.0020292118470768986
7.00775e-06;0.0019417782042841446
7.00800e-06;0.0018593084479491878
7.00825e-06;0.0017788810214147935
7.00850e-06;0.0016984535948801264
7.00875e-06;0.0016236982602352717
7.00900e-06;0.001551276637772701
7.00925e-06;0.0014852586769548148
7.00950e-06;0.0014218754236635656
7.00975e-06;0.0013662992285433284
7.01000e-06;0.0013139351511241083
7.01025e-06;0.0012699242316938778
7.01050e-06;0.001229350115992858
7.01075e-06;0.0011952162830391067
7.01100e-06;0.0011681398715157679
7.01125e-06;0.0011473701100944028
7.01150e-06;0.0011330275565039748
7.01175e-06;0.0011251936875812233
7.01200e-06;0.001123830581346643
7.01225e-06;0.0011287822431691485
7.01250e-06;0.001139866047544405
7.01275e-06;0.0011589563958908137
7.01300e-06;0.0011806117994340773
7.01325e-06;0.001210202228807092
7.01350e-06;0.0012430574265944884
7.01375e-06;0.0012833132625481624
7.01400e-06;0.0013266139997093517
7.01425e-06;0.0013764444691352965
7.01450e-06;0.0014289615162872197
7.01475e-06;0.0014882293007576312
7.01500e-06;0.0015502745927553339
7.01525e-06;0.0016123198847528262
7.01550e-06;0.0016818316586694085
7.01575e-06;0.0017544154243922198
7.01600e-06;0.0018269991901150309
7.01625e-06;0.001899582955838088
7.01650e-06;0.001972166721560899
7.01675e-06;0.0020475565710083494
7.01700e-06;0.0021241009489614228
7.01725e-06;0.0022006453269142368
7.01750e-06;0.002277189704867051
7.01775e-06;0.0023537340828201246
7.01800e-06;0.0024188549133282505
7.01825e-06;0.002479275666272392
7.01850e-06;0.002539696419216738
7.01875e-06;0.0026001171721608796
7.01900e-06;0.002660537925105021
7.01925e-06;0.002720958678049367
7.01950e-06;0.0027813794309935083
7.01975e-06;0.0028418001839378548
7.02000e-06;0.002902220936881996
7.02025e-06;0.002955416766501575
7.02050e-06;0.0029811851876998504
7.02075e-06;0.003006953608898038
7.02100e-06;0.0030327220300962257
7.02125e-06;0.003058490451294501
7.02150e-06;0.0030842588724926887
7.02175e-06;0.0031100272936908763
7.02200e-06;0.0031357957148891516
7.02225e-06;0.0031615641360873393
7.02250e-06;0.0031873325572855274
7.02275e-06;0.003193266055799112
7.02300e-06;0.003191038720251705
7.02325e-06;0.0031888113847042972
7.02350e-06;0.0031865840491568822
7.02375e-06;0.0031843567136094746
7.02400e-06;0.0031821293780620596
7.02425e-06;0.0031799020425146525
7.02450e-06;0.003177674706967245
7.02475e-06;0.00317544737141983
7.02500e-06;0.003161633342679635
7.02525e-06;0.0031430521120723374
7.02550e-06;0.003124470881464977
7.02575e-06;0.003105889650857679
7.02600e-06;0.0030873084202503813
7.02625e-06;0.0030687271896430207
7.02650e-06;0.0030501459590357234
7.02675e-06;0.0030315647284284257
7.02700e-06;0.003012983497821065
7.02725e-06;0.0029933058319405537
7.02750e-06;0.002973177051303279
7.02775e-06;0.0029530482706659356
7.02800e-06;0.0029329194900286604
7.02825e-06;0.002912790709391317
7.02850e-06;0.002892661928754042
7.02875e-06;0.0028725331481167667
7.02900e-06;0.0028524043674794234
7.02925e-06;0.0028322755868421486
7.02950e-06;0.0028121468062048734
7.02975e-06;0.00279201802556753
7.03000e-06;0.0027751018243916403
7.03025e-06;0.0027595073993731023
7.03050e-06;0.0027439129743545114
7.03075e-06;0.002728318549335973
7.03100e-06;0.002712724124317435
7.03125e-06;0.002697129699298844
7.03150e-06;0.002681535274280306
7.03175e-06;0.002665940849261768
7.03200e-06;0.0026503464242431767
7.03225e-06;0.0026347519992246386
7.03250e-06;0.0026191575742060477
7.03275e-06;0.0026015841002409476
7.03300e-06;0.002583196371019886
7.03325e-06;0.0025648086417987626
7.03350e-06;0.002546420912577701
7.03375e-06;0.0025280331833566396
7.03400e-06;0.002509645454135516
7.03425e-06;0.0024912577249144546
7.03450e-06;0.002472869995693393
7.03475e-06;0.0024544822664722696
7.03500e-06;0.002436094537251208
7.03525e-06;0.0024177068080301466
7.03550e-06;0.0023992139860841183
7.03575e-06;0.0023803222088887555
7.03600e-06;0.0023614304316933923
7.03625e-06;0.0023425386544979653
7.03650e-06;0.002323646877302602
7.03675e-06;0.0023047551001071746
7.03700e-06;0.002285863322911812
7.03725e-06;0.0022669715457164486
7.03750e-06;0.0022480797685210216
7.03775e-06;0.0022291879913256584
7.03800e-06;0.002210296214130295
7.03825e-06;0.002191404436934868
7.03850e-06;0.00217901013176789
7.03875e-06;0.002169289131249626
7.03900e-06;0.00215956813073133
7.03925e-06;0.0021498471302130668
7.03950e-06;0.0021401261296948035
7.03975e-06;0.0021304051291765073
7.04000e-06;0.002120684128658244
7.04025e-06;0.002110963128139981
7.04050e-06;0.0021012421276216846
7.04075e-06;0.0020915211271034214
7.04100e-06;0.0020818001265851247
7.04125e-06;0.0020720791260668615
7.04150e-06;0.0020623581255485982
7.04175e-06;0.002052637125030302
7.04200e-06;0.0020459919839581975
7.04225e-06;0.0020510234862821295
7.04250e-06;0.002056054988606079
7.04275e-06;0.0020610864909300112
7.04300e-06;0.002066117993253943
7.04325e-06;0.0020711494955778925
7.04350e-06;0.002076180997901825
7.04375e-06;0.0020812125002257573
7.04400e-06;0.0020862440025497067
7.04425e-06;0.0020912755048736386
7.04450e-06;0.002096307007197571
7.04475e-06;0.0021013385095215204
7.04500e-06;0.0021063700118454523
7.04525e-06;0.0021114015141694017
7.04550e-06;0.002116433016493334
7.04575e-06;0.002126019890324076
7.04600e-06;0.0021374810155207077
7.04625e-06;0.0021489421407173003
7.04650e-06;0.0021604032659138933
7.04675e-06;0.002171864391110525
7.04700e-06;0.002183325516307118
7.04725e-06;0.002194786641503711
7.04750e-06;0.0022062477667003427
7.04775e-06;0.0022177088918969353
7.04800e-06;0.0022286019635258964
7.04825e-06;0.0022373385780559514
7.04850e-06;0.002246075192585977
7.04875e-06;0.002254811807116002
7.04900e-06;0.002263548421646057
7.04925e-06;0.0022722850361760823
7.04950e-06;0.0022810216507061372
7.04975e-06;0.0022897582652361623
7.05000e-06;0.0022984948797661877
7.05025e-06;0.0023072314942962427
7.05050e-06;0.0023078713459262225
7.05075e-06;0.0023051798844240124
7.05100e-06;0.0023024884229217927
7.05125e-06;0.0022997969614195826
7.05150e-06;0.002297105499917372
7.05175e-06;0.002294414038415153
7.05200e-06;0.0022917225769129423
7.05225e-06;0.002289031115410732
7.05250e-06;0.0022863396539085125
7.05275e-06;0.0022836481924063024
7.05300e-06;0.002280956730904092
7.05325e-06;0.0022756986362482104
7.05350e-06;0.002260697033939307
7.05375e-06;0.002245695431630353
7.05400e-06;0.0022306938293214494
7.05425e-06;0.002215692227012546
7.05450e-06;0.0022006906247035917
7.05475e-06;0.0021856890223946883
7.05500e-06;0.002170687420085785
7.05525e-06;0.0021556858177768307
7.05550e-06;0.0021406842154679273
7.05575e-06;0.002125682613159024
7.05600e-06;0.0021106810108500696
7.05625e-06;0.0020928682879797567
7.05650e-06;0.0020738989642608363
7.05675e-06;0.0020549296405418514
7.05700e-06;0.002035960316822931
7.05725e-06;0.0020169909931040107
7.05750e-06;0.001998021669385026
7.05775e-06;0.001979052345666106
7.05800e-06;0.0019600830219471854
7.05825e-06;0.0019436941250299186
7.05850e-06;0.0019283669128620149
7.05875e-06;0.001913039700694059
7.05900e-06;0.0018977124885261553
7.05925e-06;0.0018823852763582515
7.05950e-06;0.0018670580641902959
7.05975e-06;0.001851730852022392
7.06000e-06;0.0018364036398544883
7.06025e-06;0.0018135338043899407
7.06050e-06;0.0017875606496923734
7.06075e-06;0.0017615874949948062
7.06100e-06;0.0017356143402971508
7.06125e-06;0.0017096411855995837
7.06150e-06;0.0016836680309020165
7.06175e-06;0.0016576948762043612
7.06200e-06;0.001631721721506794
7.06225e-06;0.0016057485668092269
7.06250e-06;0.0015797754121115715
7.06275e-06;0.0015374917710085309
7.06300e-06;0.0014884973816457316
7.06325e-06;0.0014395029922830984
7.06350e-06;0.0013905086029204652
7.06375e-06;0.001341514213557666
7.06400e-06;0.0012925198241950328
7.06425e-06;0.0012435254348323994
7.06450e-06;0.0011945310454696003
7.06475e-06;0.0011455366561069669
7.06500e-06;0.0010965422667443337
7.06525e-06;0.0010390960678582594
7.06550e-06;0.000978172476291654
7.06575e-06;0.0009172488847250485
7.06600e-06;0.0008563252931582366
7.06625e-06;0.0007950565575833609
7.06650e-06;0.0007324775789455302
7.06675e-06;0.0006698986003074876
7.06700e-06;0.0006073196216696569
7.06725e-06;0.0005447406430316141
7.06750e-06;0.0004838369217432901
7.06775e-06;0.00042362246440833955
7.06800e-06;0.0003649486090139918
7.06825e-06;0.00030807665522735063
7.06850e-06;0.00025308492074963636
7.06875e-06;0.0002003514167598362
7.06900e-06;0.00015027517556770952
7.06925e-06;0.00010325513760559105
7.06950e-06;5.9689083460073465e-05
7.06975e-06;1.9286172686573586e-05
7.07000e-06;1.5661237678779537e-06
7.07025e-06;-3.1657276357020186e-05
7.07050e-06;-6.699823595758694e-05
7.07075e-06;-9.606978767608529e-05
7.07100e-06;-0.00012942755767135188
7.07125e-06;-0.00014739286594898994
7.07150e-06;-0.0001696432883649545
7.07175e-06;-0.00018885012834066414
7.07200e-06;-0.00020514176505408505
7.07225e-06;-0.00021895538283627536
7.07250e-06;-0.0002306940000165588
7.07275e-06;-0.00024002610946947402
7.07300e-06;-0.00024679769023272844
7.07325e-06;-0.00025169330409314107
7.07350e-06;-0.00025471433093427
7.07375e-06;-0.0002555178528433372
7.07400e-06;-0.00025424394723090013
7.07425e-06;-0.0002512260518416592
7.07450e-06;-0.0002467762165057055
7.07475e-06;-0.00024074635831686776
7.07500e-06;-0.00023309963846174898
7.07525e-06;-0.00022432439207248649
7.07550e-06;-0.0002144810664710799
7.07575e-06;-0.0002034131571296074
7.07600e-06;-0.0001908688532299765
7.07625e-06;-0.00017832060870693334
7.07650e-06;-0.00016452662998318925
7.07675e-06;-0.00015072951302850415
7.07700e-06;-0.00013594031912106194
7.07725e-06;-0.00012115112521356963
7.07750e-06;-0.00010636120400749747
7.07775e-06;-9.134136466900486e-05
7.07800e-06;-7.632236923517868e-05
7.07825e-06;-6.157164897907248e-05
7.07850e-06;-4.729509333000158e-05
7.07875e-06;-3.353134254946699e-05
7.07900e-06;-2.0362650079816142e-05
7.07925e-06;-8.077351923393119e-06
7.07950e-06;3.204378460074562e-06
7.07975e-06;1.3514553929007336e-05
7.08000e-06;2.2992577238363573e-05
7.08025e-06;3.1845919302038395e-05
7.08050e-06;4.010410138315372e-05
7.08075e-06;4.7764332951609716e-05
7.08100e-06;5.479114912156131e-05
7.08125e-06;6.10200198969249e-05
7.08150e-06;6.639176157766802e-05
7.08175e-06;7.094252242531218e-05
7.08200e-06;7.477570248835576e-05
7.08225e-06;7.803734887615209e-05
7.08250e-06;8.076203120362447e-05
7.08275e-06;8.29640411524606e-05
7.08300e-06;8.463725058631018e-05
7.08325e-06;8.569467257178431e-05
7.08350e-06;8.611530800047782e-05
7.08375e-06;8.593787432448515e-05
7.08400e-06;8.524323427648504e-05
7.08425e-06;8.413891682006254e-05
7.08450e-06;8.266211655513352e-05
7.08475e-06;8.067265874064496e-05
7.08500e-06;7.868091269897258e-05
7.08525e-06;7.596579816576986e-05
7.08550e-06;7.324864320575427e-05
7.08575e-06;6.988645593403799e-05
7.08600e-06;6.652306469510683e-05
7.08625e-06;6.277906790961885e-05
7.08650e-06;5.903423217899176e-05
7.08675e-06;5.5024183940043156e-05
7.08700e-06;5.101413570109454e-05
7.08725e-06;4.700352081329059e-05
7.08750e-06;4.2813773398506084e-05
7.08775e-06;3.862402598372158e-05
7.08800e-06;3.443479476710525e-05
7.08825e-06;3.0408747303692856e-05
7.08850e-06;2.638344329872205e-05
7.08875e-06;2.2593796863895506e-05
7.08900e-06;1.900425918976232e-05
7.08925e-06;1.562581541411373e-05
7.08950e-06;1.2486462303195183e-05
7.08975e-06;9.878531628506226e-06
7.09000e-06;8.877543626782448e-06
7.09025e-06;1.0811589008599441e-05
7.09050e-06;1.613919709218873e-05
7.09075e-06;2.4720594139483025e-05
7.09100e-06;3.639214627216582e-05
7.09125e-06;5.0977787347600166e-05
7.09150e-06;6.83120989515516e-05
7.09175e-06;8.8395248823862e-05
7.09200e-06;0.0001117179603505689
7.09225e-06;0.00013892911563833963
7.09250e-06;0.00017013284159471555
7.09275e-06;0.00020505851269061198
7.09300e-06;0.00024342055214379805
7.09325e-06;0.00028492564236210394
7.09350e-06;0.00032928708675325393
7.09375e-06;0.0003763220217995738
7.09400e-06;0.000426154804645765
7.09425e-06;0.000479012830839002
7.09450e-06;0.0005360382213997407
7.09475e-06;0.0005930774163257616
7.09500e-06;0.0006544805323044342
7.09525e-06;0.0007158946837908274
7.09550e-06;0.0007807974480702227
7.09575e-06;0.0008457002123498379
7.09600e-06;0.0009106118853436613
7.09625e-06;0.0009783398360557318
7.09650e-06;0.0010460677867680317
7.09675e-06;0.0011137957374801023
7.09700e-06;0.0011815236881924022
7.09725e-06;0.0012478517543126316
7.09750e-06;0.0013127974823132745
7.09775e-06;0.0013777432103141375
7.09800e-06;0.0014426889383147804
7.09825e-06;0.001507611497054211
7.09850e-06;0.001565209646147895
7.09875e-06;0.001622807795241384
7.09900e-06;0.0016803740779484544
7.09925e-06;0.0017278665622002733
7.09950e-06;0.0017753590464519315
7.09975e-06;0.001822814749898512
7.10000e-06;0.0018586430785900564
7.10025e-06;0.0018944366705818155
7.10050e-06;0.001919249083030043
7.10075e-06;0.001944025975949282
7.10100e-06;0.0019575742164805177
7.10125e-06;0.001971086374726568
7.10150e-06;0.0019731919786524516
7.10175e-06;0.001975260404699077
7.10200e-06;0.0019655759304915833
7.10225e-06;0.0019558546010810347
7.10250e-06;0.001934482377808115
7.10275e-06;0.001913075767676526
7.10300e-06;0.001880798571962112
7.10325e-06;0.0018484895950270364
7.10350e-06;0.0018061337428253118
7.10375e-06;0.0017637483813519221
7.10400e-06;0.0017120343670899612
7.10425e-06;0.0016602883502490114
7.10450e-06;0.001598425481060822
7.10475e-06;0.0015365626118726324
7.10500e-06;0.0014746704170820594
7.10525e-06;0.0014035076322995107
7.10550e-06;0.001332344847516721
7.10575e-06;0.001261161087923817
7.10600e-06;0.0011833466420929355
7.10625e-06;0.0011055321962617902
7.10650e-06;0.0010277177504309086
7.10675e-06;0.0009498990050496217
7.10700e-06;0.0008707210593134891
7.10725e-06;0.0007915431135776248
7.10750e-06;0.0007123651678417604
7.10775e-06;0.000633198410049831
7.10800e-06;0.0005575684540772861
7.10825e-06;0.00048194923475193666
7.10850e-06;0.0004097334846641079
7.10875e-06;0.0003404795089121933
7.10900e-06;0.0002747114665188502
7.10925e-06;0.00021295321224728544
7.10950e-06;0.00015572897727142578
7.10975e-06;0.00010364593409116472
7.11000e-06;5.7511466856973286e-05
7.11025e-06;1.8052292725999337e-05
7.11050e-06;-1.4444997631773818e-05
7.11075e-06;-3.994317522844713e-05
7.11100e-06;-5.8412861207421405e-05
7.11125e-06;-6.982484885063627e-05
7.11150e-06;-7.414973309435316e-05
7.11175e-06;-7.130618624269174e-05
7.11200e-06;-6.108746637316751e-05
7.11225e-06;-4.333739983909982e-05
7.11250e-06;-1.8175533526040863e-05
7.11275e-06;1.4122392812141534e-05
7.11300e-06;5.327573610828569e-05
7.11325e-06;9.900376274762179e-05
7.11350e-06;0.00015102587381782148
7.11375e-06;0.00020909398977532616
7.11400e-06;0.00027303861330222885
7.11425e-06;0.00034265857182368803
7.11450e-06;0.0004175799937091714
7.11475e-06;0.0004973311834507428
7.11500e-06;0.0005814373707204733
7.11525e-06;0.0006694285848284401
7.11550e-06;0.0007622877319452966
7.11575e-06;0.0008551657036154645
7.11600e-06;0.0009539946090327379
7.11625e-06;0.001052823514450346
7.11650e-06;0.0011516611426488732
7.11675e-06;0.001253256270138291
7.11700e-06;0.0013548513976280531
7.11725e-06;0.001456446525117471
7.11750e-06;0.0015580245184630105
7.11775e-06;0.001654185960806482
7.11800e-06;0.0017503474031496276
7.11825e-06;0.0018465088454930989
7.11850e-06;0.0019426306911080372
7.11875e-06;0.002026234975359767
7.11900e-06;0.0021098392596117796
7.11925e-06;0.0021933997768785744
7.11950e-06;0.0022631244055803805
7.11975e-06;0.0023328104357457336
7.12000e-06;0.0023902944590187248
7.12025e-06;0.0024477425921795386
7.12050e-06;0.0024938449222683106
7.12075e-06;0.0025398990817041716
7.12100e-06;0.0025707252380422277
7.12125e-06;0.002601551394380388
7.12150e-06;0.0026323171137194144
7.12175e-06;0.002643977117133171
7.12200e-06;0.002655637120546967
7.12225e-06;0.002667243471850163
7.12250e-06;0.002661888987927822
7.12275e-06;0.0026565345040054996
7.12300e-06;0.0026511293788830945
7.12325e-06;0.0026297152460942447
7.12350e-06;0.0026083011133054674
7.12375e-06;0.0025868422267809814
7.12400e-06;0.0025512355140570892
7.12425e-06;0.002515628801333317
7.12450e-06;0.0024799871487828913
7.12475e-06;0.0024333001033376885
7.12500e-06;0.0023866130578926435
7.12525e-06;0.002339891110198053
7.12550e-06;0.0022821356487271924
7.12575e-06;0.0022243801872565273
7.12600e-06;0.002166624725785862
7.12625e-06;0.0021088692643150015
7.12650e-06;0.0020511138028443364
7.12675e-06;0.0019911173990239906
7.12700e-06;0.0019289081413373299
7.12725e-06;0.001866698883650669
7.12750e-06;0.0018044896259637973
7.12775e-06;0.0017422803682771366
7.12800e-06;0.0016800855176327541
7.12825e-06;0.0016224451097772467
7.12850e-06;0.0015648047019219348
7.12875e-06;0.0015071905462308135
7.12900e-06;0.0014578753860902513
7.12925e-06;0.0014085602259498562
7.12950e-06;0.0013592753968238523
7.12975e-06;0.0013195789944416122
7.13000e-06;0.0012799102805428736
7.13025e-06;0.0012489946202248864
7.13050e-06;0.001218107683597191
7.13075e-06;0.001196301056550874
7.13100e-06;0.0011745241970286368
7.13125e-06;0.0011621576302216052
7.13150e-06;0.001149821668832337
7.13175e-06;0.0011471608802366515
7.13200e-06;0.0011445300768523068
7.13225e-06;0.001151378382781759
7.13250e-06;0.0011582550667820805
7.13275e-06;0.001174102800957703
7.13300e-06;0.0011899773102852424
7.13325e-06;0.0012143161452043603
7.13350e-06;0.001238680024974556
7.13375e-06;0.0012709612370175732
7.13400e-06;0.0013032697700212851
7.13425e-06;0.0013442151729887184
7.13450e-06;0.0013851605759561513
7.13475e-06;0.0014261322423457382
7.13500e-06;0.0014754064630979576
7.13525e-06;0.0015246806838503438
7.13550e-06;0.0015739778990909452
7.13575e-06;0.0016305442732980127
7.13600e-06;0.0016871106475052718
7.13625e-06;0.001743677021712339
7.13650e-06;0.0018002433959194066
7.13675e-06;0.0018568097701266656
7.13700e-06;0.0019138503123052916
7.13725e-06;0.0019713590791257942
7.13750e-06;0.002028867845946492
7.13775e-06;0.0020863766127669943
7.13800e-06;0.0021438853795874967
7.13825e-06;0.002201326689828376
7.13850e-06;0.0022374432116338957
7.13875e-06;0.0022735597334394156
7.13900e-06;0.002309676255245058
7.13925e-06;0.002345792777050578
7.13950e-06;0.0023819092988562203
7.13975e-06;0.0024180258206617402
7.14000e-06;0.00245414234246726
7.14025e-06;0.0024902588642729023
7.14050e-06;0.0025263753860784222
7.14075e-06;0.002562491907883942
7.14100e-06;0.0025986084296895848
7.14125e-06;0.0026347249514951047
7.14150e-06;0.0026515483264842317
7.14175e-06;0.0026493203793683255
7.14200e-06;0.002647092432252427
7.14225e-06;0.0026448644851365284
7.14250e-06;0.0026426365380206227
7.14275e-06;0.0026404085909047244
7.14300e-06;0.0026381806437888256
7.14325e-06;0.00263595269667292
7.14350e-06;0.0026337247495570215
7.14375e-06;0.0026314968024411154
7.14400e-06;0.002629268855325217
7.14425e-06;0.0026270409082093187
7.14450e-06;0.002624744734949875
7.14475e-06;0.0026008804942538478
7.14500e-06;0.0025770162535578203
7.14525e-06;0.002553152012861712
7.14550e-06;0.0025292877721656845
7.14575e-06;0.002505423531469657
7.14600e-06;0.002481559290773549
7.14625e-06;0.0024576950500775213
7.14650e-06;0.00243133093253197
7.14675e-06;0.002402498272164774
7.14700e-06;0.0023736656117976764
