Time(s);Current(A)
1.08000e-05;-0.005963641892984295
1.08003e-05;-0.0059673186924207085
1.08005e-05;-0.005970995491857122
1.08007e-05;-0.0059746722912935105
1.08010e-05;-0.0059638962303058245
1.08013e-05;-0.005949910226587605
1.08015e-05;-0.00593592422286948
1.08018e-05;-0.00592193821915126
1.08020e-05;-0.005907952215433041
1.08023e-05;-0.0058939662117148215
1.08025e-05;-0.005879980207996697
1.08028e-05;-0.005857752863240025
1.08030e-05;-0.005833695138061682
1.08033e-05;-0.0058096374128835
1.08035e-05;-0.005785579687705157
1.08038e-05;-0.005761521962526813
1.08040e-05;-0.0057374642373486315
1.08043e-05;-0.005713406512170288
1.08045e-05;-0.005687256236171552
1.08048e-05;-0.005660641210075229
1.08050e-05;-0.005634026183978726
1.08053e-05;-0.005607989314249252
1.08055e-05;-0.0055820808515462
1.08058e-05;-0.005556172388842972
1.08060e-05;-0.005531967150410791
1.08063e-05;-0.00550814019366199
1.08065e-05;-0.005486362059486929
1.08068e-05;-0.00546503896347982
1.08070e-05;-0.005447255297059767
1.08073e-05;-0.00543025772875046
1.08075e-05;-0.005413260160441153
1.08077e-05;-0.005402008592580878
1.08080e-05;-0.005392033196484149
1.08083e-05;-0.00538205780038742
1.08085e-05;-0.005378141869132016
1.08088e-05;-0.00537557172926693
1.08090e-05;-0.005373001589401843
1.08092e-05;-0.0053803537445648916
1.08095e-05;-0.005389909615661842
1.08098e-05;-0.005399465486758793
1.08100e-05;-0.00540902135785568
1.08103e-05;-0.005418577228952631
1.08105e-05;-0.005428133100049582
1.08108e-05;-0.005442306114477471
1.08110e-05;-0.005466369197319059
1.08113e-05;-0.005490432280160811
1.08115e-05;-0.005514495363002562
1.08118e-05;-0.0055385584458441505
1.08120e-05;-0.005562621528685903
1.08123e-05;-0.005586684611527654
1.08125e-05;-0.005618659694297601
1.08128e-05;-0.005652392011685659
1.08130e-05;-0.005686124329073717
1.08133e-05;-0.005719856646461546
1.08135e-05;-0.005753588963849604
1.08138e-05;-0.005787321281237661
1.08140e-05;-0.005821053598625491
1.08143e-05;-0.00585499547628412
1.08145e-05;-0.0058893862387324305
1.08148e-05;-0.005923777001180509
1.08150e-05;-0.005958167763628819
1.08153e-05;-0.00599255852607713
1.08155e-05;-0.006026949288525208
1.08158e-05;-0.006061340050973519
1.08160e-05;-0.00609573081342183
1.08162e-05;-0.006118260417012854
1.08165e-05;-0.006138155688052791
1.08168e-05;-0.006158050959092728
1.08170e-05;-0.0061779462301325295
1.08173e-05;-0.0061978415011724654
1.08175e-05;-0.006217736772212402
1.08177e-05;-0.006237632043252204
1.08180e-05;-0.006257527314292141
1.08183e-05;-0.006277422585332077
1.08185e-05;-0.006297317856371878
1.08188e-05;-0.006317213127411815
1.08190e-05;-0.006337108398451751
1.08193e-05;-0.006357003669491688
1.08195e-05;-0.006363929346415792
1.08198e-05;-0.006367974510198537
1.08200e-05;-0.006372019673981283
1.08203e-05;-0.006376064837764
1.08205e-05;-0.006380110001546746
1.08208e-05;-0.006384155165329491
1.08210e-05;-0.00638820032911221
1.08213e-05;-0.006392245492894955
1.08215e-05;-0.006396290656677701
1.08218e-05;-0.006400335820460418
1.08220e-05;-0.006404380984243164
1.08223e-05;-0.006408426148025909
1.08225e-05;-0.006412471311808627
1.08228e-05;-0.006410222495174187
1.08230e-05;-0.006406575801848715
1.08233e-05;-0.006402929108523268
1.08235e-05;-0.006399282415197796
1.08238e-05;-0.006395635721872324
1.08240e-05;-0.006391989028546877
1.08243e-05;-0.006388342335221405
1.08245e-05;-0.006384695641895933
1.08247e-05;-0.0063810489485704855
1.08250e-05;-0.006377402255245013
1.08253e-05;-0.006373755561919541
1.08255e-05;-0.006370108868594094
1.08258e-05;-0.006366462175268622
1.08260e-05;-0.00636281548194315
1.08262e-05;-0.006360424596720581
1.08265e-05;-0.006358312623213515
1.08268e-05;-0.0063562006497064494
1.08270e-05;-0.006354088676199398
1.08273e-05;-0.006351976702692332
1.08275e-05;-0.006349864729185266
1.08278e-05;-0.0063477527556782005
1.08280e-05;-0.006345640782171149
1.08283e-05;-0.006343528808664083
1.08285e-05;-0.006341416835157017
1.08288e-05;-0.006339304861649965
1.08290e-05;-0.0063371928881429
1.08293e-05;-0.006335080914635834
1.08295e-05;-0.006332968941128783
1.08298e-05;-0.006335942036491166
1.08300e-05;-0.0063400445124323496
1.08303e-05;-0.006344146988373505
1.08305e-05;-0.0063482494643146885
1.08308e-05;-0.006352351940255872
1.08310e-05;-0.0063564544161970275
1.08313e-05;-0.006360556892138211
1.08315e-05;-0.006364659368079394
1.08318e-05;-0.00636876184402055
1.08320e-05;-0.006372864319961733
1.08323e-05;-0.006376966795902917
1.08325e-05;-0.006381069271844072
1.08328e-05;-0.006386050122474911
1.08330e-05;-0.006392912479733707
1.08332e-05;-0.0063997748369924575
1.08335e-05;-0.006406637194251255
1.08338e-05;-0.006413499551510052
1.08340e-05;-0.006420361908768802
1.08343e-05;-0.006427224266027598
1.08345e-05;-0.006434086623286395
1.08347e-05;-0.006440948980545145
1.08350e-05;-0.006447811337803941
1.08353e-05;-0.0064546736950627384
1.08355e-05;-0.006461536052321489
1.08358e-05;-0.006468398409580285
1.08360e-05;-0.00647178893631995
1.08363e-05;-0.006474408378525047
1.08365e-05;-0.006477027820730127
1.08368e-05;-0.006479647262935224
1.08370e-05;-0.0064822667051403215
1.08373e-05;-0.006484886147345401
1.08375e-05;-0.006487505589550498
1.08378e-05;-0.006490125031755595
1.08380e-05;-0.0064927444739606745
1.08383e-05;-0.006495363916165772
1.08385e-05;-0.006497983358370869
1.08388e-05;-0.006500602800575949
1.08390e-05;-0.006503222242781046
1.08393e-05;-0.006505841684986143
1.08395e-05;-0.006508461127191222
1.08398e-05;-0.00651108056939632
1.08400e-05;-0.006513700011601417
1.08403e-05;-0.006516319453806496
1.08405e-05;-0.006518938896011593
1.08408e-05;-0.006521558338216691
1.08410e-05;-0.0065241777804217705
1.08413e-05;-0.006525529114500374
1.08415e-05;-0.006524164120485955
1.08418e-05;-0.006522799126471546
1.08420e-05;-0.006521434132457126
1.08423e-05;-0.006520069138442708
1.08425e-05;-0.0065187041444282985
1.08428e-05;-0.00651733915041388
1.08430e-05;-0.006515974156399461
1.08432e-05;-0.006514609162385051
1.08435e-05;-0.006513244168370632
1.08438e-05;-0.006511879174356213
1.08440e-05;-0.006510514180341804
1.08443e-05;-0.0065091491863273855
1.08445e-05;-0.006507784192312966
1.08448e-05;-0.006506419198298547
1.08450e-05;-0.006505054204284138
1.08453e-05;-0.006503689210269719
1.08455e-05;-0.0065023242162553
1.08458e-05;-0.00650095922224089
1.08460e-05;-0.006499594228226472
1.08463e-05;-0.006498229234212053
1.08465e-05;-0.006496864240197644
1.08468e-05;-0.006495084414795688
1.08470e-05;-0.006493212456420711
1.08473e-05;-0.006491340498045747
1.08475e-05;-0.006484050697869868
1.08478e-05;-0.0064755576091109586
1.08480e-05;-0.0064670645203521076
1.08483e-05;-0.0064585714315931984
1.08485e-05;-0.00645007834283429
1.08488e-05;-0.006441585254075439
1.08490e-05;-0.00642922867286301
1.08493e-05;-0.006408596367465573
1.08495e-05;-0.006387964062068275
1.08498e-05;-0.006367331756670838
1.08500e-05;-0.006346699451273401
1.08503e-05;-0.006326067145876103
1.08505e-05;-0.006305434840478666
1.08508e-05;-0.006275114879155287
1.08510e-05;-0.006242643314628766
1.08513e-05;-0.006210171750102024
1.08515e-05;-0.006177700185575283
1.08517e-05;-0.006145228621048762
1.08520e-05;-0.0061127570565220205
1.08523e-05;-0.006077799269494551
1.08525e-05;-0.006037515914492604
1.08528e-05;-0.0059972325594903845
1.08530e-05;-0.005956949204488164
1.08533e-05;-0.005916665849485944
1.08535e-05;-0.0058763824944839975
1.08538e-05;-0.005836099139481778
1.08540e-05;-0.0057941702918228866
1.08543e-05;-0.0057518759845217315
1.08545e-05;-0.005709581677220289
1.08548e-05;-0.005668364427473843
1.08550e-05;-0.005627386389411469
1.08553e-05;-0.005586408351348817
1.08555e-05;-0.005547354410562167
1.08558e-05;-0.005508727806780252
1.08560e-05;-0.005473157226798821
1.08563e-05;-0.005438265381761281
1.08565e-05;-0.005403373536723978
1.08568e-05;-0.005373420407012784
1.08570e-05;-0.0053445641531404695
1.08573e-05;-0.00531570789926835
1.08575e-05;-0.00528726125749683
1.08578e-05;-0.005258905589508371
1.08580e-05;-0.005230549921520103
1.08583e-05;-0.005200014990143926
1.08585e-05;-0.005168996050032924
1.08588e-05;-0.005137977109922133
1.08590e-05;-0.005105842246735929
1.08593e-05;-0.005073459539934833
1.08595e-05;-0.005041076833133955
1.08598e-05;-0.0050038455891746
1.08600e-05;-0.004965537497712942
1.08602e-05;-0.004927229406251544
1.08605e-05;-0.004888921314789885
1.08608e-05;-0.004848944283095682
1.08610e-05;-0.004805392328137804
1.08613e-05;-0.004761840373179629
1.08615e-05;-0.004718288418221456
1.08618e-05;-0.0046747364632632816
1.08620e-05;-0.004627466923917085
1.08623e-05;-0.004579371718739221
1.08625e-05;-0.004531276513561358
1.08628e-05;-0.004482028361455215
1.08630e-05;-0.0044325241428321725
1.08633e-05;-0.004382710524185105
1.08635e-05;-0.004332828188597107
1.08638e-05;-0.004282523476251839
1.08640e-05;-0.004232038841326734
1.08643e-05;-0.004181700449729183
1.08645e-05;-0.004131813732735564
1.08648e-05;-0.004082685222627455
1.08650e-05;-0.004034611883296195
1.08653e-05;-0.0039877676903955816
1.08655e-05;-0.003942173670469153
1.08658e-05;-0.003897910857570245
1.08660e-05;-0.003855220245754107
1.08663e-05;-0.0038144043062872074
1.08665e-05;-0.0037757722382645775
1.08668e-05;-0.0037396328597459425
1.08670e-05;-0.003706320623994643
1.08673e-05;-0.003676464901776115
1.08675e-05;-0.00365100696801039
1.08678e-05;-0.0036305940774085943
1.08680e-05;-0.003615377209626719
1.08683e-05;-0.0036053308929367813
1.08685e-05;-0.003600410741312649
1.08687e-05;-0.0036005726651359457
1.08690e-05;-0.0036057882818299933
1.08693e-05;-0.0036185180713812575
1.08695e-05;-0.003632712940817533
1.08698e-05;-0.0036561882868361775
1.08700e-05;-0.0036817248025861685
1.08703e-05;-0.003717889164706947
1.08705e-05;-0.0037564139438873716
1.08708e-05;-0.003794938723068057
1.08710e-05;-0.0038446951295571007
1.08713e-05;-0.003896946051282973
1.08715e-05;-0.0039491969730092
1.08718e-05;-0.00401007489712895
1.08720e-05;-0.004072868856060686
1.08723e-05;-0.004141320034397272
1.08725e-05;-0.004211027666462091
1.08728e-05;-0.00428507299541466
1.08730e-05;-0.004360081715574191
1.08733e-05;-0.004438299889430972
1.08735e-05;-0.004517230874612961
1.08738e-05;-0.004597979394419224
1.08740e-05;-0.004679869266758047
1.08743e-05;-0.004762258667938046
1.08745e-05;-0.004844657468405769
1.08748e-05;-0.0049265746493828725
1.08750e-05;-0.005007523129590337
1.08753e-05;-0.0050870621017522835
1.08755e-05;-0.005164797789525091
1.08758e-05;-0.00524029204259966
1.08760e-05;-0.005313030256306397
1.08763e-05;-0.0053808568030893665
1.08765e-05;-0.005447707603156099
1.08768e-05;-0.005507224822482271
1.08770e-05;-0.005565113272583289
1.08772e-05;-0.005612603608372047
1.08775e-05;-0.00565778454999351
1.08778e-05;-0.005702965491614972
1.08780e-05;-0.005735800534003245
1.08783e-05;-0.005765893584254649
1.08785e-05;-0.005795986634506054
1.08788e-05;-0.005812756559012067
1.08790e-05;-0.005826567451911836
1.08793e-05;-0.005840378344811698
1.08795e-05;-0.005836350610518902
1.08798e-05;-0.005828360963482697
1.08800e-05;-0.005820371316446438
1.08803e-05;-0.005812381669410179
1.08805e-05;-0.005804392022373974
1.08808e-05;-0.005788666968725666
1.08810e-05;-0.00575637242712822
1.08813e-05;-0.0057240778855309924
1.08815e-05;-0.005691783343933547
1.08818e-05;-0.005659488802336101
1.08820e-05;-0.0056271942607388735
1.08823e-05;-0.005583246159617547
1.08825e-05;-0.00553670983320916
1.08828e-05;-0.00549017350680109
1.08830e-05;-0.005437844693736885
1.08833e-05;-0.005384229384438846
1.08835e-05;-0.005330614075141171
1.08838e-05;-0.005274083280272377
1.08840e-05;-0.005216904963634503
1.08843e-05;-0.005158726050367763
1.08845e-05;-0.005100324907189419
1.08848e-05;-0.005041838983832092
1.08850e-05;-0.004983635629316932
1.08853e-05;-0.004926108107731046
1.08855e-05;-0.004869684028427356
1.08857e-05;-0.004814797175516994
1.08860e-05;-0.0047618485224705945
1.08863e-05;-0.004716184933948878
1.08865e-05;-0.004672058218438094
1.08868e-05;-0.00462793150292701
1.08870e-05;-0.004583804787415926
1.08873e-05;-0.0045396780719048424
1.08875e-05;-0.004504053074638733
1.08878e-05;-0.004470316286902316
1.08880e-05;-0.004436579499165901
1.08883e-05;-0.0044028427114297134
1.08885e-05;-0.004369105923693298
1.08888e-05;-0.004342282321319844
1.08890e-05;-0.004316994119451482
1.08893e-05;-0.004291705917582948
1.08895e-05;-0.004266417715714414
1.08898e-05;-0.0042411295138460505
1.08900e-05;-0.004215841311977516
1.08903e-05;-0.004190553110108982
1.08905e-05;-0.004167196024409041
1.08908e-05;-0.0041479754512022985
1.08910e-05;-0.004128754877995557
1.08913e-05;-0.004109534304788944
1.08915e-05;-0.004090313731582201
1.08918e-05;-0.004071093158375459
1.08920e-05;-0.004051872585168846
1.08923e-05;-0.0040326520119621035
1.08925e-05;-0.004016926057186769
1.08928e-05;-0.004001976248084419
1.08930e-05;-0.003987026438981968
1.08933e-05;-0.003972076629879517
1.08935e-05;-0.003957126820777168
1.08938e-05;-0.003942177011674717
1.08940e-05;-0.003927227202572265
1.08942e-05;-0.003912277393469915
1.08945e-05;-0.003898568434334028
1.08948e-05;-0.003887517415447322
1.08950e-05;-0.0038764663965606904
1.08953e-05;-0.0038654153776739838
1.08955e-05;-0.0038543643587872775
1.08958e-05;-0.003843313339900571
1.08960e-05;-0.0038322623210139397
1.08963e-05;-0.003821211302127233
1.08965e-05;-0.003810160283240527
1.08968e-05;-0.003801232343828464
1.08970e-05;-0.0037927759348509553
1.08973e-05;-0.0037847190405595225
1.08975e-05;-0.00377675087744181
1.08978e-05;-0.003767529809342082
1.08980e-05;-0.0037580304743014335
1.08983e-05;-0.0037485311392608488
1.08985e-05;-0.0037377930610209536
1.08988e-05;-0.003726779861135267
1.08990e-05;-0.003715766661249656
1.08993e-05;-0.0037033736083837065
1.08995e-05;-0.00369067409375625
1.08998e-05;-0.003677974579128879
1.09000e-05;-0.003662705325413845
1.09003e-05;-0.003646865339324642
1.09005e-05;-0.0036310253532355462
1.09008e-05;-0.003615185367146343
1.09010e-05;-0.003598432412292601
1.09013e-05;-0.003579723849193423
1.09015e-05;-0.0035610152860941183
1.09018e-05;-0.003542306722994813
1.09020e-05;-0.003523598159895635
1.09023e-05;-0.0035031391877529887
1.09025e-05;-0.003482291454310007
1.09027e-05;-0.003461443720867166
1.09030e-05;-0.0034400971814948287
1.09033e-05;-0.0034186398586216536
1.09035e-05;-0.0033969509620238323
1.09038e-05;-0.003375050408490914
1.09040e-05;-0.003353043778014307
1.09043e-05;-0.003331057880380221
1.09045e-05;-0.003309222762028126
1.09048e-05;-0.0032876691045259066
1.09050e-05;-0.0032665237578330683
1.09053e-05;-0.0032458705790143682
1.09055e-05;-0.0032257385402512857
1.09058e-05;-0.0032061802223804286
1.09060e-05;-0.003187305611229085
1.09063e-05;-0.0031692466382152924
1.09065e-05;-0.003152137646620571
1.09068e-05;-0.0031361133607609288
1.09070e-05;-0.0031213385007880247
1.09073e-05;-0.003108337649048505
1.09075e-05;-0.0030980550533151125
1.09078e-05;-0.003091162479093515
1.09080e-05;-0.0030877900524638774
1.09083e-05;-0.0030878679990148004
1.09085e-05;-0.0030913058112029723
1.09088e-05;-0.0030980129602213974
1.09090e-05;-0.0031079177361580247
1.09093e-05;-0.003121173427626055
1.09095e-05;-0.003139853434426915
1.09098e-05;-0.003159601431129572
1.09100e-05;-0.003187120817225759
1.09103e-05;-0.0032163662087138344
1.09105e-05;-0.0032456116002017115
1.09108e-05;-0.003282763267300434
1.09110e-05;-0.0033216708976695013
1.09112e-05;-0.003360578528038305
1.09115e-05;-0.0034067646796591294
1.09118e-05;-0.003454567371938349
1.09120e-05;-0.0035023700642172447
1.09123e-05;-0.0035560519920079256
1.09125e-05;-0.0036110396827298743
1.09128e-05;-0.0036660273734518234
1.09130e-05;-0.0037242364569508623
1.09133e-05;-0.00378316100341614
1.09135e-05;-0.003843910514677497
1.09138e-05;-0.003905065345877921
1.09140e-05;-0.003967169905600356
1.09143e-05;-0.004029485397559809
1.09145e-05;-0.004091533974843063
1.09148e-05;-0.004153523271070756
1.09150e-05;-0.004214053395634086
1.09153e-05;-0.004274259441961626
1.09155e-05;-0.004332065161380165
1.09158e-05;-0.004389337774428718
1.09160e-05;-0.00444193268079403
1.09163e-05;-0.004493488680659164
1.09165e-05;-0.004545044680524299
1.09168e-05;-0.004588548786089562
1.09170e-05;-0.0046302645868517385
1.09173e-05;-0.004671980387613915
1.09175e-05;-0.00470566108499719
1.09178e-05;-0.004737557206797136
1.09180e-05;-0.004769453328597082
1.09183e-05;-0.004801349450396811
1.09185e-05;-0.004833245572196757
1.09188e-05;-0.004856024681224333
1.09190e-05;-0.004876778925402726
1.09193e-05;-0.004897533169581259
1.09195e-05;-0.004918287413759792
1.09197e-05;-0.004939041657938186
1.09200e-05;-0.004949559620424018
1.09203e-05;-0.004957804131341465
1.09205e-05;-0.004966048642258856
1.09208e-05;-0.0049742931531763035
1.09210e-05;-0.004982537664093751
1.09213e-05;-0.004990782175011197
1.09215e-05;-0.004999026685928589
1.09218e-05;-0.005007271196846037
1.09220e-05;-0.005015515707763483
1.09223e-05;-0.005023760218680875
1.09225e-05;-0.005028720461299237
1.09228e-05;-0.005026645696346461
1.09230e-05;-0.005024570931393699
1.09233e-05;-0.005022496166440923
1.09235e-05;-0.005020421401488148
1.09238e-05;-0.005018346636535386
1.09240e-05;-0.00501627187158261
1.09243e-05;-0.005014197106629834
1.09245e-05;-0.005012122341677073
1.09248e-05;-0.005010047576724297
1.09250e-05;-0.005007972811771521
1.09253e-05;-0.005003907063966323
1.09255e-05;-0.00499939912404243
1.09258e-05;-0.004994891184118537
1.09260e-05;-0.004990383244194674
1.09263e-05;-0.00498587530427078
1.09265e-05;-0.004981521388585479
1.09268e-05;-0.004977497397737658
1.09270e-05;-0.004973473406889811
1.09273e-05;-0.004969449416041963
1.09275e-05;-0.004965425425194143
1.09278e-05;-0.004961401434346295
1.09280e-05;-0.004955093103109885
1.09282e-05;-0.0049482774258081804
1.09285e-05;-0.004941461748506429
1.09288e-05;-0.004934646071204678
1.09290e-05;-0.004927830393902973
1.09293e-05;-0.0049210147166012215
1.09295e-05;-0.00491419903929947
1.09297e-05;-0.0049073833619977655
1.09300e-05;-0.004900567684696014
1.09303e-05;-0.004890075151363791
1.09305e-05;-0.004878765997859949
1.09308e-05;-0.004867456844356184
1.09310e-05;-0.004856147690852342
1.09313e-05;-0.0048448385373485005
1.09315e-05;-0.004833529383844735
1.09318e-05;-0.004822220230340893
1.09320e-05;-0.004810911076837052
1.09323e-05;-0.004799601923333286
1.09325e-05;-0.004786047306054928
1.09328e-05;-0.004771993977106066
1.09330e-05;-0.004757940648157298
1.09333e-05;-0.004743887319208436
1.09335e-05;-0.004729833990259573
1.09338e-05;-0.004715780661310807
1.09340e-05;-0.004701727332361944
1.09343e-05;-0.004687674003413082
1.09345e-05;-0.004673965710505813
1.09348e-05;-0.004660996495817484
1.09350e-05;-0.0046480272811291546
1.09353e-05;-0.004635058066440914
1.09355e-05;-0.004622088851752584
1.09358e-05;-0.004609119637064255
1.09360e-05;-0.004596150422376014
1.09363e-05;-0.004583181207687684
1.09365e-05;-0.004570211992999356
1.09367e-05;-0.0045597296037899245
1.09370e-05;-0.004549799532058516
1.09373e-05;-0.004539869460327108
1.09375e-05;-0.004529123720716885
1.09378e-05;-0.00451819682338978
1.09380e-05;-0.004507269926062675
1.09382e-05;-0.0044942531814483495
1.09385e-05;-0.0044807722871807905
1.09388e-05;-0.0044672913929132314
1.09390e-05;-0.004450682459324445
1.09393e-05;-0.004433378796329065
1.09395e-05;-0.0044160751333335675
1.09398e-05;-0.004398771470338071
1.09400e-05;-0.00438146780734269
1.09403e-05;-0.004364164144347192
1.09405e-05;-0.004341841875793079
1.09408e-05;-0.00431840498798261
1.09410e-05;-0.004294968100171982
1.09413e-05;-0.0042715312123613545
1.09415e-05;-0.004248094324550886
1.09418e-05;-0.004224657436740258
1.09420e-05;-0.004197502679730316
1.09423e-05;-0.0041695221936301355
1.09425e-05;-0.004141541707529765
1.09428e-05;-0.004113561221429395
1.09430e-05;-0.004085580735329214
1.09433e-05;-0.00405711907168734
1.09435e-05;-0.0040276267103856135
1.09438e-05;-0.0039981343490840884
1.09440e-05;-0.003968641987782362
1.09443e-05;-0.003939149626480637
1.09445e-05;-0.003909657265179112
1.09448e-05;-0.003880780508430998
1.09450e-05;-0.0038520404758549736
1.09452e-05;-0.0038243773420688497
1.09455e-05;-0.0037969533847060787
1.09458e-05;-0.0037704669627602284
1.09460e-05;-0.003744972171951842
