Time(s);Current(A)
9.75000e-06;-0.00544503136680039
9.75025e-06;-0.005480301484023653
9.75050e-06;-0.0055155716012469155
9.75075e-06;-0.005550356452874226
9.75100e-06;-0.0055836152237771774
9.75125e-06;-0.00561687399468013
9.75150e-06;-0.005649318921477044
9.75175e-06;-0.005679204442014535
9.75200e-06;-0.00570908996255223
9.75225e-06;-0.0057363841288170375
9.75250e-06;-0.005755528910823809
9.75275e-06;-0.00577467369283071
9.75300e-06;-0.00579381847483761
9.75325e-06;-0.005812963256844381
9.75350e-06;-0.0058321080388512815
9.75375e-06;-0.005851252820858182
9.75400e-06;-0.005870397602864953
9.75425e-06;-0.005889542384871853
9.75450e-06;-0.005908687166878754
9.75475e-06;-0.005921577658681593
9.75500e-06;-0.005927563904711088
9.75525e-06;-0.005933550150740582
9.75550e-06;-0.005939536396770036
9.75575e-06;-0.005945522642799531
9.75600e-06;-0.005951508888829025
9.75625e-06;-0.005957495134858479
9.75650e-06;-0.005963481380887974
9.75675e-06;-0.0059694676269174685
9.75700e-06;-0.005975453872946922
9.75725e-06;-0.0059752782513825525
9.75750e-06;-0.00597257775665376
9.75775e-06;-0.005969877261924986
9.75800e-06;-0.005967176767196195
9.75825e-06;-0.005964476272467403
9.75850e-06;-0.005961775777738629
9.75875e-06;-0.005959075283009837
9.75900e-06;-0.005956374788281045
9.75925e-06;-0.005953674293552271
9.75950e-06;-0.0059488432945190685
9.75975e-06;-0.005943001400596939
9.76000e-06;-0.005937159506674809
9.76025e-06;-0.0059313176127527185
9.76050e-06;-0.005925475718830588
9.76075e-06;-0.005919633824908459
9.76100e-06;-0.0059137919309863686
9.76125e-06;-0.005907950037064238
9.76150e-06;-0.005902108143142108
9.76175e-06;-0.005895981621199889
9.76200e-06;-0.005889699850434108
9.76225e-06;-0.005883418079668326
9.76250e-06;-0.005877797086511151
9.76275e-06;-0.005872536510948436
9.76300e-06;-0.0058670678793261155
9.76325e-06;-0.005861485764644551
9.76350e-06;-0.0058540059858595795
9.76375e-06;-0.005845491136390514
9.76400e-06;-0.005834848169219916
9.76425e-06;-0.00582304443168881
9.76450e-06;-0.005811240694157705
9.76475e-06;-0.0057972390851556725
9.76500e-06;-0.005782038658974515
9.76525e-06;-0.005766838232793358
9.76550e-06;-0.005747484586495297
9.76575e-06;-0.005725865588610176
9.76600e-06;-0.005704246590725055
9.76625e-06;-0.005682627592840081
9.76650e-06;-0.0056601117303319345
9.76675e-06;-0.0056323942252676585
9.76700e-06;-0.0056046767202035715
9.76725e-06;-0.0055769592151392955
9.76750e-06;-0.00554924171007502
9.76775e-06;-0.0055184842329580154
9.76800e-06;-0.005486068619425949
9.76825e-06;-0.005453653005893883
9.76850e-06;-0.0054200422376038705
9.76875e-06;-0.00538577957857593
9.76900e-06;-0.005351094329216734
9.76925e-06;-0.005315857682762497
9.76950e-06;-0.005280169701240008
9.76975e-06;-0.005244158962330746
9.77000e-06;-0.005208048052524869
9.77025e-06;-0.005172087059287061
9.77050e-06;-0.0051364787915209745
9.77075e-06;-0.0051014361114374044
9.77100e-06;-0.005067120849583031
9.77125e-06;-0.005033603238291953
9.77150e-06;-0.005000985422130021
9.77175e-06;-0.0049694381620569925
9.77200e-06;-0.004939192125021818
9.77225e-06;-0.004910494741484504
9.77250e-06;-0.004883563365524957
9.77275e-06;-0.004858618035909167
9.77300e-06;-0.004835767798780379
9.77325e-06;-0.0048149146452265154
9.77350e-06;-0.004795928683430107
9.77375e-06;-0.004778790849223557
9.77400e-06;-0.004763571265989254
9.77425e-06;-0.004750359751550484
9.77450e-06;-0.004739228045032994
9.77475e-06;-0.004730248652700352
9.77500e-06;-0.004724061739169427
9.77525e-06;-0.004718978347726515
9.77550e-06;-0.0047162998794399915
9.77575e-06;-0.004714933163561739
9.77600e-06;-0.004717290833611098
9.77625e-06;-0.004721679949944666
9.77650e-06;-0.004726069066278263
9.77675e-06;-0.00473045818261186
9.77700e-06;-0.004735854175350011
9.77725e-06;-0.004747089857850685
9.77750e-06;-0.0047583255403514345
9.77775e-06;-0.004769561222852185
9.77800e-06;-0.004780796905352859
9.77825e-06;-0.0047947681676472195
9.77850e-06;-0.004810231537235277
9.77875e-06;-0.0048256949068232295
9.77900e-06;-0.004842684221722903
9.77925e-06;-0.004860505855290315
9.77950e-06;-0.004878327488857607
9.77975e-06;-0.00489686614497353
9.78000e-06;-0.004915795897184306
9.78025e-06;-0.004934725649394954
9.78050e-06;-0.004953759705838342
9.78075e-06;-0.004972850654464741
9.78100e-06;-0.00499163938697553
9.78125e-06;-0.005010263277330759
9.78150e-06;-0.005028166730266132
9.78175e-06;-0.00504567722448329
9.78200e-06;-0.00506210495338554
9.78225e-06;-0.005077942093766876
9.78250e-06;-0.005091934098801681
9.78275e-06;-0.005104919684679974
9.78300e-06;-0.005117905270558266
9.78325e-06;-0.0051283940832844216
9.78350e-06;-0.005137521044515653
9.78375e-06;-0.005146648005746885
9.78400e-06;-0.005153189005421075
9.78425e-06;-0.005158319506264214
9.78450e-06;-0.005163450007107354
9.78475e-06;-0.005164760682151408
9.78500e-06;-0.005163987853745853
9.78525e-06;-0.005163215025340297
9.78550e-06;-0.005162442196934742
9.78575e-06;-0.005161669368529191
9.78600e-06;-0.005159892438950964
9.78625e-06;-0.005152291915419518
9.78650e-06;-0.005144691391888123
9.78675e-06;-0.005137090868356677
9.78700e-06;-0.0051294903448252304
9.78725e-06;-0.005121889821293836
9.78750e-06;-0.00511099137570155
9.78775e-06;-0.005098294096248272
9.78800e-06;-0.005085596816795081
9.78825e-06;-0.0050728995373418035
9.78850e-06;-0.005060202257888525
9.78875e-06;-0.005045569228473044
9.78900e-06;-0.005029880354645587
9.78925e-06;-0.0050141914808181295
9.78950e-06;-0.004998502606990778
9.78975e-06;-0.004982813733163321
9.79000e-06;-0.004966557066665902
9.79025e-06;-0.004949990700708754
9.79050e-06;-0.0049334171032592
9.79075e-06;-0.004916911575041806
9.79100e-06;-0.0049005815193662984
9.79125e-06;-0.004884533654891125
9.79150e-06;-0.004868880616875849
9.79175e-06;-0.004853730904367634
9.79200e-06;-0.004839189318541955
9.79225e-06;-0.004825359866215094
9.79250e-06;-0.0048123466911663875
9.79275e-06;-0.00480025741595798
9.79300e-06;-0.004789249680941107
9.79325e-06;-0.004779547798156291
9.79350e-06;-0.004771330909808487
9.79375e-06;-0.004764663167085167
9.79400e-06;-0.004759550322172222
9.79425e-06;-0.004756488403414165
9.79450e-06;-0.004754246011485126
9.79475e-06;-0.004754018644752553
9.79500e-06;-0.004754890362682387
9.79525e-06;-0.004758447876937624
9.79550e-06;-0.004763470344362118
9.79575e-06;-0.004768492811786579
9.79600e-06;-0.004777464377065245
9.79625e-06;-0.004788589956541601
9.79650e-06;-0.004799715536017882
9.79675e-06;-0.004810841115494239
9.79700e-06;-0.004821966694970595
9.79725e-06;-0.004837167039567061
9.79750e-06;-0.0048545899428961954
9.79775e-06;-0.004872012846225329
9.79800e-06;-0.004889435749554345
9.79825e-06;-0.004906858652883479
9.79850e-06;-0.004926561866695053
9.79875e-06;-0.004947508863602304
9.79900e-06;-0.004968455860509697
9.79925e-06;-0.004990378908001931
9.79950e-06;-0.005012834337039191
9.79975e-06;-0.005035289766076603
9.80000e-06;-0.0050580103498314415
9.80025e-06;-0.00508087556080153
9.80050e-06;-0.005103740771771772
9.80075e-06;-0.005126070048813161
9.80100e-06;-0.005148107003573563
9.80125e-06;-0.005170143958334115
9.80150e-06;-0.005190874021737437
9.80175e-06;-0.00521089124827437
9.80200e-06;-0.005230908474811439
9.80225e-06;-0.0052461753283218095
9.80250e-06;-0.005258851116397969
9.80275e-06;-0.005271526904474042
9.80300e-06;-0.005284202692550201
9.80325e-06;-0.00529687848062636
9.80350e-06;-0.005309554268702434
9.80375e-06;-0.005322230056778593
9.80400e-06;-0.005334905844854752
9.80425e-06;-0.0053475816329308255
9.80450e-06;-0.005360257421006985
9.80475e-06;-0.0053716259422300645
9.80500e-06;-0.005375412566772344
9.80525e-06;-0.0053791991913146485
9.80550e-06;-0.005382985815856952
9.80575e-06;-0.005386772440399232
9.80600e-06;-0.005390559064941536
9.80625e-06;-0.00539434568948384
9.80650e-06;-0.005398132314026119
9.80675e-06;-0.005401918938568424
9.80700e-06;-0.0054057055631107276
9.80725e-06;-0.005409492187653007
9.80750e-06;-0.005409813747965113
9.80775e-06;-0.0054082453076172024
9.80800e-06;-0.0054066768672693015
9.80825e-06;-0.005405108426921391
9.80850e-06;-0.00540353998657348
9.80875e-06;-0.00540197154622558
9.80900e-06;-0.005400403105877668
9.80925e-06;-0.005398834665529758
9.80950e-06;-0.005397266225181857
9.80975e-06;-0.005395697784833947
9.81000e-06;-0.005392929941226867
9.81025e-06;-0.005389507889558721
9.81050e-06;-0.005386085837890551
9.81075e-06;-0.005382663786222382
9.81100e-06;-0.0053792417345542125
9.81125e-06;-0.005375819682886066
9.81150e-06;-0.005372397631217897
9.81175e-06;-0.0053689755795497274
9.81200e-06;-0.005365553527881581
9.81225e-06;-0.005362131476213412
9.81250e-06;-0.005358969497130551
9.81275e-06;-0.005355949373241522
9.81300e-06;-0.005352929249352474
9.81325e-06;-0.005348855436773986
9.81350e-06;-0.005344206895363254
9.81375e-06;-0.00533955835395249
9.81400e-06;-0.005333176966201178
9.81425e-06;-0.005325850406727157
9.81450e-06;-0.005318523847253086
9.81475e-06;-0.005309654167673764
9.81500e-06;-0.005299942801527027
9.81525e-06;-0.005290231435380224
9.81550e-06;-0.00527772533851224
9.81575e-06;-0.005263694870793496
9.81600e-06;-0.005249664403074656
9.81625e-06;-0.005235633935355817
9.81650e-06;-0.005221603467637072
9.81675e-06;-0.0052046933594251145
9.81700e-06;-0.005186212566783475
9.81725e-06;-0.005167731774141961
9.81750e-06;-0.0051492509815003204
9.81775e-06;-0.005130770188858681
9.81800e-06;-0.0051103826525745865
9.81825e-06;-0.005088955093218692
9.81850e-06;-0.005067527533862797
9.81875e-06;-0.005045457376067008
9.81900e-06;-0.005023036716405715
9.81925e-06;-0.005000240772425696
9.81950e-06;-0.004977240131631061
9.81975e-06;-0.0049540529785978915
9.82000e-06;-0.004930764093466413
9.82025e-06;-0.004907548577850478
9.82050e-06;-0.004884538501628787
9.82075e-06;-0.004861869344800277
9.82100e-06;-0.004839647579286392
9.82125e-06;-0.004817938150963001
9.82150e-06;-0.004796811977440066
9.82175e-06;-0.00477638251592001
9.82200e-06;-0.004757711980998683
9.82225e-06;-0.0047398578620128935
9.82250e-06;-0.004722003743027104
9.82275e-06;-0.004704667598807196
9.82300e-06;-0.00469033560875252
9.82325e-06;-0.004676003618697845
9.82350e-06;-0.004661671628643267
9.82375e-06;-0.004649362846055832
9.82400e-06;-0.004638157611107505
9.82425e-06;-0.004626952376159255
9.82450e-06;-0.004615747141210928
9.82475e-06;-0.004604541906262602
9.82500e-06;-0.00459333667131435
9.82525e-06;-0.004582131436366025
9.82550e-06;-0.004570926201417698
9.82575e-06;-0.00456018721293065
9.82600e-06;-0.0045521523643773576
9.82625e-06;-0.004544117515824064
9.82650e-06;-0.004536082667270826
9.82675e-06;-0.004528047818717533
9.82700e-06;-0.00452001297016424
9.82725e-06;-0.0045119781216110015
9.82750e-06;-0.004503943273057709
9.82775e-06;-0.004495908424504416
9.82800e-06;-0.004488987739767059
9.82825e-06;-0.0044826747696950706
9.82850e-06;-0.0044763617996230395
9.82875e-06;-0.0044700488295510085
9.82900e-06;-0.004463735859479021
9.82925e-06;-0.00445742288940699
9.82950e-06;-0.004451109919334959
9.82975e-06;-0.00444479694926297
9.83000e-06;-0.004439390137904599
9.83025e-06;-0.004434477585946485
9.83050e-06;-0.004429565033988405
9.83075e-06;-0.004424652482030291
9.83100e-06;-0.004419739930072177
9.83125e-06;-0.004414827378114096
9.83150e-06;-0.004409914826155982
9.83175e-06;-0.004405002274197868
9.83200e-06;-0.004400554232627385
9.83225e-06;-0.004396480080622826
9.83250e-06;-0.004392608765303022
9.83275e-06;-0.0043889704177214805
9.83300e-06;-0.004385651569048263
9.83325e-06;-0.0043828257195700805
9.83350e-06;-0.004380645030622067
9.83375e-06;-0.004379377682947242
9.83400e-06;-0.0043784759298643675
9.83425e-06;-0.004378427342215683
9.83450e-06;-0.004378844109067823
9.83475e-06;-0.004380088580475042
9.83500e-06;-0.004381784518883412
9.83525e-06;-0.00438469755761923
9.83550e-06;-0.004388274457187478
9.83575e-06;-0.004391851356755702
9.83600e-06;-0.0043973309422954705
9.83625e-06;-0.00440384833767263
9.83650e-06;-0.004410365733049789
9.83675e-06;-0.004416883128426904
9.83700e-06;-0.004423400523804063
9.83725e-06;-0.004430366485687386
9.83750e-06;-0.004439934047162034
9.83775e-06;-0.004449501608636748
9.83800e-06;-0.004459069170111462
9.83825e-06;-0.00446863673158611
9.83850e-06;-0.004478204293060823
9.83875e-06;-0.004488736199598317
9.83900e-06;-0.00449979410296751
9.83925e-06;-0.0045108520063367775
9.83950e-06;-0.004522241353102676
9.83975e-06;-0.004533811483887904
9.84000e-06;-0.00454538161467321
9.84025e-06;-0.004556892286521909
9.84050e-06;-0.004568370526813109
9.84075e-06;-0.004579848767104387
9.84100e-06;-0.004590874135191005
9.84125e-06;-0.004601652486567386
9.84150e-06;-0.00461243083794384
9.84175e-06;-0.004622035243592769
9.84200e-06;-0.0046309993268536685
9.84225e-06;-0.0046399634101146284
9.84250e-06;-0.004648927493375588
9.84275e-06;-0.0046576330512324805
9.84300e-06;-0.004664839211393711
9.84325e-06;-0.004672045371554941
9.84350e-06;-0.004679251531716122
9.84375e-06;-0.004686457691877353
9.84400e-06;-0.004693996897650747
9.84425e-06;-0.00470171776136338
9.84450e-06;-0.004709438625076065
9.84475e-06;-0.004717159488788751
9.84500e-06;-0.004724880352501436
9.84525e-06;-0.0047326012162140696
9.84550e-06;-0.004740322079926754
9.84575e-06;-0.004749007400878958
9.84600e-06;-0.004758218779849212
9.84625e-06;-0.004767430158819528
9.84650e-06;-0.004776641537789845
9.84675e-06;-0.004785852916760099
9.84700e-06;-0.004795064295730416
9.84725e-06;-0.004804275674700732
9.84750e-06;-0.004814488348476552
9.84775e-06;-0.004825247173123025
9.84800e-06;-0.004836005997769498
9.84825e-06;-0.0048467648224158975
9.84850e-06;-0.004857523647062371
9.84875e-06;-0.004868282471708844
9.84900e-06;-0.004879041296355244
9.84925e-06;-0.004889793829831362
9.84950e-06;-0.004900509875727575
9.84975e-06;-0.004911225921623715
9.85000e-06;-0.004921941967519927
9.85025e-06;-0.004932658013416139
9.85050e-06;-0.0049433740593122786
9.85075e-06;-0.004954090105208491
9.85100e-06;-0.004964806151104703
9.85125e-06;-0.004974663296591706
9.85150e-06;-0.0049840519594664045
9.85175e-06;-0.004993440622341103
9.85200e-06;-0.005002120598971432
9.85225e-06;-0.005010414026498383
9.85250e-06;-0.005017915605619706
9.85275e-06;-0.005024985275283563
9.85300e-06;-0.005030489829053924
9.85325e-06;-0.005035140698771135
9.85350e-06;-0.005039791568488346
9.85375e-06;-0.005041927285012531
9.85400e-06;-0.005042691124744147
9.85425e-06;-0.0050434549644757624
9.85450e-06;-0.00504171389562845
9.85475e-06;-0.00503860653785823
9.85500e-06;-0.005035499180088012
9.85525e-06;-0.005028793612542205
9.85550e-06;-0.005020125420811229
9.85575e-06;-0.005011457229080253
9.85600e-06;-0.005002789037349335
9.85625e-06;-0.0049941208456183595
9.85650e-06;-0.00498145586836182
9.85675e-06;-0.004966610865919322
9.85700e-06;-0.004951765863476724
9.85725e-06;-0.004936920861034125
9.85750e-06;-0.004922075858591627
9.85775e-06;-0.004904609058532314
9.85800e-06;-0.004885712213052508
9.85825e-06;-0.00486681536757283
9.85850e-06;-0.004846768011757397
9.85875e-06;-0.00482609311626222
9.85900e-06;-0.004804774015329153
9.85925e-06;-0.004783103536001713
9.85950e-06;-0.0047610645518797404
9.85975e-06;-0.00473867421402091
9.86000e-06;-0.0047161343720287015
9.86025e-06;-0.004693572781445094
9.86050e-06;-0.004671116732150785
9.86075e-06;-0.004648893048364724
9.86100e-06;-0.004627018145343137
9.86125e-06;-0.004605594112419365
9.86150e-06;-0.004584728216104061
9.86175e-06;-0.004564549417286547
9.86200e-06;-0.004545196756956711
9.86225e-06;-0.004527186272411645
9.86250e-06;-0.004509739340960086
9.86275e-06;-0.004493888610775048
9.86300e-06;-0.0044789085199931035
9.86325e-06;-0.004465318532947351
9.86350e-06;-0.004452486770514299
9.86375e-06;-0.004439655008081334
9.86400e-06;-0.004428307208128216
9.86425e-06;-0.004417768827535155
9.86450e-06;-0.0044072304469421645
9.86475e-06;-0.004399156684081273
9.86500e-06;-0.004392427233717894
9.86525e-06;-0.00438569778335456
9.86550e-06;-0.004378968332991181
9.86575e-06;-0.004372238882627802
9.86600e-06;-0.004365509432264468
9.86625e-06;-0.004359349505953041
9.86650e-06;-0.004356492709775507
9.86675e-06;-0.004353635913597992
9.86700e-06;-0.004350779117420459
9.86725e-06;-0.004347922321242924
9.86750e-06;-0.00434506552506541
9.86775e-06;-0.004342208728887876
9.86800e-06;-0.004341115188401948
9.86825e-06;-0.004340983406257641
9.86850e-06;-0.004340851624113332
9.86875e-06;-0.004340719841969024
9.86900e-06;-0.004340588059824717
9.86925e-06;-0.0043404562776804085
9.86950e-06;-0.0043403244955361
9.86975e-06;-0.004341108358058108
9.87000e-06;-0.00434239165404289
9.87025e-06;-0.004343674950027672
9.87050e-06;-0.004344958246012444
9.87075e-06;-0.0043462415419972256
9.87100e-06;-0.004347524837982008
9.87125e-06;-0.004348808133966789
9.87150e-06;-0.004350138477696027
9.87175e-06;-0.004351494483364667
9.87200e-06;-0.004352850489033307
9.87225e-06;-0.0043540669871632255
9.87250e-06;-0.004355119709811856
9.87275e-06;-0.004356039938147667
9.87300e-06;-0.004357030290884893
9.87325e-06;-0.00435861650099773
9.87350e-06;-0.004361281348644907
9.87375e-06;-0.0043651688859023315
9.87400e-06;-0.0043705709883542655
9.87425e-06;-0.004376563350629985
9.87450e-06;-0.00438382408652163
9.87475e-06;-0.004391776649986271
9.87500e-06;-0.004401606388323811
9.87525e-06;-0.004412460021608306
9.87550e-06;-0.004423313654892875
9.87575e-06;-0.004437636897914393
9.87600e-06;-0.004453852620922201
9.87625e-06;-0.0044700683439301185
9.87650e-06;-0.004486284066938036
9.87675e-06;-0.004502499789945843
9.87700e-06;-0.004522203683520841
9.87725e-06;-0.004543810180987405
9.87750e-06;-0.004565416678453823
9.87775e-06;-0.004587023175920387
9.87800e-06;-0.004608629673386952
9.87825e-06;-0.004632772687079164
9.87850e-06;-0.004658299229916584
9.87875e-06;-0.004683825772754006
9.87900e-06;-0.004709352315591254
9.87925e-06;-0.004734878858428675
9.87950e-06;-0.0047604054012660955
9.87975e-06;-0.004786324553872254
9.88000e-06;-0.00481245785336686
9.88025e-06;-0.004838591152861643
9.88050e-06;-0.004864724452356427
9.88075e-06;-0.004890857751851032
9.88100e-06;-0.0049169910513458155
9.88125e-06;-0.004941544621306842
9.88150e-06;-0.004965236536282325
9.88175e-06;-0.004988928451257968
9.88200e-06;-0.005010937537716091
9.88225e-06;-0.005032028734401978
9.88250e-06;-0.005051242906871395
9.88275e-06;-0.005069433266568141
9.88300e-06;-0.005084738612373359
9.88325e-06;-0.005098470342854348
9.88350e-06;-0.005112202073335337
9.88375e-06;-0.005122189096060623
9.88400e-06;-0.005130133588062951
9.88425e-06;-0.00513807808006528
9.88450e-06;-0.0051420837188315815
9.88475e-06;-0.005143940931265802
9.88500e-06;-0.005145798143700023
9.88525e-06;-0.005142457801403328
9.88550e-06;-0.005136282480807817
9.88575e-06;-0.005130107160212306
9.88600e-06;-0.005123931839616836
9.88625e-06;-0.005117756519021325
9.88650e-06;-0.005105851988399531
9.88675e-06;-0.005090822490955003
9.88700e-06;-0.005075792993510374
9.88725e-06;-0.005060763496065744
9.88750e-06;-0.005045733998621216
9.88775e-06;-0.0050270384158121895
9.88800e-06;-0.005006343186440801
9.88825e-06;-0.004985647957069412
9.88850e-06;-0.0049629880718563765
9.88875e-06;-0.004939256575671312
9.88900e-06;-0.004915525079486248
9.88925e-06;-0.004890677974960134
9.88950e-06;-0.004865222367858813
9.88975e-06;-0.004839372493771813
9.89000e-06;-0.004813170773147151
9.89025e-06;-0.004786852254321948
9.89050e-06;-0.004760563456252776
9.89075e-06;-0.004734450158308776
9.89100e-06;-0.0047086615638695555
9.89125e-06;-0.004683355039097238
9.89150e-06;-0.004658694852882254
9.89175e-06;-0.004634849355489085
9.89200e-06;-0.004614096831126937
9.89225e-06;-0.00459486300209568
9.89250e-06;-0.0045756291730642915
9.89275e-06;-0.004556395344032904
9.89300e-06;-0.004537161515001646
9.89325e-06;-0.004517927685970259
9.89350e-06;-0.0045021738493905795
9.89375e-06;-0.004488318155994493
9.89400e-06;-0.004474462462598312
9.89425e-06;-0.0044606067692021314
9.89450e-06;-0.004446751075806044
9.89475e-06;-0.004432895382409863
9.89500e-06;-0.0044190396890136825
9.89525e-06;-0.004405183995617595
9.89550e-06;-0.004393690288389143
9.89575e-06;-0.004383484913824167
9.89600e-06;-0.004373279539259261
9.89625e-06;-0.004363074164694286
