Time(s);Current(A)
7.75000e-06;0.0006488140111491141
7.75025e-06;0.0006566196662386315
7.75050e-06;0.0006644253213280961
7.75075e-06;0.0006722309764176135
7.75100e-06;0.000680036631507131
7.75125e-06;0.0006878422865965956
7.75150e-06;0.000695647941686113
7.75175e-06;0.0007035702949007958
7.75200e-06;0.0007119171881044944
7.75225e-06;0.0007202640813082496
7.75250e-06;0.0007286109745120048
7.75275e-06;0.00073695786771576
7.75300e-06;0.0007453047609194588
7.75325e-06;0.000753651654123214
7.75350e-06;0.0007619985473269692
7.75375e-06;0.0007715456292218086
7.75400e-06;0.0007815696694607404
7.75425e-06;0.0007915937096996721
7.75450e-06;0.000801617749938536
7.75475e-06;0.0008116417901774677
7.75500e-06;0.0008216658304163996
7.75525e-06;0.0008316898706552634
7.75550e-06;0.0008417139108941952
7.75575e-06;0.0008517379511331269
7.75600e-06;0.0008617619913719907
7.75625e-06;0.0008720683302867837
7.75650e-06;0.0008824868554852583
7.75675e-06;0.0008929053806836622
7.75700e-06;0.0009033239058821367
7.75725e-06;0.0009137424310806113
7.75750e-06;0.0009241609562790152
7.75775e-06;0.0009345794814774897
7.75800e-06;0.0009449980066759642
7.75825e-06;0.0009554165318743682
7.75850e-06;0.0009658350570728427
7.75875e-06;0.000974557720003693
7.75900e-06;0.0009826064425241092
7.75925e-06;0.0009906551650445798
7.75950e-06;0.0009987038875650504
7.75975e-06;0.0010067526100854664
7.76000e-06;0.001014801332605937
7.76025e-06;0.0010228500551264076
7.76050e-06;0.0010304762257928814
7.76075e-06;0.0010379344731702856
7.76100e-06;0.0010453927205476897
7.76125e-06;0.0010528509679250937
7.76150e-06;0.0010603092153024475
7.76175e-06;0.0010677674626798515
7.76200e-06;0.0010752257100572558
7.76225e-06;0.0010842506513216129
7.76250e-06;0.0010938982011206167
7.76275e-06;0.0011035457509196204
7.76300e-06;0.0011131933007185587
7.76325e-06;0.0011228408505175626
7.76350e-06;0.0011327106265507463
7.76375e-06;0.0011442489108632267
7.76400e-06;0.0011557871951757852
7.76425e-06;0.0011673254794883439
7.76450e-06;0.0011788637638008243
7.76475e-06;0.0011904020481133828
7.76500e-06;0.001199117325091583
7.76525e-06;0.0012138078642651073
7.76550e-06;0.001229095656167277
7.76575e-06;0.00124391037382668
7.76600e-06;0.0012587250914859827
7.76625e-06;0.0012735398091453856
7.76650e-06;0.0012883545268047886
7.76675e-06;0.0013031692444640912
7.76700e-06;0.001317806360947492
7.76725e-06;0.0013322292092902929
7.76750e-06;0.0013466520576329956
7.76775e-06;0.0013610749059757964
7.76800e-06;0.001375497754318597
7.76825e-06;0.0013899206026613
7.76850e-06;0.0014031014071492589
7.76875e-06;0.0014145786714150285
7.76900e-06;0.0014260559356807203
7.76925e-06;0.0014375331999464899
7.76950e-06;0.0014490104642122593
7.76975e-06;0.0014604877284780289
7.77000e-06;0.0014719649927437206
7.77025e-06;0.00148344225700949
7.77050e-06;0.001490401724849782
7.77075e-06;0.0014928355871343842
7.77100e-06;0.001495269449419003
7.77125e-06;0.0014977033117036216
7.77150e-06;0.001500137173988224
7.77175e-06;0.0015025710362728429
7.77200e-06;0.0015050048985574616
7.77225e-06;0.0015074387608420639
7.77250e-06;0.0015026651781164474
7.77275e-06;0.0014926180427896473
7.77300e-06;0.001482570907462915
7.77325e-06;0.001472523772136115
7.77350e-06;0.0014624766368093146
7.77375e-06;0.0014524295014825825
7.77400e-06;0.0014423823661557822
7.77425e-06;0.001432335230828982
7.77450e-06;0.0014215217097636771
7.77475e-06;0.0014015823399677236
7.77500e-06;0.0013816429701717702
7.77525e-06;0.0013617036003759518
7.77550e-06;0.001341764230579998
7.77575e-06;0.0013218248607840446
7.77600e-06;0.0013018854909882262
7.77625e-06;0.0012819461211922728
7.77650e-06;0.001262006751396319
7.77675e-06;0.001240086449297608
7.77700e-06;0.0012167167361126828
7.77725e-06;0.0011933470229277575
7.77750e-06;0.0011699773097429908
7.77775e-06;0.0011466075965580655
7.77800e-06;0.0011232378833731403
7.77825e-06;0.0011000870380520843
7.77850e-06;0.0010795423933921222
7.77875e-06;0.0010589977487320207
7.77900e-06;0.0010384531040719192
7.77925e-06;0.001017908459411957
7.77950e-06;0.0009973638147518554
7.77975e-06;0.000976819170091754
7.78000e-06;0.0009595413193338777
7.78025e-06;0.0009446537205250228
7.78050e-06;0.000929766121716168
7.78075e-06;0.0009180079734007722
7.78100e-06;0.0009085395854331757
7.78125e-06;0.0008990711974655792
7.78150e-06;0.0008929576040906974
7.78175e-06;0.0008892986511231067
7.78200e-06;0.000885639698155516
7.78225e-06;0.0008854242791037916
7.78250e-06;0.0008877284293610564
7.78275e-06;0.0008900325796183212
7.78300e-06;0.0008957458212813944
7.78325e-06;0.0009039534313136237
7.78350e-06;0.000912161041345853
7.78375e-06;0.0009234422924561584
7.78400e-06;0.0009369724692099575
7.78425e-06;0.0009505026459637566
7.78450e-06;0.0009667516745699558
7.78475e-06;0.0009849900361844017
7.78500e-06;0.0010032283977988476
7.78525e-06;0.0010245688899854707
7.78550e-06;0.0010481791530453893
7.78575e-06;0.001071789416105308
7.78600e-06;0.0010953996791650668
7.78625e-06;0.0011190099422249853
7.78650e-06;0.001142620205284904
7.78675e-06;0.0011664487541297823
7.78700e-06;0.0011928765724485754
7.78725e-06;0.0012193043907675477
7.78750e-06;0.0012457322090865198
7.78775e-06;0.0012721600274053129
7.78800e-06;0.0012985878457242852
7.78825e-06;0.0013250156640432574
7.78850e-06;0.0013495593360606849
7.78875e-06;0.0013727244134974265
7.78900e-06;0.0013958894909341679
7.78925e-06;0.0014190545683707525
7.78950e-06;0.001442219645807494
7.78975e-06;0.0014653847232442355
7.79000e-06;0.0014826143948634398
7.79025e-06;0.0014955012411462696
7.79050e-06;0.0015083880874290994
7.79075e-06;0.001521274933711842
7.79100e-06;0.0015341617799946717
7.79125e-06;0.0015470486262775017
7.79150e-06;0.0015531847742118524
7.79175e-06;0.0015543815625253434
7.79200e-06;0.0015555783508388343
7.79225e-06;0.0015520146106006952
7.79250e-06;0.0015449676807296208
7.79275e-06;0.0015379207508585465
7.79300e-06;0.001525979847317399
7.79325e-06;0.001510458114847999
7.79350e-06;0.0014949363823785994
7.79375e-06;0.0014750860532903149
7.79400e-06;0.0014520685710791223
7.79425e-06;0.00142905108886793
7.79450e-06;0.0014021634741318168
7.79475e-06;0.001372444155868584
7.79500e-06;0.0013427248376053514
7.79525e-06;0.001308910022345982
7.79550e-06;0.0012720986085948242
7.79575e-06;0.001235287194843417
7.79600e-06;0.0011984757810920101
7.79625e-06;0.0011616643673408524
7.79650e-06;0.0011245146480049824
7.79675e-06;0.0010833365061150581
7.79700e-06;0.001042158364225413
7.79725e-06;0.0010009802223354884
7.79750e-06;0.0009598020804455641
7.79775e-06;0.0009186239385559188
7.79800e-06;0.0008783853198355968
7.79825e-06;0.0008388341326324345
7.79850e-06;0.0007992829454295403
7.79875e-06;0.0007597317582263781
7.79900e-06;0.0007206992323506385
7.79925e-06;0.0006878427410600005
7.79950e-06;0.0006549862497691398
7.79975e-06;0.0006221297584782791
7.80000e-06;0.000589273267187641
7.80025e-06;0.0005608145731276652
7.80050e-06;0.0005355736649836233
7.80075e-06;0.0005130056423945981
7.80100e-06;0.0004923933201349038
7.80125e-06;0.0004737998342826719
7.80150e-06;0.00045809854931118914
7.80175e-06;0.00044489963992746276
7.80200e-06;0.00043429262909761094
7.80225e-06;0.00042632098905855966
7.80250e-06;0.00042090004263656343
7.80275e-06;0.00041785609951451683
7.80300e-06;0.00041706330131873907
7.80325e-06;0.00041847398917293165
7.80350e-06;0.0004220644692810725
7.80375e-06;0.00042842377200612655
7.80400e-06;0.00043613816427419926
7.80425e-06;0.0004461885772064782
7.80450e-06;0.0004579482127331651
7.80475e-06;0.00047166078563578803
7.80500e-06;0.0004868022862615474
7.80525e-06;0.0005036172794289764
7.80550e-06;0.0005216567357646819
7.80575e-06;0.0005414625920243842
7.80600e-06;0.0005625608900450451
7.80625e-06;0.000583659188065563
7.80650e-06;0.0006064420139004968
7.80675e-06;0.0006304573772063039
7.80700e-06;0.0006544727405119483
7.80725e-06;0.0006784881038177554
7.80750e-06;0.0007025034671235625
7.80775e-06;0.0007266590049463339
7.80800e-06;0.0007509171058396823
7.80825e-06;0.0007751752067330308
7.80850e-06;0.0007994333076262149
7.80875e-06;0.0008236914085195633
7.80900e-06;0.0008463680447034513
7.80925e-06;0.0008678875527608899
7.80950e-06;0.0008894070608184743
7.80975e-06;0.0009087681641129237
7.81000e-06;0.0009265500030427047
7.81025e-06;0.0009443318419726062
7.81050e-06;0.0009629815111463946
7.81075e-06;0.0009822661554656294
7.81100e-06;0.0010015507997849949
7.81125e-06;0.0010242741264879236
7.81150e-06;0.0010495134727262266
7.81175e-06;0.0010747528189647007
7.81200e-06;0.0011026088771975597
7.81225e-06;0.0011323795346177181
7.81250e-06;0.0011621501920376749
7.81275e-06;0.0011964477201997425
7.81300e-06;0.0012340574749508686
7.81325e-06;0.0012716672297017396
7.81350e-06;0.0013133613238430685
7.81375e-06;0.0013580438526666827
7.81400e-06;0.001402726381489994
7.81425e-06;0.0014506380356818726
7.81450e-06;0.0015009123804639072
7.81475e-06;0.001551186725245601
7.81500e-06;0.0016059709660125054
7.81525e-06;0.0016640550132567464
7.81550e-06;0.0017221390605005936
7.81575e-06;0.0017802231077448344
7.81600e-06;0.0018383071549890754
7.81625e-06;0.0018963912022329226
7.81650e-06;0.0019565036376863855
7.81675e-06;0.002018100206825896
7.81700e-06;0.0020796967759649887
7.81725e-06;0.002141293345104499
7.81750e-06;0.0022028899142440095
7.81775e-06;0.0022644864833831027
7.81800e-06;0.0023224535909373433
7.81825e-06;0.0023777650893844495
7.81850e-06;0.002433076587831181
7.81875e-06;0.0024883880862782877
7.81900e-06;0.002543699584725394
7.81925e-06;0.0025990110831721255
7.81950e-06;0.0026529042214593385
7.81975e-06;0.0026899080314753466
7.82000e-06;0.0027269118414911045
7.82025e-06;0.002763915651507113
7.82050e-06;0.0028009194615231216
7.82075e-06;0.00283792327153913
7.82100e-06;0.002874927081554888
7.82125e-06;0.0029016816135225987
7.82150e-06;0.0029209369405834174
7.82175e-06;0.0029401922676441056
7.82200e-06;0.0029524723253675908
7.82225e-06;0.002959648709076537
7.82250e-06;0.0029668250927854353
7.82275e-06;0.002962501201958185
7.82300e-06;0.002949762775509397
7.82325e-06;0.0029370243490606956
7.82350e-06;0.0029242859226119074
7.82375e-06;0.0029115474961631193
7.82400e-06;0.0028988090697144174
7.82425e-06;0.0028860706432656293
7.82450e-06;0.002873332216816841
7.82475e-06;0.0028480206047551567
7.82500e-06;0.002813509428118685
7.82525e-06;0.002778998251482213
7.82550e-06;0.0027444870748459752
7.82575e-06;0.0027099758982095036
7.82600e-06;0.002675464721573032
7.82625e-06;0.0026409535449367937
7.82650e-06;0.002606442368300322
7.82675e-06;0.0025670717609149324
7.82700e-06;0.002524145599007037
7.82725e-06;0.0024812194370988504
7.82750e-06;0.002438293275190664
7.82775e-06;0.0023953671132827684
7.82800e-06;0.002352440951374582
7.82825e-06;0.002309856321932134
7.82850e-06;0.002271338539611052
7.82875e-06;0.0022328207572897087
7.82900e-06;0.0021943029749683656
7.82925e-06;0.002155785192647023
7.82950e-06;0.0021172674103259407
7.82975e-06;0.0020787496280045975
7.83000e-06;0.002045718459438782
7.83025e-06;0.0020167017434630703
7.83050e-06;0.001987685027487162
7.83075e-06;0.001958668311511254
7.83100e-06;0.0019296515955355426
7.83125e-06;0.0019006348795596343
7.83150e-06;0.0018715636354987588
7.83175e-06;0.001841843090397336
7.83200e-06;0.0018121225452957118
7.83225e-06;0.0017824020001940876
7.83250e-06;0.0017526814550926646
7.83275e-06;0.0017229609099910404
7.83300e-06;0.0016932403648894161
7.83325e-06;0.0016605991221761564
7.83350e-06;0.0016258208596876124
7.83375e-06;0.0015910425971990684
7.83400e-06;0.00155626433471076
7.83425e-06;0.0015214860722222161
7.83450e-06;0.0014867078097336721
7.83475e-06;0.0014519295472453636
7.83500e-06;0.0014171512847568199
7.83525e-06;0.0013803175556808633
7.83550e-06;0.0013419798801758054
7.83575e-06;0.0013036422046704876
7.83600e-06;0.0012653045291651699
7.83625e-06;0.001226966853660112
7.83650e-06;0.0011886291781547942
7.83675e-06;0.0011502915026494764
7.83700e-06;0.0011119538271444184
7.83725e-06;0.0010743126231635039
7.83750e-06;0.0010371810143610175
7.83775e-06;0.0010000494055585308
7.83800e-06;0.0009629177967562959
7.83825e-06;0.0009257861879538093
7.83850e-06;0.0008891201368418747
7.83875e-06;0.0008579977811201947
7.83900e-06;0.0008268754253983037
7.83925e-06;0.0007957530696764128
7.83950e-06;0.0007646307139547328
7.83975e-06;0.0007335083582328418
7.84000e-06;0.0007063508855496049
7.84025e-06;0.0006820944435747568
7.84050e-06;0.0006606753742280232
7.84075e-06;0.0006413323573260384
7.84100e-06;0.0006249772505745313
7.84125e-06;0.000610808341754975
7.84150e-06;0.0005997302840618416
7.84175e-06;0.0005909137442862913
7.84200e-06;0.0005852877865354404
7.84225e-06;0.0005819963179337555
7.84250e-06;0.0005819077002405333
7.84275e-06;0.0005841625486090069
7.84300e-06;0.0005894756431254163
7.84325e-06;0.0005970263991067466
7.84350e-06;0.0006074609477941021
7.84375e-06;0.0006200055136282071
7.84400e-06;0.0006352574355368303
7.84425e-06;0.0006524902792115495
7.84450e-06;0.0006721993029402736
7.84475e-06;0.0006937201012675291
7.84500e-06;0.0007178517460534397
7.84525e-06;0.0007438936983256959
7.84550e-06;0.0007699356505977757
7.84575e-06;0.0007984136765594703
7.84600e-06;0.000828674132043662
7.84625e-06;0.0008589345875278535
7.84650e-06;0.0008910537060605083
7.84675e-06;0.0009245327735574637
7.84700e-06;0.0009580118410544191
7.84725e-06;0.0009914909085511475
7.84750e-06;0.0010249699760481032
7.84775e-06;0.0010583795989426578
7.84800e-06;0.0010909623002109583
7.84825e-06;0.0011235450014794794
7.84850e-06;0.0011561277027480007
7.84875e-06;0.0011887104040163013
7.84900e-06;0.0012212931052848223
7.84925e-06;0.0012510398273526846
7.84950e-06;0.001278711516520116
7.84975e-06;0.0013063832056877348
7.85000e-06;0.0013306819490401995
7.85025e-06;0.0013525127710707547
7.85050e-06;0.001374343593101458
7.85075e-06;0.0013928401919307443
7.85100e-06;0.0014088972020497954
7.85125e-06;0.0014249542121689556
7.85150e-06;0.001437544562369753
7.85175e-06;0.0014475984223933027
7.85200e-06;0.0014576522824169204
7.85225e-06;0.001464089499620907
7.85250e-06;0.0014678804869659695
7.85275e-06;0.0014716714743110576
7.85300e-06;0.0014698605509924207
7.85325e-06;0.0014639508144913976
7.85350e-06;0.0014580410779903347
7.85375e-06;0.0014521313414892717
7.85400e-06;0.0014462216049882487
7.85425e-06;0.0014403118684871857
7.85450e-06;0.0014344021319861228
7.85475e-06;0.0014284923954850598
7.85500e-06;0.0014166204941197154
7.85525e-06;0.0014003861883160377
7.85550e-06;0.0013841518825123598
7.85575e-06;0.001367917576708792
7.85600e-06;0.0013516832709051143
7.85625e-06;0.0013354489651014364
7.85650e-06;0.0013192146592978687
7.85675e-06;0.001302980353494191
7.85700e-06;0.0012847242345610267
7.85725e-06;0.001264988792803078
7.85750e-06;0.0012452533510449956
7.85775e-06;0.001225517909286913
7.85800e-06;0.0012057824675289642
7.85825e-06;0.001186047025770882
7.85850e-06;0.0011665236854695768
7.85875e-06;0.0011495259738799888
7.85900e-06;0.0011325282622902855
7.85925e-06;0.0011155305507005824
7.85950e-06;0.0010985328391109944
7.85975e-06;0.001081535127521291
7.86000e-06;0.001064537415931588
7.86025e-06;0.0010487529275781209
7.86050e-06;0.0010338561319588417
7.86075e-06;0.0010189593363395626
7.86100e-06;0.0010040625407203843
7.86125e-06;0.0009863140363669139
7.86150e-06;0.0009664789901072274
7.86175e-06;0.0009466439438476755
7.86200e-06;0.0009268088975879892
7.86225e-06;0.0009045594750761024
7.86250e-06;0.0008805434986497631
7.86275e-06;0.000856527522223261
7.86300e-06;0.0008291176028241163
7.86325e-06;0.0007992243988751814
7.86350e-06;0.0007693311949264492
7.86375e-06;0.0007369362367442149
7.86400e-06;0.0007027107918139197
7.86425e-06;0.0006684853468838565
7.86450e-06;0.0006322942139035778
7.86475e-06;0.0005946648237681704
7.86500e-06;0.0005549664572687325
7.86525e-06;0.0005137542594875024
7.86550e-06;0.0004725420617062724
7.86575e-06;0.0004299727069035776
7.86600e-06;0.00038641034570913586
7.86625e-06;0.0003428479845146941
7.86650e-06;0.0002986050823485181
7.86675e-06;0.0002538642410902009
7.86700e-06;0.00020909814004141353
7.86725e-06;0.000164031254391561
7.86750e-06;0.00011896436874140306
7.86775e-06;7.430165919513947e-05
7.86800e-06;3.0405420520634246e-05
7.86825e-06;-1.2558569580804262e-05
7.86850e-06;-5.446260049103268e-05
7.86875e-06;-9.522389696190824e-05
7.86900e-06;-0.0001346744679893371
7.86925e-06;-0.00017255457314924386
7.86950e-06;-0.00020857907606583519
7.86975e-06;-0.00024246287172265363
7.87000e-06;-0.0002739212012786628
7.87025e-06;-0.0003027809236215524
7.87050e-06;-0.00032916968448031805
7.87075e-06;-0.00035339685994194525
7.87100e-06;-0.0003756164702363586
7.87125e-06;-0.0003957734738387039
7.87150e-06;-0.0004137514017288844
7.87175e-06;-0.0004294338094812427
7.87200e-06;-0.00044270445435031815
7.87225e-06;-0.00045287798176069143
7.87250e-06;-0.0004615461793124336
7.87275e-06;-0.00046791133933113003
7.87300e-06;-0.00047259140989157144
7.87325e-06;-0.00047510217375105866
7.87350e-06;-0.00047602569649910864
7.87375e-06;-0.00047475501343502847
7.87400e-06;-0.00047187887104588745
7.87425e-06;-0.0004669144974282372
7.87450e-06;-0.00046042220410482505
7.87475e-06;-0.00045227635097553086
7.87500e-06;-0.00044292061908505744
7.87525e-06;-0.00043213853703032184
7.87550e-06;-0.0004203128212565829
7.87575e-06;-0.0004071885954059817
7.87600e-06;-0.00039311427403540983
7.87625e-06;-0.0003777684649442487
7.87650e-06;-0.00036149233208569026
7.87675e-06;-0.00034521619922702146
7.87700e-06;-0.0003280846884818972
7.87725e-06;-0.0003103273137469341
7.87750e-06;-0.00029256993901185065
7.87775e-06;-0.0002748125642767672
7.87800e-06;-0.00025703910553950555
7.87825e-06;-0.00023925387843867505
7.87850e-06;-0.00022146865133784453
7.87875e-06;-0.00020368342423713454
7.87900e-06;-0.00018673532996021276
7.87925e-06;-0.00017039975010251692
7.87950e-06;-0.00015476209745750858
7.87975e-06;-0.00014019470904370987
7.88000e-06;-0.00012666651904129003
7.88025e-06;-0.00011391408547304168
7.88050e-06;-0.00010139211876337119
7.88075e-06;-8.790615393051415e-05
7.88100e-06;-7.275859107104939e-05
7.88125e-06;-5.6064874317151485e-05
7.88150e-06;-3.8015104637047204e-05
7.88175e-06;-1.879937495476781e-05
7.88200e-06;1.3926303413039856e-06
7.88225e-06;2.253811354349403e-05
7.88250e-06;4.5034250140227666e-05
7.88275e-06;6.945589264402032e-05
7.88300e-06;9.6037555971576e-05
7.88325e-06;0.0001246479726444512
7.88350e-06;0.00015505462560259074
7.88375e-06;0.00018702500321750027
7.88400e-06;0.00022032688603025084
7.88425e-06;0.0002548325919807369
7.88450e-06;0.00029067750649279175
7.88475e-06;0.00032856254684212634
7.88500e-06;0.00036749075361906266
7.88525e-06;0.00040819156758914053
7.88550e-06;0.0004501893650658891
7.88575e-06;0.0004921871625423532
7.88600e-06;0.0005354527222565549
7.88625e-06;0.0005796458798723158
7.88650e-06;0.0006238390374877773
7.88675e-06;0.0006680321951035383
7.88700e-06;0.000712244361973512
7.88725e-06;0.0007566828842822757
7.88750e-06;0.0008011214065913406
7.88775e-06;0.0008455599289004054
7.88800e-06;0.0008899984512091692
7.88825e-06;0.0009326447081004109
7.88850e-06;0.0009739795979295697
7.88875e-06;0.0010153144877584484
7.88900e-06;0.0010541369567092912
7.88925e-06;0.0010911211343260264
7.88950e-06;0.0011281053119427617
7.88975e-06;0.00116115508825647
7.89000e-06;0.0011913261367734983
7.89025e-06;0.0012214971852905268
7.89050e-06;0.0012472160520002097
7.89075e-06;0.0012696773406088203
7.89100e-06;0.0012880783009890304
7.89125e-06;0.0013035083951974942
7.89150e-06;0.0013147910016835735
7.89175e-06;0.0013230389690273789
7.89200e-06;0.0013270599193917
7.89225e-06;0.0013279880405449684
7.89250e-06;0.0013245756323347418
7.89275e-06;0.0013179873400266124
7.89300e-06;0.0013071635937805985
7.89325e-06;0.001293240845158998
7.89350e-06;0.0012753686924628811
7.89375e-06;0.0012546068347223
7.89400e-06;0.0012301865639371171
7.89425e-06;0.0012030895007982198
7.89450e-06;0.0011718365690005716
7.89475e-06;0.0011375428658865787
7.89500e-06;0.001103249162772818
7.89525e-06;0.0010648712547263114
7.89550e-06;0.0010235050103704739
7.89575e-06;0.0009821387660149167
7.89600e-06;0.0009378588578647243
7.89625e-06;0.0008914470764481393
7.89650e-06;0.0008450352950318688
