Time(s);Current(A)
8.80000e-06;0.009287884952445273
8.80025e-06;0.009312806623001343
8.80050e-06;0.009337728293557243
8.80075e-06;0.00936264996411331
8.80100e-06;0.009387571634669379
8.80125e-06;0.009412493305225278
8.80150e-06;0.009437414975781346
8.80175e-06;0.009462336646337416
8.80200e-06;0.009487258316893316
8.80225e-06;0.009512179987449383
8.80250e-06;0.009537101658005451
8.80275e-06;0.009566280368602045
8.80300e-06;0.009600265744960078
8.80325e-06;0.00963425112131811
8.80350e-06;0.009668236497676142
8.80375e-06;0.009702221874033945
8.80400e-06;0.009736207250391976
8.80425e-06;0.009770192626750008
8.80450e-06;0.009804178003107811
8.80475e-06;0.009838163379465843
8.80500e-06;0.009872148755823875
8.80525e-06;0.009906134132181678
8.80550e-06;0.00994011950853971
8.80575e-06;0.009974104884897741
8.80600e-06;0.009987221734448819
8.80625e-06;0.009999686062734355
8.80650e-06;0.01001215039101989
8.80675e-06;0.01002461471930534
8.80700e-06;0.010037079047590877
8.80725e-06;0.010049543375876413
8.80750e-06;0.010062007704161864
8.80775e-06;0.0100744720324474
8.80800e-06;0.010086936360732936
8.80825e-06;0.010099400689018387
8.80850e-06;0.010111865017303923
8.80875e-06;0.010124329345589458
8.80900e-06;0.010136793673874909
8.80925e-06;0.010149258002160445
8.80950e-06;0.010161722330445981
8.80975e-06;0.010174186658731432
8.81000e-06;0.010186650987016968
8.81025e-06;0.010177349910603997
8.81050e-06;0.010167368269167731
8.81075e-06;0.010157386627731399
8.81100e-06;0.010147404986295067
8.81125e-06;0.010137423344858803
8.81150e-06;0.01012744170342247
8.81175e-06;0.010117460061986137
8.81200e-06;0.010107478420549805
8.81225e-06;0.01009749677911354
8.81250e-06;0.010087515137677208
8.81275e-06;0.010077533496240876
8.81300e-06;0.010067551854804612
8.81325e-06;0.010057570213368278
8.81350e-06;0.010047588571931946
8.81375e-06;0.010037606930495682
8.81400e-06;0.01002762528905935
8.81425e-06;0.010017643647623017
8.81450e-06;0.010006512500735294
8.81475e-06;0.009995345410881314
8.81500e-06;0.009984178321027336
8.81525e-06;0.009973011231173433
8.81550e-06;0.009961844141319454
8.81575e-06;0.009950677051465476
8.81600e-06;0.009939509961611573
8.81625e-06;0.009928342871757593
8.81650e-06;0.009917175781903615
8.81675e-06;0.009906008692049712
8.81700e-06;0.009894841602195734
8.81725e-06;0.009883674512341754
8.81750e-06;0.009872507422487851
8.81775e-06;0.009861340332633873
8.81800e-06;0.009860306498628327
8.81825e-06;0.00985958951329196
8.81850e-06;0.009858872527955587
8.81875e-06;0.009858155542619214
8.81900e-06;0.009857438557282846
8.81925e-06;0.009856721571946473
8.81950e-06;0.0098560045866101
8.81975e-06;0.009855287601273733
8.82000e-06;0.009854570615937362
8.82025e-06;0.009853853630600989
8.82050e-06;0.009853136645264616
8.82075e-06;0.009852419659928249
8.82100e-06;0.009851702674591876
8.82125e-06;0.009850985689255503
8.82150e-06;0.00985719501593654
8.82175e-06;0.00986362091592622
8.82200e-06;0.009870046815915903
8.82225e-06;0.009876472715905542
8.82250e-06;0.009882898615895225
8.82275e-06;0.009889324515884907
8.82300e-06;0.009895750415874547
8.82325e-06;0.00990217631586423
8.82350e-06;0.009908602215853912
8.82375e-06;0.009915028115843551
8.82400e-06;0.009921454015833232
8.82425e-06;0.009927879915822915
8.82450e-06;0.009934305815812554
8.82475e-06;0.009940731715802236
8.82500e-06;0.009947157615791919
8.82525e-06;0.009953583515781558
8.82550e-06;0.009956265124033654
8.82575e-06;0.009954719015672206
8.82600e-06;0.00995317290731077
8.82625e-06;0.009951626798949322
8.82650e-06;0.009950080690587873
8.82675e-06;0.009948534582226436
8.82700e-06;0.00994698847386499
8.82725e-06;0.009945442365503541
8.82750e-06;0.009943896257142103
8.82775e-06;0.009942350148780655
8.82800e-06;0.009940804040419207
8.82825e-06;0.009939257932057771
8.82850e-06;0.009937711823696323
8.82875e-06;0.009936165715334875
8.82900e-06;0.009934619606973427
8.82925e-06;0.00993307349861199
8.82950e-06;0.009931527390250543
8.82975e-06;0.009912162221510045
8.83000e-06;0.00989223988282715
8.83025e-06;0.00987231754414412
8.83050e-06;0.00985239520546109
8.83075e-06;0.009832472866778196
8.83100e-06;0.009812550528095166
8.83125e-06;0.009792628189412136
8.83150e-06;0.009772705850729242
8.83175e-06;0.009752783512046212
8.83200e-06;0.009732861173363182
8.83225e-06;0.009712938834680288
8.83250e-06;0.009693016495997258
8.83275e-06;0.009673094157314228
8.83300e-06;0.009653171818631333
8.83325e-06;0.009632216617590663
8.83350e-06;0.009610095201506965
8.83375e-06;0.009587973785423417
8.83400e-06;0.00956585236933972
8.83425e-06;0.009543730953256021
8.83450e-06;0.009521609537172475
8.83475e-06;0.009499488121088777
8.83500e-06;0.00947736670500508
8.83525e-06;0.009455245288921532
8.83550e-06;0.009433123872837833
8.83575e-06;0.009411002456754136
8.83600e-06;0.009388881040670588
8.83625e-06;0.009366759624586891
8.83650e-06;0.009344638208503193
8.83675e-06;0.009322516792419645
8.83700e-06;0.009318288474563863
8.83725e-06;0.009314619641682162
8.83750e-06;0.00931095080880046
8.83775e-06;0.009307281975918786
8.83800e-06;0.009303613143037084
8.83825e-06;0.009299944310155383
8.83850e-06;0.009296275477273708
8.83875e-06;0.009292606644392007
8.83900e-06;0.009288937811510306
8.83925e-06;0.00928526897862863
8.83950e-06;0.00928160014574693
8.83975e-06;0.009277931312865228
8.84000e-06;0.009274262479983553
8.84025e-06;0.009270593647101852
8.84050e-06;0.00927493596834146
8.84075e-06;0.009288323762466051
8.84100e-06;0.009301711556590734
8.84125e-06;0.009315099350715415
8.84150e-06;0.009328487144840006
8.84175e-06;0.009341874938964687
8.84200e-06;0.009355262733089368
8.84225e-06;0.00936865052721396
8.84250e-06;0.009382038321338642
8.84275e-06;0.009395426115463323
8.84300e-06;0.009408813909587914
8.84325e-06;0.009422201703712595
8.84350e-06;0.009435589497837276
8.84375e-06;0.009448977291961867
8.84400e-06;0.00946236508608655
8.84425e-06;0.009476324587719066
8.84450e-06;0.009490301965616206
8.84475e-06;0.00950427934351344
8.84500e-06;0.009518256721410675
8.84525e-06;0.009532234099307816
8.84550e-06;0.009546211477205052
8.84575e-06;0.009560188855102287
8.84600e-06;0.009574166232999523
8.84625e-06;0.009588143610896663
8.84650e-06;0.009602120988793898
8.84675e-06;0.009606303289116169
8.84700e-06;0.009599425871040922
8.84725e-06;0.009592548452965628
8.84750e-06;0.009585671034890334
8.84775e-06;0.009578793616815087
8.84800e-06;0.009571916198739793
8.84825e-06;0.009565038780664501
8.84850e-06;0.009558161362589255
8.84875e-06;0.00955128394451396
8.84900e-06;0.009544406526438667
8.84925e-06;0.00953752910836342
8.84950e-06;0.009499267548653535
8.84975e-06;0.009460024663324029
8.85000e-06;0.009420781777994788
8.85025e-06;0.00938153889266528
8.85050e-06;0.009342296007335774
8.85075e-06;0.009303053122006534
8.85100e-06;0.009263810236677026
8.85125e-06;0.00922456735134752
8.85150e-06;0.00918532446601828
8.85175e-06;0.009146081580688773
8.85200e-06;0.009106838695359266
8.85225e-06;0.00905191440030445
8.85250e-06;0.008996499775792255
8.85275e-06;0.00894108515128006
8.85300e-06;0.008885670526768238
8.85325e-06;0.008830255902256043
8.85350e-06;0.008774841277743847
8.85375e-06;0.008719426653232028
8.85400e-06;0.008664012028719833
8.85425e-06;0.008608597404207637
8.85450e-06;0.008553182779695441
8.85475e-06;0.00849776815518362
8.85500e-06;0.008452698930798723
8.85525e-06;0.008407953188455318
8.85550e-06;0.008363207446112218
8.85575e-06;0.008318461703768813
8.85600e-06;0.008273715961425409
8.85625e-06;0.008228970219082308
8.85650e-06;0.008184224476738904
8.85675e-06;0.0081394787343955
8.85700e-06;0.008124555559428726
8.85725e-06;0.008110564882466876
8.85750e-06;0.008096574205505025
8.85775e-06;0.008082583528543269
8.85800e-06;0.008068592851581418
8.85825e-06;0.008054602174619566
8.85850e-06;0.00804061149765781
8.85875e-06;0.008026620820695959
8.85900e-06;0.008053480273497482
8.85925e-06;0.008081617036332039
8.85950e-06;0.008109753799166789
8.85975e-06;0.008137890562001537
8.86000e-06;0.008166027324836095
8.86025e-06;0.008194164087670845
8.86050e-06;0.008222300850505593
8.86075e-06;0.00825043761334015
8.86100e-06;0.0082785743761749
8.86125e-06;0.008306711139009649
8.86150e-06;0.008349002299889009
8.86175e-06;0.008407275330777514
8.86200e-06;0.008465548361666018
8.86225e-06;0.008523821392554127
8.86250e-06;0.008582094423442632
8.86275e-06;0.008640367454331135
8.86300e-06;0.00869864048521964
8.86325e-06;0.008756913516107748
8.86350e-06;0.008815186546996253
8.86375e-06;0.008873459577884758
8.86400e-06;0.008931732608772867
8.86425e-06;0.008988263789039847
8.86450e-06;0.009044740504772915
8.86475e-06;0.009101217220505602
8.86500e-06;0.00915769393623867
8.86525e-06;0.009214170651971738
8.86550e-06;0.009270647367704424
8.86575e-06;0.009327124083437492
8.86600e-06;0.00938360079917056
8.86625e-06;0.009425730077110924
8.86650e-06;0.009451659521963921
8.86675e-06;0.009477588966816919
8.86700e-06;0.00950351841166974
8.86725e-06;0.009529447856522738
8.86750e-06;0.009555377301375735
8.86775e-06;0.009581306746228556
8.86800e-06;0.009607236191081553
8.86825e-06;0.00963316563593455
8.86850e-06;0.00961388708367645
8.86875e-06;0.009593194958713629
8.86900e-06;0.009572502833750808
8.86925e-06;0.009551810708788128
8.86950e-06;0.009531118583825306
8.86975e-06;0.009510426458862485
8.87000e-06;0.009489734333899805
8.87025e-06;0.009469042208936984
8.87050e-06;0.009448350083974164
8.87075e-06;0.009427657959011484
8.87100e-06;0.00937054496832966
8.87125e-06;0.009312293162726077
8.87150e-06;0.009254041357122492
8.87175e-06;0.009195789551519305
8.87200e-06;0.009137537745915721
8.87225e-06;0.009079285940312138
8.87250e-06;0.00902103413470895
8.87275e-06;0.008962782329105367
8.87300e-06;0.008904530523501784
8.87325e-06;0.008846278717898596
8.87350e-06;0.008779024421754607
8.87375e-06;0.00871148863393379
8.87400e-06;0.008643952846113433
8.87425e-06;0.008576417058292617
8.87450e-06;0.0085088812704718
8.87475e-06;0.008441345482651443
8.87500e-06;0.008373809694830626
8.87525e-06;0.00831393960721252
8.87550e-06;0.008262724937071328
8.87575e-06;0.00821151026692979
8.87600e-06;0.008160295596788252
8.87625e-06;0.008109080926647062
8.87650e-06;0.008057866256505524
8.87675e-06;0.008006651586363985
8.87700e-06;0.007955436916222795
8.87725e-06;0.007938567173891943
8.87750e-06;0.007922771335642158
8.87775e-06;0.00790697549739248
8.87800e-06;0.007891179659142695
8.87825e-06;0.00787538382089291
8.87850e-06;0.007859587982643232
8.87875e-06;0.007843792144393447
8.87900e-06;0.007827996306143663
8.87925e-06;0.007812200467893984
8.87950e-06;0.0077964046296441995
8.87975e-06;0.007780608791394415
8.88000e-06;0.007781503510630105
8.88025e-06;0.007801243702444687
8.88050e-06;0.007820983894259403
8.88075e-06;0.007840724086074117
8.88100e-06;0.0078604642778887
8.88125e-06;0.007880204469703415
8.88150e-06;0.00789994466151813
8.88175e-06;0.007919684853332712
8.88200e-06;0.007939425045147427
8.88225e-06;0.007959165236962142
8.88250e-06;0.007978905428776724
8.88275e-06;0.00799864562059144
8.88300e-06;0.008031298342058745
8.88325e-06;0.008064354815089285
8.88350e-06;0.008097411288120047
8.88375e-06;0.008130467761150811
8.88400e-06;0.008163524234181352
8.88425e-06;0.008196580707212115
8.88450e-06;0.008229637180242878
8.88475e-06;0.008262693653273418
8.88500e-06;0.008292465899559315
8.88525e-06;0.008318529893132504
8.88550e-06;0.008344593886705515
8.88575e-06;0.008370657880278704
8.88600e-06;0.008396721873851893
8.88625e-06;0.008422785867424905
8.88650e-06;0.008448849860998094
8.88675e-06;0.008474913854571282
8.88700e-06;0.008500977848144294
8.88725e-06;0.008514314478352943
8.88750e-06;0.008527253146814165
8.88775e-06;0.0085401918152753
8.88800e-06;0.008553130483736522
8.88825e-06;0.008566069152197745
8.88850e-06;0.008579007820658967
8.88875e-06;0.008591946489120102
8.88900e-06;0.008604885157581324
8.88925e-06;0.008617823826042547
8.88950e-06;0.008630762494503681
8.88975e-06;0.008643701162964904
8.89000e-06;0.008656639831426127
8.89025e-06;0.00866957849988726
8.89050e-06;0.008682517168348483
8.89075e-06;0.008695455836809706
8.89100e-06;0.00870839450527084
8.89125e-06;0.008721333173732063
8.89150e-06;0.008734271842193286
8.89175e-06;0.00874721051065442
8.89200e-06;0.008752746688563365
8.89225e-06;0.00875805140391442
8.89250e-06;0.008763356119265438
8.89275e-06;0.008768660834616493
8.89300e-06;0.008773965549967547
8.89325e-06;0.008779270265318566
8.89350e-06;0.00878457498066962
8.89375e-06;0.008789879696020676
8.89400e-06;0.008795184411371693
8.89425e-06;0.008800489126722748
8.89450e-06;0.008805793842073802
8.89475e-06;0.008811098557424821
8.89500e-06;0.008816403272775875
8.89525e-06;0.00882170798812693
8.89550e-06;0.008827012703477948
8.89575e-06;0.008832317418829004
8.89600e-06;0.008837622134180058
8.89625e-06;0.008842926849531077
8.89650e-06;0.00884823156488213
8.89675e-06;0.008843562084609466
8.89700e-06;0.008838580729188989
8.89725e-06;0.008833599373768547
8.89750e-06;0.00882861801834807
8.89775e-06;0.008823636662927592
8.89800e-06;0.00881865530750715
8.89825e-06;0.008813673952086673
8.89850e-06;0.008808692596666196
8.89875e-06;0.008803711241245753
8.89900e-06;0.008798729885825276
8.89925e-06;0.0087937485304048
8.89950e-06;0.008788767174984356
8.89975e-06;0.00878378581956388
8.90000e-06;0.008778804464143404
8.90025e-06;0.00876800468295881
8.90050e-06;0.008750635260025643
8.90075e-06;0.008733265837092476
8.90100e-06;0.008715896414159426
8.90125e-06;0.008698526991226259
8.90150e-06;0.008681157568293092
8.90175e-06;0.008663788145360042
8.90200e-06;0.008646418722426875
8.90225e-06;0.008629049299493707
8.90250e-06;0.008611679876560658
8.90275e-06;0.00859431045362749
8.90300e-06;0.008576941030694323
8.90325e-06;0.008559571607761274
8.90350e-06;0.008542202184828106
8.90375e-06;0.008524832761894939
8.90400e-06;0.008507976756961327
8.90425e-06;0.00849113680568453
8.90450e-06;0.008474296854407733
8.90475e-06;0.00845745690313105
8.90500e-06;0.008440616951854251
8.90525e-06;0.008423777000577455
8.90550e-06;0.008406937049300657
8.90575e-06;0.008390097098023973
8.90600e-06;0.008373257146747177
8.90625e-06;0.008356417195470379
8.90650e-06;0.008339577244193696
8.90675e-06;0.008322737292916898
8.90700e-06;0.00831346032314798
8.90725e-06;0.008312722790174696
8.90750e-06;0.008311985257201405
8.90775e-06;0.008311247724228116
8.90800e-06;0.00831051019125483
8.90825e-06;0.008309772658281539
8.90850e-06;0.00830903512530825
8.90875e-06;0.008308297592334963
8.90900e-06;0.008307560059361674
8.90925e-06;0.008306822526388383
8.90950e-06;0.008306084993415098
8.90975e-06;0.008305347460441807
8.91000e-06;0.008304609927468518
8.91025e-06;0.00832150341286341
8.91050e-06;0.008338948188475677
8.91075e-06;0.008356392964087942
8.91100e-06;0.00837383773970009
8.91125e-06;0.008391282515312355
8.91150e-06;0.008408727290924622
8.91175e-06;0.00842617206653677
8.91200e-06;0.008443616842149036
8.91225e-06;0.008461061617761301
8.91250e-06;0.008478506393373449
8.91275e-06;0.008495951168985716
8.91300e-06;0.008513395944597981
8.91325e-06;0.008530840720210129
8.91350e-06;0.008549088734888254
8.91375e-06;0.008568243694694944
8.91400e-06;0.008587398654501633
8.91425e-06;0.008606553614308192
8.91450e-06;0.008625708574114883
8.91475e-06;0.008644863533921573
8.91500e-06;0.008664018493728132
8.91525e-06;0.008683173453534821
8.91550e-06;0.00870232841334151
8.91575e-06;0.00872148337314807
8.91600e-06;0.00874063833295476
8.91625e-06;0.008759793292761449
8.91650e-06;0.00877894825256801
8.91675e-06;0.0087981032123747
8.91700e-06;0.008801885699846537
8.91725e-06;0.0088051875177703
8.91750e-06;0.008808489335694086
8.91775e-06;0.008811791153617871
8.91800e-06;0.008815092971541634
8.91825e-06;0.008818394789465419
8.91850e-06;0.008821696607389205
8.91875e-06;0.008824998425312968
8.91900e-06;0.008828300243236753
8.91925e-06;0.00883160206116054
8.91950e-06;0.008834903879084302
8.91975e-06;0.008838205697008087
8.92000e-06;0.008841507514931872
8.92025e-06;0.008844809332855636
8.92050e-06;0.00884811115077942
8.92075e-06;0.008851412968703206
8.92100e-06;0.00885471478662697
8.92125e-06;0.008858016604550755
8.92150e-06;0.00886131842247454
8.92175e-06;0.008864620240398302
8.92200e-06;0.008859010689035057
8.92225e-06;0.008853122495189304
8.92250e-06;0.008847234301343552
8.92275e-06;0.008841346107497839
8.92300e-06;0.008835457913652086
8.92325e-06;0.008829569719806333
8.92350e-06;0.008823681525960619
8.92375e-06;0.008817793332114866
8.92400e-06;0.008811905138269113
8.92425e-06;0.0088060169444234
8.92450e-06;0.008800128750577648
8.92475e-06;0.008794240556731895
8.92500e-06;0.008788352362886182
8.92525e-06;0.00878246416904043
8.92550e-06;0.008776575975194677
8.92575e-06;0.008770687781348964
8.92600e-06;0.00876479958750321
8.92625e-06;0.008758911393657457
8.92650e-06;0.008753023199811744
8.92675e-06;0.008747135005965991
8.92700e-06;0.00873696095256217
8.92725e-06;0.008726652888041881
8.92750e-06;0.008716344823521523
8.92775e-06;0.008706036759001163
8.92800e-06;0.008695728694480874
8.92825e-06;0.008685420629960515
8.92850e-06;0.008675112565440155
8.92875e-06;0.008664804500919866
8.92900e-06;0.008654496436399508
8.92925e-06;0.00864418837187915
8.92950e-06;0.008633880307358859
8.92975e-06;0.0086235722428385
8.93000e-06;0.008613264178318142
8.93025e-06;0.008602956113797851
8.93050e-06;0.008592648049277493
8.93075e-06;0.008574878156786448
8.93100e-06;0.00855687494636107
8.93125e-06;0.008538871735935816
8.93150e-06;0.008520868525510438
8.93175e-06;0.00850286531508506
8.93200e-06;0.008484862104659806
8.93225e-06;0.00846685889423443
8.93250e-06;0.008448855683809053
8.93275e-06;0.008430852473383798
8.93300e-06;0.00841284926295842
8.93325e-06;0.008394846052533043
8.93350e-06;0.008376842842107789
8.93375e-06;0.008358839631682413
8.93400e-06;0.008340836421257035
8.93425e-06;0.00832283321083178
8.93450e-06;0.008308712181085505
8.93475e-06;0.008294712540143872
8.93500e-06;0.008280712899202331
8.93525e-06;0.008266713258260698
8.93550e-06;0.008252713617319062
8.93575e-06;0.008238713976377524
8.93600e-06;0.008224714335435888
8.93625e-06;0.008210714694494255
8.93650e-06;0.008196715053552715
8.93675e-06;0.00818271541261108
8.93700e-06;0.008168715771669445
8.93725e-06;0.008154716130727907
8.93750e-06;0.008140716489786272
8.93775e-06;0.00814309526315208
8.93800e-06;0.008145986160063868
8.93825e-06;0.008148877056975675
8.93850e-06;0.008151767953887484
8.93875e-06;0.00815465885079927
8.93900e-06;0.008157549747711079
8.93925e-06;0.008160440644622886
8.93950e-06;0.008163331541534693
8.93975e-06;0.008166222438446481
8.94000e-06;0.008169113335358288
8.94025e-06;0.008172004232270096
8.94050e-06;0.008174895129181884
8.94075e-06;0.00817778602609369
8.94100e-06;0.008194776135023849
8.94125e-06;0.008212207100945439
8.94150e-06;0.008229638066867148
8.94175e-06;0.008247069032788856
8.94200e-06;0.008264499998710446
8.94225e-06;0.008281930964632155
8.94250e-06;0.008299361930553863
8.94275e-06;0.008316792896475455
8.94300e-06;0.008334223862397162
8.94325e-06;0.00835165482831887
8.94350e-06;0.008369085794240462
8.94375e-06;0.00838651676016217
8.94400e-06;0.008403947726083879
8.94425e-06;0.008421378692005469
8.94450e-06;0.00843574336270575
8.94475e-06;0.008450012155871434
8.94500e-06;0.00846428094903702
8.94525e-06;0.008478549742202704
8.94550e-06;0.008492818535368388
8.94575e-06;0.008507087328533974
8.94600e-06;0.008521356121699658
8.94625e-06;0.008535624914865342
8.94650e-06;0.00854989370803093
8.94675e-06;0.008564162501196614
8.94700e-06;0.008578431294362298
8.94725e-06;0.008592700087527884
8.94750e-06;0.008606968880693568
8.94775e-06;0.008621237673859252
8.94800e-06;0.008625703767360802
8.94825e-06;0.008629863348080875
8.94850e-06;0.008634022928800977
8.94875e-06;0.008638182509521078
8.94900e-06;0.00864234209024115
8.94925e-06;0.008646501670961253
8.94950e-06;0.008650661251681353
8.94975e-06;0.008654820832401426
8.95000e-06;0.008658980413121528
8.95025e-06;0.008660532811932081
8.95050e-06;0.008659141416005612
8.95075e-06;0.008657750020079135
8.95100e-06;0.008656358624152658
8.95125e-06;0.00865496722822619
8.95150e-06;0.008653575832299712
8.95175e-06;0.008652184436373235
8.95200e-06;0.008650793040446766
