Time(s);Current(A)
8.25000e-06;0.012979230609639828
8.25025e-06;0.013024970010485136
8.25050e-06;0.013070709411330133
8.25075e-06;0.01311644881217544
8.25100e-06;0.013162188213020749
8.25125e-06;0.013207927613865746
8.25150e-06;0.013237844728582982
8.25175e-06;0.013258822984496812
8.25200e-06;0.013279801240410501
8.25225e-06;0.013300779496324331
8.25250e-06;0.013321757752238159
8.25275e-06;0.013342736008151848
8.25300e-06;0.013360105677265472
8.25325e-06;0.01335512223225687
8.25350e-06;0.013350138787248304
8.25375e-06;0.013345155342239704
8.25400e-06;0.013340171897231103
8.25425e-06;0.013335188452222537
8.25450e-06;0.013330205007213937
8.25475e-06;0.013325221562205336
8.25500e-06;0.013306793507623746
8.25525e-06;0.013280769871362078
8.25550e-06;0.013254746235100407
8.25575e-06;0.013228722598838914
8.25600e-06;0.013202698962577246
8.25625e-06;0.013176675326315578
8.25650e-06;0.013150651690053907
8.25675e-06;0.013123397237272374
8.25700e-06;0.013088518585971308
8.25725e-06;0.013053639934670243
8.25750e-06;0.013018518951803846
8.25775e-06;0.012981896864643098
8.25800e-06;0.012945274777482352
8.25825e-06;0.012908700673352641
8.25850e-06;0.01287242379642622
8.25875e-06;0.012836146919499797
8.25900e-06;0.012800271684705402
8.25925e-06;0.012766884391287153
8.25950e-06;0.012733497097868904
8.25975e-06;0.01270086588238736
8.26000e-06;0.012672918133686581
8.26025e-06;0.012644970384985804
8.26050e-06;0.012617775348505467
8.26075e-06;0.01259524293013522
8.26100e-06;0.012572710511764973
8.26125e-06;0.012550242106727755
8.26150e-06;0.012528170227370655
8.26175e-06;0.012506098348013556
8.26200e-06;0.012484026468656607
8.26225e-06;0.012462126467363657
8.26250e-06;0.012441291151555003
8.26275e-06;0.01242045583574649
8.26300e-06;0.012399620519937836
8.26325e-06;0.01237850213178761
8.26350e-06;0.01235563027373091
8.26375e-06;0.012332758415674057
8.26400e-06;0.012309886557617203
8.26425e-06;0.012287014699560504
8.26450e-06;0.01226414284150365
8.26475e-06;0.012241270983446796
8.26500e-06;0.012218399125389943
8.26525e-06;0.012195527267333243
8.26550e-06;0.01217170182995727
8.26575e-06;0.012147337664433797
8.26600e-06;0.012122973498910488
8.26625e-06;0.012098609333387016
8.26650e-06;0.012074245167863543
8.26675e-06;0.012049881002340236
8.26700e-06;0.012025516836816762
8.26725e-06;0.01200115267129329
8.26750e-06;0.01197696788972037
8.26775e-06;0.011953894288268582
8.26800e-06;0.011930820686816796
8.26825e-06;0.011907747085365164
8.26850e-06;0.011884673483913378
8.26875e-06;0.01186159988246159
8.26900e-06;0.011841318546090954
8.26925e-06;0.011822614710159263
8.26950e-06;0.011803910874227571
8.26975e-06;0.011785207038296008
8.27000e-06;0.011766503202364316
8.27025e-06;0.01174848404254343
8.27050e-06;0.011734706056374663
8.27075e-06;0.011722035218230046
8.27100e-06;0.011716222523600986
8.27125e-06;0.011710409828971965
8.27150e-06;0.011707188778956195
8.27175e-06;0.011720021472711836
8.27200e-06;0.01173285416646739
8.27225e-06;0.011745686860223032
8.27250e-06;0.011758519553978672
8.27275e-06;0.011771352247734226
8.27300e-06;0.011787800389501474
8.27325e-06;0.01182664414666401
8.27350e-06;0.011865487903826546
8.27375e-06;0.011904331660988816
8.27400e-06;0.011943175418151352
8.27425e-06;0.011982019175313888
8.27450e-06;0.012024393336822361
8.27475e-06;0.012088636317265302
8.27500e-06;0.012152879297708244
8.27525e-06;0.01221712227815075
8.27550e-06;0.01228136525859369
8.27575e-06;0.012345608239036632
8.27600e-06;0.012409851219479138
8.27625e-06;0.012474094199922079
8.27650e-06;0.012540257224360685
8.27675e-06;0.012618313814060438
8.27700e-06;0.01269637040376072
8.27725e-06;0.012774426993461001
8.27750e-06;0.012852483583160754
8.27775e-06;0.012930540172861035
8.27800e-06;0.013008596762561317
8.27825e-06;0.01308665335226107
8.27850e-06;0.013164297301920846
8.27875e-06;0.013239385184499219
8.27900e-06;0.013314473067077082
8.27925e-06;0.013388566078471484
8.27950e-06;0.013456496436623078
8.27975e-06;0.013524426794774213
8.28000e-06;0.013590785838120005
8.28025e-06;0.01364741149242006
8.28050e-06;0.013704037146719729
8.28075e-06;0.013759277791549914
8.28100e-06;0.013805939101447813
8.28125e-06;0.013852600411345397
8.28150e-06;0.013899261721243297
8.28175e-06;0.013945923031141196
8.28200e-06;0.01399141519479727
8.28225e-06;0.014029665171730012
8.28250e-06;0.014067915148663016
8.28275e-06;0.014106165125596018
8.28300e-06;0.014144415102528762
8.28325e-06;0.014181710821253317
8.28350e-06;0.014213095460695284
8.28375e-06;0.014241105748838391
8.28400e-06;0.014273688582177212
8.28425e-06;0.0143042514613637
8.28450e-06;0.014335925409831396
8.28475e-06;0.014368823667914693
8.28500e-06;0.014398200814115771
8.28525e-06;0.014427157207253863
8.28550e-06;0.014456382986487033
8.28575e-06;0.014485194251460725
8.28600e-06;0.014514005516434223
8.28625e-06;0.014542816781407916
8.28650e-06;0.01456802682491797
8.28675e-06;0.014588679089560205
8.28700e-06;0.014609331354202582
8.28725e-06;0.014629983618844957
8.28750e-06;0.014668821100118877
8.28775e-06;0.01468846735520659
8.28800e-06;0.014711752689498146
8.28825e-06;0.01473588674431246
8.28850e-06;0.014756565566756382
8.28875e-06;0.014776076774694577
8.28900e-06;0.014795587982632639
8.28925e-06;0.014815099190570833
8.28950e-06;0.014834610398509028
8.28975e-06;0.01485412160644709
8.29000e-06;0.014873632814385284
8.29025e-06;0.014893144022323479
8.29050e-06;0.014911489431453396
8.29075e-06;0.014926115578569227
8.29100e-06;0.01494074172568516
8.29125e-06;0.014955367872801092
8.29150e-06;0.014969994019916924
8.29175e-06;0.014984620167032857
8.29200e-06;0.014999246314148788
8.29225e-06;0.015013872461264621
8.29250e-06;0.015028498608380552
8.29275e-06;0.0150427306792273
8.29300e-06;0.015056823314452572
8.29325e-06;0.015070915949677938
8.29350e-06;0.015085008584903305
8.29375e-06;0.015099101220128575
8.29400e-06;0.015113193855353943
8.29425e-06;0.01512728649057931
8.29450e-06;0.01514137912580458
8.29475e-06;0.015155471761029948
8.29500e-06;0.015169564396255313
8.29525e-06;0.015183657031480585
8.29550e-06;0.01519774966670595
8.29575e-06;0.015211842301931318
8.29600e-06;0.015225882484708258
8.29625e-06;0.015239755327806016
8.29650e-06;0.015253628170903772
8.29675e-06;0.015267501014001436
8.29700e-06;0.015281373857099193
8.29725e-06;0.015295246700196951
8.29750e-06;0.015309119543294614
8.29775e-06;0.015322992386392372
8.29800e-06;0.015336865229490128
8.29825e-06;0.015350738072587793
8.29850e-06;0.015364610915685549
8.29875e-06;0.015378483758783307
8.29900e-06;0.015392356601881065
8.29925e-06;0.015406229444978728
8.29950e-06;0.015416493277704592
8.29975e-06;0.015425480137815544
8.30000e-06;0.015434466997926437
8.30025e-06;0.015443453858037389
8.30050e-06;0.015452440718148342
8.30075e-06;0.015461427578259234
8.30100e-06;0.015470414438370187
8.30125e-06;0.015479401298481141
8.30150e-06;0.015488388158592032
8.30175e-06;0.015497375018702986
8.30200e-06;0.015506361878813938
8.30225e-06;0.015515348738924831
8.30250e-06;0.015524335599035785
8.30275e-06;0.015533322459146737
8.30300e-06;0.01554230931925763
8.30325e-06;0.015551296179368582
8.30350e-06;0.015560283039479535
8.30375e-06;0.015569269899590428
8.30400e-06;0.015577545419924732
8.30425e-06;0.015583551544379308
8.30450e-06;0.015589557668833843
8.30475e-06;0.015595563793288419
8.30500e-06;0.015601569917742995
8.30525e-06;0.01560757604219753
8.30550e-06;0.015613582166652104
8.30575e-06;0.01561958829110668
8.30600e-06;0.015625594415561217
8.30625e-06;0.01563160054001579
8.30650e-06;0.015637606664470366
8.30675e-06;0.015643612788924902
8.30700e-06;0.015649618913379477
8.30725e-06;0.015655625037834055
8.30750e-06;0.01566163116228863
8.30775e-06;0.015667637286743162
8.30800e-06;0.01567364341119774
8.30825e-06;0.015679649535652315
8.30850e-06;0.01568565566010685
8.30875e-06;0.01569060733338248
8.30900e-06;0.01569518591122721
8.30925e-06;0.015699764489071903
8.30950e-06;0.01570434306691663
8.30975e-06;0.015708921644761356
8.31000e-06;0.015713500222606053
8.31025e-06;0.01571807880045078
8.31050e-06;0.015722657378295504
8.31075e-06;0.0157272359561402
8.31100e-06;0.01572986050482014
8.31125e-06;0.015726251090656746
8.31150e-06;0.01572264167649338
8.31175e-06;0.01571903226232999
8.31200e-06;0.015715422848166596
8.31225e-06;0.01571181343400323
8.31250e-06;0.015708204019839838
8.31275e-06;0.01570459460567645
8.31300e-06;0.01570098519151308
8.31325e-06;0.01569737577734969
8.31350e-06;0.01568346317048099
8.31375e-06;0.015665904994998862
8.31400e-06;0.015648346819516615
8.31425e-06;0.015630788644034364
8.31450e-06;0.015613230468552236
8.31475e-06;0.015595672293069988
8.31500e-06;0.01557811411758774
8.31525e-06;0.01556055594210561
8.31550e-06;0.015542997766623363
8.31575e-06;0.015523408006282532
8.31600e-06;0.015497336856230611
8.31625e-06;0.015471265706178869
8.31650e-06;0.015445194556126949
8.31675e-06;0.01541912340607503
8.31700e-06;0.015393052256023285
8.31725e-06;0.015366981105971365
8.31750e-06;0.015340909955919446
8.31775e-06;0.015314838805867701
8.31800e-06;0.015288767655815782
8.31825e-06;0.015262819807922049
8.31850e-06;0.015236915587910725
8.31875e-06;0.015211011367899227
8.31900e-06;0.015185107147887728
8.31925e-06;0.015160228714033247
8.31950e-06;0.015138622858144457
8.31975e-06;0.015117017002255666
8.32000e-06;0.015095411146367022
8.32025e-06;0.015073805290478233
8.32050e-06;0.015055848912959722
8.32075e-06;0.015039183826809665
8.32100e-06;0.015022518740659496
8.32125e-06;0.015003293422404572
8.32150e-06;0.014983162219723985
8.32175e-06;0.01496303101704326
8.32200e-06;0.014942899814362537
8.32225e-06;0.01492276861168195
8.32250e-06;0.014902637409001225
8.32275e-06;0.0148825062063205
8.32300e-06;0.014856795207139081
8.32325e-06;0.01482910991400957
8.32350e-06;0.014801424620880056
8.32375e-06;0.014773739327750732
8.32400e-06;0.014746054034621219
8.32425e-06;0.014718368741491707
8.32450e-06;0.014690683448362196
8.32475e-06;0.014657554222423399
8.32500e-06;0.014622498775053585
8.32525e-06;0.014587443327683771
8.32550e-06;0.014552387880314193
8.32575e-06;0.014517332432944379
8.32600e-06;0.014482276985574565
8.32625e-06;0.014444392363145557
8.32650e-06;0.014405506696467209
8.32675e-06;0.01436662102978886
8.32700e-06;0.014327735363110774
8.32725e-06;0.014288849696432425
8.32750e-06;0.014249964029754075
8.32775e-06;0.014196260476793397
8.32800e-06;0.014158745321013763
8.32825e-06;0.014137924716985365
8.32850e-06;0.014094465983649074
8.32875e-06;0.014056590058404102
8.32900e-06;0.01402081806932631
8.32925e-06;0.013984777839645185
8.32950e-06;0.013950340138539113
8.32975e-06;0.013915902437433042
8.33000e-06;0.013885068446918891
8.33025e-06;0.013855168521925375
8.33050e-06;0.013826749547523338
8.33075e-06;0.013802391806313612
8.33100e-06;0.013779383390481962
8.33125e-06;0.013759876425690494
8.33150e-06;0.013748015753306041
8.33175e-06;0.013736155080921509
8.33200e-06;0.013724294408536977
8.33225e-06;0.013712433736152524
8.33250e-06;0.013700573063767991
8.33275e-06;0.013688712391383459
8.33300e-06;0.013676851718998927
8.33325e-06;0.013664991046614474
8.33350e-06;0.013653130374229942
8.33375e-06;0.013646158581156571
8.33400e-06;0.013650917825777355
8.33425e-06;0.013655677070398171
8.33450e-06;0.013660436315018986
8.33475e-06;0.01366519555963977
8.33500e-06;0.013669954804260587
8.33525e-06;0.013674714048881403
8.33550e-06;0.013679473293502187
8.33575e-06;0.013684232538123004
8.33600e-06;0.013688991782743819
8.33625e-06;0.013696258113876663
8.33650e-06;0.013709540287189863
8.33675e-06;0.013722822460503064
8.33700e-06;0.013736104633816176
8.33725e-06;0.013749386807129376
8.33750e-06;0.013762668980442577
8.33775e-06;0.013775951153755687
8.33800e-06;0.013789233327068887
8.33825e-06;0.013802466873216825
8.33850e-06;0.01381558373677294
8.33875e-06;0.013828700600329147
8.33900e-06;0.013841817463885353
8.33925e-06;0.01385493432744147
8.33950e-06;0.013868051190997677
8.33975e-06;0.013881168054553883
8.34000e-06;0.013894284918110001
8.34025e-06;0.013906436376779055
8.34050e-06;0.013916271312498372
8.34075e-06;0.013926106248217622
8.34100e-06;0.013935941183936939
8.34125e-06;0.013945776119656255
8.34150e-06;0.013955611055375572
8.34175e-06;0.013968203149346405
8.34200e-06;0.013981509886292511
8.34225e-06;0.013994816623238617
8.34250e-06;0.014008123360184633
8.34275e-06;0.014021430097130739
8.34300e-06;0.014037126249697423
8.34325e-06;0.014058555889006922
8.34350e-06;0.014079985528316567
8.34375e-06;0.014101415167626212
8.34400e-06;0.014122844806935712
8.34425e-06;0.014144274446245357
8.34450e-06;0.014165704085555
8.34475e-06;0.014187133724864501
8.34500e-06;0.014208563364174144
8.34525e-06;0.01422999300348379
8.34550e-06;0.014253524295177698
8.34575e-06;0.014282098575618506
8.34600e-06;0.014310672856059312
8.34625e-06;0.014339247136499927
8.34650e-06;0.014367821416940733
8.34675e-06;0.01439639569738154
8.34700e-06;0.014424969977822154
8.34725e-06;0.014453544258262962
8.34750e-06;0.01448211853870377
8.34775e-06;0.014510692819144383
8.34800e-06;0.01453903610000357
8.34825e-06;0.01456682508924946
8.34850e-06;0.014594614078495164
8.34875e-06;0.014622403067741055
8.34900e-06;0.014650192056986948
8.34925e-06;0.01467644557842547
8.34950e-06;0.014699014690905158
8.34975e-06;0.014721583803384845
8.35000e-06;0.014744152915864377
8.35025e-06;0.014766722028344064
8.35050e-06;0.014787769309169566
8.35075e-06;0.0148051649014642
8.35100e-06;0.014822560493758715
8.35125e-06;0.014839956086053348
8.35150e-06;0.014857351678347981
8.35175e-06;0.014874747270642497
8.35200e-06;0.01489214286293713
8.35225e-06;0.014909538455231764
8.35250e-06;0.014927621128824462
8.35275e-06;0.01494735247813623
8.35300e-06;0.014967083827448
8.35325e-06;0.014986815176759634
8.35350e-06;0.015006546526071403
8.35375e-06;0.015026277875383172
8.35400e-06;0.015046009224694807
8.35425e-06;0.015065740574006576
8.35450e-06;0.015086775112907439
8.35475e-06;0.015110936701021316
8.35500e-06;0.015135098289135358
8.35525e-06;0.0151592598772494
8.35550e-06;0.015183421465363278
8.35575e-06;0.015207583053477318
8.35600e-06;0.01523174464159136
8.35625e-06;0.015255906229705239
8.35650e-06;0.01528006781781928
8.35675e-06;0.01530422940593332
8.35700e-06;0.0153283909940472
8.35725e-06;0.015352552582161241
8.35750e-06;0.015376714170275283
8.35775e-06;0.01539963360037071
8.35800e-06;0.01541957242865105
8.35825e-06;0.015439511256931389
8.35850e-06;0.015459450085211593
8.35875e-06;0.015479388913491932
8.35900e-06;0.01549932774177227
8.35925e-06;0.01551926657005261
8.35950e-06;0.015539205398332813
8.35975e-06;0.015559144226613152
8.36000e-06;0.015579083054893491
8.36025e-06;0.015599021883173695
8.36050e-06;0.015618960711454034
8.36075e-06;0.015638899539734373
8.36100e-06;0.015654996006074163
8.36125e-06;0.015661872589914565
8.36150e-06;0.015668749173754964
8.36175e-06;0.015675625757595322
8.36200e-06;0.01568250234143572
8.36225e-06;0.015689378925276123
8.36250e-06;0.015696255509116477
8.36275e-06;0.015703132092956876
8.36300e-06;0.01571000867679728
8.36325e-06;0.015716885260637633
8.36350e-06;0.015723761844478035
8.36375e-06;0.015730638428318434
8.36400e-06;0.01573751501215879
8.36425e-06;0.01574439159599919
8.36450e-06;0.01575126817983959
8.36475e-06;0.015758144763679947
8.36500e-06;0.015765021347520346
8.36525e-06;0.01577189793136075
8.36550e-06;0.015778774515201103
8.36575e-06;0.015780308104766282
8.36600e-06;0.015780456814327656
8.36625e-06;0.01578060552388903
8.36650e-06;0.015780754233450402
8.36675e-06;0.015780902943011776
8.36700e-06;0.01578105165257315
8.36725e-06;0.015781200362134522
8.36750e-06;0.015781349071695896
8.36775e-06;0.01578149778125727
8.36800e-06;0.015781646490818643
8.36825e-06;0.015781795200380016
8.36850e-06;0.01578194390994139
8.36875e-06;0.015782092619502763
8.36900e-06;0.015782241329064136
8.36925e-06;0.01578239003862551
8.36950e-06;0.015782538748186883
8.36975e-06;0.015782687457748256
8.37000e-06;0.015782836167309633
8.37025e-06;0.01578170925421078
8.37050e-06;0.01577752143971158
8.37075e-06;0.015773333625212375
8.37100e-06;0.0157691458107132
8.37125e-06;0.015764957996214
8.37150e-06;0.015760770181714796
8.37175e-06;0.01575658236721562
8.37200e-06;0.01575239455271642
8.37225e-06;0.015748206738217217
8.37250e-06;0.01574401892371804
8.37275e-06;0.015733077781824954
8.37300e-06;0.01572038620794787
8.37325e-06;0.015707694634070873
8.37350e-06;0.01569500306019379
8.37375e-06;0.015682311486316707
8.37400e-06;0.01566961991243971
8.37425e-06;0.015656928338562626
8.37450e-06;0.015644236764685543
8.37475e-06;0.015631545190808543
8.37500e-06;0.015616695298286394
8.37525e-06;0.01559666644432809
8.37550e-06;0.015576637590369924
8.37575e-06;0.01555660873641162
8.37600e-06;0.015536579882453317
8.37625e-06;0.015516551028495014
8.37650e-06;0.015496522174536845
8.37675e-06;0.015476493320578542
8.37700e-06;0.01545646446662024
8.37725e-06;0.015436435612662072
8.37750e-06;0.015416406758703769
8.37775e-06;0.015396501060357228
8.37800e-06;0.015376890878229191
8.37825e-06;0.015357280696101023
8.37850e-06;0.015337670513972853
8.37875e-06;0.015318060331844817
8.37900e-06;0.015298450149716647
8.37925e-06;0.015278839967588479
8.37950e-06;0.015259229785460442
8.37975e-06;0.015239619603332272
8.38000e-06;0.015220009421204102
8.38025e-06;0.015200399239076066
8.38050e-06;0.01518170136815054
8.38075e-06;0.015165192620016563
8.38100e-06;0.015148683871882698
8.38125e-06;0.01513217512374872
8.38150e-06;0.015115666375614744
8.38175e-06;0.015099157627480878
8.38200e-06;0.015082648879346901
8.38225e-06;0.015066140131212923
8.38250e-06;0.01504520945869257
8.38275e-06;0.015023132643325826
8.38300e-06;0.01500105582795908
8.38325e-06;0.014978979012592486
8.38350e-06;0.01495690219722574
8.38375e-06;0.014934825381858995
8.38400e-06;0.0149127485664924
8.38425e-06;0.014888463935866597
8.38450e-06;0.014858881574937888
8.38475e-06;0.014829299214009179
8.38500e-06;0.01479971685308067
8.38525e-06;0.014770134492151962
8.38550e-06;0.014740552131223253
8.38575e-06;0.014710969770294744
8.38600e-06;0.014681387409366035
8.38625e-06;0.014651805048437327
8.38650e-06;0.014622222687508818
8.38675e-06;0.014592640326580109
8.38700e-06;0.014562717662662792
8.38725e-06;0.014531978429765242
8.38750e-06;0.014501239196867483
8.38775e-06;0.014470499963969725
8.38800e-06;0.014439760731072176
8.38825e-06;0.014409021498174418
8.38850e-06;0.01437828226527666
8.38875e-06;0.014347543032379109
8.38900e-06;0.01431680379948135
8.38925e-06;0.014286064566583592
8.38950e-06;0.014255325333686042
8.38975e-06;0.014226360604213686
8.39000e-06;0.014201653858072571
8.39025e-06;0.014176947111931622
8.39050e-06;0.014153121681792884
8.39075e-06;0.014131411000374306
8.39100e-06;0.014109700318955875
8.39125e-06;0.014086328864930522
8.39150e-06;0.014058972328669848
8.39175e-06;0.014031615792409361
8.39200e-06;0.014004259256148687
8.39225e-06;0.013976902719888015
8.39250e-06;0.013949546183627527
8.39275e-06;0.013922189647366854
8.39300e-06;0.013891843626486398
8.39325e-06;0.013854324232199356
8.39350e-06;0.01381680483791257
8.39375e-06;0.013779285443625527
8.39400e-06;0.013741766049338487
8.39425e-06;0.0137042466550517
8.39450e-06;0.013666727260764658
8.39475e-06;0.013626043471912496
8.39500e-06;0.013577766607092766
8.39525e-06;0.01352948974227271
8.39550e-06;0.013481212877452653
8.39575e-06;0.013432936012632924
8.39600e-06;0.013384659147812868
8.39625e-06;0.013336382282992812
8.39650e-06;0.013288105418173083
8.39675e-06;0.013239828553353025
8.39700e-06;0.013190943902237379
8.39725e-06;0.013140600846545737
8.39750e-06;0.013090257790853753
8.39775e-06;0.013039914735161768
8.39800e-06;0.012989571679470126
8.39825e-06;0.012939228623778143
8.39850e-06;0.012888885568086157
8.39875e-06;0.012838542512394515
8.39900e-06;0.012788199456702532
8.39925e-06;0.01274019076367525
8.39950e-06;0.01269778345590171
8.39975e-06;0.012655376148127881
8.40000e-06;0.012612968840354052
8.40025e-06;0.012573178769890484
8.40050e-06;0.012539668852333244
8.40075e-06;0.012506158934776005
8.40100e-06;0.012472649017218992
8.40125e-06;0.012440897074416316
8.40150e-06;0.012413363453820384
8.40175e-06;0.012385829833224452
8.40200e-06;0.012358296212628706
