Time(s);Current(A)
5.00000e-06;0.008996108869484803
5.00025e-06;0.009035463888997192
5.00050e-06;0.009074818908509715
5.00075e-06;0.009114173928022105
5.00100e-06;0.009153528947534495
5.00125e-06;0.009193212946401776
5.00150e-06;0.009234389470900958
5.00175e-06;0.00927556599540014
5.00200e-06;0.009316742519899461
5.00225e-06;0.009357919044398644
5.00250e-06;0.009399095568897826
5.00275e-06;0.009440272093397149
5.00300e-06;0.009481448617896331
5.00325e-06;0.009522625142395512
5.00350e-06;0.009563801666894835
5.00375e-06;0.009604978191394017
5.00400e-06;0.009646154715893338
5.00425e-06;0.009670324109491934
5.00450e-06;0.009686512509509183
5.00475e-06;0.009702700909526489
5.00500e-06;0.009718889309543738
5.00525e-06;0.009735077709560988
5.00550e-06;0.009751266109578294
5.00575e-06;0.009767454509595543
5.00600e-06;0.009783642909612793
5.00625e-06;0.009799831309630098
5.00650e-06;0.009816019709647348
5.00675e-06;0.009832208109664599
5.00700e-06;0.009848396509681903
5.00725e-06;0.009864584909699154
5.00750e-06;0.009880773309716404
5.00775e-06;0.009896961709733709
5.00800e-06;0.009913150109750959
5.00825e-06;0.009929338509768263
5.00850e-06;0.009945526909785514
5.00875e-06;0.009958637089047479
5.00900e-06;0.009957781883215175
5.00925e-06;0.009956926677382875
5.00950e-06;0.009956071471550573
5.00975e-06;0.00995521626571827
5.01000e-06;0.00995436105988597
5.01025e-06;0.009953505854053668
5.01050e-06;0.009952650648221364
5.01075e-06;0.009951795442389064
5.01100e-06;0.009950940236556762
5.01125e-06;0.009950085030724459
5.01150e-06;0.009949229824892158
5.01175e-06;0.009948374619059857
5.01200e-06;0.009947519413227553
5.01225e-06;0.009946664207395253
5.01250e-06;0.009945809001562948
5.01275e-06;0.009944953795730647
5.01300e-06;0.009944098589898347
5.01325e-06;0.009943243384066042
5.01350e-06;0.009939092668421596
5.01375e-06;0.009933395457791816
5.01400e-06;0.009927698247162017
5.01425e-06;0.009922001036532235
5.01450e-06;0.009916303825902455
5.01475e-06;0.009910606615272656
5.01500e-06;0.009904909404642876
5.01525e-06;0.009899212194013097
5.01550e-06;0.009893514983383297
5.01575e-06;0.009887817772753516
5.01600e-06;0.009879553035849057
5.01625e-06;0.00985963985134811
5.01650e-06;0.009839726666847232
5.01675e-06;0.009819813482346285
5.01700e-06;0.009799900297845407
5.01725e-06;0.009779987113344527
5.01750e-06;0.00976007392884358
5.01775e-06;0.009740160744342702
5.01800e-06;0.009720247559841822
5.01825e-06;0.009700334375340874
5.01850e-06;0.009680421190839996
5.01875e-06;0.009650868510305836
5.01900e-06;0.0096167922710129
5.01925e-06;0.00958271603172008
5.01950e-06;0.00954863979242726
5.01975e-06;0.009514563553134323
5.02000e-06;0.009480487313841504
5.02025e-06;0.009446411074548683
5.02050e-06;0.009412334835255748
5.02075e-06;0.009378258595962927
5.02100e-06;0.009344182356669992
5.02125e-06;0.00931010611737717
5.02150e-06;0.009276029878084352
5.02175e-06;0.009243614473610159
5.02200e-06;0.009211978454683259
5.02225e-06;0.009180342435756361
5.02250e-06;0.009148706416829355
5.02275e-06;0.009117070397902455
5.02300e-06;0.009085434378975557
5.02325e-06;0.009053798360048552
5.02350e-06;0.009022162341121654
5.02375e-06;0.008990526322194754
5.02400e-06;0.008958890303267748
5.02425e-06;0.00892725428434085
5.02450e-06;0.008895618265413952
5.02475e-06;0.008872057210362487
5.02500e-06;0.00885228552079599
5.02525e-06;0.008832513831229424
5.02550e-06;0.008812742141662926
5.02575e-06;0.008792970452096429
5.02600e-06;0.008773198762529863
5.02625e-06;0.008753427072963366
5.02650e-06;0.008733655383396866
5.02675e-06;0.008713883693830303
5.02700e-06;0.008694112004263803
5.02725e-06;0.008674340314697306
5.02750e-06;0.00865456862513074
5.02775e-06;0.008634796935564243
5.02800e-06;0.008615025245997745
5.02825e-06;0.008597521294328662
5.02850e-06;0.008580883170096209
5.02875e-06;0.008564245045863755
5.02900e-06;0.008547606921631246
5.02925e-06;0.008530968797398793
5.02950e-06;0.008514330673166284
5.02975e-06;0.00849769254893383
5.03000e-06;0.008481054424701377
5.03025e-06;0.008464416300468866
5.03050e-06;0.008447778176236412
5.03075e-06;0.008431140052003959
5.03100e-06;0.00841450192777145
5.03125e-06;0.008397863803538996
5.03150e-06;0.008381225679306542
5.03175e-06;0.008368642779588807
5.03200e-06;0.008357293320513543
5.03225e-06;0.008345943861438276
5.03250e-06;0.008334594402362974
5.03275e-06;0.008323244943287707
5.03300e-06;0.008311895484212442
5.03325e-06;0.008300546025137138
5.03350e-06;0.008289196566061873
5.03375e-06;0.008277847106986569
5.03400e-06;0.008266497647911304
5.03425e-06;0.008255148188836037
5.03450e-06;0.008243798729760735
5.03475e-06;0.008232449270685468
5.03500e-06;0.008221099811610203
5.03525e-06;0.008209750352534899
5.03550e-06;0.008198400893459634
5.03575e-06;0.008187051434384368
5.03600e-06;0.008175701975309065
5.03625e-06;0.008173801663797182
5.03650e-06;0.008174775413289086
5.03675e-06;0.008175749162780993
5.03700e-06;0.008176722912272895
5.03725e-06;0.008177696661764799
5.03750e-06;0.008178670411256707
5.03775e-06;0.00817964416074861
5.03800e-06;0.008180617910240516
5.03825e-06;0.00818159165973242
5.03850e-06;0.008182565409224324
5.03875e-06;0.008183539158716231
5.03900e-06;0.008184512908208133
5.03925e-06;0.008185486657700037
5.03950e-06;0.008186460407191945
5.03975e-06;0.008187434156683849
5.04000e-06;0.00818840790617575
5.04025e-06;0.008189381655667658
5.04050e-06;0.008190355405159562
5.04075e-06;0.008194350339906236
5.04100e-06;0.008199264201007576
5.04125e-06;0.0082041780621089
5.04150e-06;0.008209091923210224
5.04175e-06;0.008214005784311564
5.04200e-06;0.008218919645412888
5.04225e-06;0.008223833506514228
5.04250e-06;0.00822874736761555
5.04275e-06;0.008233661228716875
5.04300e-06;0.008238575089818215
5.04325e-06;0.00824348895091954
5.04350e-06;0.008248402812020862
5.04375e-06;0.008253316673122202
5.04400e-06;0.008258230534223527
5.04425e-06;0.00826314439532485
5.04450e-06;0.008268058256426191
5.04475e-06;0.008272972117527514
5.04500e-06;0.008277885978628838
5.04525e-06;0.008282799839730178
5.04550e-06;0.0082877137008315
5.04575e-06;0.008292627561932825
5.04600e-06;0.008297541423034165
5.04625e-06;0.008302455284135488
5.04650e-06;0.00830736914523683
5.04675e-06;0.008312283006338152
5.04700e-06;0.008317196867439477
5.04725e-06;0.008322110728540817
5.04750e-06;0.008326834146595633
5.04775e-06;0.008331034140476945
5.04800e-06;0.008335234134358271
5.04825e-06;0.008339434128239585
5.04850e-06;0.008343634122120898
5.04875e-06;0.008347834116002224
5.04900e-06;0.008352034109883536
5.04925e-06;0.00835623410376485
5.04950e-06;0.008360434097646176
5.04975e-06;0.008364634091527488
5.05000e-06;0.0083688340854088
5.05025e-06;0.008373034079290128
5.05050e-06;0.00837723407317144
5.05075e-06;0.008381434067052766
5.05100e-06;0.00838563406093408
5.05125e-06;0.008389834054815392
5.05150e-06;0.008394034048696718
5.05175e-06;0.00839823404257803
5.05200e-06;0.008402434036459345
5.05225e-06;0.00840663403034067
5.05250e-06;0.008410834024221983
5.05275e-06;0.008415034018103295
5.05300e-06;0.008419234011984623
5.05325e-06;0.008423434005865935
5.05350e-06;0.008427633999747247
5.05375e-06;0.008431833993628575
5.05400e-06;0.008436033987509887
5.05425e-06;0.0084402339813912
5.05450e-06;0.008441718840696251
5.05475e-06;0.008442377862289527
5.05500e-06;0.008443036883882805
5.05525e-06;0.00844369590547608
5.05550e-06;0.008444354927069356
5.05575e-06;0.008445013948662634
5.05600e-06;0.00844567297025591
5.05625e-06;0.008446331991849186
5.05650e-06;0.008446991013442463
5.05675e-06;0.00844765003503574
5.05700e-06;0.008448309056629013
5.05725e-06;0.008448968078222291
5.05750e-06;0.008449627099815567
5.05775e-06;0.008450286121408843
5.05800e-06;0.00845094514300212
5.05825e-06;0.008451604164595396
5.05850e-06;0.008452263186188672
5.05875e-06;0.00845292220778195
5.05900e-06;0.008453581229375225
5.05925e-06;0.008454240250968503
5.05950e-06;0.008454899272561779
5.05975e-06;0.008454104319307891
5.06000e-06;0.008452867123790552
5.06025e-06;0.008451629928273217
5.06050e-06;0.008450392732755881
5.06075e-06;0.008449155537238542
5.06100e-06;0.008447918341721206
5.06125e-06;0.00844668114620387
5.06150e-06;0.00844544395068653
5.06175e-06;0.008444206755169194
5.06200e-06;0.00844296955965186
5.06225e-06;0.00844173236413452
5.06250e-06;0.008440495168617184
5.06275e-06;0.008439257973099848
5.06300e-06;0.008438020777582508
5.06325e-06;0.008436783582065172
5.06350e-06;0.008435546386547832
5.06375e-06;0.008434309191030496
5.06400e-06;0.008433071995513162
5.06425e-06;0.008431834799995822
5.06450e-06;0.008430597604478486
5.06475e-06;0.00842936040896115
5.06500e-06;0.008420971089055432
5.06525e-06;0.008410406372729566
5.06550e-06;0.008399841656403699
5.06575e-06;0.008389276940077796
5.06600e-06;0.008378712223751928
5.06625e-06;0.00836814750742606
5.06650e-06;0.008357582791100158
5.06675e-06;0.00834701807477429
5.06700e-06;0.008336453358448424
5.06725e-06;0.00832588864212252
5.06750e-06;0.008315323925796654
5.06775e-06;0.008304759209470752
5.06800e-06;0.008294194493144884
5.06825e-06;0.008280215029158032
5.06850e-06;0.008256850284353433
5.06875e-06;0.008233485539548913
5.06900e-06;0.008210120794744391
5.06925e-06;0.008186756049939792
5.06950e-06;0.008163391305135272
5.06975e-06;0.00814002656033075
5.07000e-06;0.00811666181552615
5.07025e-06;0.008093297070721631
5.07050e-06;0.00806993232591711
5.07075e-06;0.00804656758111251
5.07100e-06;0.008023202836307988
5.07125e-06;0.007999838091503468
5.07150e-06;0.007976473346698869
5.07175e-06;0.007953401924574544
5.07200e-06;0.007930419719733526
5.07225e-06;0.007907437514892583
5.07250e-06;0.007884455310051641
5.07275e-06;0.007861473105210622
5.07300e-06;0.00783849090036968
5.07325e-06;0.007815508695528738
5.07350e-06;0.007792526490687718
5.07375e-06;0.007769544285846776
5.07400e-06;0.007746562081005834
5.07425e-06;0.007723579876164815
5.07450e-06;0.007707863480352693
5.07475e-06;0.007694357059380021
5.07500e-06;0.007680850638407302
5.07525e-06;0.00766734421743463
5.07550e-06;0.007653837796461957
5.07575e-06;0.00764033137548924
5.07600e-06;0.007626824954516567
5.07625e-06;0.007613318533543849
5.07650e-06;0.007599812112571176
5.07675e-06;0.007586305691598504
5.07700e-06;0.007572799270625786
5.07725e-06;0.007564398137791063
5.07750e-06;0.007557549833868771
5.07775e-06;0.007550701529946456
5.07800e-06;0.0075438532260241635
5.07825e-06;0.007537004922101871
5.07850e-06;0.007530156618179556
5.07875e-06;0.007523308314257264
5.07900e-06;0.007516460010334971
5.07925e-06;0.007509611706412655
5.07950e-06;0.007502763402490363
5.07975e-06;0.007495915098568071
5.08000e-06;0.007489066794645755
5.08025e-06;0.007482218490723463
5.08050e-06;0.007475370186801148
5.08075e-06;0.007469444704868263
5.08100e-06;0.007466055557790095
5.08125e-06;0.007462666410711915
5.08150e-06;0.007459277263633747
5.08175e-06;0.0074558881165555785
5.08200e-06;0.007452498969477399
5.08225e-06;0.00744910982239923
5.08250e-06;0.0074457206753210615
5.08275e-06;0.007442331528242882
5.08300e-06;0.007438942381164713
5.08325e-06;0.0074355532340865445
5.08350e-06;0.007432164087008365
5.08375e-06;0.007428774939930196
5.08400e-06;0.0074253857928520284
5.08425e-06;0.007421996645773849
5.08450e-06;0.007426850382673853
5.08475e-06;0.0074342112823852086
5.08500e-06;0.007441572182096588
5.08525e-06;0.007448933081807943
5.08550e-06;0.007456293981519323
5.08575e-06;0.007463654881230678
5.08600e-06;0.0074710157809420325
5.08625e-06;0.007478376680653413
5.08650e-06;0.007492106462238387
5.08675e-06;0.007523340830043762
5.08700e-06;0.007554575197849242
5.08725e-06;0.0075858095656546175
5.08750e-06;0.007617043933459992
5.08775e-06;0.007648278301265473
5.08800e-06;0.0076795126690708485
5.08825e-06;0.007710747036876223
5.08850e-06;0.007741981404681704
5.08875e-06;0.007789911792210388
5.08900e-06;0.007842920455722806
5.08925e-06;0.007895929119235407
5.08950e-06;0.007948937782747828
5.08975e-06;0.008001946446260427
5.09000e-06;0.008054955109772848
5.09025e-06;0.008107963773285267
5.09050e-06;0.008160972436797868
5.09075e-06;0.008213981100310287
5.09100e-06;0.008266989763822707
5.09125e-06;0.00832039250069075
5.09150e-06;0.008374878330503882
5.09175e-06;0.008429364160317011
5.09200e-06;0.008483849990130328
5.09225e-06;0.008538335819943458
5.09250e-06;0.00859282164975659
5.09275e-06;0.008647307479569905
5.09300e-06;0.008701793309383036
5.09325e-06;0.008756279139196167
5.09350e-06;0.008810764969009482
5.09375e-06;0.008865250798822614
5.09400e-06;0.008895102429603173
5.09425e-06;0.008917461300828823
5.09450e-06;0.008939820172054474
5.09475e-06;0.0089621790432802
5.09500e-06;0.00898453791450585
5.09525e-06;0.009006896785731501
5.09550e-06;0.009029255656957226
5.09575e-06;0.009051614528182877
5.09600e-06;0.009073973399408528
5.09625e-06;0.009096332270634253
5.09650e-06;0.009118691141859904
5.09675e-06;0.009141050013085555
5.09700e-06;0.00916340888431128
5.09725e-06;0.00918576775553693
5.09750e-06;0.009198916192819812
5.09775e-06;0.00918675016545471
5.09800e-06;0.009174584138089649
5.09825e-06;0.009162418110724546
5.09850e-06;0.009150252083359485
5.09875e-06;0.009138086055994423
5.09900e-06;0.009125920028629322
5.09925e-06;0.00911375400126426
5.09950e-06;0.009101587973899199
5.09975e-06;0.009089421946534096
5.10000e-06;0.009077255919169035
5.10025e-06;0.009065089891803975
5.10050e-06;0.009052923864438872
5.10075e-06;0.009040757837073811
5.10100e-06;0.00902859180970875
5.10125e-06;0.009008058604462375
5.10150e-06;0.008984980431063404
5.10175e-06;0.008961902257664432
5.10200e-06;0.008938824084265383
5.10225e-06;0.008915745910866411
5.10250e-06;0.008892667737467361
5.10275e-06;0.008871102181468615
5.10300e-06;0.008849996704503107
5.10325e-06;0.008828891227537529
5.10350e-06;0.008807785750572023
5.10375e-06;0.008786680273606516
5.10400e-06;0.008765574796640937
5.10425e-06;0.008747360657664573
5.10450e-06;0.008737116444809994
5.10475e-06;0.008729028882889334
5.10500e-06;0.008720941320968702
5.10525e-06;0.008712853759048069
5.10550e-06;0.008704766197127409
5.10575e-06;0.008696678635206777
5.10600e-06;0.008688591073286145
5.10625e-06;0.008680503511365486
5.10650e-06;0.008672415949444852
5.10675e-06;0.008664328387524192
5.10700e-06;0.00865624082560356
5.10725e-06;0.008648153263682928
5.10750e-06;0.008640065701762269
5.10775e-06;0.008631978139841635
5.10800e-06;0.008623890577921003
5.10825e-06;0.008615803016000343
5.10850e-06;0.008607715454079711
5.10875e-06;0.008599627892159078
5.10900e-06;0.008591540330238418
5.10925e-06;0.008583452768317786
5.10950e-06;0.008575365206397154
5.10975e-06;0.008569476852928713
5.11000e-06;0.008569632925265287
5.11025e-06;0.00856978899760186
5.11050e-06;0.008569945069938434
5.11075e-06;0.00857010114227501
5.11100e-06;0.008570257214611583
5.11125e-06;0.008570413286948157
5.11150e-06;0.00857056935928473
5.11175e-06;0.008570725431621306
5.11200e-06;0.00857088150395788
5.11225e-06;0.008571037576294453
5.11250e-06;0.008571193648631029
5.11275e-06;0.008571349720967602
5.11300e-06;0.008571505793304176
5.11325e-06;0.00857166186564075
5.11350e-06;0.008571817937977323
5.11375e-06;0.008571974010313899
5.11400e-06;0.008572130082650472
5.11425e-06;0.008572286154987046
5.11450e-06;0.00857244222732362
5.11475e-06;0.008572598299660195
5.11500e-06;0.008572754371996769
5.11525e-06;0.008571223339282149
5.11550e-06;0.008569179155217726
5.11575e-06;0.0085671349711533
5.11600e-06;0.00856509078708887
5.11625e-06;0.008563046603024448
5.11650e-06;0.008561002418960025
5.11675e-06;0.008558958234895593
5.11700e-06;0.00855691405083117
5.11725e-06;0.008554869866766747
5.11750e-06;0.008552825682702315
5.11775e-06;0.008550781498637892
5.11800e-06;0.008548737314573469
5.11825e-06;0.008546693130509037
5.11850e-06;0.008544648946444614
5.11875e-06;0.00854260476238019
5.11900e-06;0.00854056057831576
5.11925e-06;0.008538516394251336
5.11950e-06;0.008536472210186906
5.11975e-06;0.008534428026122483
5.12000e-06;0.008532383842058058
5.12025e-06;0.008530339657993628
5.12050e-06;0.008528295473929205
5.12075e-06;0.008526251289864782
5.12100e-06;0.00852420710580035
5.12125e-06;0.008522162921735927
5.12150e-06;0.008520118737671504
5.12175e-06;0.008518074553607072
5.12200e-06;0.008517126458758649
5.12225e-06;0.008516511751365974
5.12250e-06;0.008515897043973297
5.12275e-06;0.008515282336580622
5.12300e-06;0.008514667629187947
5.12325e-06;0.00851405292179527
5.12350e-06;0.008513438214402595
5.12375e-06;0.008512823507009918
5.12400e-06;0.008512208799617244
5.12425e-06;0.008511594092224569
5.12450e-06;0.008510979384831892
5.12475e-06;0.008510364677439217
5.12500e-06;0.008509749970046542
5.12525e-06;0.008509135262653865
5.12550e-06;0.00850852055526119
5.12575e-06;0.008507905847868515
5.12600e-06;0.008507291140475838
5.12625e-06;0.008506676433083163
5.12650e-06;0.008506061725690487
5.12675e-06;0.00850544701829781
5.12700e-06;0.008504832310905137
5.12725e-06;0.008504217603512462
5.12750e-06;0.008503602896119785
5.12775e-06;0.00850298818872711
5.12800e-06;0.008502373481334433
5.12825e-06;0.008501758773941758
5.12850e-06;0.008501144066549083
5.12875e-06;0.008505039121765028
5.12900e-06;0.008510305870324806
5.12925e-06;0.008515572618884587
5.12950e-06;0.008520839367444384
5.12975e-06;0.008526106116004165
5.13000e-06;0.008531372864563945
5.13025e-06;0.008536639613123743
5.13050e-06;0.008541906361683524
5.13075e-06;0.008547173110243304
5.13100e-06;0.008552439858803102
5.13125e-06;0.008557706607362882
5.13150e-06;0.008562973355922663
5.13175e-06;0.00856824010448246
5.13200e-06;0.00857350685304224
5.13225e-06;0.008578773601602039
5.13250e-06;0.008584040350161819
5.13275e-06;0.008589307098721598
5.13300e-06;0.008594573847281396
5.13325e-06;0.008599840595841176
5.13350e-06;0.008603196839815334
5.13375e-06;0.008601302147617503
5.13400e-06;0.00859940745541968
5.13425e-06;0.008597512763221855
5.13450e-06;0.008595618071024025
5.13475e-06;0.0085937233788262
5.13500e-06;0.008591828686628375
5.13525e-06;0.008589933994430546
5.13550e-06;0.00858803930223272
5.13575e-06;0.008586144610034896
5.13600e-06;0.008584249917837065
5.13625e-06;0.008582355225639242
5.13650e-06;0.00858046053344141
5.13675e-06;0.008578565841243587
5.13700e-06;0.008576671149045763
5.13725e-06;0.008574776456847932
5.13750e-06;0.008572881764650106
5.13775e-06;0.008570987072452282
5.13800e-06;0.008569092380254452
5.13825e-06;0.008567197688056628
5.13850e-06;0.008556631430433696
5.13875e-06;0.008543427621878753
5.13900e-06;0.008530223813323854
5.13925e-06;0.008517020004768956
5.13950e-06;0.008503816196214013
5.13975e-06;0.008490612387659115
5.14000e-06;0.008477408579104216
5.14025e-06;0.008464204770549273
5.14050e-06;0.008451000961994375
5.14075e-06;0.008437797153439432
5.14100e-06;0.008424593344884533
5.14125e-06;0.008411389536329635
5.14150e-06;0.008398185727774692
5.14175e-06;0.008385101472104221
5.14200e-06;0.00837234580217486
5.14225e-06;0.008359590132245454
5.14250e-06;0.008346834462316093
5.14275e-06;0.00833407879238673
5.14300e-06;0.008321323122457328
5.14325e-06;0.008308567452527966
5.14350e-06;0.008295811782598604
5.14375e-06;0.008283056112669199
5.14400e-06;0.008270300442739837
5.14425e-06;0.008257544772810476
5.14450e-06;0.00824478910288107
5.14475e-06;0.00823203343295171
5.14500e-06;0.008219277763022306
5.14525e-06;0.008206130016780496
5.14550e-06;0.00819286301626424
5.14575e-06;0.008179596015747937
5.14600e-06;0.00816632901523168
5.14625e-06;0.008153062014715422
5.14650e-06;0.008139795014199121
5.14675e-06;0.008126528013682865
5.14700e-06;0.008113261013166607
5.14725e-06;0.008099994012650305
5.14750e-06;0.008086727012134047
5.14775e-06;0.008073460011617791
5.14800e-06;0.00806019301110149
5.14825e-06;0.008046926010585232
5.14850e-06;0.008033659010068975
5.14875e-06;0.008020392009552672
5.14900e-06;0.008007125009036416
5.14925e-06;0.00799298753499399
5.14950e-06;0.007976457603504726
5.14975e-06;0.007959927672015463
5.15000e-06;0.007943397740526143
5.15025e-06;0.00792686780903688
5.15050e-06;0.007910337877547616
5.15075e-06;0.007893807946058297
5.15100e-06;0.007877278014569033
5.15125e-06;0.00786074808307977
5.15150e-06;0.007844218151590449
5.15175e-06;0.007827688220101185
