Time(s);Current(A)
9.50000e-06;0.0061668512285010324
9.50025e-06;0.006155728842130646
9.50050e-06;0.006144606455760334
9.50075e-06;0.006139078685124096
9.50100e-06;0.006134203743630313
9.50125e-06;0.006129328802136562
9.50150e-06;0.006124453860642779
9.50175e-06;0.006119578919148994
9.50200e-06;0.006114703977655244
9.50225e-06;0.006109829036161461
9.50250e-06;0.006104954094667677
9.50275e-06;0.006100079153173926
9.50300e-06;0.006095204211680142
9.50325e-06;0.006090329270186359
9.50350e-06;0.0060854543286925755
9.50375e-06;0.006080579387198824
9.50400e-06;0.006075704445705041
9.50425e-06;0.006070829504211257
9.50450e-06;0.006065954562717506
9.50475e-06;0.006061079621223723
9.50500e-06;0.006056204679729939
9.50525e-06;0.006051329738236189
9.50550e-06;0.006046454796742404
9.50575e-06;0.006041579855248621
9.50600e-06;0.006036704913754871
9.50625e-06;0.006031829972261087
9.50650e-06;0.006026955030767303
9.50675e-06;0.006022304567643096
9.50700e-06;0.006017997200735499
9.50725e-06;0.006013689833827903
9.50750e-06;0.006009382466920335
9.50775e-06;0.006005075100012738
9.50800e-06;0.006000767733105141
9.50825e-06;0.005996460366197574
9.50850e-06;0.005992152999289978
9.50875e-06;0.005987845632382381
9.50900e-06;0.005983538265474814
9.50925e-06;0.0059792308985672175
9.50950e-06;0.005974923531659621
9.50975e-06;0.005970616164752053
9.51000e-06;0.005966308797844456
9.51025e-06;0.00596200143093686
9.51050e-06;0.005957694064029293
9.51075e-06;0.005953386697121696
9.51100e-06;0.0059490793302140995
9.51125e-06;0.005944771963306532
9.51150e-06;0.005940464596398936
9.51175e-06;0.005935437074098593
9.51200e-06;0.005929308855142301
9.51225e-06;0.005923180636186051
9.51250e-06;0.005917052417229759
9.51275e-06;0.005910924198273468
9.51300e-06;0.005904795979317218
9.51325e-06;0.005898667760360926
9.51350e-06;0.005892539541404634
9.51375e-06;0.005886411322448384
9.51400e-06;0.0058802831034920925
9.51425e-06;0.005874154884535801
9.51450e-06;0.005868026665579551
9.51475e-06;0.005861898446623259
9.51500e-06;0.0058557702276669675
9.51525e-06;0.0058496420087107166
9.51550e-06;0.005843513789754425
9.51575e-06;0.005837385570798133
9.51600e-06;0.005831257351841883
9.51625e-06;0.0058251291328855915
9.51650e-06;0.0058190009139293
9.51675e-06;0.005816063769970839
9.51700e-06;0.0058180039144628895
9.51725e-06;0.00581994405895494
9.51750e-06;0.005821884203446978
9.51775e-06;0.005823824347939029
9.51800e-06;0.00582576449243108
9.51825e-06;0.005827704636923118
9.51850e-06;0.005840549741700283
9.51875e-06;0.005870062156675166
9.51900e-06;0.005899574571649848
9.51925e-06;0.005929086986624732
9.51950e-06;0.005958599401599614
9.51975e-06;0.005988111816574297
9.52000e-06;0.00601762423154918
9.52025e-06;0.006061058436129288
9.52050e-06;0.0061257709195651575
9.52075e-06;0.006190483403000588
9.52100e-06;0.006255195886436457
9.52125e-06;0.006319908369872326
9.52150e-06;0.006384620853307757
9.52175e-06;0.006449333336743626
9.52200e-06;0.006514045820179495
9.52225e-06;0.006578758303614926
9.52250e-06;0.006652629804461582
9.52275e-06;0.006740500089376552
9.52300e-06;0.006828370374290927
9.52325e-06;0.006916240659205897
9.52350e-06;0.0070041109441208674
9.52375e-06;0.007091981229035243
9.52400e-06;0.007179851513950213
9.52425e-06;0.007267721798865184
9.52450e-06;0.007355592083779559
9.52475e-06;0.007441919127465114
9.52500e-06;0.007525887457353238
9.52525e-06;0.007609855787240792
9.52550e-06;0.007693824117128916
9.52575e-06;0.00777779244701704
9.52600e-06;0.007861760776904595
9.52625e-06;0.007945729106792719
9.52650e-06;0.008008374657422183
9.52675e-06;0.008068532077965299
9.52700e-06;0.008128689498508822
9.52725e-06;0.008188846919052348
9.52750e-06;0.008249004339595464
9.52775e-06;0.008309161760138987
9.52800e-06;0.008356150865097911
9.52825e-06;0.008383013312558248
9.52850e-06;0.008409875760018767
9.52875e-06;0.008436738207479288
9.52900e-06;0.008463600654939807
9.52925e-06;0.008490463102400144
9.52950e-06;0.008517325549860663
9.52975e-06;0.008544187997321182
9.53000e-06;0.00857105044478152
9.53025e-06;0.00859791289224204
9.53050e-06;0.008624775339702559
9.53075e-06;0.008651637787162898
9.53100e-06;0.008678500234623417
9.53125e-06;0.008705362682083936
9.53150e-06;0.008707337286377658
9.53175e-06;0.008706407757461333
9.53200e-06;0.008705478228545008
9.53225e-06;0.008704548699628691
9.53250e-06;0.008703619170712365
9.53275e-06;0.008702689641796041
9.53300e-06;0.008701760112879724
9.53325e-06;0.008700830583963398
9.53350e-06;0.008699901055047074
9.53375e-06;0.008698971526130755
9.53400e-06;0.008698041997214431
9.53425e-06;0.008697112468298107
9.53450e-06;0.008696182939381788
9.53475e-06;0.00869281351055126
9.53500e-06;0.008685714900900676
9.53525e-06;0.00867861629125014
9.53550e-06;0.008671517681599556
9.53575e-06;0.008664419071948974
9.53600e-06;0.008657320462298437
9.53625e-06;0.008650221852647855
9.53650e-06;0.00864312324299727
9.53675e-06;0.008636024633346735
9.53700e-06;0.008628926023696151
9.53725e-06;0.008621827414045567
9.53750e-06;0.008614728804394983
9.53775e-06;0.008607630194744448
9.53800e-06;0.008600531585093864
9.53825e-06;0.008603421744679669
9.53850e-06;0.008607477482024952
9.53875e-06;0.008611533219370263
9.53900e-06;0.008615588956715573
9.53925e-06;0.008619644694060858
9.53950e-06;0.00862370043140617
9.53975e-06;0.00862775616875148
9.54000e-06;0.008631811906096763
9.54025e-06;0.008635867643442074
9.54050e-06;0.008639923380787385
9.54075e-06;0.008643979118132668
9.54100e-06;0.008648034855477979
9.54125e-06;0.008652090592823292
9.54150e-06;0.008660737835238205
9.54175e-06;0.008676402805119587
9.54200e-06;0.00869206777500097
9.54225e-06;0.008707732744882247
9.54250e-06;0.00872339771476363
9.54275e-06;0.008739062684645011
9.54300e-06;0.008754727654526288
9.54325e-06;0.008770392624407672
9.54350e-06;0.008786057594289054
9.54375e-06;0.00880172256417033
9.54400e-06;0.008817387534051714
9.54425e-06;0.008833052503933096
9.54450e-06;0.008848717473814372
9.54475e-06;0.008864382443695754
9.54500e-06;0.008880047413577138
9.54525e-06;0.008893527204577258
9.54550e-06;0.008903667134328818
9.54575e-06;0.008913807064080377
9.54600e-06;0.008923946993831937
9.54625e-06;0.008934086923583428
9.54650e-06;0.008944226853334987
9.54675e-06;0.008954366783086547
9.54700e-06;0.00896450671283804
9.54725e-06;0.008974646642589599
9.54750e-06;0.008984786572341159
9.54775e-06;0.008994926502092649
9.54800e-06;0.009005066431844209
9.54825e-06;0.009015206361595769
9.54850e-06;0.009025346291347259
9.54875e-06;0.009035486221098819
9.54900e-06;0.009037518345756716
9.54925e-06;0.009027158375524931
9.54950e-06;0.009016798405293076
9.54975e-06;0.00900643843506122
9.55000e-06;0.008996078464829435
9.55025e-06;0.008985718494597578
9.55050e-06;0.008975358524365724
9.55075e-06;0.008964998554133938
9.55100e-06;0.008954638583902082
9.55125e-06;0.008944278613670227
9.55150e-06;0.008933918643438442
9.55175e-06;0.008923558673206586
9.55200e-06;0.00891319870297473
9.55225e-06;0.008902838732742944
9.55250e-06;0.00889247876251109
9.55275e-06;0.008878042027949071
9.55300e-06;0.008857374303637849
9.55325e-06;0.008836706579326488
9.55350e-06;0.008816038855015126
9.55375e-06;0.008795371130703906
9.55400e-06;0.008774703406392545
9.55425e-06;0.008754035682081183
9.55450e-06;0.008733367957769822
9.55475e-06;0.008712700233458602
9.55500e-06;0.00869203250914724
9.55525e-06;0.00867136478483588
9.55550e-06;0.008650697060524659
9.55575e-06;0.008630029336213298
9.55600e-06;0.008609361611901937
9.55625e-06;0.008588693887590714
9.55650e-06;0.008568932987682102
9.55675e-06;0.00855055809223708
9.55700e-06;0.008532183196792182
9.55725e-06;0.00851380830134716
9.55750e-06;0.008495433405902138
9.55775e-06;0.008477058510457242
9.55800e-06;0.00845868361501222
9.55825e-06;0.008440308719567198
9.55850e-06;0.008421933824122301
9.55875e-06;0.008396325094549652
9.55900e-06;0.008367243561226192
9.55925e-06;0.00833816202790293
9.55950e-06;0.00830908049457947
9.55975e-06;0.008279998961256009
9.56000e-06;0.008250917427932745
9.56025e-06;0.008221835894609284
9.56050e-06;0.008192754361285824
9.56075e-06;0.008163672827962562
9.56100e-06;0.008114530851759708
9.56125e-06;0.008064460665562668
9.56150e-06;0.008014390479365967
9.56175e-06;0.007964320293168925
9.56200e-06;0.007914250106971886
9.56225e-06;0.007864179920775184
9.56250e-06;0.007814109734578143
9.56275e-06;0.007764039548381102
9.56300e-06;0.007713969362184401
9.56325e-06;0.00766389917598736
9.56350e-06;0.007613327348216282
9.56375e-06;0.007559743622647008
9.56400e-06;0.007506159897078096
9.56425e-06;0.007452576171508822
9.56450e-06;0.0073989924459395475
9.56475e-06;0.007345408720370636
9.56500e-06;0.007291824994801361
9.56525e-06;0.007238241269232087
9.56550e-06;0.007184657543663175
9.56575e-06;0.007131073818093901
9.56600e-06;0.0070774900925246265
9.56625e-06;0.007031328415457685
9.56650e-06;0.007000251289860077
9.56675e-06;0.006969174164262469
9.56700e-06;0.006938097038665071
9.56725e-06;0.006907019913067463
9.56750e-06;0.006875942787469855
9.56775e-06;0.006844865661872458
9.56800e-06;0.00681378853627485
9.56825e-06;0.0067827114106772425
9.56850e-06;0.0067516342850798446
9.56875e-06;0.006720557159482237
9.56900e-06;0.0067177736238277315
9.56925e-06;0.00672079452381891
9.56950e-06;0.006723815423810108
9.56975e-06;0.006726836323801306
9.57000e-06;0.006729857223792484
9.57025e-06;0.006732878123783682
9.57050e-06;0.0067358990237748806
9.57075e-06;0.006738919923766059
9.57100e-06;0.006741940823757257
9.57125e-06;0.006744961723748455
9.57150e-06;0.00675647323288778
9.57175e-06;0.0067852410332898535
9.57200e-06;0.006814008833691927
9.57225e-06;0.0068427766340940005
9.57250e-06;0.00687154443449588
9.57275e-06;0.006900312234897953
9.57300e-06;0.006929080035300027
9.57325e-06;0.006957847835701906
9.57350e-06;0.006986615636103979
9.57375e-06;0.007015383436506053
9.57400e-06;0.007044151236907931
9.57425e-06;0.00707706355943128
9.57450e-06;0.007110826131498405
9.57475e-06;0.0071445887035653
9.57500e-06;0.007178351275632424
9.57525e-06;0.0072121138476995495
9.57550e-06;0.007245876419766445
9.57575e-06;0.007279638991833569
9.57600e-06;0.007313401563900694
9.57625e-06;0.007347164135967589
9.57650e-06;0.007380926708034714
9.57675e-06;0.007408115199034174
9.57700e-06;0.007421942545299416
9.57725e-06;0.007435769891564752
9.57750e-06;0.007449597237830088
9.57775e-06;0.00746342458409533
9.57800e-06;0.007477251930360665
9.57825e-06;0.007491079276626001
9.57850e-06;0.007504906622891243
9.57875e-06;0.007518733969156579
9.57900e-06;0.007532561315421914
9.57925e-06;0.007519854665545343
9.57950e-06;0.007501704561041434
9.57975e-06;0.007483554456537526
9.58000e-06;0.007465404352033741
9.58025e-06;0.007447254247529832
9.58050e-06;0.007429104143025923
9.58075e-06;0.007410954038522015
9.58100e-06;0.00739280393401823
9.58125e-06;0.007374653829514321
9.58150e-06;0.007348153357698401
9.58175e-06;0.007304681621747548
9.58200e-06;0.007261209885796401
9.58225e-06;0.007217738149845253
9.58250e-06;0.0071742664138944
9.58275e-06;0.007130794677943252
9.58300e-06;0.007087322941992105
9.58325e-06;0.007043851206041252
9.58350e-06;0.007000379470090104
9.58375e-06;0.006956907734138956
9.58400e-06;0.006908435344028253
9.58425e-06;0.006858937068713746
9.58450e-06;0.00680943879339924
9.58475e-06;0.006759940518085069
9.58500e-06;0.006710442242770562
9.58525e-06;0.006660943967456055
9.58550e-06;0.006611445692141883
9.58575e-06;0.006561947416827377
9.58600e-06;0.00651244914151287
9.58625e-06;0.0064696863803891565
9.58650e-06;0.006440612860248906
9.58675e-06;0.0064115393401086565
9.58700e-06;0.006382465819968603
9.58725e-06;0.0063533922998283525
9.58750e-06;0.006324318779688102
9.58775e-06;0.006295245259548049
9.58800e-06;0.006266171739407799
9.58825e-06;0.0062370982192675485
9.58850e-06;0.006208024699127496
9.58875e-06;0.006178951178987245
9.58900e-06;0.0061604706793319955
9.58925e-06;0.0061635194061128475
9.58950e-06;0.006166568132893679
9.58975e-06;0.0061696168596745305
9.59000e-06;0.0061726655864553824
9.59025e-06;0.0061757143132362136
9.59050e-06;0.0061787630400170655
9.59075e-06;0.006181811766797917
9.59100e-06;0.0061848604935787485
9.59125e-06;0.0061879092203596005
9.59150e-06;0.006190957947140452
9.59175e-06;0.006201355885923757
9.59200e-06;0.006226690343480163
9.59225e-06;0.00625202480103657
9.59250e-06;0.006277359258592805
9.59275e-06;0.006302693716149211
9.59300e-06;0.006328028173705618
9.59325e-06;0.006353362631261853
9.59350e-06;0.006378697088818259
9.59375e-06;0.006404031546374666
9.59400e-06;0.006429366003930901
9.59425e-06;0.006454700461487307
9.59450e-06;0.006482212370927417
9.59475e-06;0.006510170985058041
9.59500e-06;0.006538129599188857
9.59525e-06;0.006566088213319671
9.59550e-06;0.006594046827450297
9.59575e-06;0.006622005441581111
9.59600e-06;0.006649964055711927
9.59625e-06;0.006677922669842552
9.59650e-06;0.006705881283973367
9.59675e-06;0.0067338398981041814
9.59700e-06;0.006755025760605859
9.59725e-06;0.006762446700849548
9.59750e-06;0.0067698676410932355
9.59775e-06;0.006777288581336924
9.59800e-06;0.006784709521580562
9.59825e-06;0.00679213046182425
9.59850e-06;0.006799551402067939
9.59875e-06;0.006806972342311576
9.59900e-06;0.006814393282555265
9.59925e-06;0.006821814222798953
9.59950e-06;0.006829235163042591
9.59975e-06;0.00683665610328628
9.60000e-06;0.006820719703236529
9.60025e-06;0.006799991540139429
9.60050e-06;0.006779263377042189
9.60075e-06;0.006758535213944949
9.60100e-06;0.0067378070508478495
9.60125e-06;0.006717078887750609
9.60150e-06;0.006696350724653369
9.60175e-06;0.006675622561556269
9.60200e-06;0.006654894398459029
9.60225e-06;0.006634166235361789
9.60250e-06;0.006613438072264689
9.60275e-06;0.006587882615464653
9.60300e-06;0.0065525161798803844
9.60325e-06;0.0065171497442963544
9.60350e-06;0.006481783308712086
9.60375e-06;0.0064464168731278165
9.60400e-06;0.006411050437543787
9.60425e-06;0.006375684001959518
9.60450e-06;0.006340317566375249
9.60475e-06;0.0063049511307912195
9.60500e-06;0.006269584695206951
9.60525e-06;0.006238155764327808
9.60550e-06;0.006207534613329322
9.60575e-06;0.0061769134623306295
9.60600e-06;0.006146292311331937
9.60625e-06;0.0061156711603332446
9.60650e-06;0.0060850500093347585
9.60675e-06;0.006054428858336066
9.60700e-06;0.0060238077073373735
9.60725e-06;0.005993186556338888
9.60750e-06;0.005971553362468828
9.60775e-06;0.005968187268582297
9.60800e-06;0.005964821174695789
9.60825e-06;0.005961455080809258
9.60850e-06;0.005958088986922727
9.60875e-06;0.00595472289303622
9.60900e-06;0.005951356799149689
9.60925e-06;0.005947990705263158
9.60950e-06;0.00594462461137665
9.60975e-06;0.005941258517490119
9.61000e-06;0.005966730459307453
9.61025e-06;0.005998118529937685
9.61050e-06;0.0060295066005681295
9.61075e-06;0.006060894671198575
9.61100e-06;0.006092282741828806
9.61125e-06;0.006123670812459251
9.61150e-06;0.006155058883089696
9.61175e-06;0.006186446953719928
9.61200e-06;0.006217835024350372
9.61225e-06;0.006256585231831092
9.61250e-06;0.006310298226518816
9.61275e-06;0.006364011221206903
9.61300e-06;0.00641772421589499
9.61325e-06;0.006471437210582713
9.61350e-06;0.0065251502052708
9.61375e-06;0.006578863199958887
9.61400e-06;0.00663257619464661
9.61425e-06;0.006686289189334697
9.61450e-06;0.006739748072879445
9.61475e-06;0.006792690501617324
9.61500e-06;0.0068456329303548434
9.61525e-06;0.006898575359092722
9.61550e-06;0.006951517787830601
9.61575e-06;0.007004460216568121
9.61600e-06;0.0070574026453059996
9.61625e-06;0.007110345074043878
9.61650e-06;0.007163287502781399
9.61675e-06;0.007208739071885802
9.61700e-06;0.0072389662379403795
9.61725e-06;0.007269193403994752
9.61750e-06;0.00729942057004933
9.61775e-06;0.007329647736103908
9.61800e-06;0.00735987490215828
9.61825e-06;0.007390102068212858
9.61850e-06;0.007420329234267436
9.61875e-06;0.007450556400321808
9.61900e-06;0.007480783566376386
9.61925e-06;0.007511010732430964
9.61950e-06;0.007541237898485337
9.61975e-06;0.0075714650645399145
9.62000e-06;0.0076016922305944925
9.62025e-06;0.007631919396648865
9.62050e-06;0.007651989150317429
9.62075e-06;0.007669975108794976
9.62100e-06;0.0076879610672724
9.62125e-06;0.007705947025749947
9.62150e-06;0.007723932984227493
9.62175e-06;0.007741918942704918
9.62200e-06;0.007759904901182464
9.62225e-06;0.007777890859660011
9.62250e-06;0.007795876818137436
9.62275e-06;0.007813862776614982
9.62300e-06;0.007831848735092527
9.62325e-06;0.007849834693570075
9.62350e-06;0.007867820652047499
9.62375e-06;0.007885806610525046
9.62400e-06;0.007902072035984632
9.62425e-06;0.007914840654747056
9.62450e-06;0.007927609273509566
9.62475e-06;0.007940377892272076
9.62500e-06;0.0079531465110345
9.62525e-06;0.00796591512979701
9.62550e-06;0.007978683748559522
9.62575e-06;0.007991452367321945
9.62600e-06;0.008004220986084455
9.62625e-06;0.008016989604846966
9.62650e-06;0.008025745707476856
9.62675e-06;0.008026346783066513
9.62700e-06;0.008026947858656172
9.62725e-06;0.008027548934245824
9.62750e-06;0.008028150009835483
9.62775e-06;0.00802875108542514
9.62800e-06;0.008029352161014794
9.62825e-06;0.00802995323660445
9.62850e-06;0.008030554312194108
9.62875e-06;0.008031155387783762
9.62900e-06;0.008021905990216096
9.62925e-06;0.007992636517387162
9.62950e-06;0.007963367044558427
9.62975e-06;0.007934097571729495
9.63000e-06;0.00790482809890056
9.63025e-06;0.007875558626071826
9.63050e-06;0.007846289153242893
9.63075e-06;0.00781701968041396
9.63100e-06;0.007787750207585225
9.63125e-06;0.007758480734756292
9.63150e-06;0.007729211261927359
9.63175e-06;0.007679193823777635
9.63200e-06;0.007624919936373629
9.63225e-06;0.007570646048969255
9.63250e-06;0.007516372161564882
9.63275e-06;0.007462098274160876
9.63300e-06;0.007407824386756502
9.63325e-06;0.007353550499352129
9.63350e-06;0.007299276611948122
9.63375e-06;0.007245002724543748
9.63400e-06;0.007190728837139375
9.63425e-06;0.0071358417689753595
9.63450e-06;0.007079708473876419
9.63475e-06;0.007023575178777478
9.63500e-06;0.006967441883678918
9.63525e-06;0.006911308588579978
9.63550e-06;0.006855175293481037
9.63575e-06;0.006799041998382477
9.63600e-06;0.006742908703283536
9.63625e-06;0.006686775408184595
9.63650e-06;0.006638030429126296
9.63675e-06;0.00660430144380345
9.63700e-06;0.0065705724584806035
9.63725e-06;0.0065368434731579855
9.63750e-06;0.006503114487835139
9.63775e-06;0.006469385502512293
9.63800e-06;0.006435656517189675
9.63825e-06;0.006401927531866829
9.63850e-06;0.006368198546543983
9.63875e-06;0.00634627629792234
9.63900e-06;0.006348350029357725
9.63925e-06;0.006350423760793109
9.63950e-06;0.006352497492228479
9.63975e-06;0.006354571223663863
9.64000e-06;0.006356644955099248
9.64025e-06;0.006358718686534632
9.64050e-06;0.006360792417970002
9.64075e-06;0.0063628661494053865
9.64100e-06;0.006364939880840771
9.64125e-06;0.006367013612276141
9.64150e-06;0.006369087343711525
9.64175e-06;0.006394490830350696
9.64200e-06;0.0064246804209601195
9.64225e-06;0.006454870011569747
9.64250e-06;0.0064850596021793746
9.64275e-06;0.006515249192788797
9.64300e-06;0.006545438783398425
9.64325e-06;0.006575628374008052
9.64350e-06;0.006605817964617475
9.64375e-06;0.006636007555227103
9.64400e-06;0.00666619714583673
9.64425e-06;0.0066963867364461535
9.64450e-06;0.006727542378186757
9.64475e-06;0.00676066141965943
9.64500e-06;0.006793780461131879
9.64525e-06;0.006826899502604553
9.64550e-06;0.006860018544077226
9.64575e-06;0.006893137585549675
9.64600e-06;0.0069262566270223485
9.64625e-06;0.006959375668495022
9.64650e-06;0.00699249470996747
9.64675e-06;0.0070256137514401445
9.64700e-06;0.0070531280067697875
9.64725e-06;0.00706925110974755
9.64750e-06;0.0070853742127254225
9.64775e-06;0.007101497315703294
9.64800e-06;0.007117620418681057
9.64825e-06;0.007133743521658928
9.64850e-06;0.0071498666246368
9.64875e-06;0.007165989727614673
9.64900e-06;0.007182112830592435
9.64925e-06;0.007198235933570307
9.64950e-06;0.00720747862031563
9.64975e-06;0.007202737567529148
9.65000e-06;0.007197996514742634
9.65025e-06;0.00719325546195612
9.65050e-06;0.007188514409169638
9.65075e-06;0.0071837733563831245
9.65100e-06;0.007179032303596611
