Time(s);Current(A)
9.25000e-06;0.006712696481090552
9.25025e-06;0.006696686463956397
9.25050e-06;0.006680676446822135
9.25075e-06;0.006664666429687872
9.25100e-06;0.006648656412553717
9.25125e-06;0.006635879001982097
9.25150e-06;0.006657539795554776
9.25175e-06;0.006679200589127308
9.25200e-06;0.006700861382699987
9.25225e-06;0.006722522176272666
9.25250e-06;0.0067441829698451985
9.25275e-06;0.006765843763417877
9.25300e-06;0.006787504556990556
9.25325e-06;0.006809165350563088
9.25350e-06;0.0068308261441357675
9.25375e-06;0.006854431405852265
9.25400e-06;0.006898751836458598
9.25425e-06;0.0069430722670652326
9.25450e-06;0.006987392697671866
9.25475e-06;0.007031713128278199
9.25500e-06;0.007076033558884833
9.25525e-06;0.0071203539894914665
9.25550e-06;0.0071646744200978
9.25575e-06;0.007208994850704434
9.25600e-06;0.007253315281311067
9.25625e-06;0.007297236852624269
9.25650e-06;0.0073369092220901405
9.25675e-06;0.00737658159155628
9.25700e-06;0.00741625396102242
9.25725e-06;0.007455926330488291
9.25750e-06;0.007495598699954431
9.25775e-06;0.007535271069420571
9.25800e-06;0.007574943438886443
9.25825e-06;0.007614615808352583
9.25850e-06;0.00763926778510823
9.25875e-06;0.007653299857988835
9.25900e-06;0.007667331930869535
9.25925e-06;0.007681364003750235
9.25950e-06;0.00769539607663084
9.25975e-06;0.00770942814951154
9.26000e-06;0.007723460222392241
9.26025e-06;0.0077374922952728456
9.26050e-06;0.007748537518026891
9.26075e-06;0.0077277626746863086
9.26100e-06;0.007706987831345866
9.26125e-06;0.007686212988005283
9.26150e-06;0.0076654381446647
9.26175e-06;0.0076446633013242575
9.26200e-06;0.007623888457983674
9.26225e-06;0.0076031136146430915
9.26250e-06;0.0075823387713026495
9.26275e-06;0.007561563927962066
9.26300e-06;0.0075407890846214826
9.26325e-06;0.007517952638586831
9.26350e-06;0.007473153144114414
9.26375e-06;0.007428353649641997
9.26400e-06;0.0073835541551698835
9.26425e-06;0.007338754660697467
9.26450e-06;0.00729395516622505
9.26475e-06;0.007249155671752633
9.26500e-06;0.0072043561772805196
9.26525e-06;0.007159556682808103
9.26550e-06;0.007114757188335685
9.26575e-06;0.007069957693863572
9.26600e-06;0.007025402229303663
9.26625e-06;0.006983446509498206
9.26650e-06;0.006941490789693032
9.26675e-06;0.006899535069887574
9.26700e-06;0.006857579350082117
9.26725e-06;0.006815623630276943
9.26750e-06;0.006773667910471486
9.26775e-06;0.006731712190666028
9.26800e-06;0.0066897564708608545
9.26825e-06;0.006649992865709943
9.26850e-06;0.006633582703244491
9.26875e-06;0.00661717254077915
9.26900e-06;0.006600762378313698
9.26925e-06;0.0065843522158482454
9.26950e-06;0.006567942053382904
9.26975e-06;0.006551531890917452
9.27000e-06;0.006535121728452
9.27025e-06;0.0065187115659866585
9.27050e-06;0.006505300965872942
9.27075e-06;0.006523845860116944
9.27100e-06;0.00654239075436082
9.27125e-06;0.006560935648604821
9.27150e-06;0.006579480542848823
9.27175e-06;0.006598025437092699
9.27200e-06;0.006616570331336701
9.27225e-06;0.006635115225580702
9.27250e-06;0.006653660119824579
9.27275e-06;0.00667220501406858
9.27300e-06;0.006690749908312582
9.27325e-06;0.006723423763532051
9.27350e-06;0.006766087251536678
9.27375e-06;0.006808750739541595
9.27400e-06;0.006851414227546511
9.27425e-06;0.0068940777155511385
9.27450e-06;0.0069367412035560546
9.27475e-06;0.0069794046915609715
9.27500e-06;0.007022068179565599
9.27525e-06;0.007064731667570515
9.27550e-06;0.007107395155575431
9.27575e-06;0.007149997491242256
9.27600e-06;0.007191948347474268
9.27625e-06;0.00723389920370628
9.27650e-06;0.007275850059938009
9.27675e-06;0.007317800916170021
9.27700e-06;0.007359751772402033
9.27725e-06;0.007401702628633762
9.27750e-06;0.007443653484865774
9.27775e-06;0.007485604341097787
9.27800e-06;0.007525432896036926
9.27825e-06;0.007542651756938004
9.27850e-06;0.007559870617839081
9.27875e-06;0.007577089478740042
9.27900e-06;0.007594308339641119
9.27925e-06;0.0076115272005421964
9.27950e-06;0.0076287460614431575
9.27975e-06;0.007645964922344235
9.28000e-06;0.007663183783245312
9.28025e-06;0.007677189961653022
9.28050e-06;0.007656970194630308
9.28075e-06;0.007636750427607595
9.28100e-06;0.007616530660585018
9.28125e-06;0.007596310893562305
9.28150e-06;0.007576091126539591
9.28175e-06;0.007555871359516878
9.28200e-06;0.007535651592494301
9.28225e-06;0.007515431825471587
9.28250e-06;0.007495212058448874
9.28275e-06;0.007474992291426297
9.28300e-06;0.007438481144450273
9.28325e-06;0.007390451464467807
9.28350e-06;0.0073424217844856665
9.28375e-06;0.007294392104503201
9.28400e-06;0.007246362424520734
9.28425e-06;0.007198332744538594
9.28450e-06;0.007150303064556127
9.28475e-06;0.007102273384573661
9.28500e-06;0.0070542437045915205
9.28525e-06;0.007006214024609055
9.28550e-06;0.006957925875895114
9.28575e-06;0.006906884160117049
9.28600e-06;0.006855842444338639
9.28625e-06;0.006804800728560228
9.28650e-06;0.006753759012782164
9.28675e-06;0.006702717297003754
9.28700e-06;0.006651675581225343
9.28725e-06;0.006600633865447278
9.28750e-06;0.006551437295937484
9.28775e-06;0.006521897781138788
9.28800e-06;0.006492358266340292
9.28825e-06;0.006462818751541596
9.28850e-06;0.0064332792367429
9.28875e-06;0.006403739721944404
9.28900e-06;0.006374200207145708
9.28925e-06;0.006344660692347012
9.28950e-06;0.006318816595160929
9.28975e-06;0.0063323412068058355
9.29000e-06;0.006345865818450742
9.29025e-06;0.0063593904300956496
9.29050e-06;0.006372915041740464
9.29075e-06;0.006386439653385371
9.29100e-06;0.006399964265030277
9.29125e-06;0.006413488876675093
9.29150e-06;0.0064270134883199995
9.29175e-06;0.0064654705243618665
9.29200e-06;0.006521555591560088
9.29225e-06;0.00657764065875869
9.29250e-06;0.006633725725957292
9.29275e-06;0.0066898107931555135
9.29300e-06;0.006745895860354115
9.29325e-06;0.006801980927552717
9.29350e-06;0.006858065994750939
9.29375e-06;0.0069161681625450645
9.29400e-06;0.006995759280810008
9.29425e-06;0.007075350399074412
9.29450e-06;0.007154941517339355
9.29475e-06;0.0072345326356042985
9.29500e-06;0.007314123753868702
9.29525e-06;0.007393714872133646
9.29550e-06;0.007473305990398589
9.29575e-06;0.007552546041120815
9.29600e-06;0.007628046033938456
9.29625e-06;0.007703546026756096
9.29650e-06;0.0077790460195732245
9.29675e-06;0.007854546012390865
9.29700e-06;0.007930046005208505
9.29725e-06;0.008005545998025634
9.29750e-06;0.008081045990843274
9.29775e-06;0.008153597543417447
9.29800e-06;0.008194738225097744
9.29825e-06;0.008235878906778321
9.29850e-06;0.008277019588458898
9.29875e-06;0.008318160270139475
9.29900e-06;0.008359300951819772
9.29925e-06;0.00840044163350035
9.29950e-06;0.008441582315180926
9.29975e-06;0.008482722996861224
9.30000e-06;0.008496969541334172
9.30025e-06;0.008492201060184772
9.30050e-06;0.008487432579035403
9.30075e-06;0.008482664097886002
9.30100e-06;0.008477895616736602
9.30125e-06;0.008473127135587235
9.30150e-06;0.008468358654437833
9.30175e-06;0.008463590173288432
9.30200e-06;0.008455389120814883
9.30225e-06;0.00841061956234752
9.30250e-06;0.008365850003880158
9.30275e-06;0.008321080445413097
9.30300e-06;0.008276310886945734
9.30325e-06;0.008231541328478371
9.30350e-06;0.008186771770011312
9.30375e-06;0.008142002211543948
9.30400e-06;0.008097232653076585
9.30425e-06;0.008052463094609526
9.30450e-06;0.007997411996520064
9.30475e-06;0.00793509151708314
9.30500e-06;0.007872771037646636
9.30525e-06;0.007810450558209713
9.30550e-06;0.007748130078772788
9.30575e-06;0.0076858095993362855
9.30600e-06;0.007623489119899361
9.30625e-06;0.007561168640462437
9.30650e-06;0.007498848161025935
9.30675e-06;0.007437641351068219
9.30700e-06;0.007388298891534855
9.30725e-06;0.007338956432001492
9.30750e-06;0.007289613972468463
9.30775e-06;0.007240271512935099
9.30800e-06;0.007190929053401736
9.30825e-06;0.007141586593868706
9.30850e-06;0.0070922441343353425
9.30875e-06;0.007045235638352422
9.30900e-06;0.007023091756118922
9.30925e-06;0.007000947873885273
9.30950e-06;0.006978803991651623
9.30975e-06;0.006956660109418124
9.31000e-06;0.006934516227184474
9.31025e-06;0.006912372344950825
9.31050e-06;0.006890228462717325
9.31075e-06;0.006870693696698217
9.31100e-06;0.006878954851873353
9.31125e-06;0.006887216007048433
9.31150e-06;0.0068954771622235685
9.31175e-06;0.006903738317398704
9.31200e-06;0.006911999472573784
9.31225e-06;0.00692026062774892
9.31250e-06;0.006928521782924056
9.31275e-06;0.0069367829380991355
9.31300e-06;0.006945044093274272
9.31325e-06;0.006953305248449408
9.31350e-06;0.006961566403624487
9.31375e-06;0.006981243652451119
9.31400e-06;0.007008992449054106
9.31425e-06;0.0070367412456569045
9.31450e-06;0.007064490042259891
9.31475e-06;0.007092238838862878
9.31500e-06;0.007119987635465677
9.31525e-06;0.007147736432068664
9.31550e-06;0.007175485228671651
9.31575e-06;0.007203234025274638
9.31600e-06;0.007230982821877436
9.31625e-06;0.007258731618480422
9.31650e-06;0.007286121773139389
9.31675e-06;0.007309691176863466
9.31700e-06;0.007333260580587703
9.31725e-06;0.00735682998431194
9.31750e-06;0.0073803993880360175
9.31775e-06;0.007403968791760254
9.31800e-06;0.007427538195484491
9.31825e-06;0.007451107599208568
9.31850e-06;0.007474677002932805
9.31875e-06;0.007498246406657042
9.31900e-06;0.007521815810381119
9.31925e-06;0.007545456334417631
9.31950e-06;0.007569854530567587
9.31975e-06;0.007594252726717377
9.32000e-06;0.007618650922867334
9.32025e-06;0.00764304911901729
9.32050e-06;0.007667447315167081
9.32075e-06;0.0076918455113170366
9.32100e-06;0.007716243707466993
9.32125e-06;0.007740641903616783
9.32150e-06;0.00776504009976674
9.32175e-06;0.007789438295916696
9.32200e-06;0.007814639591922374
9.32225e-06;0.007848396620402745
9.32250e-06;0.007882153648883115
9.32275e-06;0.007915910677363257
9.32300e-06;0.007949667705843629
9.32325e-06;0.007983424734324
9.32350e-06;0.008017181762804141
9.32375e-06;0.008050938791284512
9.32400e-06;0.008084695819764884
9.32425e-06;0.008118452848245254
9.32450e-06;0.008152209876725396
9.32475e-06;0.008185966905205767
9.32500e-06;0.00821955128947329
9.32525e-06;0.008251296428361633
9.32550e-06;0.00828304156725019
9.32575e-06;0.008314786706138748
9.32600e-06;0.00834653184502709
9.32625e-06;0.008378276983915647
9.32650e-06;0.008410022122804206
9.32675e-06;0.008441767261692549
9.32700e-06;0.008473512400581105
9.32725e-06;0.008505257539469664
9.32750e-06;0.008537002678358007
9.32775e-06;0.008568747817246564
9.32800e-06;0.008598592064965412
9.32825e-06;0.008608185385975834
9.32850e-06;0.00861777870698632
9.32875e-06;0.008627372027996806
9.32900e-06;0.008636965349007228
9.32925e-06;0.008646558670017715
9.32950e-06;0.008656151991028201
9.32975e-06;0.008665745312038623
9.33000e-06;0.008672422552217512
9.33025e-06;0.00864803365871005
9.33050e-06;0.008623644765202753
9.33075e-06;0.00859925587169529
9.33100e-06;0.008574866978187828
9.33125e-06;0.00855047808468053
9.33150e-06;0.00852608919117307
9.33175e-06;0.008501700297665607
9.33200e-06;0.008474541475566612
9.33225e-06;0.008417873535953873
9.33250e-06;0.008361205596341133
9.33275e-06;0.008304537656728393
9.33300e-06;0.008247869717116036
9.33325e-06;0.008191201777503297
9.33350e-06;0.008134533837890557
9.33375e-06;0.008077865898278202
9.33400e-06;0.008021197958665462
9.33425e-06;0.007964530019052722
9.33450e-06;0.00790000704956036
9.33475e-06;0.007829930319654127
9.33500e-06;0.007759853589747894
9.33525e-06;0.0076897768598421365
9.33550e-06;0.007619700129935904
9.33575e-06;0.007549623400029671
9.33600e-06;0.007479546670123913
9.33625e-06;0.007409469940217681
9.33650e-06;0.0073393932103114476
9.33675e-06;0.007270602486916396
9.33700e-06;0.00721551208683646
9.33725e-06;0.007160421686756524
9.33750e-06;0.007105331286676962
9.33775e-06;0.007050240886597026
9.33800e-06;0.00699515048651709
9.33825e-06;0.006940060086437528
9.33850e-06;0.006884969686357592
9.33875e-06;0.0068473194029151085
9.33900e-06;0.006821999846520067
9.33925e-06;0.006796680290124854
9.33950e-06;0.006771360733729641
9.33975e-06;0.0067460411773346005
9.34000e-06;0.006720721620939387
9.34025e-06;0.006695402064544174
9.34050e-06;0.0066731637251213
9.34075e-06;0.006683750778406072
9.34100e-06;0.0066943378316908445
9.34125e-06;0.006704924884975616
9.34150e-06;0.006715511938260317
9.34175e-06;0.00672609899154509
9.34200e-06;0.006736686044829862
9.34225e-06;0.006747273098114562
9.34250e-06;0.006757860151399334
9.34275e-06;0.006768447204684107
9.34300e-06;0.0067790342579688075
9.34325e-06;0.006805166156014073
9.34350e-06;0.006842288762535657
9.34375e-06;0.006879411369056991
9.34400e-06;0.006916533975578576
9.34425e-06;0.006953656582100161
9.34450e-06;0.006990779188621494
9.34475e-06;0.0070279017951430794
9.34500e-06;0.007065024401664665
9.34525e-06;0.0071021470081859975
9.34550e-06;0.007139269614707583
9.34575e-06;0.007176539009149744
9.34600e-06;0.00721537219192024
9.34625e-06;0.007254205374690999
9.34650e-06;0.007293038557461758
9.34675e-06;0.007331871740232254
9.34700e-06;0.007370704923003013
9.34725e-06;0.007409538105773772
9.34750e-06;0.007448371288544267
9.34775e-06;0.007485962765627773
9.34800e-06;0.007510325873141409
9.34825e-06;0.00753468898065488
9.34850e-06;0.007559052088168516
9.34875e-06;0.007583415195682152
9.34900e-06;0.007607778303195624
9.34925e-06;0.00763214141070926
9.34950e-06;0.007656504518222897
9.34975e-06;0.00767917377027008
9.35000e-06;0.0076837977267676895
9.35025e-06;0.00768842168326533
9.35050e-06;0.007693045639762971
9.35075e-06;0.00769766959626058
9.35100e-06;0.00770229355275822
9.35125e-06;0.00770691750925586
9.35150e-06;0.007711541465753469
9.35175e-06;0.0077161654222511105
9.35200e-06;0.007720789378748751
9.35225e-06;0.00772541333524636
9.35250e-06;0.007730037291744
9.35275e-06;0.007734661248241641
9.35300e-06;0.00773928520473925
9.35325e-06;0.00774390916123689
9.35350e-06;0.007748533117734531
9.35375e-06;0.007745729989272154
9.35400e-06;0.007737675671305563
9.35425e-06;0.007729621353338971
9.35450e-06;0.0077215670353724345
9.35475e-06;0.007713512717405843
9.35500e-06;0.007705458399439252
9.35525e-06;0.007697404081472715
9.35550e-06;0.007689349763506124
9.35575e-06;0.007681295445539533
9.35600e-06;0.0076732411275729955
9.35625e-06;0.0076651868096064045
9.35650e-06;0.007657132491639814
9.35675e-06;0.007649078173673276
9.35700e-06;0.0076410238557066855
9.35725e-06;0.007632969537740094
9.35750e-06;0.007624827962864337
9.35775e-06;0.007615756806481776
9.35800e-06;0.007606685650099215
9.35825e-06;0.007597614493716654
9.35850e-06;0.007588543337334155
9.35875e-06;0.007579472180951594
9.35900e-06;0.0075704010245690335
9.35925e-06;0.007561329868186534
9.35950e-06;0.0075522587118039735
9.35975e-06;0.007543187555421413
9.36000e-06;0.0075341163990389134
9.36025e-06;0.007525045242656353
9.36050e-06;0.007515974086273792
9.36075e-06;0.007502317090662674
9.36100e-06;0.007485417758258538
9.36125e-06;0.007468518425854401
9.36150e-06;0.007451619093450379
9.36175e-06;0.007434719761046242
9.36200e-06;0.007417820428642106
9.36225e-06;0.007400921096238083
9.36250e-06;0.007384021763833947
9.36275e-06;0.0073671224314298105
9.36300e-06;0.007350223099025788
9.36325e-06;0.007333323766621652
9.36350e-06;0.007316424434217515
9.36375e-06;0.007299130137569197
9.36400e-06;0.007277628134495505
9.36425e-06;0.0072561261314218126
9.36450e-06;0.007234624128348266
9.36475e-06;0.007213122125274574
9.36500e-06;0.0071916201222008815
9.36525e-06;0.007170118119127335
9.36550e-06;0.007148616116053642
9.36575e-06;0.00712711411297995
9.36600e-06;0.007105612109906404
9.36625e-06;0.00708446333916868
9.36650e-06;0.0070670776887425315
9.36675e-06;0.007049692038316382
9.36700e-06;0.00703230638789035
9.36725e-06;0.007014920737464201
9.36750e-06;0.006997535087038051
9.36775e-06;0.00698014943661202
9.36800e-06;0.00696276378618587
9.36825e-06;0.0069453781357597215
9.36850e-06;0.00692799248533369
9.36875e-06;0.006910647522072122
9.36900e-06;0.006893736014867395
9.36925e-06;0.006876824507662783
9.36950e-06;0.006859913000458056
9.36975e-06;0.006843001493253329
9.37000e-06;0.006826089986048717
9.37025e-06;0.0068091784788439896
9.37050e-06;0.006792266971639263
9.37075e-06;0.006775355464434651
9.37100e-06;0.006758443957229924
9.37125e-06;0.0067415324500251965
9.37150e-06;0.006724620942820584
9.37175e-06;0.006707709435615858
9.37200e-06;0.006690797928411131
9.37225e-06;0.0066706922528798245
9.37250e-06;0.006648328196935011
9.37275e-06;0.006625964140990197
9.37300e-06;0.006603600085045535
9.37325e-06;0.006581236029100722
9.37350e-06;0.006558871973155907
9.37375e-06;0.006536507917211246
9.37400e-06;0.006514143861266432
9.37425e-06;0.006491779805321618
9.37450e-06;0.006469415749376956
9.37475e-06;0.006447051693432143
9.37500e-06;0.006424687637487329
9.37525e-06;0.006402323581542515
9.37550e-06;0.006380109574594381
9.37575e-06;0.006359494097479437
9.37600e-06;0.006338878620364493
9.37625e-06;0.006318263143249689
9.37650e-06;0.006297647666134745
9.37675e-06;0.006277032189019802
9.37700e-06;0.0062564167119049975
9.37725e-06;0.006235801234790054
9.37750e-06;0.00621518575767511
9.37775e-06;0.006194570280560306
9.37800e-06;0.006175450880126409
9.37825e-06;0.0061722697616082905
9.37850e-06;0.006169088643090194
9.37875e-06;0.006165907524572075
9.37900e-06;0.006162726406053957
9.37925e-06;0.00615954528753586
9.37950e-06;0.006156364169017742
9.37975e-06;0.006153183050499623
9.38000e-06;0.006150001931981526
9.38025e-06;0.0061468208134634085
9.38050e-06;0.006146308022030046
9.38075e-06;0.0061742219481991335
9.38100e-06;0.006202135874368409
9.38125e-06;0.006230049800537685
9.38150e-06;0.006257963726706773
9.38175e-06;0.006285877652876049
9.38200e-06;0.006313791579045325
9.38225e-06;0.006341705505214412
9.38250e-06;0.006369619431383688
9.38275e-06;0.006397533357552965
9.38300e-06;0.006427306155001585
9.38325e-06;0.006476882225161259
9.38350e-06;0.006526458295320932
9.38375e-06;0.006576034365480606
9.38400e-06;0.006625610435639944
9.38425e-06;0.006675186505799618
9.38450e-06;0.006724762575959291
9.38475e-06;0.0067743386461186295
9.38500e-06;0.006823914716278303
9.38525e-06;0.006873490786437977
9.38550e-06;0.006922368725034147
9.38575e-06;0.00696380919881571
9.38600e-06;0.007006847659289219
9.38625e-06;0.007058665245392962
9.38650e-06;0.007112116898550706
9.38675e-06;0.0071661777385615515
9.38700e-06;0.007214443718210283
9.38725e-06;0.007250740762838399
9.38750e-06;0.007304113272550632
9.38775e-06;0.007339812898527028
9.38800e-06;0.007375512524503665
9.38825e-06;0.007411212150480303
9.38850e-06;0.007446911776456699
9.38875e-06;0.007482611402433337
9.38900e-06;0.007518311028409974
9.38925e-06;0.00755401065438637
9.38950e-06;0.0075897102803630075
9.38975e-06;0.007624519593134467
9.39000e-06;0.007655677973794185
9.39025e-06;0.0076868363544541135
9.39050e-06;0.007717994735114043
9.39075e-06;0.007749153115773761
9.39100e-06;0.00778031149643369
9.39125e-06;0.00781146987709362
9.39150e-06;0.007842628257753337
9.39175e-06;0.007873786638413267
9.39200e-06;0.007904945019073196
9.39225e-06;0.007937666415198084
9.39250e-06;0.007970649107834153
9.39275e-06;0.008003631800470446
9.39300e-06;0.008036614493106739
9.39325e-06;0.008069597185742808
9.39350e-06;0.0081025798783791
9.39375e-06;0.008135562571015392
9.39400e-06;0.008168545263651461
9.39425e-06;0.008201527956287754
9.39450e-06;0.008234510648924047
9.39475e-06;0.008267493341560116
9.39500e-06;0.008300476034196409
9.39525e-06;0.008333458726832702
9.39550e-06;0.008366441419468771
9.39575e-06;0.008396174716359091
9.39600e-06;0.008420049588048789
9.39625e-06;0.008443924459738324
9.39650e-06;0.008467799331428022
9.39675e-06;0.00849167420311772
9.39700e-06;0.008515549074807257
9.39725e-06;0.008539423946496955
9.39750e-06;0.008563298818186653
9.39775e-06;0.008587173689876187
9.39800e-06;0.008611048561565885
9.39825e-06;0.008634923433255583
9.39850e-06;0.00865879830494512
9.39875e-06;0.008682673176634818
9.39900e-06;0.008706548048324516
9.39925e-06;0.008730422920014051
9.39950e-06;0.008740172780595242
9.39975e-06;0.008747561297855793
9.40000e-06;0.008754949815116295
9.40025e-06;0.008762338332376846
9.40050e-06;0.008769726849637397
9.40075e-06;0.008777115366897948
9.40100e-06;0.00878450388415845
