Time(s);Current(A)
3.75000e-06;-0.0002842489929699649
3.75025e-06;-0.00030245902831770087
3.75050e-06;-0.00032190817233744616
3.75075e-06;-0.00034221625418246436
3.75100e-06;-0.0003634679584934627
3.75125e-06;-0.00038522472415362106
3.75150e-06;-0.00040753634631410793
3.75175e-06;-0.0004300981311431675
3.75200e-06;-0.0004529347427493482
3.75225e-06;-0.0004757763122596799
3.75250e-06;-0.0004986233284852101
3.75275e-06;-0.0005211630725336552
3.75300e-06;-0.0005433652497397096
3.75325e-06;-0.0005648948023045668
3.75350e-06;-0.0005856854146296038
3.75375e-06;-0.0006055000895255477
3.75400e-06;-0.0006242426070937187
3.75425e-06;-0.000641403255070036
3.75450e-06;-0.0006568260733209901
3.75475e-06;-0.0006722488915719443
3.75500e-06;-0.0006860122149382794
3.75525e-06;-0.0006979524300316734
3.75550e-06;-0.0007098926451250676
3.75575e-06;-0.0007202023684953075
3.75600e-06;-0.000728720846241889
3.75625e-06;-0.0007372393239884849
3.75650e-06;-0.000743994821869307
3.75675e-06;-0.0007488135236754666
3.75700e-06;-0.0007536322254816344
3.75725e-06;-0.0007570236518504175
3.75750e-06;-0.0007588470844387454
3.75775e-06;-0.0007606705170270764
3.75800e-06;-0.000761099523471159
3.75825e-06;-0.0007599966241147236
3.75850e-06;-0.0007588937247582901
3.75875e-06;-0.0007567245408597046
3.75900e-06;-0.000753383944992217
3.75925e-06;-0.0007493983500641605
3.75950e-06;-0.0007447041641459634
3.75975e-06;-0.0007394254309271735
3.76000e-06;-0.0007335045185552252
3.76025e-06;-0.0007270477780918769
3.76050e-06;-0.0007200023810225718
3.76075e-06;-0.0007126218435009278
3.76100e-06;-0.0007047207110505012
3.76125e-06;-0.0006965380593832666
3.76150e-06;-0.0006881384661933368
3.76175e-06;-0.0006795683030633181
3.76200e-06;-0.0006708731438570693
3.76225e-06;-0.0006620985401711808
3.76250e-06;-0.0006532940849313069
3.76275e-06;-0.0006445292495613872
3.76300e-06;-0.0006358994258667633
3.76325e-06;-0.0006274983758455352
3.76350e-06;-0.0006194901677227019
3.76375e-06;-0.0006117575710086524
3.76400e-06;-0.0006043321840645317
3.76425e-06;-0.0005974866571732218
3.76450e-06;-0.0005911329682243198
3.76475e-06;-0.0005850799113566898
3.76500e-06;-0.0005788960412546725
3.76525e-06;-0.0005722293554338081
3.76550e-06;-0.00056501693058985
3.76575e-06;-0.0005572474437976656
3.76600e-06;-0.0005491595184175835
3.76625e-06;-0.0005407960029080203
3.76650e-06;-0.0005321297262090882
3.76675e-06;-0.0005230222584479204
3.76700e-06;-0.0005134301015906846
3.76725e-06;-0.0005031237846435068
3.76750e-06;-0.0004920328969330547
3.76775e-06;-0.0004803573787124692
3.76800e-06;-0.00046803958992528306
3.76825e-06;-0.00045539165326057804
3.76850e-06;-0.00044220107796845887
3.76875e-06;-0.00042859739159025194
3.76900e-06;-0.0004144790465736962
3.76925e-06;-0.00039977569268882237
3.76950e-06;-0.00038453048054758833
3.76975e-06;-0.0003688397451953358
3.77000e-06;-0.00035280211677890066
3.77025e-06;-0.0003365162586508627
3.77050e-06;-0.00032006973681842423
3.77075e-06;-0.0003034996412946663
3.77100e-06;-0.00028678406080771606
3.77125e-06;-0.0002699205941806198
3.77150e-06;-0.0002529778975344856
3.77175e-06;-0.0002360579903423487
3.77200e-06;-0.00021926429238211363
3.77225e-06;-0.00020270024560129824
3.77250e-06;-0.00018646233769708354
3.77275e-06;-0.0001706154298845919
3.77300e-06;-0.0001551874110595942
3.77325e-06;-0.00014021839400750092
3.77350e-06;-0.00012579301451653825
3.77375e-06;-0.00011201678491020344
3.77400e-06;-9.899610185846785e-05
3.77425e-06;-8.683734401239245e-05
3.77450e-06;-7.57056835000624e-05
3.77475e-06;-6.602557080978875e-05
3.77500e-06;-5.8498216543875924e-05
3.77525e-06;-5.366368005515938e-05
3.77550e-06;-5.164461763895286e-05
3.77575e-06;-5.237580624641918e-05
3.77600e-06;-5.578410275102717e-05
3.77625e-06;-6.179635657935762e-05
3.77650e-06;-7.037623895985958e-05
3.77675e-06;-8.164982246727048e-05
3.77700e-06;-9.591652182638199e-05
3.77725e-06;-0.00011337477906510576
3.77750e-06;-0.00013396154892575325
3.77775e-06;-0.00015749610643794434
3.77800e-06;-0.00018379280207604036
3.77825e-06;-0.0002126659617032524
3.77850e-06;-0.0002439529928560639
3.77875e-06;-0.0002775930303155154
3.77900e-06;-0.00031363379390500165
3.77925e-06;-0.0003520597529536162
3.77950e-06;-0.00039312489714452307
3.77975e-06;-0.00043575227353227796
3.78000e-06;-0.0004798688864467018
3.78025e-06;-0.00052562156311621
3.78050e-06;-0.000572428227800866
3.78075e-06;-0.0006203927955850859
3.78100e-06;-0.0006691511411591407
3.78125e-06;-0.0007187815248872127
3.78150e-06;-0.0007687488796782777
3.78175e-06;-0.0008190864282787874
3.78200e-06;-0.000869189755779441
3.78225e-06;-0.0009190357697872825
3.78250e-06;-0.0009681087113225731
3.78275e-06;-0.0010163323614055188
3.78300e-06;-0.0010633538549474513
3.78325e-06;-0.0011090546685910856
3.78350e-06;-0.0011530010359738162
3.78375e-06;-0.00119501998223403
3.78400e-06;-0.0012346607709570112
3.78425e-06;-0.0012716889341628434
3.78450e-06;-0.0013057409125789893
3.78475e-06;-0.0013365232773534324
3.78500e-06;-0.0013639662475209064
3.78525e-06;-0.001387740584544403
3.78550e-06;-0.001408038647201535
3.78575e-06;-0.001424517701667397
3.78600e-06;-0.0014374052919714872
3.78625e-06;-0.0014463473274640044
3.78650e-06;-0.0014515991290230648
3.78675e-06;-0.0014527968680616823
3.78700e-06;-0.001450352634723331
3.78725e-06;-0.001443907358638049
3.78750e-06;-0.0014348477762271365
3.78775e-06;-0.0014212411836871104
3.78800e-06;-0.001404170360236796
3.78825e-06;-0.0013837421087301747
3.78850e-06;-0.0013600652454586982
3.78875e-06;-0.0013332635785032814
3.78900e-06;-0.0013034968663995557
3.78925e-06;-0.0012709606782894819
3.78950e-06;-0.0012358653000906399
3.78975e-06;-0.0011984224467388096
3.79000e-06;-0.001158843639404604
3.79025e-06;-0.001117340465669917
3.79050e-06;-0.0010741256171086953
3.79075e-06;-0.0010294212750944416
3.79100e-06;-0.0009834721481446628
3.79125e-06;-0.0009365453285547132
3.79150e-06;-0.0008889170843373107
3.79175e-06;-0.0008408645476351174
3.79200e-06;-0.0007926647564430274
3.79225e-06;-0.000744594751490462
3.79250e-06;-0.0006969322641854833
3.79275e-06;-0.000649960921706316
3.79300e-06;-0.0006039784452972953
3.79325e-06;-0.0005592965955793555
3.79350e-06;-0.0005162328125234998
3.79375e-06;-0.00047510505684484857
3.79400e-06;-0.00043623124491904775
3.79425e-06;-0.0003999292501497086
3.79450e-06;-0.0003664400852901245
3.79475e-06;-0.0003356428402339972
3.79500e-06;-0.0003069614355717851
3.79525e-06;-0.00027988794824282534
3.79550e-06;-0.000254362557112234
3.79575e-06;-0.00023054512580640077
3.79600e-06;-0.00020860527418375412
3.79625e-06;-0.00018871257502884011
3.79650e-06;-0.00017098845188308944
3.79675e-06;-0.00015532762502115712
3.79700e-06;-0.00014133972470032
3.79725e-06;-0.00012867706850246103
3.79750e-06;-0.0001172727115692151
3.79775e-06;-0.000107197313066924
3.79800e-06;-9.852763469026366e-05
3.79825e-06;-9.134040277957936e-05
3.79850e-06;-8.56821635995514e-05
3.79875e-06;-8.145747542460335e-05
3.79900e-06;-7.839232253753156e-05
3.79925e-06;-7.623945131258691e-05
3.79950e-06;-7.492747305492192e-05
3.79975e-06;-7.44712039569549e-05
3.80000e-06;-7.488927183748035e-05
3.80025e-06;-7.620027751122743e-05
3.80050e-06;-7.840392662592551e-05
3.80075e-06;-8.141097230931011e-05
3.80100e-06;-8.50203266874284e-05
3.80125e-06;-8.904768558316336e-05
3.80150e-06;-9.349383556299467e-05
3.80175e-06;-9.819618874360566e-05
3.80200e-06;-0.0001031812932781538
3.80225e-06;-0.00010847702626806106
3.80250e-06;-0.00011397662966345361
3.80275e-06;-0.0001197002035129804
3.80300e-06;-0.00012536867528513233
3.80325e-06;-0.0001309766123403066
3.80350e-06;-0.0001363704303433665
3.80375e-06;-0.000141529018808204
3.80400e-06;-0.00014647827623886074
3.80425e-06;-0.00015103228224812713
3.80450e-06;-0.000155289423895421
3.80475e-06;-0.00015959241960131752
3.80500e-06;-0.00016464409890492855
3.80525e-06;-0.00017100909915436908
3.80550e-06;-0.00017879547844442057
3.80575e-06;-0.00018789926539461115
3.80600e-06;-0.00019820737638803084
3.80625e-06;-0.00020960672224099543
3.80650e-06;-0.00022202761244898947
3.80675e-06;-0.00023559701115069028
3.80700e-06;-0.0002506674141525442
3.80725e-06;-0.0002675047309995308
3.80750e-06;-0.00028608886661160484
3.80775e-06;-0.0003065890629726209
3.80800e-06;-0.00032823410555224197
3.80825e-06;-0.0003510302833318144
3.80850e-06;-0.0003750910893584559
3.80875e-06;-0.00040030189338749017
3.80900e-06;-0.00042677607634713615
3.80925e-06;-0.00045448554019464793
3.80950e-06;-0.0004835520740926021
3.80975e-06;-0.0005136961373827817
3.81000e-06;-0.0005450239661476972
3.81025e-06;-0.0005763517949125595
3.81050e-06;-0.0006084022341624405
3.81075e-06;-0.0006412465277145808
3.81100e-06;-0.0006740908212667213
3.81125e-06;-0.0007073268054263024
3.81150e-06;-0.0007409930978645859
3.81175e-06;-0.0007745872337286238
3.81200e-06;-0.0008081020989369843
3.81225e-06;-0.0008411596026881576
3.81250e-06;-0.0008737146526719421
3.81275e-06;-0.000905540051715683
3.81300e-06;-0.0009365638618676474
3.81325e-06;-0.0009666196811055742
3.81350e-06;-0.000995612072995489
3.81375e-06;-0.0010232415613039753
3.81400e-06;-0.0010493737742557547
3.81425e-06;-0.001073757642982682
3.81450e-06;-0.0010962207942364038
3.81475e-06;-0.0011171347772636535
3.81500e-06;-0.0011363468560323972
3.81525e-06;-0.0011542543102852113
3.81550e-06;-0.0011707285141126919
3.81575e-06;-0.0011872027179401724
3.81600e-06;-0.0012018014671580112
3.81625e-06;-0.001214339856414802
3.81650e-06;-0.0012268782456716352
3.81675e-06;-0.0012349366334391432
3.81700e-06;-0.0012435937750655479
3.81725e-06;-0.0012530231909048844
3.81750e-06;-0.0012595030520665947
3.81775e-06;-0.0012658746956809674
3.81800e-06;-0.0012718076007915801
3.81825e-06;-0.001275953721337628
3.81850e-06;-0.0012800998418836757
3.81875e-06;-0.001283801847583019
3.81900e-06;-0.0012858140454705543
3.81925e-06;-0.0012869865090562474
3.81950e-06;-0.0012877258533210813
3.81975e-06;-0.0012874160428570486
3.82000e-06;-0.0012871062323930157
3.82025e-06;-0.0012861861171883802
3.82050e-06;-0.0012854233330798675
3.82075e-06;-0.0012825050992621787
3.82100e-06;-0.001280131581740737
3.82125e-06;-0.0012769835594787253
3.82150e-06;-0.0012735338466114841
3.82175e-06;-0.001269990338838055
3.82200e-06;-0.0012664394486102102
3.82225e-06;-0.0012627349180656137
3.82250e-06;-0.0012588112560587587
3.82275e-06;-0.0012548817822713755
3.82300e-06;-0.0012508334682052513
3.82325e-06;-0.0012466576848512096
3.82350e-06;-0.0012425854803905607
3.82375e-06;-0.0012388969773337837
3.82400e-06;-0.0012352287810516737
3.82425e-06;-0.0012319649301646856
3.82450e-06;-0.0012289521027046633
3.82475e-06;-0.0012259190520222086
3.82500e-06;-0.0012223120290734287
3.82525e-06;-0.0012176105436181902
3.82550e-06;-0.0012118632549508795
3.82575e-06;-0.0012049183243042876
3.82600e-06;-0.0011979007607582572
3.82625e-06;-0.0011894834673288825
3.82650e-06;-0.0011809846682718308
3.82675e-06;-0.0011709151503874274
3.82700e-06;-0.0011607220086951274
3.82725e-06;-0.0011481464763853737
3.82750e-06;-0.0011354628374920608
3.82775e-06;-0.0011206958449566187
3.82800e-06;-0.0011058615201870947
3.82825e-06;-0.0010896910700933765
3.82850e-06;-0.0010727391829308942
3.82875e-06;-0.001054998934451631
3.82900e-06;-0.0010363524763348242
3.82925e-06;-0.0010166953686924149
3.82950e-06;-0.0009961541854329125
3.82975e-06;-0.0009748997804162398
3.83000e-06;-0.00095303904027227
3.83025e-06;-0.0009307147104397009
3.83050e-06;-0.0009080381255429692
3.83075e-06;-0.0008850662121579775
3.83100e-06;-0.0008617863822939605
3.83125e-06;-0.0008381943092721201
3.83150e-06;-0.000814430435759472
3.83175e-06;-0.0007906631012916242
3.83200e-06;-0.0007670204074426098
3.83225e-06;-0.0007436528277369385
3.83250e-06;-0.0007206913548742421
3.83275e-06;-0.0006982326878030341
3.83300e-06;-0.0006763301152473088
3.83325e-06;-0.0006550421281436989
3.83350e-06;-0.000634517785940104
3.83375e-06;-0.0006149236681648534
3.83400e-06;-0.0005964346427155766
3.83425e-06;-0.0005797515703981285
3.83450e-06;-0.000563165624304351
3.83475e-06;-0.0005484956203437475
3.83500e-06;-0.0005347051549094795
3.83525e-06;-0.0005214790555294407
3.83550e-06;-0.0005088335315747741
3.83575e-06;-0.0004971656604254778
3.83600e-06;-0.00048557983688693424
3.83625e-06;-0.0004755751768887036
3.83650e-06;-0.000465651173291835
3.83675e-06;-0.000457281522832918
3.83700e-06;-0.0004489568225051562
3.83725e-06;-0.00044149836932206855
3.83750e-06;-0.0004340976709473743
3.83775e-06;-0.0004278099824027121
3.83800e-06;-0.00042152229385807114
3.83825e-06;-0.00041531609131970884
3.83850e-06;-0.0004106802294777314
3.83875e-06;-0.00040604436763576964
3.83900e-06;-0.0004014575015348845
3.83925e-06;-0.00039781484671235374
3.83950e-06;-0.00039417219188983527
3.83975e-06;-0.00039059437420010923
3.84000e-06;-0.00038826605188874673
3.84025e-06;-0.00038593772957739214
3.84050e-06;-0.00038360940726603755
3.84075e-06;-0.0003812810849546751
3.84100e-06;-0.0003789527626433205
3.84125e-06;-0.0003772493677892191
3.84150e-06;-0.00037605866129435773
3.84175e-06;-0.0003748679547995004
3.84200e-06;-0.000373677248304639
3.84225e-06;-0.00037248654180978166
3.84250e-06;-0.0003713265429422837
3.84275e-06;-0.00037075831975644447
3.84300e-06;-0.0003701900965706072
3.84325e-06;-0.00036962187338476993
3.84350e-06;-0.00036905365019893077
3.84375e-06;-0.00036848943696938017
3.84400e-06;-0.000368003871891301
3.84425e-06;-0.00036754670110081896
3.84450e-06;-0.00036715065520273946
3.84475e-06;-0.00036727392934706577
3.84500e-06;-0.00036892366995167585
3.84525e-06;-0.00037282876407967037
3.84550e-06;-0.0003790756352247192
3.84575e-06;-0.00038753608505362805
3.84600e-06;-0.00039808035355399184
3.84625e-06;-0.0004105797763645232
3.84650e-06;-0.00042492368610217926
3.84675e-06;-0.00044126785493739466
3.84700e-06;-0.00046011190162900906
3.84725e-06;-0.00048178111719390955
3.84750e-06;-0.000506255928383412
3.84775e-06;-0.0005342614675902949
3.84800e-06;-0.0005624764720969927
3.84825e-06;-0.0005947281437520963
3.84850e-06;-0.0006271698798696651
3.84875e-06;-0.0006632744039121224
3.84900e-06;-0.0006995836797971122
3.84925e-06;-0.0007398387884126321
3.84950e-06;-0.000780261742341252
3.84975e-06;-0.0008239192924638409
3.85000e-06;-0.0008676926158967275
3.85025e-06;-0.0009136970406996864
3.85050e-06;-0.0009597791908889965
3.85075e-06;-0.0010073592097613916
3.85100e-06;-0.001055000262379516
3.85125e-06;-0.0011038175141886229
3.85150e-06;-0.00115264679730215
3.85175e-06;-0.0012017079392103189
3.85200e-06;-0.001250722612717192
3.85225e-06;-0.0012988417800487981
3.85250e-06;-0.0013468647744724043
3.85275e-06;-0.0013930343926171923
3.85300e-06;-0.0014390715142254087
3.85325e-06;-0.00148255525627251
3.85350e-06;-0.0015258499489089036
3.85375e-06;-0.001565501414976784
3.85400e-06;-0.0016049016105504864
3.85425e-06;-0.001639459498834929
3.85450e-06;-0.001673818425521408
3.85475e-06;-0.0017042680686919914
3.85500e-06;-0.00173322449939692
3.85525e-06;-0.0017612719772233962
3.85550e-06;-0.0017892388453092092
3.85575e-06;-0.0018156522594708615
3.85600e-06;-0.001841941596137843
3.85625e-06;-0.0018658397990638446
3.85650e-06;-0.00188961868820256
3.85675e-06;-0.0019110982464022042
3.85700e-06;-0.0019325427214325868
3.85725e-06;-0.0019533110984311904
3.85750e-06;-0.0019740794754297937
3.85775e-06;-0.0019947860695258067
3.85800e-06;-0.002014302027209145
3.85825e-06;-0.002033817984892483
3.85850e-06;-0.0020524333145130642
3.85875e-06;-0.002070309771936024
3.85900e-06;-0.002088163041962657
3.85925e-06;-0.0021055694608822203
3.85950e-06;-0.0021229758798017835
3.85975e-06;-0.0021403252088889545
3.86000e-06;-0.0021565743430942363
3.86025e-06;-0.002172823477299518
3.86050e-06;-0.0021890726115048544
3.86075e-06;-0.0022052544019901597
3.86100e-06;-0.002220138391924038
3.86125e-06;-0.0022350223818579664
3.86150e-06;-0.0022499063717918446
3.86175e-06;-0.0022647046936684102
3.86200e-06;-0.0022778520813220436
3.86225e-06;-0.0022909994689756332
3.86250e-06;-0.0023041468566292224
3.86275e-06;-0.0023172942442828562
3.86300e-06;-0.0023303158562761666
3.86325e-06;-0.002340913608683396
3.86350e-06;-0.002351511361090589
3.86375e-06;-0.002362109113497782
3.86400e-06;-0.0023727068659050114
3.86425e-06;-0.002383172896105431
3.86450e-06;-0.002391100469080987
3.86475e-06;-0.0023990280420565697
3.86500e-06;-0.0024068527457506376
3.86525e-06;-0.002412695025393458
3.86550e-06;-0.0024185373050362984
3.86575e-06;-0.002424379584679119
3.86600e-06;-0.002430221864321939
3.86625e-06;-0.0024359352579681457
3.86650e-06;-0.0024391648518262686
3.86675e-06;-0.0024423944456843914
3.86700e-06;-0.002445624039542525
3.86725e-06;-0.002448853633400648
3.86750e-06;-0.0024519208084369084
3.86775e-06;-0.0024518579627895733
3.86800e-06;-0.0024517951171422383
3.86825e-06;-0.0024517322714949033
3.86850e-06;-0.002451669425847568
3.86875e-06;-0.002451606580200233
3.86900e-06;-0.0024515437345528977
3.86925e-06;-0.0024514808889055627
3.86950e-06;-0.0024514180432582276
3.86975e-06;-0.0024513551976108926
3.87000e-06;-0.0024512923519635576
3.87025e-06;-0.0024512295063162225
3.87050e-06;-0.002451166660668887
3.87075e-06;-0.00244986966193777
3.87100e-06;-0.0024475601682172384
3.87125e-06;-0.002445250674496699
3.87150e-06;-0.002442941180776167
3.87175e-06;-0.002440631687055635
3.87200e-06;-0.0024383221933350955
3.87225e-06;-0.0024360126996145638
3.87250e-06;-0.0024337032058940242
3.87275e-06;-0.0024313937121734925
3.87300e-06;-0.0024290842184529608
3.87325e-06;-0.0024267747247324212
3.87350e-06;-0.002424465231011889
3.87375e-06;-0.0024221602649670405
3.87400e-06;-0.0024199481925808023
3.87425e-06;-0.002417850819069772
3.87450e-06;-0.0024158623091382354
3.87475e-06;-0.002413696962556603
3.87500e-06;-0.002410704385762999
3.87525e-06;-0.002406410826297816
3.87550e-06;-0.0024007345319083297
3.87575e-06;-0.0023932881422629917
3.87600e-06;-0.002385733625933515
3.87625e-06;-0.002376095368608787
3.87650e-06;-0.0023663425755613057
3.87675e-06;-0.0023543825310580534
3.87700e-06;-0.0023422271525336846
3.87725e-06;-0.002326307434884066
3.87750e-06;-0.002310387717234393
3.87775e-06;-0.0022943254233607764
3.87800e-06;-0.0022754552241979966
3.87825e-06;-0.002255369573313087
3.87850e-06;-0.0022341938282318696
3.87875e-06;-0.002211944355470037
3.87900e-06;-0.0021884939399291837
3.87925e-06;-0.0021637848882342056
3.87950e-06;-0.002137924799664822
3.87975e-06;-0.0021110757817775837
3.88000e-06;-0.0020834009799394833
3.88025e-06;-0.002055062199962037
3.88050e-06;-0.0020262176495065352
3.88075e-06;-0.0019969557401946477
3.88100e-06;-0.001967275869206458
3.88125e-06;-0.0019372204507238388
3.88150e-06;-0.0019069354159179537
3.88175e-06;-0.0018766015405548995
3.88200e-06;-0.0018463992683837138
3.88225e-06;-0.001816509002953062
3.88250e-06;-0.0017871082769582746
3.88275e-06;-0.0017583312643297184
3.88300e-06;-0.0017302562609837035
3.88325e-06;-0.0017029885488901073
3.88350e-06;-0.0016766981780257186
3.88375e-06;-0.0016515769950979492
3.88400e-06;-0.0016278167303989065
3.88425e-06;-0.0016056085556049135
3.88450e-06;-0.0015851143815652352
3.88475e-06;-0.001566067819134365
3.88500e-06;-0.0015476187437220975
3.88525e-06;-0.0015291235535484908
3.88550e-06;-0.0015105360032523724
3.88575e-06;-0.0014920157212113688
3.88600e-06;-0.0014737227497786008
3.88625e-06;-0.0014558163137732506
3.88650e-06;-0.0014384376198896063
3.88675e-06;-0.0014214594723225438
3.88700e-06;-0.0014043888906996402
3.88725e-06;-0.0013868626219339123
3.88750e-06;-0.0013688870763500945
3.88775e-06;-0.0013505329202955381
3.88800e-06;-0.001332177571639107
3.88825e-06;-0.0013137992400026556
3.88850e-06;-0.0012954209083662666
3.88875e-06;-0.0012770181963486919
3.88900e-06;-0.0012581456428659762
3.88925e-06;-0.0012392730893833245
3.88950e-06;-0.001220368700321984
3.88975e-06;-0.0012008507985027848
3.89000e-06;-0.0011813318026675796
3.89025e-06;-0.001161799246884192
3.89050e-06;-0.0011424202978027689
3.89075e-06;-0.001123209743810286
3.89100e-06;-0.0011040388573874298
3.89125e-06;-0.0010848295677131433
3.89150e-06;-0.001065650844524911
3.89175e-06;-0.0010466220250132745
3.89200e-06;-0.0010278626619710126
3.89225e-06;-0.0010094921228609947
3.89250e-06;-0.0009916251720849113
