Time(s);Current(A)
9.30000e-06;0.012967173497850945
9.30025e-06;0.012891560126579932
9.30050e-06;0.01283084454701952
9.30075e-06;0.012770128967458695
9.30100e-06;0.01270941338789787
9.30125e-06;0.012648697808337456
9.30150e-06;0.012587982228776632
9.30175e-06;0.012527266649215807
9.30200e-06;0.01247663563282227
9.30225e-06;0.01244798455818288
9.30250e-06;0.012419333483543493
9.30275e-06;0.012390682408904298
9.30300e-06;0.01236203133426491
9.30325e-06;0.01233338025962552
9.30350e-06;0.012304729184986327
9.30375e-06;0.012286622658531542
9.30400e-06;0.012291498640203792
9.30425e-06;0.012296374621876008
9.30450e-06;0.012301250603548258
9.30475e-06;0.012306126585220508
9.30500e-06;0.012311002566892725
9.30525e-06;0.012315878548564974
9.30550e-06;0.012320754530237224
9.30575e-06;0.01232563051190944
9.30600e-06;0.01233050649358169
9.30625e-06;0.01233538247525394
9.30650e-06;0.012347083182831972
9.30675e-06;0.012373658811161412
9.30700e-06;0.012400234439490851
9.30725e-06;0.012426810067820291
9.30750e-06;0.01245338569614955
9.30775e-06;0.01247996132447899
9.30800e-06;0.01250653695280843
9.30825e-06;0.012533112581137689
9.30850e-06;0.01255968820946713
9.30875e-06;0.01258626383779657
9.30900e-06;0.01261283946612583
9.30925e-06;0.012638481955687885
9.30950e-06;0.012662090610425378
9.30975e-06;0.012685699265162711
9.31000e-06;0.012709307919900206
9.31025e-06;0.012732916574637699
9.31050e-06;0.012756525229375034
9.31075e-06;0.012780133884112527
9.31100e-06;0.012803742538850022
9.31125e-06;0.012815246435024782
9.31150e-06;0.012823993664998265
9.31175e-06;0.012832740894971748
9.31200e-06;0.012841488124945172
9.31225e-06;0.012850235354918655
9.31250e-06;0.012858982584892138
9.31275e-06;0.012867729814865562
9.31300e-06;0.012870241046196492
9.31325e-06;0.012859160524993262
9.31350e-06;0.012848080003790107
9.31375e-06;0.012836999482586877
9.31400e-06;0.012825918961383647
9.31425e-06;0.012814838440180493
9.31450e-06;0.012803757918977263
9.31475e-06;0.012792677397774033
9.31500e-06;0.012781596876570878
9.31525e-06;0.012770516355367648
9.31550e-06;0.012759435834164418
9.31575e-06;0.012735881383537019
9.31600e-06;0.012709486193916982
9.31625e-06;0.012683091004296765
9.31650e-06;0.01265669581467655
9.31675e-06;0.01263030062505651
9.31700e-06;0.012603905435436293
9.31725e-06;0.012577510245816078
9.31750e-06;0.012551115056196039
9.31775e-06;0.012524719866575823
9.31800e-06;0.012498324676955606
9.31825e-06;0.012471592530427815
9.31850e-06;0.012444125965057234
9.31875e-06;0.012416659399686654
9.31900e-06;0.012389192834316259
9.31925e-06;0.01236172626894568
9.31950e-06;0.0123342597035751
9.31975e-06;0.012306793138204705
9.32000e-06;0.012279326572834124
9.32025e-06;0.012251860007463544
9.32050e-06;0.012229524068276921
9.32075e-06;0.012218370652603604
9.32100e-06;0.012207217236930286
9.32125e-06;0.012196063821257045
9.32150e-06;0.012184910405583727
9.32175e-06;0.01217375698991041
9.32200e-06;0.012162603574237167
9.32225e-06;0.01215145015856385
9.32250e-06;0.012140296742890534
9.32275e-06;0.012137818233384058
9.32300e-06;0.012154247229261577
9.32325e-06;0.012170676225139095
9.32350e-06;0.012187105221016502
9.32375e-06;0.01220353421689402
9.32400e-06;0.012219963212771539
9.32425e-06;0.012236392208649057
9.32450e-06;0.012252821204526464
9.32475e-06;0.0122764599351867
9.32500e-06;0.012315812737746467
9.32525e-06;0.012355165540305968
9.32550e-06;0.012394518342865734
9.32575e-06;0.0124338711454255
9.32600e-06;0.012473223947985002
9.32625e-06;0.012512576750544768
9.32650e-06;0.012551929553104534
9.32675e-06;0.012594748967577264
9.32700e-06;0.012645124081461871
9.32725e-06;0.01269549919534648
9.32750e-06;0.012745874309230746
9.32775e-06;0.012796249423115354
9.32800e-06;0.012846624536999961
9.32825e-06;0.012896999650884228
9.32850e-06;0.012947374764768836
9.32875e-06;0.012993959151329667
9.32900e-06;0.013039680260044097
9.32925e-06;0.013085401368758836
9.32950e-06;0.013131122477473577
9.32975e-06;0.013176843586188005
9.33000e-06;0.013222564694902746
9.33025e-06;0.013268285803617485
9.33050e-06;0.01331011864330153
9.33075e-06;0.013343476755279107
9.33100e-06;0.013376834867256684
9.33125e-06;0.013409353721788343
9.33150e-06;0.013440043361759003
9.33175e-06;0.013470733001729664
9.33200e-06;0.013501422641700116
9.33225e-06;0.013532112281670776
9.33250e-06;0.013562801921641436
9.33275e-06;0.013593491561612096
9.33300e-06;0.013624181201582548
9.33325e-06;0.013655300355954003
9.33350e-06;0.013687355664065015
9.33375e-06;0.01371941097217581
9.33400e-06;0.013751466280286822
9.33425e-06;0.013783521588397834
9.33450e-06;0.013815576896508627
9.33475e-06;0.01384763220461964
9.33500e-06;0.013879687512730651
9.33525e-06;0.013912725493844784
9.33550e-06;0.013947905272778309
9.33575e-06;0.013983085051711834
9.33600e-06;0.01401826483064512
9.33625e-06;0.014053444609578645
9.33650e-06;0.01408862438851217
9.33675e-06;0.014123804167445457
9.33700e-06;0.014158983946378982
9.33725e-06;0.014194163725312507
9.33750e-06;0.014229343504245795
9.33775e-06;0.01426452328317932
9.33800e-06;0.014299703062112845
9.33825e-06;0.01433488284104613
9.33850e-06;0.014370062619979656
9.33875e-06;0.014401380122068305
9.33900e-06;0.014424279548055837
9.33925e-06;0.014447178974043523
9.33950e-06;0.01447007840003121
9.33975e-06;0.014492977826018742
9.34000e-06;0.014515877252006428
9.34025e-06;0.014538776677994114
9.34050e-06;0.014561676103981645
9.34075e-06;0.014584575529969331
9.34100e-06;0.014607474955957019
9.34125e-06;0.014630374381944705
9.34150e-06;0.014653273807932236
9.34175e-06;0.014676173233919922
9.34200e-06;0.014699072659907608
9.34225e-06;0.014714148794263946
9.34250e-06;0.014712173570841895
9.34275e-06;0.014710198347419842
9.34300e-06;0.014708223123997803
9.34325e-06;0.01470624790057575
9.34350e-06;0.014704272677153697
9.34375e-06;0.014702297453731658
9.34400e-06;0.014700322230309605
9.34425e-06;0.014698347006887554
9.34450e-06;0.014696371783465513
9.34475e-06;0.014694396560043461
9.34500e-06;0.014692421336621408
9.34525e-06;0.01469044611319937
9.34550e-06;0.014675351447404629
9.34575e-06;0.014657269037307486
9.34600e-06;0.014639186627210468
9.34625e-06;0.014621104217113325
9.34650e-06;0.014603021807016184
9.34675e-06;0.014584939396919164
9.34700e-06;0.014566856986822023
9.34725e-06;0.01454877457672488
9.34750e-06;0.014530692166627862
9.34775e-06;0.01451260975653072
9.34800e-06;0.014494527346433578
9.34825e-06;0.014476444936336558
9.34850e-06;0.014457609809816334
9.34875e-06;0.014437134090353592
9.34900e-06;0.01441665837089099
9.34925e-06;0.014396182651428249
9.34950e-06;0.014375706931965507
9.34975e-06;0.014355231212502765
9.35000e-06;0.014337811703672692
9.35025e-06;0.014321088198197387
9.35050e-06;0.014304364692722083
9.35075e-06;0.014287641187246892
9.35100e-06;0.014270917681771588
9.35125e-06;0.01425368069589573
9.35150e-06;0.014235324547084906
9.35175e-06;0.014216968398273959
9.35200e-06;0.014198612249463012
9.35225e-06;0.014180256100652188
9.35250e-06;0.01416189995184124
9.35275e-06;0.014143543803030293
9.35300e-06;0.01412518765421947
9.35325e-06;0.014106831505408523
9.35350e-06;0.01408262695834982
9.35375e-06;0.014057090531623484
9.35400e-06;0.014031554104896975
9.35425e-06;0.014006017678170465
9.35450e-06;0.013980481251444129
9.35475e-06;0.01395494482471762
9.35500e-06;0.01392940839799111
9.35525e-06;0.013903871971264773
9.35550e-06;0.013876277114398107
9.35575e-06;0.013844195779147287
9.35600e-06;0.013812114443896684
9.35625e-06;0.013780033108645864
9.35650e-06;0.013747951773395044
9.35675e-06;0.01371587043814444
9.35700e-06;0.013683789102893619
9.35725e-06;0.013651707767642799
9.35750e-06;0.013619626432392196
9.35775e-06;0.013587545097141376
9.35800e-06;0.013555463761890556
9.35825e-06;0.013523382426639734
9.35850e-06;0.013491301091389131
9.35875e-06;0.013459219756138311
9.35900e-06;0.013430370776054341
9.35925e-06;0.013408566918029757
9.35950e-06;0.013386763060005023
9.35975e-06;0.01336495920198029
9.36000e-06;0.013343155343955703
9.36025e-06;0.01332135148593097
9.36050e-06;0.013299547627906238
9.36075e-06;0.013277743769881651
9.36100e-06;0.013255939911856918
9.36125e-06;0.013234136053832184
9.36150e-06;0.0132123321958076
9.36175e-06;0.013190528337782866
9.36200e-06;0.013168724479758132
9.36225e-06;0.013146920621733546
9.36250e-06;0.013132647267926076
9.36275e-06;0.013134787123264258
9.36300e-06;0.013136926978602427
9.36325e-06;0.013139066833940609
9.36350e-06;0.01314120668927879
9.36375e-06;0.013143346544616958
9.36400e-06;0.01314548639995514
9.36425e-06;0.013147626255293322
9.36450e-06;0.013149766110631489
9.36475e-06;0.01315190596596967
9.36500e-06;0.013154045821307853
9.36525e-06;0.013156185676646021
9.36550e-06;0.013171200250352608
9.36575e-06;0.01318914683636547
9.36600e-06;0.01320709342237821
9.36625e-06;0.013225040008391071
9.36650e-06;0.013242986594403932
9.36675e-06;0.013260933180416793
9.36700e-06;0.013278879766429533
9.36725e-06;0.013296826352442396
9.36750e-06;0.013314772938455257
9.36775e-06;0.013332719524467997
9.36800e-06;0.013350666110480858
9.36825e-06;0.013369005472014979
9.36850e-06;0.013388200912583298
9.36875e-06;0.013407396353151748
9.36900e-06;0.013426591793720197
9.36925e-06;0.013445787234288516
9.36950e-06;0.013464982674856966
9.36975e-06;0.013484178115425415
9.37000e-06;0.013503373555993734
9.37025e-06;0.013522568996562184
9.37050e-06;0.013541764437130633
9.37075e-06;0.013546913232500036
9.37100e-06;0.013548863127869418
9.37125e-06;0.0135508130232388
9.37150e-06;0.013552762918608168
9.37175e-06;0.01355471281397755
9.37200e-06;0.013556662709346932
9.37225e-06;0.0135586126047163
9.37250e-06;0.013560562500085683
9.37275e-06;0.013562512395455063
9.37300e-06;0.0135555753052931
9.37325e-06;0.01352926846935858
9.37350e-06;0.01350296163342406
9.37375e-06;0.01347665479748972
9.37400e-06;0.0134503479615552
9.37425e-06;0.01342404112562068
9.37450e-06;0.013397734289686339
9.37475e-06;0.013371427453751819
9.37500e-06;0.013338319015087785
9.37525e-06;0.01329038605406344
9.37550e-06;0.013242453093039421
9.37575e-06;0.013194520132015077
9.37600e-06;0.013146587170990733
9.37625e-06;0.013098654209966714
9.37650e-06;0.01305072124894237
9.37675e-06;0.013002788287918026
9.37700e-06;0.012951995504871687
9.37725e-06;0.012894969559259326
9.37750e-06;0.012837943613646962
9.37775e-06;0.012780917668034988
9.37800e-06;0.012723891722422625
9.37825e-06;0.012666865776810261
9.37850e-06;0.012609839831198287
9.37875e-06;0.012554576402585569
9.37900e-06;0.012503154490996832
9.37925e-06;0.012451732579408443
9.37950e-06;0.012400310667819707
9.37975e-06;0.012348888756230969
9.38000e-06;0.012297466844642582
9.38025e-06;0.012246044933053844
9.38050e-06;0.01220004141662659
9.38075e-06;0.01216584763438141
9.38100e-06;0.012131653852135998
9.38125e-06;0.012097460069890587
9.38150e-06;0.012063266287645407
9.38175e-06;0.012029072505399994
9.38200e-06;0.011994878723154584
9.38225e-06;0.011960684940909403
9.38250e-06;0.011926491158663993
9.38275e-06;0.011901920688027912
9.38300e-06;0.011879541773531586
9.38325e-06;0.011857162859035108
9.38350e-06;0.011834783944538631
9.38375e-06;0.011812405030042153
9.38400e-06;0.011790026115545827
9.38425e-06;0.011767647201049348
9.38450e-06;0.011745268286552871
9.38475e-06;0.011725682331758509
9.38500e-06;0.011712183808885073
9.38525e-06;0.011698685286011638
9.38550e-06;0.011685186763138294
9.38575e-06;0.011671688240264858
9.38600e-06;0.011658189717391422
9.38625e-06;0.011644691194518077
9.38650e-06;0.011631192671644641
9.38675e-06;0.011617694148771207
9.38700e-06;0.011604195625897862
9.38725e-06;0.011590697103024426
9.38750e-06;0.01157719858015099
9.38775e-06;0.011563700057277646
9.38800e-06;0.011550201534404211
9.38825e-06;0.011538464879945802
9.38850e-06;0.011530568328881774
9.38875e-06;0.01152267177781769
9.38900e-06;0.011514775226753609
9.38925e-06;0.011506878675689579
9.38950e-06;0.011498982124625497
9.38975e-06;0.011491085573561415
9.39000e-06;0.011483189022497385
9.39025e-06;0.011475292471433304
9.39050e-06;0.01146739592036922
9.39075e-06;0.011459499369305192
9.39100e-06;0.011451602818241109
9.39125e-06;0.011443706267177027
9.39150e-06;0.011435809716112997
9.39175e-06;0.011427016388231848
9.39200e-06;0.011416268478685949
9.39225e-06;0.01140552056914005
9.39250e-06;0.011394772659594226
9.39275e-06;0.011384024750048327
9.39300e-06;0.011373276840502428
9.39325e-06;0.011362528930956602
9.39350e-06;0.011351781021410705
9.39375e-06;0.011341033111864806
9.39400e-06;0.01133028520231898
9.39425e-06;0.011319537292773081
9.39450e-06;0.011308789383227182
9.39475e-06;0.011298041473681358
9.39500e-06;0.011282813690900907
9.39525e-06;0.011266565688252553
9.39550e-06;0.01125031768560431
9.39575e-06;0.011234069682955957
9.39600e-06;0.011217821680307603
9.39625e-06;0.01120157367765936
9.39650e-06;0.011185325675011007
9.39675e-06;0.011169077672362653
9.39700e-06;0.011152829669714408
9.39725e-06;0.011136581667066055
9.39750e-06;0.011120333664417701
9.39775e-06;0.011104085661769458
9.39800e-06;0.011088107895414416
9.39825e-06;0.01107271912611431
9.39850e-06;0.011057330356814308
9.39875e-06;0.011041941587514202
9.39900e-06;0.011026552818214097
9.39925e-06;0.011011164048914095
9.39950e-06;0.01099577527961399
9.39975e-06;0.010980386510313883
9.40000e-06;0.010964997741013883
9.40025e-06;0.010949608971713777
9.40050e-06;0.01093422020241367
9.40075e-06;0.010918831433113564
9.40100e-06;0.010912177171641807
9.40125e-06;0.010907512055388698
9.40150e-06;0.010902846939135588
9.40175e-06;0.01089818182288251
9.40200e-06;0.010893516706629401
9.40225e-06;0.010888851590376293
9.40250e-06;0.010884186474123215
9.40275e-06;0.010879521357870105
9.40300e-06;0.010874856241616996
9.40325e-06;0.010870191125363918
9.40350e-06;0.01086552600911081
9.40375e-06;0.010865596867815856
9.40400e-06;0.010875990082814212
9.40425e-06;0.01088638329781264
9.40450e-06;0.010896776512811067
9.40475e-06;0.010907169727809423
9.40500e-06;0.010917562942807851
9.40525e-06;0.010927956157806278
9.40550e-06;0.010938349372804634
9.40575e-06;0.01094874258780306
9.40600e-06;0.010959135802801489
9.40625e-06;0.010969529017799845
9.40650e-06;0.010979922232798272
9.40675e-06;0.0109903154477967
9.40700e-06;0.011000708662795056
9.40725e-06;0.011015196921028128
9.40750e-06;0.011030617760218612
9.40775e-06;0.01104603859940899
9.40800e-06;0.011061459438599474
9.40825e-06;0.011076880277789957
9.40850e-06;0.011092301116980334
9.40875e-06;0.011107721956170817
9.40900e-06;0.0111231427953613
9.40925e-06;0.01113856363455168
9.40950e-06;0.011153984473742162
9.40975e-06;0.011169405312932645
9.41000e-06;0.011184826152123128
9.41025e-06;0.011200246991313507
9.41050e-06;0.011214229354521736
9.41075e-06;0.011225076468548282
9.41100e-06;0.011235923582574756
9.41125e-06;0.011249530694195957
9.41150e-06;0.01126915339475094
9.41175e-06;0.011288776095305791
9.41200e-06;0.011308398795860776
9.41225e-06;0.01132802149641576
9.41250e-06;0.01134764419697061
9.41275e-06;0.011367266897525595
9.41300e-06;0.011392318582266327
9.41325e-06;0.011429203080649396
9.41350e-06;0.011466087579032714
9.41375e-06;0.01150297207741603
9.41400e-06;0.011539856575799099
9.41425e-06;0.011576741074182417
9.41450e-06;0.011613625572565733
9.41475e-06;0.011656343243093465
9.41500e-06;0.01171177468042898
9.41525e-06;0.011767206117764497
9.41550e-06;0.011822637555099639
9.41575e-06;0.011878068992435153
9.41600e-06;0.01193350042977067
9.41625e-06;0.01198893186710581
9.41650e-06;0.012044363304441327
9.41675e-06;0.012099794741776844
9.41700e-06;0.012155226179111984
9.41725e-06;0.012215532348659616
9.41750e-06;0.012276948660927522
9.41775e-06;0.012338364973195012
9.41800e-06;0.012399781285462918
9.41825e-06;0.012461197597730823
9.41850e-06;0.01252261390999873
9.41875e-06;0.012584030222266219
9.41900e-06;0.012645446534534125
9.41925e-06;0.01270686284680203
9.41950e-06;0.012761006549629684
9.41975e-06;0.012799299141222778
9.42000e-06;0.012837591732815875
9.42025e-06;0.01287588432440871
9.42050e-06;0.012914176916001805
9.42075e-06;0.012952469507594901
9.42100e-06;0.012990762099187736
9.42125e-06;0.013029054690780832
9.42150e-06;0.013067347282373926
9.42175e-06;0.013105639873966762
9.42200e-06;0.013143932465559859
9.42225e-06;0.013182225057152953
9.42250e-06;0.013220517648745789
9.42275e-06;0.013258810240338884
9.42300e-06;0.013289933152468838
9.42325e-06;0.013305429295741678
9.42350e-06;0.013320925439014624
9.42375e-06;0.013336421582287568
9.42400e-06;0.013351917725560408
9.42425e-06;0.013367413868833354
9.42450e-06;0.013382910012106298
9.42475e-06;0.013398406155379138
9.42500e-06;0.013413902298652082
9.42525e-06;0.013429398441925028
9.42550e-06;0.013444894585197868
9.42575e-06;0.013460390728470812
9.42600e-06;0.013475886871743756
9.42625e-06;0.013491383015016596
9.42650e-06;0.013503659086998169
9.42675e-06;0.0135089168103855
9.42700e-06;0.01351417453377283
9.42725e-06;0.013519432257160126
9.42750e-06;0.013524689980547457
9.42775e-06;0.013529947703934788
9.42800e-06;0.013535205427322082
9.42825e-06;0.013540463150709413
9.42850e-06;0.013545720874096744
9.42875e-06;0.01355097859748404
9.42900e-06;0.01355623632087137
9.42925e-06;0.013561494044258701
9.42950e-06;0.013566751767645996
9.42975e-06;0.013572009491033326
9.43000e-06;0.013577267214420657
9.43025e-06;0.013582524937807953
9.43050e-06;0.013586365927603039
9.43075e-06;0.013587119057125048
9.43100e-06;0.013587872186647051
9.43125e-06;0.013584790844763321
9.43150e-06;0.013573352030461009
9.43175e-06;0.013561913216158777
9.43200e-06;0.013544091192759103
9.43225e-06;0.013512356562293595
9.43250e-06;0.013480621931828304
9.43275e-06;0.013448887301362795
9.43300e-06;0.013417152670897287
9.43325e-06;0.013376544070093366
9.43350e-06;0.013316594090907307
9.43375e-06;0.01325664411172125
9.43400e-06;0.013196694132535597
9.43425e-06;0.01313674415334954
9.43450e-06;0.013067617480145148
9.43475e-06;0.01297848962319426
9.43500e-06;0.012889361766242766
9.43525e-06;0.012800233909291272
9.43550e-06;0.012711106052339778
9.43575e-06;0.01262197819538889
9.43600e-06;0.012532850338437396
9.43625e-06;0.012426097159768616
9.43650e-06;0.01231533009443688
9.43675e-06;0.012204563029104394
9.43700e-06;0.012093795963771907
9.43725e-06;0.011983028898440173
9.43750e-06;0.011872261833107686
9.43775e-06;0.011759808997758064
9.43800e-06;0.011643681920268758
9.43825e-06;0.011528014270507553
9.43850e-06;0.011413347972475747
9.43875e-06;0.011299934739044101
9.43900e-06;0.0111892526389865
9.43925e-06;0.01108037105040445
9.43950e-06;0.01097541379021372
9.43975e-06;0.010873860620505105
9.44000e-06;0.010779726880834986
9.44025e-06;0.010685593141165507
9.44050e-06;0.010600689038434008
9.44075e-06;0.010535901511890615
9.44100e-06;0.010471113985347663
9.44125e-06;0.010406326458804273
9.44150e-06;0.01034153893226088
9.44175e-06;0.010276751405717929
9.44200e-06;0.010211963879174538
9.44225e-06;0.010181275486404009
9.44250e-06;0.010158352628954537
9.44275e-06;0.010135429771504906
9.44300e-06;0.010112506914055278
9.44325e-06;0.010089584056605806
9.44350e-06;0.010066661199156175
9.44375e-06;0.01005771661145303
9.44400e-06;0.010079238544829835
9.44425e-06;0.010100760478206494
9.44450e-06;0.010122282411583299
9.44475e-06;0.010143804344960105
9.44500e-06;0.010165326278336764
9.44525e-06;0.010186848211713569
9.44550e-06;0.010208370145090375
9.44575e-06;0.010229892078467034
9.44600e-06;0.010261629440199075
9.44625e-06;0.010315631972727621
9.44650e-06;0.010369634505255803
9.44675e-06;0.01042363703778435
9.44700e-06;0.010477639570312896
9.44725e-06;0.010531642102841078
9.44750e-06;0.010585644635369625
9.44775e-06;0.010639647167898171
9.44800e-06;0.010693649700426354
9.44825e-06;0.010749055039131655
9.44850e-06;0.010807517882430567
9.44875e-06;0.010865980725729084
9.44900e-06;0.010924443569027996
9.44925e-06;0.010982906412326908
9.44950e-06;0.011041369255625424
9.44975e-06;0.011099832098924336
9.45000e-06;0.011152537397859557
9.45025e-06;0.01119269376549331
9.45050e-06;0.011232850133127333
9.45075e-06;0.011273006500761356
9.45100e-06;0.01131316286839511
9.45125e-06;0.011353319236029133
9.45150e-06;0.011393475603663156
9.45175e-06;0.011423466202638018
9.45200e-06;0.01143129986725398
