Time(s);Current(A)
3.75000e-06;-0.0013732686409255127
3.75025e-06;-0.0014239055138988844
3.75050e-06;-0.0014745954807823948
3.75075e-06;-0.0015266388341324472
3.75100e-06;-0.0015787114075856352
3.75125e-06;-0.0016310532566857427
3.75150e-06;-0.0016831820120041061
3.75175e-06;-0.001734788457454207
3.75200e-06;-0.001785572368542384
3.75225e-06;-0.001835230321874101
3.75250e-06;-0.0018834362596167886
3.75275e-06;-0.0019298465435440362
3.75300e-06;-0.00197411420354996
3.75325e-06;-0.0020158918636952175
3.75350e-06;-0.002053274603823998
3.75375e-06;-0.0020905635955583836
3.75400e-06;-0.0021213370966502807
3.75425e-06;-0.0021519699259438373
3.75450e-06;-0.0021743595549709865
3.75475e-06;-0.002196571210324493
3.75500e-06;-0.002218782865677962
3.75525e-06;-0.0022305307937841444
3.75550e-06;-0.0022420528062364353
3.75575e-06;-0.002253574818688726
3.75600e-06;-0.002256048994673582
3.75625e-06;-0.002258327824598346
3.75650e-06;-0.002255475147262695
3.75675e-06;-0.0022492295471406676
3.75700e-06;-0.0022397004654647126
3.75725e-06;-0.002226959371401093
3.75750e-06;-0.0022110777439574747
3.75775e-06;-0.002192130252881181
3.75800e-06;-0.0021702451956552493
3.75825e-06;-0.0021456354411719496
3.75850e-06;-0.002118524091954211
3.75875e-06;-0.002089095915801796
3.75900e-06;-0.002057523909243967
3.75925e-06;-0.0020239803767984027
3.75950e-06;-0.001988637613141297
3.75975e-06;-0.0019516699641388686
3.76000e-06;-0.001913285322710965
3.76025e-06;-0.001873744724410847
3.76050e-06;-0.001833315350562799
3.76075e-06;-0.0017922406741524004
3.76100e-06;-0.0017507563608368645
3.76125e-06;-0.0017090979188121064
3.76150e-06;-0.0016675007423192594
3.76175e-06;-0.001626201476644043
3.76200e-06;-0.0015854577618541832
3.76225e-06;-0.0015455607376660206
3.76250e-06;-0.001506804992211192
3.76275e-06;-0.0014694704724752916
3.76300e-06;-0.0014338322498615246
3.76325e-06;-0.0014001650694501272
3.76350e-06;-0.001368743899310649
3.76375e-06;-0.001339850549732675
3.76400e-06;-0.0013138551797898035
3.76425e-06;-0.001291176460442463
3.76450e-06;-0.001272056868912773
3.76475e-06;-0.001256555349587478
3.76500e-06;-0.001244690387361297
3.76525e-06;-0.0012364800192281255
3.76550e-06;-0.0012319420616528605
3.76575e-06;-0.0012329459238728812
3.76600e-06;-0.0012340677601216656
3.76625e-06;-0.0012427349552561742
3.76650e-06;-0.0012515650574167546
3.76675e-06;-0.0012677403565190138
3.76700e-06;-0.0012840742410785717
3.76725e-06;-0.0013072043444041872
3.76750e-06;-0.0013304811805498564
3.76775e-06;-0.0013600165958076288
3.76800e-06;-0.001389687136051016
3.76825e-06;-0.0014251896079152014
3.76850e-06;-0.0014608179932913865
3.76875e-06;-0.0015015488274047965
3.76900e-06;-0.0015423898252311045
3.76925e-06;-0.0015873853371908674
3.76950e-06;-0.0016324705466126046
3.76975e-06;-0.0016807695147285546
3.77000e-06;-0.0017291378690565313
3.77025e-06;-0.0017798488531395712
3.77050e-06;-0.0018306104154460052
3.77075e-06;-0.0018826539714163273
3.77100e-06;-0.0019347252060933143
3.77125e-06;-0.001986881052352029
3.77150e-06;-0.0020390387254054726
3.77175e-06;-0.00209051004754002
3.77200e-06;-0.0021411232841666576
3.77225e-06;-0.0021905965414105717
3.77250e-06;-0.0022386181789369516
3.77275e-06;-0.00228484839374451
3.77300e-06;-0.0023289404059525787
3.77325e-06;-0.0023705484374521905
3.77350e-06;-0.00240778526555599
3.77375e-06;-0.0024449288545533507
3.77400e-06;-0.002477658624832282
3.77425e-06;-0.002508259458375997
3.77450e-06;-0.0025365644063210084
3.77475e-06;-0.002564820733234842
3.77500e-06;-0.002589641772949454
3.77525e-06;-0.002614388643571493
3.77550e-06;-0.0026349583799941123
3.77575e-06;-0.002655437930579263
3.77600e-06;-0.0026726820710217705
3.77625e-06;-0.002688300872144083
3.77650e-06;-0.0027021012127238977
3.77675e-06;-0.002715863017163025
3.77700e-06;-0.002727054338839844
3.77725e-06;-0.002738190162864502
3.77750e-06;-0.0027463870876366266
3.77775e-06;-0.002754520560511387
3.77800e-06;-0.002760445813544495
3.77825e-06;-0.00276526041814431
3.77850e-06;-0.002768848822026548
3.77875e-06;-0.002772411247289768
3.77900e-06;-0.002774330099698423
3.77925e-06;-0.0027762134667749408
3.77950e-06;-0.0027763186801509237
3.77975e-06;-0.0027763855025456524
3.78000e-06;-0.002775176712756082
3.78025e-06;-0.0027733779001960696
3.78050e-06;-0.002771187473325224
3.78075e-06;-0.002768647216490153
3.78100e-06;-0.0027657606814400614
3.78125e-06;-0.0027625299784127186
3.78150e-06;-0.002758957430793908
3.78175e-06;-0.0027550508367296875
3.78200e-06;-0.0027508969693166487
3.78225e-06;-0.0027466813938528643
3.78250e-06;-0.0027425468735701214
3.78275e-06;-0.0027385435825165675
3.78300e-06;-0.00273469852100687
3.78325e-06;-0.002731037548004438
3.78350e-06;-0.002727704109262822
3.78375e-06;-0.002724377657856939
3.78400e-06;-0.0027216948242478165
3.78425e-06;-0.002719025886579612
3.78450e-06;-0.0027175881946186783
3.78475e-06;-0.0027161770856977087
3.78500e-06;-0.0027147659767767364
3.78525e-06;-0.002715359305783085
3.78550e-06;-0.002715995911328964
3.78575e-06;-0.0027166325168748416
3.78600e-06;-0.0027172691224207203
3.78625e-06;-0.0027179057279665994
3.78650e-06;-0.0027211844483829516
3.78675e-06;-0.0027245202130145815
3.78700e-06;-0.0027278559776462118
3.78725e-06;-0.002731191742277836
3.78750e-06;-0.0027345275069094663
3.78775e-06;-0.0027405401068698074
3.78800e-06;-0.0027466105006726717
3.78825e-06;-0.0027526808944755257
3.78850e-06;-0.0027587512882783897
3.78875e-06;-0.002764821682081254
3.78900e-06;-0.002770892075884108
3.78925e-06;-0.002776962469686972
3.78950e-06;-0.002784900097435797
3.78975e-06;-0.002792878039440597
3.79000e-06;-0.0028008559814453834
3.79025e-06;-0.0028088339234501832
3.79050e-06;-0.002816811865454983
3.79075e-06;-0.0028247898074597695
3.79100e-06;-0.0028327677494645693
3.79125e-06;-0.0028409796790536458
3.79150e-06;-0.0028491966605192496
3.79175e-06;-0.0028574136419848672
3.79200e-06;-0.0028651624203719483
3.79225e-06;-0.0028729010900852866
3.79250e-06;-0.0028806397597986116
3.79275e-06;-0.0028876842536835995
3.79300e-06;-0.0028947137600614753
3.79325e-06;-0.002901161526203434
3.79350e-06;-0.0029071331634545365
3.79375e-06;-0.0029125471243921074
3.79400e-06;-0.0029169204753153005
3.79425e-06;-0.002919333695784135
3.79450e-06;-0.0029192085499175195
3.79475e-06;-0.002916506539622092
3.79500e-06;-0.0029113239558449153
3.79525e-06;-0.002903759979519502
3.79550e-06;-0.0028939135685900888
3.79575e-06;-0.00288186658283139
3.79600e-06;-0.002867451635265372
3.79625e-06;-0.0028502283992324403
3.79650e-06;-0.0028299697927146364
3.79675e-06;-0.0028067873505748723
3.79700e-06;-0.002780876394196191
3.79725e-06;-0.002752434809943097
3.79750e-06;-0.0027206108644282894
3.79775e-06;-0.0026887150453081803
3.79800e-06;-0.002652593433207065
3.79825e-06;-0.0026163805847076475
3.79850e-06;-0.002576845720271553
3.79875e-06;-0.0025352285104253635
3.79900e-06;-0.0024918104766338428
3.79925e-06;-0.0024468512053821044
3.79950e-06;-0.002400107419456471
3.79975e-06;-0.0023533258059649956
3.80000e-06;-0.0023051882420197325
3.80025e-06;-0.0022562107267983236
3.80050e-06;-0.002206535625398661
3.80075e-06;-0.0021564264863808114
3.80100e-06;-0.002106180435849133
3.80125e-06;-0.002056094352556748
3.80150e-06;-0.0020064662351243255
3.80175e-06;-0.001957588864846176
3.80200e-06;-0.0019096943997402732
3.80225e-06;-0.001862947369584341
3.80250e-06;-0.0018175651148206132
3.80275e-06;-0.0017738478527377416
3.80300e-06;-0.0017321167091191069
3.80325e-06;-0.0016926932230836719
3.80350e-06;-0.001655898591885408
3.80375e-06;-0.0016220134374198326
3.80400e-06;-0.001590709327911243
3.80425e-06;-0.0015609170981793561
3.80450e-06;-0.0015319307741894963
3.80475e-06;-0.0015037694533594974
3.80500e-06;-0.001476643315683138
3.80525e-06;-0.0014507662185669875
3.80550e-06;-0.001426352016957152
3.80575e-06;-0.0014035888119716044
3.80600e-06;-0.0013822836529744215
3.80625e-06;-0.0013617790985000833
3.80650e-06;-0.0013416457939479224
3.80675e-06;-0.0013219080487350497
3.80700e-06;-0.0013027102785230491
3.80725e-06;-0.001284199055122693
3.80750e-06;-0.0012665209454241952
3.80775e-06;-0.001249806448663844
3.80800e-06;-0.0012339470954174253
3.80825e-06;-0.0012185436931200632
3.80850e-06;-0.0012034517265986468
3.80875e-06;-0.0011883662799503471
3.80900e-06;-0.0011737183065176373
3.80925e-06;-0.001159507793241057
3.80950e-06;-0.0011461480785804796
3.80975e-06;-0.0011328065334531474
3.81000e-06;-0.0011203413022169016
3.81025e-06;-0.0011082238650223291
3.81050e-06;-0.0010964093554987498
3.81075e-06;-0.001084601232990522
3.81100e-06;-0.0010731985623450354
3.81125e-06;-0.0010621768225568646
3.81150e-06;-0.0010521225812552767
3.81175e-06;-0.0010420890551078713
3.81200e-06;-0.001032055528960483
3.81225e-06;-0.001023178152180345
3.81250e-06;-0.0010143257370830885
3.81275e-06;-0.001005473321985847
3.81300e-06;-0.0009973014081178363
3.81325e-06;-0.0009895804062280934
3.81350e-06;-0.0009823652104262585
3.81375e-06;-0.0009757478849177101
3.81400e-06;-0.0009702573742169206
3.81425e-06;-0.0009669015355481445
3.81450e-06;-0.000966314847166373
3.81475e-06;-0.0009685394877519838
3.81500e-06;-0.0009734692494233469
3.81525e-06;-0.0009822108071182844
3.81550e-06;-0.00099103342959443
3.81575e-06;-0.0010034158066100005
3.81600e-06;-0.0010184046129331921
3.81625e-06;-0.0010380811017738432
3.81650e-06;-0.001057857620230548
3.81675e-06;-0.0010838347716853553
3.81700e-06;-0.0011099457970485621
3.81725e-06;-0.0011426298223400177
3.81750e-06;-0.0011754557610764167
3.81775e-06;-0.0012082816998128156
3.81800e-06;-0.0012469262184432186
3.81825e-06;-0.0012856963623172082
3.81850e-06;-0.0013291899406237028
3.81875e-06;-0.0013727854995875665
3.81900e-06;-0.0014202164987059892
3.81925e-06;-0.0014677303063640953
3.81950e-06;-0.0015179740767963814
3.81975e-06;-0.0015682767881118344
3.82000e-06;-0.0016204989003407845
3.82025e-06;-0.0016727624531296067
3.82050e-06;-0.0017264388768907974
3.82075e-06;-0.0017801458050472957
3.82100e-06;-0.0018341307833849262
3.82125e-06;-0.0018881217649265002
3.82150e-06;-0.0019411203124399482
3.82175e-06;-0.0019940974329437314
3.82200e-06;-0.002044996014387192
3.82225e-06;-0.002095849719421024
3.82250e-06;-0.002143729768929502
3.82275e-06;-0.002191545616140088
3.82300e-06;-0.0022350992047722295
3.82325e-06;-0.0022785607697005227
3.82350e-06;-0.0023148477283108974
3.82375e-06;-0.002350979784577089
3.82400e-06;-0.0023871118408431585
3.82425e-06;-0.0024142516516859106
3.82450e-06;-0.0024411973166990467
3.82475e-06;-0.002468142981712092
3.82500e-06;-0.0024950886467252284
3.82525e-06;-0.0025133117977817723
3.82550e-06;-0.0025313466266085574
3.82575e-06;-0.0025493814554354037
3.82600e-06;-0.0025607449031903647
3.82625e-06;-0.0025719643134161137
3.82650e-06;-0.0025789768471894997
3.82675e-06;-0.002585898552979364
3.82700e-06;-0.002588741125863245
3.82725e-06;-0.0025914956287930017
3.82750e-06;-0.0025900461041451417
3.82775e-06;-0.0025885058130220495
3.82800e-06;-0.0025838997907398726
3.82825e-06;-0.002577538537317121
3.82850e-06;-0.0025696954117678853
3.82875e-06;-0.0025604586335109935
3.82900e-06;-0.0025498728407434878
3.82925e-06;-0.0025379815777163235
3.82950e-06;-0.0025248279279399704
3.82975e-06;-0.0025104618023830097
3.83000e-06;-0.0024950255631775754
3.83025e-06;-0.0024787811668749364
3.83050e-06;-0.0024619495782791587
3.83075e-06;-0.0024446505419551704
3.83100e-06;-0.002426975883549863
3.83125e-06;-0.0024090173284954607
3.83150e-06;-0.0023908663841555175
3.83175e-06;-0.0023726181995328663
3.83200e-06;-0.002354426119406799
3.83225e-06;-0.002336518358249697
3.83250e-06;-0.0023190975986187913
3.83275e-06;-0.0023023028064469504
3.83300e-06;-0.002286256086765561
3.83325e-06;-0.0022710787541813954
3.83350e-06;-0.002257431804303458
3.83375e-06;-0.002243817498077085
3.83400e-06;-0.0022317529797466584
3.83425e-06;-0.0022204464477384484
3.83450e-06;-0.002209970108790411
3.83475e-06;-0.0021995113562774792
3.83500e-06;-0.0021902885596115375
3.83525e-06;-0.0021810924476791406
3.83550e-06;-0.002173388690326556
3.83575e-06;-0.0021657171534487786
3.83600e-06;-0.0021594833867095093
3.83625e-06;-0.0021532806619472484
3.83650e-06;-0.0021482466216015163
3.83675e-06;-0.002143237813574805
3.83700e-06;-0.002138229005548094
3.83725e-06;-0.0021347202250706783
3.83750e-06;-0.0021312438307302824
3.83775e-06;-0.002127767436389875
3.83800e-06;-0.002125715327513881
3.83825e-06;-0.0021236939694758926
3.83850e-06;-0.0021216726114378975
3.83875e-06;-0.002120574896597917
3.83900e-06;-0.0021194971235484433
3.83925e-06;-0.002118419350498966
3.83950e-06;-0.002118285656576132
3.83975e-06;-0.0021181723456628874
3.84000e-06;-0.002118059034749642
3.84025e-06;-0.00211858478343351
3.84050e-06;-0.002119124329645071
3.84075e-06;-0.002119663875856633
3.84100e-06;-0.0021206492139982784
3.84125e-06;-0.0021216441769488265
3.84150e-06;-0.0021226391398993776
3.84175e-06;-0.0021236341028499257
3.84200e-06;-0.0021247053529264786
3.84225e-06;-0.002125859623777428
3.84250e-06;-0.0021270138946283775
3.84275e-06;-0.002128168165479331
3.84300e-06;-0.0021293224363302804
3.84325e-06;-0.0021302985828665147
3.84350e-06;-0.0021311785800906093
3.84375e-06;-0.0021319410340855808
3.84400e-06;-0.0021323905799072933
3.84425e-06;-0.0021320093863013427
3.84450e-06;-0.002131421253520091
3.84475e-06;-0.0021288738278679073
3.84500e-06;-0.002125817615540335
3.84525e-06;-0.0021215281904987567
3.84550e-06;-0.002117138274592987
3.84575e-06;-0.002111333567413408
3.84600e-06;-0.0021047770786379073
3.84625e-06;-0.002097701865478312
3.84650e-06;-0.0020892099231626894
3.84675e-06;-0.0020794673997658057
3.84700e-06;-0.0020683394746323206
3.84725e-06;-0.0020571744063279784
3.84750e-06;-0.0020445235652201245
3.84775e-06;-0.0020313576747900677
3.84800e-06;-0.0020201839084131377
3.84825e-06;-0.00200403038553779
3.84850e-06;-0.0019872372906965387
3.84875e-06;-0.0019709790153191577
3.84900e-06;-0.0019534215596754448
3.84925e-06;-0.0019353991655599117
3.84950e-06;-0.0019171485279553587
3.84975e-06;-0.0018985327013038614
3.85000e-06;-0.0018795971213628698
3.85025e-06;-0.0018603731173810142
3.85050e-06;-0.001840904697503918
3.85075e-06;-0.001821187392110982
3.85100e-06;-0.0018012572572243303
3.85125e-06;-0.0017814688457640673
3.85150e-06;-0.0017620225092671066
3.85175e-06;-0.0017428844686480085
3.85200e-06;-0.0017241351599553269
3.85225e-06;-0.001705846169711026
3.85250e-06;-0.001688096902906796
3.85275e-06;-0.0016709366210952178
3.85300e-06;-0.0016544399352156698
3.85325e-06;-0.0016390702803001124
3.85350e-06;-0.001624802302041633
3.85375e-06;-0.0016112588761849767
3.85400e-06;-0.0015991134402817554
3.85425e-06;-0.0015874379252423935
3.85450e-06;-0.0015766691005197756
3.85475e-06;-0.0015663065139393006
3.85500e-06;-0.0015567277448440585
3.85525e-06;-0.0015477116488576566
3.85550e-06;-0.0015397812043041353
3.85575e-06;-0.0015324040940516205
3.85600e-06;-0.0015260946164392442
3.85625e-06;-0.0015202412038141254
3.85650e-06;-0.0015152677472401424
3.85675e-06;-0.0015102942906661592
3.85700e-06;-0.001505867942521239
3.85725e-06;-0.0015024972144879545
3.85750e-06;-0.0014991264864546703
3.85775e-06;-0.0014963145370486585
3.85800e-06;-0.0014945807248555828
3.85825e-06;-0.001492846912662507
3.85850e-06;-0.0014914634316065167
3.85875e-06;-0.0014907558980855598
3.85900e-06;-0.0014900483645646006
3.85925e-06;-0.0014896983285567046
3.85950e-06;-0.0014900380672709028
3.85975e-06;-0.0014903778059851022
3.86000e-06;-0.0014909763422727678
3.86025e-06;-0.0014920742163678105
3.86050e-06;-0.0014931720904628567
3.86075e-06;-0.0014943987341341752
3.86100e-06;-0.0014958738326770443
3.86125e-06;-0.0014973489312199184
3.86150e-06;-0.0014989303729536477
3.86175e-06;-0.0015007169988977256
3.86200e-06;-0.0015025036248418097
3.86225e-06;-0.0015042497958649994
3.86250e-06;-0.0015059179110114575
3.86275e-06;-0.0015075860261579213
3.86300e-06;-0.0015092541413043795
3.86325e-06;-0.001510837849523566
3.86350e-06;-0.0015122143093843881
3.86375e-06;-0.0015135081824226172
3.86400e-06;-0.0015149702163100643
3.86425e-06;-0.0015170676053577264
3.86450e-06;-0.0015203150334439793
3.86475e-06;-0.00152458159678129
3.86500e-06;-0.001529611326172864
3.86525e-06;-0.0015361135487530783
3.86550e-06;-0.0015426157713333147
3.86575e-06;-0.0015498425993015698
3.86600e-06;-0.0015584675194574228
3.86625e-06;-0.0015681241261984997
3.86650e-06;-0.0015797713239268554
3.86675e-06;-0.001591418521655211
3.86700e-06;-0.0016043806853485543
3.86725e-06;-0.0016198800143360143
3.86750e-06;-0.001635379343323527
3.86775e-06;-0.001650878672310987
3.86800e-06;-0.0016663780012984473
3.86825e-06;-0.0016851887968498372
3.86850e-06;-0.00170462397264785
3.86875e-06;-0.0017240591484458628
3.86900e-06;-0.0017434943242439415
3.86925e-06;-0.0017637127588836054
3.86950e-06;-0.0017854424548047483
3.86975e-06;-0.0018071721507259648
3.87000e-06;-0.0018292248369339856
3.87025e-06;-0.0018519007177858304
3.87050e-06;-0.0018745765986377522
3.87075e-06;-0.001897347205468414
3.87100e-06;-0.001920300581642387
3.87125e-06;-0.0019431107958787967
3.87150e-06;-0.0019656447858558885
3.87175e-06;-0.001987867435874493
3.87200e-06;-0.002009489370012805
3.87225e-06;-0.0020306910577969645
3.87250e-06;-0.002051081899906952
3.87275e-06;-0.002070876767116428
3.87300e-06;-0.002089521728644908
3.87325e-06;-0.0021073676458763704
3.87350e-06;-0.0021236718445288762
3.87375e-06;-0.0021393142992297736
3.87400e-06;-0.0021534011368538756
3.87425e-06;-0.0021667662352291396
3.87450e-06;-0.0021797767339863036
3.87475e-06;-0.0021927872327435114
3.87500e-06;-0.002205422298177811
3.87525e-06;-0.00221733298258456
3.87550e-06;-0.00222924366699135
3.87575e-06;-0.0022400038235991047
3.87600e-06;-0.0022505470470695612
3.87625e-06;-0.0022609626087526265
3.87650e-06;-0.00227113185299093
3.87675e-06;-0.002281301097229268
3.87700e-06;-0.0022914703414675715
3.87725e-06;-0.00230111990548221
3.87750e-06;-0.0023106714832844626
3.87775e-06;-0.0023202230610866823
3.87800e-06;-0.0023295817438640913
3.87825e-06;-0.0023385682447179664
3.87850e-06;-0.002347554745571811
3.87875e-06;-0.0023565412464256557
3.87900e-06;-0.002365527747279531
3.87925e-06;-0.0023745142481333757
3.87950e-06;-0.002382951710023723
3.87975e-06;-0.0023912856500826955
3.88000e-06;-0.0023996195901416395
3.88025e-06;-0.0024079535302005835
3.88050e-06;-0.0024162874702595557
3.88075e-06;-0.0024243392432061737
3.88100e-06;-0.0024318465879140457
3.88125e-06;-0.0024393539326218925
3.88150e-06;-0.0024468612773297393
3.88175e-06;-0.0024543686220376113
3.88200e-06;-0.0024614289279476366
3.88225e-06;-0.0024676266934171875
3.88250e-06;-0.0024738244588867597
3.88275e-06;-0.0024800222243563106
3.88300e-06;-0.002486219989825862
3.88325e-06;-0.0024920129120133325
3.88350e-06;-0.002497024708033304
3.88375e-06;-0.002501632749636432
3.88400e-06;-0.0025054617659866544
3.88425e-06;-0.0025085933124776036
3.88450e-06;-0.002510379123514429
3.88475e-06;-0.0025112249338646257
3.88500e-06;-0.0025102570568789565
3.88525e-06;-0.0025092891798932843
3.88550e-06;-0.002507227854348109
3.88575e-06;-0.0025030567709772643
3.88600e-06;-0.0024988856876064056
3.88625e-06;-0.0024934731653760062
3.88650e-06;-0.002485665344961503
3.88675e-06;-0.002477857524546973
3.88700e-06;-0.0024690759512721143
3.88725e-06;-0.0024584155674217782
3.88750e-06;-0.002447082153571006
3.88775e-06;-0.002434450159830209
3.88800e-06;-0.002421333104434659
3.88825e-06;-0.002406952293509927
3.88850e-06;-0.002391632515568468
3.88875e-06;-0.0023754486362456257
3.88900e-06;-0.002358498756721535
3.88925e-06;-0.002340881131527934
3.88950e-06;-0.002322693935717109
3.88975e-06;-0.002304029230048969
3.89000e-06;-0.002284955493085336
3.89025e-06;-0.002265519404076116
3.89050e-06;-0.002245785656999564
3.89075e-06;-0.0022258557126097357
3.89100e-06;-0.0022058455944393143
3.89125e-06;-0.0021858712577559804
3.89150e-06;-0.0021660489589230606
3.89175e-06;-0.002146490832598665
3.89200e-06;-0.0021272941815262737
3.89225e-06;-0.002108542847165552
3.89250e-06;-0.002090331969219998
3.89275e-06;-0.00207292793370385
3.89300e-06;-0.002056298936303447
3.89325e-06;-0.002040158497643279
3.89350e-06;-0.0020253443563846866
3.89375e-06;-0.0020115990095463314
