Time(s);Current(A)
1.05000e-05;-0.008378901347180967
1.05002e-05;-0.008426844591558414
1.05005e-05;-0.008474787835936186
1.05008e-05;-0.008521107927973491
1.05010e-05;-0.008566396592572445
1.05013e-05;-0.008611685257171705
1.05015e-05;-0.008651282893816958
1.05017e-05;-0.008687264183285992
1.05020e-05;-0.008723245472755272
1.05023e-05;-0.00875922676222455
1.05025e-05;-0.008795208051693584
1.05028e-05;-0.008831189341162863
1.05030e-05;-0.008865764102940038
1.05033e-05;-0.00888912554168209
1.05035e-05;-0.00891248698042398
1.05038e-05;-0.008935848419166031
1.05040e-05;-0.008959209857908082
1.05043e-05;-0.008982571296649975
1.05045e-05;-0.009005932735392026
1.05048e-05;-0.009021055278485051
1.05050e-05;-0.009030942439278416
1.05053e-05;-0.009040829600071848
1.05055e-05;-0.009050716760865279
1.05058e-05;-0.009060603921658644
1.05060e-05;-0.009070491082452076
1.05063e-05;-0.009080378243245507
1.05065e-05;-0.009090265404038872
1.05068e-05;-0.009100152564832304
1.05070e-05;-0.009110039725625737
1.05073e-05;-0.009119926886419102
1.05075e-05;-0.009129814047212532
1.05078e-05;-0.009139701208005965
1.05080e-05;-0.00914958836879933
1.05083e-05;-0.009159475529592762
1.05085e-05;-0.009168350714704267
1.05087e-05;-0.009169158081248463
1.05090e-05;-0.009169965447792664
1.05093e-05;-0.009170772814336866
1.05095e-05;-0.00917158018088106
1.05098e-05;-0.009172387547425262
1.05100e-05;-0.009173194913969463
1.05102e-05;-0.00917400228051366
1.05105e-05;-0.009174809647057861
1.05108e-05;-0.009175617013602063
1.05110e-05;-0.009176424380146257
1.05113e-05;-0.009177231746690459
1.05115e-05;-0.00917803911323466
1.05118e-05;-0.009178846479778862
1.05120e-05;-0.009179653846323058
1.05123e-05;-0.009180461212867258
1.05125e-05;-0.009181383613779143
1.05128e-05;-0.009182379112945713
1.05130e-05;-0.009183374612112289
1.05133e-05;-0.009184370111278865
1.05135e-05;-0.009185365610445436
1.05138e-05;-0.009186361109612013
1.05140e-05;-0.009187356608778589
1.05143e-05;-0.009188352107945158
1.05145e-05;-0.009189347607111735
1.05148e-05;-0.009190343106278311
1.05150e-05;-0.009191338605444882
1.05153e-05;-0.009195338940769371
1.05155e-05;-0.009201248690499446
1.05158e-05;-0.00920715844022948
1.05160e-05;-0.009213068189959553
1.05163e-05;-0.009218977939689628
1.05165e-05;-0.009224887689419661
1.05168e-05;-0.009230797439149736
1.05170e-05;-0.00923670718887981
1.05172e-05;-0.009242616938609845
1.05175e-05;-0.009248526688339918
1.05178e-05;-0.009254436438069993
1.05180e-05;-0.009262231660727123
1.05183e-05;-0.009271225001677387
1.05185e-05;-0.009280218342627648
1.05187e-05;-0.009289211683577851
1.05190e-05;-0.009298205024528114
1.05193e-05;-0.009307198365478378
1.05195e-05;-0.00931619170642858
1.05198e-05;-0.009325185047378844
1.05200e-05;-0.009334178388329107
1.05203e-05;-0.00934302616995775
1.05205e-05;-0.009350713502556484
1.05208e-05;-0.00935840083515527
1.05210e-05;-0.009366088167754057
1.05213e-05;-0.009373775500352791
1.05215e-05;-0.00938146283295158
1.05218e-05;-0.009389150165550366
1.05220e-05;-0.0093968374981491
1.05223e-05;-0.009404524830747886
1.05225e-05;-0.009412212163346673
1.05228e-05;-0.009415420066499433
1.05230e-05;-0.009415781529225746
1.05233e-05;-0.00941614299195206
1.05235e-05;-0.00941650445467837
1.05238e-05;-0.009416865917404683
1.05240e-05;-0.009417227380130996
1.05243e-05;-0.009417588842857308
1.05245e-05;-0.00941795030558362
1.05248e-05;-0.009417106097326917
1.05250e-05;-0.009406649864863368
1.05253e-05;-0.009396193632399748
1.05255e-05;-0.009385737399936128
1.05257e-05;-0.009375281167472577
1.05260e-05;-0.009364824935008956
1.05263e-05;-0.009354368702545336
1.05265e-05;-0.009343912470081785
1.05268e-05;-0.009333456237618165
1.05270e-05;-0.009317725046175443
1.05272e-05;-0.009298641897375734
1.05275e-05;-0.009279558748575898
1.05278e-05;-0.009260475599776061
1.05280e-05;-0.009241392450976355
1.05283e-05;-0.009222309302176518
1.05285e-05;-0.009203226153376681
1.05288e-05;-0.009184143004576845
1.05290e-05;-0.009163103545297676
1.05293e-05;-0.00914082095420807
1.05295e-05;-0.009118538363118463
1.05298e-05;-0.009096255772029008
1.05300e-05;-0.009073973180939401
1.05303e-05;-0.009051690589849795
1.05305e-05;-0.00902940799876034
1.05308e-05;-0.009007125407670733
1.05310e-05;-0.008985720212897733
1.05313e-05;-0.008964872557065108
1.05315e-05;-0.00894402490123234
1.05318e-05;-0.008924670940378274
1.05320e-05;-0.008906266143658848
1.05323e-05;-0.008887861346939297
1.05325e-05;-0.008871825126397665
1.05328e-05;-0.008857294010706895
1.05330e-05;-0.008842762895016029
1.05333e-05;-0.008832012997265814
1.05335e-05;-0.00882366586347043
1.05338e-05;-0.008815318729674991
1.05340e-05;-0.008813892303974277
1.05342e-05;-0.008816863622125528
1.05345e-05;-0.008819834940276801
1.05348e-05;-0.008822806258428073
1.05350e-05;-0.008825777576579326
1.05353e-05;-0.008828748894730598
1.05355e-05;-0.008831720212881871
1.05357e-05;-0.008844136684788633
1.05360e-05;-0.008862555052208593
1.05363e-05;-0.008880973419628551
1.05365e-05;-0.008899391787048386
1.05368e-05;-0.008917810154468346
1.05370e-05;-0.008936228521888306
1.05373e-05;-0.008954646889308266
1.05375e-05;-0.008980128899416474
1.05378e-05;-0.009010099480749316
1.05380e-05;-0.00904007006208216
1.05383e-05;-0.009070040643414799
1.05385e-05;-0.00910001122474764
1.05388e-05;-0.009129981806080484
1.05390e-05;-0.009159952387413123
1.05393e-05;-0.009190303358382439
1.05395e-05;-0.00922368692651039
1.05398e-05;-0.009257070494638113
1.05400e-05;-0.009290454062766063
1.05403e-05;-0.009323837630894012
1.05405e-05;-0.009357221199021735
1.05408e-05;-0.009390604767149686
1.05410e-05;-0.009423988335277637
1.05413e-05;-0.009455219912050441
1.05415e-05;-0.00948508401216892
1.05418e-05;-0.009514948112287399
1.05420e-05;-0.009541807548812427
1.05423e-05;-0.009566757680586376
1.05425e-05;-0.009591707812360325
1.05427e-05;-0.009608744116233208
1.05430e-05;-0.009620751601157466
1.05433e-05;-0.009632759086081726
1.05435e-05;-0.009644766571005905
1.05438e-05;-0.009656774055930165
1.05440e-05;-0.009668781540854425
1.05442e-05;-0.009680789025778604
1.05445e-05;-0.009689173313738038
1.05448e-05;-0.00968351971466176
1.05450e-05;-0.00967786611558552
1.05453e-05;-0.009672212516509243
1.05455e-05;-0.009666558917432963
1.05458e-05;-0.009660905318356686
1.05460e-05;-0.009655251719280446
1.05463e-05;-0.009649598120204168
1.05465e-05;-0.009629641105979242
1.05468e-05;-0.00961009083360536
1.05470e-05;-0.00958309961336336
1.05473e-05;-0.009556534876577953
1.05475e-05;-0.009529970139792728
1.05478e-05;-0.009503405403007321
1.05480e-05;-0.009474058393662636
1.05483e-05;-0.009442280389200119
1.05485e-05;-0.009410502384737385
1.05488e-05;-0.009378724380274654
1.05490e-05;-0.009342432576918547
1.05493e-05;-0.009305560701282268
1.05495e-05;-0.009268688825645988
1.05498e-05;-0.009231816950009958
1.05500e-05;-0.009194945074373679
1.05503e-05;-0.009158073198737399
1.05505e-05;-0.00912120132310137
1.05508e-05;-0.00908432944746509
1.05510e-05;-0.009052749698397306
1.05512e-05;-0.009021850045186278
1.05515e-05;-0.008990950391975042
1.05518e-05;-0.008960050738763806
1.05520e-05;-0.00892915108555278
1.05523e-05;-0.008898251432341544
1.05525e-05;-0.008867351779130308
1.05527e-05;-0.008836452125919282
1.05530e-05;-0.00881802411103601
1.05533e-05;-0.008801198837402994
1.05535e-05;-0.008784373563770093
1.05538e-05;-0.00876754829013708
1.05540e-05;-0.008750723016504064
1.05543e-05;-0.008733897742871049
1.05545e-05;-0.00871707246923815
1.05548e-05;-0.008700247195605134
1.05550e-05;-0.008683421921972119
1.05553e-05;-0.00866659664833922
1.05555e-05;-0.008661097171333638
1.05558e-05;-0.00865705318245014
1.05560e-05;-0.00865300919356667
1.05563e-05;-0.008648965204683171
1.05565e-05;-0.008644921215799673
1.05568e-05;-0.008640877226916203
1.05570e-05;-0.008636833238032705
1.05573e-05;-0.008632789249149207
1.05575e-05;-0.008628745260265736
1.05578e-05;-0.008624701271382238
1.05580e-05;-0.008627123963175009
1.05583e-05;-0.008630377693809838
1.05585e-05;-0.008633631424444689
1.05588e-05;-0.00863688515507954
1.05590e-05;-0.008640138885714368
1.05593e-05;-0.00864339261634922
1.05595e-05;-0.008646646346984069
1.05597e-05;-0.0086499000776189
1.05600e-05;-0.008653153808253749
1.05603e-05;-0.008657753549053335
1.05605e-05;-0.008662526266807353
1.05608e-05;-0.008667298984561402
1.05610e-05;-0.00867207170231545
1.05612e-05;-0.008676844420069468
1.05615e-05;-0.008681617137823519
1.05618e-05;-0.008686389855577568
1.05620e-05;-0.008691162573331586
1.05623e-05;-0.008695935291085635
1.05625e-05;-0.008696428285206219
1.05628e-05;-0.008696371288264651
1.05630e-05;-0.008696314291323086
1.05633e-05;-0.00869625729438152
1.05635e-05;-0.008696200297439952
1.05638e-05;-0.008696143300498387
1.05640e-05;-0.008696086303556819
1.05643e-05;-0.0086919177688752
1.05645e-05;-0.008681212526320906
1.05648e-05;-0.00867050728376654
1.05650e-05;-0.008659802041212174
1.05653e-05;-0.008649096798657881
1.05655e-05;-0.008638391556103514
1.05658e-05;-0.00862768631354915
1.05660e-05;-0.008616981070994855
1.05663e-05;-0.008597174510987168
1.05665e-05;-0.008576198332639104
1.05668e-05;-0.008555222154291182
1.05670e-05;-0.008534245975943117
1.05673e-05;-0.008513269797595053
1.05675e-05;-0.00849229361924713
1.05678e-05;-0.008471317440899066
1.05680e-05;-0.008444660479526985
1.05682e-05;-0.0084172734757137
1.05685e-05;-0.00838988647190023
1.05688e-05;-0.008362499468086758
1.05690e-05;-0.008335112464273473
1.05693e-05;-0.008307725460460002
1.05695e-05;-0.00828033845664653
1.05697e-05;-0.008251579505711756
1.05700e-05;-0.008222644244641027
1.05703e-05;-0.008193708983570299
1.05705e-05;-0.008165604491086977
1.05708e-05;-0.008137606761408027
1.05710e-05;-0.008109609031729078
1.05713e-05;-0.008083488233861564
1.05715e-05;-0.008057608642158324
1.05718e-05;-0.008031729050454909
1.05720e-05;-0.008010776301598117
1.05723e-05;-0.007990456705665295
1.05725e-05;-0.007970137109732335
1.05728e-05;-0.007949817513799374
1.05730e-05;-0.00792949791786655
1.05733e-05;-0.00790917832193359
1.05735e-05;-0.00788885872600063
1.05738e-05;-0.007869299623823942
1.05740e-05;-0.007850949588871777
1.05743e-05;-0.007832599553919614
1.05745e-05;-0.007814249518967574
1.05748e-05;-0.007795899484015411
1.05750e-05;-0.0077775494490632474
1.05753e-05;-0.007759199414111208
1.05755e-05;-0.007740849379159044
1.05758e-05;-0.007720878036824529
1.05760e-05;-0.0077006983388470205
1.05763e-05;-0.007680518640869376
1.05765e-05;-0.007660338942891731
1.05767e-05;-0.007640159244914222
1.05770e-05;-0.0076199795469365774
1.05773e-05;-0.007599799848958933
1.05775e-05;-0.007578390385541606
1.05778e-05;-0.007556822883881702
1.05780e-05;-0.007535255382221798
1.05782e-05;-0.00751368788056204
1.05785e-05;-0.007492120378902135
1.05788e-05;-0.007470552877242231
1.05790e-05;-0.007448985375582473
1.05793e-05;-0.0074273064039558035
1.05795e-05;-0.007405613107225285
1.05798e-05;-0.007383919810494767
1.05800e-05;-0.007362792509250497
1.05803e-05;-0.007341737944585735
1.05805e-05;-0.007320683379920975
1.05808e-05;-0.0073009808773774575
1.05810e-05;-0.007281452129530775
1.05813e-05;-0.007261923381684092
1.05815e-05;-0.007243699655750554
1.05818e-05;-0.007225643639335196
1.05820e-05;-0.00720905989890602
1.05823e-05;-0.007192665361963888
1.05825e-05;-0.0071781930777350894
1.05828e-05;-0.007163967823899769
1.05830e-05;-0.007152303372970964
1.05833e-05;-0.007140968013084675
1.05835e-05;-0.007132651479183459
1.05838e-05;-0.007124722897275167
1.05840e-05;-0.00712062073369609
1.05843e-05;-0.0071170103065151475
1.05845e-05;-0.00711339987933423
1.05848e-05;-0.007116901945369138
1.05850e-05;-0.007121318044187326
1.05853e-05;-0.007125734143005484
1.05855e-05;-0.007130150241823672
1.05858e-05;-0.00713456634064186
1.05860e-05;-0.007138982439460018
1.05863e-05;-0.007152017280963753
1.05865e-05;-0.007166159724700164
1.05867e-05;-0.007180302168436478
1.05870e-05;-0.007194444612172888
1.05873e-05;-0.007208587055909298
1.05875e-05;-0.007222729499645613
1.05878e-05;-0.007243216065587591
1.05880e-05;-0.0072645179202759785
1.05883e-05;-0.007285819774964366
1.05885e-05;-0.007307121629652609
1.05888e-05;-0.007328423484340997
1.05890e-05;-0.007349725339029385
1.05893e-05;-0.00737204930325631
1.05895e-05;-0.007395998263262547
1.05898e-05;-0.007419947223268784
1.05900e-05;-0.007443896183274859
1.05903e-05;-0.007467845143281096
1.05905e-05;-0.007491794103287333
1.05908e-05;-0.007515743063293408
1.05910e-05;-0.007538307225595239
1.05913e-05;-0.007560693426321271
1.05915e-05;-0.0075830796270471516
1.05918e-05;-0.007598066221484221
1.05920e-05;-0.007612101885983027
1.05923e-05;-0.007626137550481738
1.05925e-05;-0.007640173214980544
1.05928e-05;-0.00765420887947935
1.05930e-05;-0.007668244543978061
1.05933e-05;-0.0076822802084768665
1.05935e-05;-0.007696315872975673
1.05938e-05;-0.007710351537474383
1.05940e-05;-0.00772438720197319
1.05943e-05;-0.007738422866471996
1.05945e-05;-0.007752458530970707
1.05948e-05;-0.007762478106626677
1.05950e-05;-0.007766112723359276
1.05952e-05;-0.007769747340091851
1.05955e-05;-0.00777338195682445
1.05958e-05;-0.007777016573557049
1.05960e-05;-0.007780651190289624
1.05963e-05;-0.0077842858070222235
1.05965e-05;-0.007787920423754822
1.05968e-05;-0.007791555040487422
1.05970e-05;-0.007795189657219996
1.05973e-05;-0.007798824273952596
1.05975e-05;-0.007802458890685196
1.05978e-05;-0.00780609350741777
1.05980e-05;-0.00780535271908436
1.05983e-05;-0.007804049643582044
1.05985e-05;-0.007802746568079735
1.05988e-05;-0.007801443492577418
1.05990e-05;-0.007800140417075101
1.05993e-05;-0.007798837341572793
1.05995e-05;-0.007797534266070476
1.05998e-05;-0.007796231190568158
1.06000e-05;-0.0077949281150658505
1.06003e-05;-0.007792392320192736
1.06005e-05;-0.007789698107464657
1.06008e-05;-0.007787003894736597
1.06010e-05;-0.007784309682008519
1.06013e-05;-0.00778161546928044
1.06015e-05;-0.0077789212565523794
1.06018e-05;-0.007776227043824301
1.06020e-05;-0.007773532831096223
1.06023e-05;-0.007770838618368163
1.06025e-05;-0.007770066102444359
1.06028e-05;-0.007769540545473971
1.06030e-05;-0.007769014988503586
1.06033e-05;-0.007768489431533197
1.06035e-05;-0.007767963874562809
1.06037e-05;-0.0077674383175924235
1.06040e-05;-0.007766912760622035
1.06043e-05;-0.007766387203651646
1.06045e-05;-0.007771635213271894
1.06048e-05;-0.0077776251890335265
1.06050e-05;-0.007783615164795158
1.06053e-05;-0.007789605140556791
1.06055e-05;-0.007795595116318383
1.06058e-05;-0.007801585092080015
1.06060e-05;-0.007807575067841647
1.06063e-05;-0.007813565043603239
1.06065e-05;-0.007825323212619023
1.06068e-05;-0.007837822657243981
1.06070e-05;-0.007850322101868853
1.06073e-05;-0.00786282154649381
1.06075e-05;-0.007875320991118767
1.06078e-05;-0.00788782043574364
1.06080e-05;-0.007900319880368595
1.06083e-05;-0.007912819324993553
1.06085e-05;-0.007926556066449644
1.06088e-05;-0.00794225991813545
1.06090e-05;-0.007957963769821254
1.06093e-05;-0.007973667621506952
1.06095e-05;-0.007989371473192756
1.06098e-05;-0.00800507532487856
1.06100e-05;-0.008020779176564258
1.06103e-05;-0.008036483028250063
1.06105e-05;-0.008052186879935868
1.06108e-05;-0.008066984892073047
1.06110e-05;-0.008081666493969929
1.06113e-05;-0.00809634809586681
1.06115e-05;-0.008111029697763594
1.06118e-05;-0.00812338074619406
1.06120e-05;-0.008135432293140227
1.06122e-05;-0.008147483840086314
1.06125e-05;-0.008159535387032481
1.06128e-05;-0.008170908564662297
1.06130e-05;-0.008182194564452055
1.06133e-05;-0.008193480564241889
1.06135e-05;-0.008204766564031723
1.06138e-05;-0.008216052563821557
1.06140e-05;-0.008227338563611315
1.06143e-05;-0.008238624563401149
1.06145e-05;-0.008249910563190983
1.06148e-05;-0.008266196338779843
1.06150e-05;-0.008283124639972663
1.06153e-05;-0.008300052941165483
1.06155e-05;-0.008316981242358188
1.06158e-05;-0.008333909543551008
1.06160e-05;-0.008350837844743829
1.06163e-05;-0.008367766145936534
1.06165e-05;-0.008384694447129354
1.06168e-05;-0.008407127150501851
1.06170e-05;-0.008430267229460038
1.06173e-05;-0.00845340730841838
1.06175e-05;-0.008476547387376724
1.06178e-05;-0.008499687466334909
1.06180e-05;-0.008522827545293252
1.06183e-05;-0.008545967624251596
1.06185e-05;-0.008569107703209781
1.06188e-05;-0.008593064636685382
1.06190e-05;-0.008618320242263805
1.06193e-05;-0.008643575847842058
1.06195e-05;-0.00866883145342048
1.06198e-05;-0.008694087058998903
1.06200e-05;-0.008719342664577153
1.06203e-05;-0.008744598270155576
1.06205e-05;-0.008769853875733999
1.06207e-05;-0.00879510948131225
1.06210e-05;-0.008817714536219613
1.06213e-05;-0.008839978966519014
1.06215e-05;-0.008862243396818265
1.06218e-05;-0.008884507827117666
1.06220e-05;-0.008902580314665126
1.06222e-05;-0.008920114091946648
1.06225e-05;-0.00893764786922829
1.06228e-05;-0.008955181646509932
1.06230e-05;-0.008965956694949699
1.06233e-05;-0.008975863173175851
1.06235e-05;-0.00897595227745249
1.06238e-05;-0.008974779742331044
1.06240e-05;-0.008973607207209605
1.06243e-05;-0.008961152999731941
1.06245e-05;-0.008947248974574617
1.06248e-05;-0.008933344949417388
1.06250e-05;-0.008907151326042223
1.06253e-05;-0.008879378355544615
1.06255e-05;-0.008851605385047194
1.06258e-05;-0.008808354168777812
1.06260e-05;-0.008763113829472147
1.06263e-05;-0.008717873490166787
1.06265e-05;-0.008672633150861121
1.06268e-05;-0.008620640378822538
1.06270e-05;-0.008557912285092884
1.06273e-05;-0.008495184191362807
1.06275e-05;-0.008432456097632728
1.06278e-05;-0.008369728003903074
1.06280e-05;-0.008297858246346896
1.06283e-05;-0.00822481368549723
1.06285e-05;-0.008148097512618788
1.06288e-05;-0.008070909497634657
1.06290e-05;-0.007991615401756236
1.06292e-05;-0.007910846587289206
1.06295e-05;-0.007829038351440009
1.06298e-05;-0.007746654687029975
1.06300e-05;-0.007664176610579791
1.06303e-05;-0.007582084790592604
1.06305e-05;-0.007500860202150878
1.06307e-05;-0.0074209492121590035
1.06310e-05;-0.007342703366462055
1.06313e-05;-0.007266451044065005
1.06315e-05;-0.007192626423876595
1.06318e-05;-0.0071217455565673595
1.06320e-05;-0.007054332417140307
1.06323e-05;-0.006990912525077772
1.06325e-05;-0.006932010374073311
1.06328e-05;-0.006877825556246627
1.06330e-05;-0.006828728643294324
1.06333e-05;-0.006780216283213576
1.06335e-05;-0.006735920417571629
1.06338e-05;-0.006692166417354906
1.06340e-05;-0.006653364224303561
1.06343e-05;-0.006615198392365175
1.06345e-05;-0.006584269256294462
1.06348e-05;-0.0065542701144028674
1.06350e-05;-0.0065242709725110695
1.06353e-05;-0.006502704456880168
1.06355e-05;-0.006482221625499722
1.06358e-05;-0.006461738794119138
1.06360e-05;-0.006441255962738555
1.06363e-05;-0.006420773131358109
1.06365e-05;-0.00640440350061512
1.06368e-05;-0.006394573221508677
1.06370e-05;-0.0063847429424023
1.06373e-05;-0.006374912663295856
1.06375e-05;-0.006365082384189412
1.06377e-05;-0.006355252105083036
1.06380e-05;-0.006352176165898731
1.06383e-05;-0.006349968232904956
1.06385e-05;-0.006347760299911197
1.06388e-05;-0.006345552366917422
1.06390e-05;-0.006343344433923647
1.06392e-05;-0.006341136500929888
1.06395e-05;-0.006343029249932997
1.06398e-05;-0.006345448981202283
1.06400e-05;-0.006347868712471568
1.06403e-05;-0.006350288443740837
1.06405e-05;-0.006352708175010123
1.06408e-05;-0.006355127906279409
1.06410e-05;-0.006358758579044992
1.06413e-05;-0.006362544870972091
1.06415e-05;-0.00636633116289919
1.06418e-05;-0.006369605101682948
1.06420e-05;-0.00637281319751164
1.06423e-05;-0.006376021293340332
1.06425e-05;-0.006378615253119368
1.06428e-05;-0.006381130289732117
1.06430e-05;-0.006384007824790289
1.06433e-05;-0.006386931944843918
1.06435e-05;-0.006391544079381123
1.06438e-05;-0.006396373142150933
1.06440e-05;-0.0064012022049207105
1.06443e-05;-0.006407676712161218
1.06445e-05;-0.006414362676924383
1.06448e-05;-0.006421048641687501
1.06450e-05;-0.006431159971560363
1.06453e-05;-0.006441711498129767
1.06455e-05;-0.006452263024699098
1.06458e-05;-0.006462814551268501
1.06460e-05;-0.006473366077837905
1.06462e-05;-0.0064839176044072366
1.06465e-05;-0.0064963691759000585
1.06468e-05;-0.006511841524392937
1.06470e-05;-0.0065273138728857115
