Time(s);Current(A)
1.30000e-05;-0.007409825128108738
1.30003e-05;-0.007432329127835851
1.30005e-05;-0.007454833127562811
1.30008e-05;-0.007477337127289924
1.30010e-05;-0.007499841127017037
1.30013e-05;-0.007522345126743998
1.30015e-05;-0.007544849126471111
1.30018e-05;-0.0075673531261982235
1.30020e-05;-0.007589857125925184
1.30023e-05;-0.0076123611256522965
1.30025e-05;-0.007634865125379409
1.30028e-05;-0.00765736912510637
1.30030e-05;-0.007681906290929055
1.30033e-05;-0.007706974338488978
1.30035e-05;-0.007732042386048732
1.30038e-05;-0.007757110433608655
1.30040e-05;-0.007782178481168579
1.30043e-05;-0.007807246528728332
1.30045e-05;-0.007832314576288257
1.30048e-05;-0.00785738262384818
1.30050e-05;-0.007882450671407934
1.30053e-05;-0.007919436901507008
1.30055e-05;-0.007959535098437364
1.30058e-05;-0.007999633295367719
1.30060e-05;-0.008039731492297803
1.30063e-05;-0.008079829689228159
1.30065e-05;-0.008119927886158514
1.30068e-05;-0.008160026083088598
1.30070e-05;-0.008200124280018954
1.30073e-05;-0.008240222476949308
1.30075e-05;-0.00829000437442469
1.30078e-05;-0.00834231479122833
1.30080e-05;-0.00839462520803197
1.30083e-05;-0.008446935624835256
1.30085e-05;-0.008499246041638896
1.30088e-05;-0.008551556458442537
1.30090e-05;-0.008603866875245824
1.30093e-05;-0.008656177292049464
1.30095e-05;-0.008708791259120876
1.30098e-05;-0.008762137854463937
1.30100e-05;-0.008815484449807358
1.30103e-05;-0.00886883104515078
1.30105e-05;-0.00892217764049384
1.30108e-05;-0.008975524235837262
1.30110e-05;-0.009028870831180683
1.30113e-05;-0.009082217426523743
1.30115e-05;-0.009135564021867165
1.30118e-05;-0.009183616499806936
1.30120e-05;-0.009230286626224892
1.30123e-05;-0.009276956752643166
1.30125e-05;-0.00931801851081638
1.30128e-05;-0.009357615863161896
1.30130e-05;-0.009397213215507681
1.30133e-05;-0.009422179005162323
1.30135e-05;-0.009443324334972894
1.30138e-05;-0.00946446966478361
1.30140e-05;-0.009485614994594323
1.30143e-05;-0.009506760324405039
1.30145e-05;-0.00952790565421561
1.30148e-05;-0.009549050984026326
1.30150e-05;-0.00957019631383704
1.30153e-05;-0.00956914141163301
1.30155e-05;-0.009562289787866874
1.30158e-05;-0.00955543816410074
1.30160e-05;-0.00954858654033465
1.30163e-05;-0.009541734916568513
1.30165e-05;-0.009534883292802377
1.30168e-05;-0.00952803166903629
1.30170e-05;-0.009521180045270153
1.30173e-05;-0.009496726155193957
1.30175e-05;-0.009467676122312025
1.30178e-05;-0.009438626089429896
1.30180e-05;-0.009409576056547766
1.30183e-05;-0.009380526023665833
1.30185e-05;-0.009351475990783705
1.30188e-05;-0.009322425957901575
1.30190e-05;-0.009293375925019642
1.30193e-05;-0.009262062280846466
1.30195e-05;-0.009225285338481156
1.30198e-05;-0.009188508396116096
1.30200e-05;-0.009151731453750787
1.30203e-05;-0.009114954511385477
1.30205e-05;-0.009078177569020416
1.30208e-05;-0.009041400626655106
1.30210e-05;-0.009004623684289796
1.30213e-05;-0.008967846741924735
1.30215e-05;-0.008941118359492142
1.30218e-05;-0.008917013765135623
1.30220e-05;-0.008892909170779265
1.30223e-05;-0.008868804576422746
1.30225e-05;-0.008844699982066224
1.30228e-05;-0.008820595387709705
1.30230e-05;-0.008796490793353349
1.30233e-05;-0.008772386198996828
1.30235e-05;-0.008748281604640308
1.30238e-05;-0.008744254687972092
1.30240e-05;-0.00874547027089254
1.30243e-05;-0.008746685853812986
1.30245e-05;-0.008747901436733426
1.30248e-05;-0.008749117019653873
1.30250e-05;-0.00875033260257432
1.30253e-05;-0.00875154818549476
1.30255e-05;-0.008752763768415207
1.30258e-05;-0.008753979351335654
1.30260e-05;-0.008773729816296186
1.30263e-05;-0.008798319940154902
1.30265e-05;-0.008822910064013619
1.30268e-05;-0.008847500187872169
1.30270e-05;-0.008872090311730885
1.30273e-05;-0.008896680435589603
1.30275e-05;-0.008921270559448153
1.30278e-05;-0.00894586068330687
1.30280e-05;-0.008970450807165586
1.30283e-05;-0.00900586856332399
1.30285e-05;-0.009044113531811147
1.30288e-05;-0.009082358500298303
1.30290e-05;-0.009120603468785201
1.30293e-05;-0.009158848437272358
1.30295e-05;-0.009197093405759514
1.30298e-05;-0.00923533837424641
1.30300e-05;-0.009273583342733569
1.30303e-05;-0.009311828311220726
1.30305e-05;-0.009350109209483405
1.30308e-05;-0.009388399489400824
1.30310e-05;-0.009426689769318243
1.30313e-05;-0.009464980049235662
1.30315e-05;-0.009503270329152822
1.30318e-05;-0.009541560609070241
1.30320e-05;-0.00957985088898766
1.30323e-05;-0.00961814116890482
1.30325e-05;-0.00964808019144312
1.30328e-05;-0.0096758386100255
1.30330e-05;-0.009703597028607692
1.30333e-05;-0.009731355447190072
1.30335e-05;-0.009759113865772452
1.30338e-05;-0.009786872284354643
1.30340e-05;-0.009814630702937022
1.30343e-05;-0.009842389121519402
1.30345e-05;-0.009858821414216202
1.30348e-05;-0.00987229633249724
1.30350e-05;-0.009885771250778278
1.30353e-05;-0.009899246169059225
1.30355e-05;-0.009912721087340265
1.30358e-05;-0.009926196005621304
1.30360e-05;-0.009939670923902251
1.30363e-05;-0.009953145842183288
1.30365e-05;-0.009966620760464328
1.30368e-05;-0.009980095678745275
1.30370e-05;-0.009993570597026314
1.30373e-05;-0.010007045515307351
1.30375e-05;-0.010011849531467344
1.30378e-05;-0.010014389480958964
1.30380e-05;-0.010016929430450584
1.30383e-05;-0.010019469379942187
1.30385e-05;-0.010022009329433807
1.30388e-05;-0.010024549278925427
1.30390e-05;-0.010027089228417031
1.30393e-05;-0.010029629177908651
1.30395e-05;-0.010032169127400271
1.30398e-05;-0.010034709076891891
1.30400e-05;-0.010037249026383494
1.30403e-05;-0.010039788975875114
1.30405e-05;-0.010040832306096677
1.30408e-05;-0.01004148485278062
1.30410e-05;-0.010042137399464569
1.30413e-05;-0.010042789946148517
1.30415e-05;-0.010043442492832462
1.30418e-05;-0.01004409503951641
1.30420e-05;-0.010044747586200359
1.30423e-05;-0.010047285587582647
1.30425e-05;-0.010054374194138916
1.30428e-05;-0.010061462800695186
1.30430e-05;-0.010068551407251408
1.30433e-05;-0.010075640013807678
1.30435e-05;-0.010082728620363947
1.30438e-05;-0.010089817226920168
1.30440e-05;-0.010096905833476437
1.30443e-05;-0.01011312456222791
1.30445e-05;-0.01013172726499444
1.30448e-05;-0.010150329967761097
1.30450e-05;-0.010168932670527753
1.30453e-05;-0.010197774853874426
1.30455e-05;-0.01022929067675333
1.30458e-05;-0.010260806499632237
1.30460e-05;-0.010292322322510929
1.30463e-05;-0.010323838145389836
1.30465e-05;-0.01035535396826874
1.30468e-05;-0.010386869791147432
1.30470e-05;-0.010429196319577071
1.30473e-05;-0.010474345640579691
1.30475e-05;-0.010519494961582006
1.30478e-05;-0.010564644282584626
1.30480e-05;-0.010609793603587245
1.30482e-05;-0.010654942924589558
1.30485e-05;-0.010700092245592178
1.30488e-05;-0.010750738479416521
1.30490e-05;-0.01080282001684949
1.30493e-05;-0.010854901554282105
1.30495e-05;-0.010906983091715073
1.30498e-05;-0.010959064629148042
1.30500e-05;-0.011011146166580658
1.30503e-05;-0.011063227704013627
1.30505e-05;-0.011115309241446596
1.30508e-05;-0.011163561319169079
1.30510e-05;-0.011210813483391379
1.30513e-05;-0.011258065647613679
1.30515e-05;-0.01130531781183566
1.30518e-05;-0.01135256997605796
1.30520e-05;-0.01139982214028026
1.30523e-05;-0.01144707430450224
1.30525e-05;-0.01149432646872454
1.30528e-05;-0.01152603738315688
1.30530e-05;-0.01155369030856244
1.30533e-05;-0.011581343233968186
1.30535e-05;-0.011608996159373932
1.30538e-05;-0.011636649084779493
1.30540e-05;-0.01166430201018524
1.30543e-05;-0.011691954935590986
1.30545e-05;-0.011719607860996545
1.30548e-05;-0.011747260786402293
1.30550e-05;-0.01177491371180804
1.30553e-05;-0.011802566637213598
1.30555e-05;-0.011830219562619346
1.30558e-05;-0.011857872488025093
1.30560e-05;-0.011885525413430652
1.30563e-05;-0.011913178338836398
1.30565e-05;-0.011940831264242146
1.30567e-05;-0.011968484189647705
1.30570e-05;-0.011996137115053452
1.30573e-05;-0.012023790040459198
1.30575e-05;-0.012047756704512315
1.30578e-05;-0.012062826458972132
1.30580e-05;-0.012077896213432051
1.30583e-05;-0.012092965967891969
1.30585e-05;-0.012108035722351786
1.30588e-05;-0.012123105476811705
1.30590e-05;-0.012138175231271624
1.30593e-05;-0.012153244985731441
1.30595e-05;-0.01216831474019136
1.30598e-05;-0.01218338449465128
1.30600e-05;-0.012198454249111097
1.30603e-05;-0.012213524003571015
1.30605e-05;-0.012228593758030934
1.30608e-05;-0.012243663512490751
1.30610e-05;-0.01225873326695067
1.30613e-05;-0.01227380302141059
1.30615e-05;-0.012288872775870407
1.30618e-05;-0.012303942530330327
1.30620e-05;-0.012319012284790244
1.30623e-05;-0.012334082039250061
1.30625e-05;-0.012345418319261359
1.30628e-05;-0.012355779748565254
1.30630e-05;-0.012366141177869076
1.30633e-05;-0.01237650260717297
1.30635e-05;-0.012386864036476862
1.30638e-05;-0.012397225465780686
1.30640e-05;-0.01240758689508458
1.30643e-05;-0.012417948324388473
1.30645e-05;-0.012422224287670829
1.30648e-05;-0.01242491126971392
1.30650e-05;-0.012427598251757009
1.30652e-05;-0.012430285233800081
1.30655e-05;-0.01243297221584317
1.30658e-05;-0.01243565919788626
1.30660e-05;-0.01243834617992935
1.30663e-05;-0.01244103316197242
1.30665e-05;-0.012437552107868774
1.30668e-05;-0.01243246051256967
1.30670e-05;-0.012427368917270601
1.30673e-05;-0.012422277321971499
1.30675e-05;-0.012417185726672395
1.30678e-05;-0.012412094131373326
1.30680e-05;-0.012407002536074222
1.30683e-05;-0.012401910940775118
1.30685e-05;-0.012395638044800508
1.30688e-05;-0.012386514041888036
1.30690e-05;-0.012377390038975563
1.30693e-05;-0.012368266036063152
1.30695e-05;-0.01235914203315068
1.30698e-05;-0.012350018030238207
1.30700e-05;-0.012340894027325796
1.30703e-05;-0.012331770024413324
1.30705e-05;-0.012322646021500851
1.30708e-05;-0.01231460203618308
1.30710e-05;-0.01230684005518347
1.30713e-05;-0.01229907807418386
1.30715e-05;-0.012291316093184304
1.30718e-05;-0.012283554112184694
1.30720e-05;-0.012277114972126718
1.30723e-05;-0.012273868550963008
1.30725e-05;-0.012270622129799276
1.30728e-05;-0.012267375708635543
1.30730e-05;-0.012264129287471833
1.30733e-05;-0.0122608828663081
1.30735e-05;-0.01226215101079319
1.30737e-05;-0.01226459795737769
1.30740e-05;-0.012267044903962207
1.30743e-05;-0.012269491850546724
1.30745e-05;-0.01227193879713124
1.30748e-05;-0.012274385743715742
1.30750e-05;-0.01227683269030026
1.30753e-05;-0.012279279636884776
1.30755e-05;-0.012281726583469276
1.30758e-05;-0.012284173530053793
1.30760e-05;-0.01228662047663831
1.30763e-05;-0.01228906742322281
1.30765e-05;-0.012291514369807327
1.30768e-05;-0.012293961316391844
1.30770e-05;-0.012296408262976346
1.30773e-05;-0.012298855209560863
1.30775e-05;-0.01230130215614538
1.30778e-05;-0.01230374910272988
1.30780e-05;-0.012309420354364619
1.30783e-05;-0.012315933507050054
1.30785e-05;-0.012322446659735444
1.30788e-05;-0.01232895981242088
1.30790e-05;-0.012335472965106314
1.30793e-05;-0.012341986117791706
1.30795e-05;-0.012348499270477141
1.30798e-05;-0.012355012423162576
1.30800e-05;-0.012361525575847968
1.30803e-05;-0.012368038728533403
1.30805e-05;-0.012374551881218838
1.30808e-05;-0.012381065033904229
1.30810e-05;-0.012387578186589664
1.30813e-05;-0.012394091339275099
1.30815e-05;-0.01240060449196049
1.30818e-05;-0.012407117644645926
1.30820e-05;-0.01241363079733136
1.30822e-05;-0.012420143950016753
1.30825e-05;-0.012427813501971068
1.30828e-05;-0.01243578500232806
1.30830e-05;-0.012443756502685052
1.30833e-05;-0.012448957568088835
1.30835e-05;-0.012453435242851247
1.30838e-05;-0.012457912917613658
1.30840e-05;-0.01246239059237604
1.30843e-05;-0.012466868267138453
1.30845e-05;-0.012471345941900865
1.30848e-05;-0.012475823616663245
1.30850e-05;-0.012478313433584952
1.30853e-05;-0.012476005492068709
1.30855e-05;-0.01247369755055248
1.30858e-05;-0.012471389609036234
1.30860e-05;-0.01246908166751999
1.30863e-05;-0.012466773726003761
1.30865e-05;-0.012464465784487516
1.30868e-05;-0.012462157842971272
1.30870e-05;-0.012454882336610315
1.30873e-05;-0.012446309745141623
1.30875e-05;-0.012437737153672931
1.30878e-05;-0.012429164562204298
1.30880e-05;-0.012420591970735606
1.30883e-05;-0.012412019379266915
1.30885e-05;-0.01240344678779828
1.30888e-05;-0.012394874196329588
1.30890e-05;-0.012384319856692213
1.30893e-05;-0.012373248061094615
1.30895e-05;-0.012362176265496943
1.30898e-05;-0.01235110446989927
1.30900e-05;-0.012340032674301673
1.30903e-05;-0.012328960878704
1.30905e-05;-0.012317889083106328
1.30907e-05;-0.012306817287508732
1.30910e-05;-0.012296972560935789
1.30913e-05;-0.012287448235406055
1.30915e-05;-0.01227792390987632
1.30918e-05;-0.01227019806296536
1.30920e-05;-0.012262941818345672
1.30923e-05;-0.012255685573725984
1.30925e-05;-0.012250595208400977
1.30928e-05;-0.012246070377672207
1.30930e-05;-0.012241166822695578
1.30933e-05;-0.012236164378706494
1.30935e-05;-0.012231161934717377
1.30938e-05;-0.012220847980998442
1.30940e-05;-0.012209147134428125
1.30943e-05;-0.012197446287857728
1.30945e-05;-0.012185745441287333
1.30948e-05;-0.012174044594717015
1.30950e-05;-0.012162343748146618
1.30953e-05;-0.012143811252142138
1.30955e-05;-0.01211998661522143
1.30958e-05;-0.012096161978300561
1.30960e-05;-0.012072337341379693
1.30963e-05;-0.012048512704458983
1.30965e-05;-0.012024688067538114
1.30968e-05;-0.011997063232941306
1.30970e-05;-0.011961861805764936
1.30973e-05;-0.011926660378588328
1.30975e-05;-0.011891458951411719
1.30978e-05;-0.011856257524235348
1.30980e-05;-0.01182105609705874
1.30983e-05;-0.01178585466988213
1.30985e-05;-0.011746669199451923
1.30988e-05;-0.011705372697439074
1.30990e-05;-0.011664076195426224
1.30992e-05;-0.011622779693413656
1.30995e-05;-0.011581483191400807
1.30998e-05;-0.011540186689387957
1.31000e-05;-0.011498890187375108
1.31003e-05;-0.011458019507854727
1.31005e-05;-0.011417160523861197
1.31008e-05;-0.011376301539867666
1.31010e-05;-0.01133864012781763
1.31013e-05;-0.011301066539426485
1.31015e-05;-0.011263492951035339
1.31018e-05;-0.011231361247579615
1.31020e-05;-0.011199379009485604
1.31023e-05;-0.011167396771391593
1.31025e-05;-0.011143126111177942
1.31028e-05;-0.0111190672551079
1.31030e-05;-0.011095008399037858
1.31033e-05;-0.011081591598999475
1.31035e-05;-0.011068467090837105
1.31038e-05;-0.011055342582674736
1.31040e-05;-0.011053690115437498
1.31043e-05;-0.011052352736220347
1.31045e-05;-0.011051015357003197
1.31048e-05;-0.01106640303724225
1.31050e-05;-0.011082250083509172
1.31053e-05;-0.011098097129776094
1.31055e-05;-0.01111394417604291
1.31058e-05;-0.011129791222309832
1.31060e-05;-0.011155395536903145
1.31063e-05;-0.011191859355669798
1.31065e-05;-0.011228323174436698
1.31068e-05;-0.011264786993203596
1.31070e-05;-0.011301250811970249
1.31073e-05;-0.011337714630737147
1.31075e-05;-0.01138927650564458
1.31077e-05;-0.011441253059739974
1.31080e-05;-0.011493229613835719
1.31083e-05;-0.011545206167931464
1.31085e-05;-0.011597182722027208
1.31088e-05;-0.011657769787768483
1.31090e-05;-0.01171859334752953
1.31093e-05;-0.011779416907290577
1.31095e-05;-0.011840240467051212
1.31098e-05;-0.01190106402681226
1.31100e-05;-0.011964323336925398
1.31103e-05;-0.012027649546708524
1.31105e-05;-0.012090820757493043
1.31108e-05;-0.012153460170663485
1.31110e-05;-0.01221527474890386
1.31113e-05;-0.012275992048109637
1.31115e-05;-0.012335282110767322
1.31118e-05;-0.01239277712896417
1.31120e-05;-0.012445554894398423
1.31123e-05;-0.012498204422186585
1.31125e-05;-0.01255085394997439
1.31128e-05;-0.012596481388607625
1.31130e-05;-0.012641915960410241
1.31133e-05;-0.012685164230542022
1.31135e-05;-0.012728352452294665
1.31138e-05;-0.01277144096708887
1.31140e-05;-0.012814526743358014
1.31143e-05;-0.012856518462365298
1.31145e-05;-0.012898480132287173
1.31148e-05;-0.012938565045322876
1.31150e-05;-0.01297859841185401
1.31153e-05;-0.013018730578916688
1.31155e-05;-0.013058865459608182
1.31158e-05;-0.013100152862096804
1.31160e-05;-0.013141471919442194
1.31162e-05;-0.01318294809078242
1.31165e-05;-0.013224428577374076
1.31168e-05;-0.013265909063965733
1.31170e-05;-0.013307359940612157
1.31173e-05;-0.013348810003999428
1.31175e-05;-0.013390260067386982
1.31178e-05;-0.01343284573260267
1.31180e-05;-0.013475462587955499
1.31183e-05;-0.01351820770271424
1.31185e-05;-0.013560956340211665
1.31188e-05;-0.013603114893800242
1.31190e-05;-0.013645257240301592
1.31193e-05;-0.013687175246146464
1.31195e-05;-0.013729087090310312
1.31198e-05;-0.013770776859885205
1.31200e-05;-0.013812460530018557
1.31203e-05;-0.013853168884812764
1.31205e-05;-0.01389385045185583
1.31208e-05;-0.013932855129143414
1.31210e-05;-0.013971813749423178
1.31213e-05;-0.01400907191284847
1.31215e-05;-0.014046283371978519
1.31218e-05;-0.014081543294003719
1.31220e-05;-0.01411674961563062
1.31223e-05;-0.014149281071490844
1.31225e-05;-0.014181739060199835
1.31228e-05;-0.014210860491509157
1.31230e-05;-0.014239890281821209
1.31233e-05;-0.01426567778313026
1.31235e-05;-0.014291376232592912
1.31238e-05;-0.014313146076822224
1.31240e-05;-0.014334808019025917
1.31243e-05;-0.014356469961229756
1.31245e-05;-0.014372967082986894
1.31247e-05;-0.014389322349160464
1.31250e-05;-0.014405677615334143
1.31253e-05;-0.014415262312083262
1.31255e-05;-0.014424661050174915
1.31258e-05;-0.014434059788266505
1.31260e-05;-0.01444345852635816
1.31263e-05;-0.014452857264449812
1.31265e-05;-0.014458595323962287
1.31268e-05;-0.014460259174074683
1.31270e-05;-0.014461923024187081
1.31273e-05;-0.014463586874299467
1.31275e-05;-0.014465250724411863
1.31278e-05;-0.014466914574524259
1.31280e-05;-0.014464182364066764
1.31283e-05;-0.014461329412579852
1.31285e-05;-0.01445847646109294
1.31288e-05;-0.014453375268764642
1.31290e-05;-0.01444821232685183
1.31293e-05;-0.014443049384939021
1.31295e-05;-0.014436753560478898
1.31298e-05;-0.014430426620568248
1.31300e-05;-0.014423678192151516
1.31303e-05;-0.014416918187243716
1.31305e-05;-0.014410102890295286
1.31308e-05;-0.014403286074710388
1.31310e-05;-0.014396839534512058
1.31313e-05;-0.01439040316419889
1.31315e-05;-0.014384579538466597
1.31318e-05;-0.014379342884730724
1.31320e-05;-0.014374799897694725
1.31323e-05;-0.014371065936879465
1.31325e-05;-0.014368253767003588
1.31328e-05;-0.014366500551624695
1.31330e-05;-0.014366300352253536
1.31332e-05;-0.014368536807271858
1.31335e-05;-0.014373765889119584
1.31338e-05;-0.01438204028149031
1.31340e-05;-0.014393281264435936
1.31343e-05;-0.014408772866900114
1.31345e-05;-0.014424379039282946
1.31348e-05;-0.01444542694552862
1.31350e-05;-0.014466624312988011
1.31353e-05;-0.014495821653149717
1.31355e-05;-0.014525238718432379
1.31358e-05;-0.014554655783714843
1.31360e-05;-0.014602028954283343
1.31363e-05;-0.014649895302460537
1.31365e-05;-0.014697761650637407
1.31368e-05;-0.014745627998814601
1.31370e-05;-0.014793494346991795
1.31373e-05;-0.014841360695168667
1.31375e-05;-0.014889227043345861
1.31378e-05;-0.014937093391523056
1.31380e-05;-0.014984959739699925
1.31383e-05;-0.01503282608787712
1.31385e-05;-0.015094927930864881
1.31388e-05;-0.01515742076216416
1.31390e-05;-0.015219913593463861
1.31393e-05;-0.015282406424763565
1.31395e-05;-0.015344899256062843
1.31398e-05;-0.015407392087362545
1.31400e-05;-0.015470681667902724
1.31403e-05;-0.015533993131745085
1.31405e-05;-0.015597304595587875
1.31408e-05;-0.015660616059430664
1.31410e-05;-0.015723927523273024
1.31413e-05;-0.015787238987115815
1.31415e-05;-0.01584494374740126
1.31418e-05;-0.015902494515458377
1.31420e-05;-0.01596004528351588
1.31423e-05;-0.0160101234682533
1.31425e-05;-0.01605999641300567
1.31428e-05;-0.01610986935775771
1.31430e-05;-0.016149957726323928
1.31433e-05;-0.016189777354324187
1.31435e-05;-0.016229596982324176
1.31438e-05;-0.016259207222067022
1.31440e-05;-0.01628853705346853
1.31443e-05;-0.01631786688486984
1.31445e-05;-0.016330061296869886
1.31448e-05;-0.016341785071999963
1.31450e-05;-0.016353508847129963
1.31453e-05;-0.016365232622260036
1.31455e-05;-0.016376956397390112
1.31458e-05;-0.016388680172520112
1.31460e-05;-0.01639017411695299
1.31463e-05;-0.016380282611528185
1.31465e-05;-0.01637039110610345
1.31468e-05;-0.016360499600678646
1.31470e-05;-0.016350608095253842
1.31473e-05;-0.016340716589829107
1.31475e-05;-0.016330825084404303
