Time(s);Current(A)
8.75000e-06;-0.008109934203915337
8.75025e-06;-0.008165511253550448
8.75050e-06;-0.008228548442895015
8.75075e-06;-0.008291585632239579
8.75100e-06;-0.008355352040156831
8.75125e-06;-0.00842219213001441
8.75150e-06;-0.008489032219871987
8.75175e-06;-0.008555994639865708
8.75200e-06;-0.008623472685686442
8.75225e-06;-0.008690950731507632
8.75250e-06;-0.00875786945180125
8.75275e-06;-0.008822430595318308
8.75300e-06;-0.008886991738835802
8.75325e-06;-0.008950626834293554
8.75350e-06;-0.009010358604599974
8.75375e-06;-0.009068963241105073
8.75400e-06;-0.009122816968982213
8.75425e-06;-0.0091747749071533
8.75450e-06;-0.009218742025019181
8.75475e-06;-0.00926270914288506
8.75500e-06;-0.009304086374019634
8.75525e-06;-0.009334547141467583
8.75550e-06;-0.009365007908915531
8.75575e-06;-0.009392743065685723
8.75600e-06;-0.00940898967755907
8.75625e-06;-0.009425236289432414
8.75650e-06;-0.009437492595627844
8.75675e-06;-0.00943292962300635
8.75700e-06;-0.009428366650384854
8.75725e-06;-0.009423803677763389
8.75750e-06;-0.009419240705141893
8.75775e-06;-0.009414677732520398
8.75800e-06;-0.00939343606572645
8.75825e-06;-0.009364762336967777
8.75850e-06;-0.009336088608209102
8.75875e-06;-0.009307414879450623
8.75900e-06;-0.009278741150691949
8.75925e-06;-0.00924664524652224
8.75950e-06;-0.009200124752597938
8.75975e-06;-0.00915360425867332
8.76000e-06;-0.009107083764748702
8.76025e-06;-0.009060563270824084
8.76050e-06;-0.009012087673448563
8.76075e-06;-0.008955371246241569
8.76100e-06;-0.008898654819034577
8.76125e-06;-0.008841938391827968
8.76150e-06;-0.008785221964620974
8.76175e-06;-0.00872798198228987
8.76200e-06;-0.008668535196691281
8.76225e-06;-0.00860912082411375
8.76250e-06;-0.008549950224046225
8.76275e-06;-0.008491408065338574
8.76300e-06;-0.008433864349991434
8.76325e-06;-0.008377717326898864
8.76350e-06;-0.00832360009558766
8.76375e-06;-0.008272187829839874
8.76400e-06;-0.00822219986190288
8.76425e-06;-0.008178215359349239
8.76450e-06;-0.008134230856795299
8.76475e-06;-0.008091560376345484
8.76500e-06;-0.008054428545295816
8.76525e-06;-0.008017296714245897
8.76550e-06;-0.007981010685158762
8.76575e-06;-0.007948289741102838
8.76600e-06;-0.007915568797046694
8.76625e-06;-0.00788284785299055
8.76650e-06;-0.007850126908934628
8.76675e-06;-0.007817405964878484
8.76700e-06;-0.00778468502082234
8.76725e-06;-0.00775484236710737
8.76750e-06;-0.007726282285753816
8.76775e-06;-0.007697722204400261
8.76800e-06;-0.0076691621230469
8.76825e-06;-0.0076406020416933465
8.76850e-06;-0.007612041960339792
8.76875e-06;-0.007583846872915326
8.76900e-06;-0.007557190247744004
8.76925e-06;-0.007530533622572502
8.76950e-06;-0.007503876997400999
8.76975e-06;-0.007477220372229677
8.77000e-06;-0.007450563747058175
8.77025e-06;-0.007424217024898015
8.77050e-06;-0.007399176554834499
8.77075e-06;-0.007374136084770813
8.77100e-06;-0.007349095614707126
8.77125e-06;-0.007324055144643609
8.77150e-06;-0.007299014674579923
8.77175e-06;-0.0072742976203941665
8.77200e-06;-0.0072509437755132675
8.77225e-06;-0.00722758993063221
8.77250e-06;-0.007204586601772348
8.77275e-06;-0.007183060710274762
8.77300e-06;-0.007161786800998857
8.77325e-06;-0.007141575005653909
8.77350e-06;-0.0071216455964807825
8.77375e-06;-0.0071029064549569445
8.77400e-06;-0.007084441975840729
8.77425e-06;-0.007067352366751239
8.77450e-06;-0.007051423462206513
8.77475e-06;-0.0070368133048060106
8.77500e-06;-0.007023897741428579
8.77525e-06;-0.007013070650837387
8.77550e-06;-0.007002932403920919
8.77575e-06;-0.006995697657330712
8.77600e-06;-0.006989157156585393
8.77625e-06;-0.006985542926503942
8.77650e-06;-0.006982818536546989
8.77675e-06;-0.00698384485402422
8.77700e-06;-0.006984871171501451
8.77725e-06;-0.006987394072778241
8.77750e-06;-0.0069962251274277515
8.77775e-06;-0.007005056182077321
8.77800e-06;-0.007013887236726891
8.77825e-06;-0.007022718291376401
8.77850e-06;-0.007031549346025971
8.77875e-06;-0.007046224175244977
8.77900e-06;-0.007063503002971722
8.77925e-06;-0.007080781830698584
8.77950e-06;-0.007098060658425447
8.77975e-06;-0.007115339486152192
8.78000e-06;-0.007133722559145777
8.78025e-06;-0.007156760064792323
8.78050e-06;-0.0071797975704387135
8.78075e-06;-0.007202835076085261
8.78100e-06;-0.007225872581731807
8.78125e-06;-0.0072489100873781975
8.78150e-06;-0.007272245099320237
8.78175e-06;-0.0072968341107658785
8.78200e-06;-0.0073214231222113535
8.78225e-06;-0.007346012133656995
8.78250e-06;-0.0073706011451026366
8.78275e-06;-0.0073951901565481115
8.78300e-06;-0.007419368915577803
8.78325e-06;-0.007441818446238909
8.78350e-06;-0.007464267976899862
8.78375e-06;-0.00748607136037792
8.78400e-06;-0.007505151210743638
8.78425e-06;-0.007524231061109226
8.78450e-06;-0.007542673574442832
8.78475e-06;-0.007558429689760176
8.78500e-06;-0.007574185805077414
8.78525e-06;-0.007590234798384567
8.78550e-06;-0.007607518282724281
8.78575e-06;-0.007624801767063995
8.78600e-06;-0.007642580337664047
8.78625e-06;-0.00766244571427276
8.78650e-06;-0.007682311090881472
8.78675e-06;-0.00770217646749005
8.78700e-06;-0.007722041844098762
8.78725e-06;-0.007741907220707474
8.78750e-06;-0.007761772597316053
8.78775e-06;-0.007782742159663054
8.78800e-06;-0.007808365903750614
8.78825e-06;-0.007833989647838
8.78850e-06;-0.00785961339192556
8.78875e-06;-0.007885237136013119
8.78900e-06;-0.007910860880100507
8.78925e-06;-0.007936484624188066
8.78950e-06;-0.007962986796447935
8.78975e-06;-0.007993191574364003
8.79000e-06;-0.008023396352280275
8.79025e-06;-0.008053601130196548
8.79050e-06;-0.008083805908112616
8.79075e-06;-0.008114010686028888
8.79100e-06;-0.00814421546394516
8.79125e-06;-0.008174420241861229
8.79150e-06;-0.008204177741652115
8.79175e-06;-0.008233735933348918
8.79200e-06;-0.00826329412504552
8.79225e-06;-0.008292852316742323
8.79250e-06;-0.008322410508439126
8.79275e-06;-0.008351968700135728
8.79300e-06;-0.008381526891832532
8.79325e-06;-0.008409458979689175
8.79350e-06;-0.00843053698263859
8.79375e-06;-0.008451614985588144
8.79400e-06;-0.0084726929885377
8.79425e-06;-0.008493770991487256
8.79450e-06;-0.008514848994436669
8.79475e-06;-0.008535926997386225
8.79500e-06;-0.00855700500033578
8.79525e-06;-0.008578083003285194
8.79550e-06;-0.008597486085427947
8.79575e-06;-0.00860982931743047
8.79600e-06;-0.00862217254943291
8.79625e-06;-0.008634515781435433
8.79650e-06;-0.008646859013437957
8.79675e-06;-0.008659202245440397
8.79700e-06;-0.00867154547744292
8.79725e-06;-0.008683888709445442
8.79750e-06;-0.008696231941447882
8.79775e-06;-0.008707334234479835
8.79800e-06;-0.00871320592608218
8.79825e-06;-0.008719077617684482
8.79850e-06;-0.008724949309286826
8.79875e-06;-0.00873082100088917
8.79900e-06;-0.008736692692491473
8.79925e-06;-0.008742564384093817
8.79950e-06;-0.00874843607569616
8.79975e-06;-0.008754307767298464
8.80000e-06;-0.008760179458900806
8.80025e-06;-0.00876605115050315
8.80050e-06;-0.008771922842105455
8.80075e-06;-0.008777794533707797
8.80100e-06;-0.008783666225310141
8.80125e-06;-0.008789537916912444
8.80150e-06;-0.008795409608514788
8.80175e-06;-0.00880128130011713
8.80200e-06;-0.008807152991719434
8.80225e-06;-0.008813024683321779
8.80250e-06;-0.008818896374924121
8.80275e-06;-0.008824768066526425
8.80300e-06;-0.008830639758128768
8.80325e-06;-0.008836511449731112
8.80350e-06;-0.008842383141333454
8.80375e-06;-0.00884491018482426
8.80400e-06;-0.008845946845926676
8.80425e-06;-0.008846983507029093
8.80450e-06;-0.008848020168131503
8.80475e-06;-0.00884905682923392
8.80500e-06;-0.008850093490336337
8.80525e-06;-0.008851130151438747
8.80550e-06;-0.008852166812541164
8.80575e-06;-0.008853203473643581
8.80600e-06;-0.008854240134745991
8.80625e-06;-0.008855276795848408
8.80650e-06;-0.008856313456950825
8.80675e-06;-0.008857350118053236
8.80700e-06;-0.008858386779155653
8.80725e-06;-0.008859423440258068
8.80750e-06;-0.008860460101360478
8.80775e-06;-0.008861496762462895
8.80800e-06;-0.008862533423565312
8.80825e-06;-0.008863570084667722
8.80850e-06;-0.008864606745770139
8.80875e-06;-0.008865643406872556
8.80900e-06;-0.008866680067974966
8.80925e-06;-0.008867716729077383
8.80950e-06;-0.008868522138736287
8.80975e-06;-0.008868352815422484
8.81000e-06;-0.00886818349210868
8.81025e-06;-0.008868014168794876
8.81050e-06;-0.008867844845481072
8.81075e-06;-0.008867675522167268
8.81100e-06;-0.008867506198853464
8.81125e-06;-0.008867336875539662
8.81150e-06;-0.008867167552225858
8.81175e-06;-0.008866998228912053
8.81200e-06;-0.00886682890559825
8.81225e-06;-0.0088663246973757
8.81250e-06;-0.008865671263717873
8.81275e-06;-0.008865017830060044
8.81300e-06;-0.00886436439640222
8.81325e-06;-0.008863710962744391
8.81350e-06;-0.008863057529086563
8.81375e-06;-0.008862404095428739
8.81400e-06;-0.00886175066177091
8.81425e-06;-0.008861097228113082
8.81450e-06;-0.00886044379445526
8.81475e-06;-0.008859101409145247
8.81500e-06;-0.008854855068374776
8.81525e-06;-0.008850608727604336
8.81550e-06;-0.008846362386833865
8.81575e-06;-0.008842116046063395
8.81600e-06;-0.008837869705292952
8.81625e-06;-0.008833623364522482
8.81650e-06;-0.008829377023752012
8.81675e-06;-0.00882513068298157
8.81700e-06;-0.008820884342211099
8.81725e-06;-0.008811884012710347
8.81750e-06;-0.008800765295610932
8.81775e-06;-0.00878964657851144
8.81800e-06;-0.00877852786141195
8.81825e-06;-0.008767409144312534
8.81850e-06;-0.008756290427213043
8.81875e-06;-0.008745171710113553
8.81900e-06;-0.008734052993014137
8.81925e-06;-0.008722934275914645
8.81950e-06;-0.008710848430139553
8.81975e-06;-0.008694686102959356
8.82000e-06;-0.00867852377577905
8.82025e-06;-0.008662361448598744
8.82050e-06;-0.008646199121418438
8.82075e-06;-0.008630036794238242
8.82100e-06;-0.008613874467057935
8.82125e-06;-0.008597712139877629
8.82150e-06;-0.008581549812697433
8.82175e-06;-0.008565387485517127
8.82200e-06;-0.00854922515833682
8.82225e-06;-0.008533062831156624
8.82250e-06;-0.008517437402310764
8.82275e-06;-0.008504075018840825
8.82300e-06;-0.008490712635370976
8.82325e-06;-0.008477350251901036
8.82350e-06;-0.008463987868431097
8.82375e-06;-0.008450625484961248
8.82400e-06;-0.008437263101491309
8.82425e-06;-0.00842390071802137
8.82450e-06;-0.008410538334551522
8.82475e-06;-0.008397175951081581
8.82500e-06;-0.008383813567611642
8.82525e-06;-0.008370451184141795
8.82550e-06;-0.008358575013888338
8.82575e-06;-0.008352963284650995
8.82600e-06;-0.00834735155541369
8.82625e-06;-0.008341739826176347
8.82650e-06;-0.008336128096939004
8.82675e-06;-0.008330516367701697
8.82700e-06;-0.008324904638464354
8.82725e-06;-0.00831929290922701
8.82750e-06;-0.008313681179989705
8.82775e-06;-0.008308069450752362
8.82800e-06;-0.008302457721515017
8.82825e-06;-0.008296845992277712
8.82850e-06;-0.008291234263040369
8.82875e-06;-0.008285622533803026
8.82900e-06;-0.008280010804565682
8.82925e-06;-0.008274399075328375
8.82950e-06;-0.008272064975874606
8.82975e-06;-0.008271191395299615
8.83000e-06;-0.008270317814724632
8.83025e-06;-0.008269444234149641
8.83050e-06;-0.008268570653574652
8.83075e-06;-0.008267697072999668
8.83100e-06;-0.008266823492424679
8.83125e-06;-0.00826594991184969
8.83150e-06;-0.008265076331274705
8.83175e-06;-0.008264202750699716
8.83200e-06;-0.008263329170124727
8.83225e-06;-0.008262455589549743
8.83250e-06;-0.008261582008974753
8.83275e-06;-0.008260708428399762
8.83300e-06;-0.00825983484782478
8.83325e-06;-0.008259169099503121
8.83350e-06;-0.008259379371444414
8.83375e-06;-0.008259589643385704
8.83400e-06;-0.008259799915326995
8.83425e-06;-0.008260010187268286
8.83450e-06;-0.008260220459209577
8.83475e-06;-0.008260430731150868
8.83500e-06;-0.00826064100309216
8.83525e-06;-0.008260851275033449
8.83550e-06;-0.008262418449111427
8.83575e-06;-0.00826970501345495
8.83600e-06;-0.008276991577798421
8.83625e-06;-0.008284278142141943
8.83650e-06;-0.008291564706485465
8.83675e-06;-0.008298851270828939
8.83700e-06;-0.00830613783517246
8.83725e-06;-0.008313424399515981
8.83750e-06;-0.008320710963859503
8.83775e-06;-0.008329954872237373
8.83800e-06;-0.008347449054613675
8.83825e-06;-0.008364943236989974
8.83850e-06;-0.008382437419366158
8.83875e-06;-0.008399931601742457
8.83900e-06;-0.008417425784118759
8.83925e-06;-0.00843491996649494
8.83950e-06;-0.00845241414887124
8.83975e-06;-0.008469908331247541
8.84000e-06;-0.008491509767705196
8.84025e-06;-0.008514941405413074
8.84050e-06;-0.008538373043120953
8.84075e-06;-0.008561804680828674
8.84100e-06;-0.008585236318536553
8.84125e-06;-0.008608667956244431
8.84150e-06;-0.00863209959395215
8.84175e-06;-0.008655531231660029
8.84200e-06;-0.008678829344996492
8.84225e-06;-0.008701564648407455
8.84250e-06;-0.008724299951818571
8.84275e-06;-0.00874703525522969
8.84300e-06;-0.008769770558640652
8.84325e-06;-0.00879250586205177
8.84350e-06;-0.008815241165462886
8.84375e-06;-0.008833600654818773
8.84400e-06;-0.008850010272022705
8.84425e-06;-0.008866419889226639
8.84450e-06;-0.00888282950643046
8.84475e-06;-0.008899239123634392
8.84500e-06;-0.008915648740838325
8.84525e-06;-0.008930148846571374
8.84550e-06;-0.008936600294241901
8.84575e-06;-0.008943051741912428
8.84600e-06;-0.008949503189582955
8.84625e-06;-0.008955954637253436
8.84650e-06;-0.008962406084923963
8.84675e-06;-0.00896885753259449
8.84700e-06;-0.008975308980264973
8.84725e-06;-0.0089817604279355
8.84750e-06;-0.008988211875606026
8.84775e-06;-0.00899466332327651
8.84800e-06;-0.009001114770947035
8.84825e-06;-0.009007566218617561
8.84850e-06;-0.009014017666288045
8.84875e-06;-0.009020469113958571
8.84900e-06;-0.009026920561629098
8.84925e-06;-0.009033372009299582
8.84950e-06;-0.009039823456970107
8.84975e-06;-0.009046274904640633
8.85000e-06;-0.009047934698593727
8.85025e-06;-0.009047459321346586
8.85050e-06;-0.009046983944099446
8.85075e-06;-0.009046508566852308
8.85100e-06;-0.009046033189605169
8.85125e-06;-0.009045557812358027
8.85150e-06;-0.009045082435110891
8.85175e-06;-0.00904460705786375
8.85200e-06;-0.00904413168061661
8.85225e-06;-0.009043656303369473
8.85250e-06;-0.009043180926122333
8.85275e-06;-0.009042705548875192
8.85300e-06;-0.009042230171628054
8.85325e-06;-0.009041754794380914
8.85350e-06;-0.009041279417133773
8.85375e-06;-0.009040804039886637
8.85400e-06;-0.009040328662639496
8.85425e-06;-0.009039853285392356
8.85450e-06;-0.009038502418848914
8.85475e-06;-0.009033461334103599
8.85500e-06;-0.009028420249358246
8.85525e-06;-0.009023379164612896
8.85550e-06;-0.009018338079867579
8.85575e-06;-0.009013296995122228
8.85600e-06;-0.009008255910376876
8.85625e-06;-0.00900321482563156
8.85650e-06;-0.008998173740886208
8.85675e-06;-0.008986280992334953
8.85700e-06;-0.008971335127657624
8.85725e-06;-0.008956389262980195
8.85750e-06;-0.008941443398302766
8.85775e-06;-0.00892649753362544
8.85800e-06;-0.00891155166894801
8.85825e-06;-0.00889660580427058
8.85850e-06;-0.008881659939593252
8.85875e-06;-0.008865061702841008
8.85900e-06;-0.008841498659626627
8.85925e-06;-0.008817935616412406
8.85950e-06;-0.008794372573198025
8.85975e-06;-0.008770809529983645
8.86000e-06;-0.008747246486769424
8.86025e-06;-0.008723683443555043
8.86050e-06;-0.008700120400340662
8.86075e-06;-0.00867593880863593
8.86100e-06;-0.008649150013269047
8.86125e-06;-0.008622361217902164
8.86150e-06;-0.00859557242253546
8.86175e-06;-0.008568783627168577
8.86200e-06;-0.008541994831801694
8.86225e-06;-0.008515206036434993
8.86250e-06;-0.00848841724106811
8.86275e-06;-0.008461965716730843
8.86300e-06;-0.008436935801656336
8.86325e-06;-0.008411905886581998
8.86350e-06;-0.008387396246634128
8.86375e-06;-0.008365079584660333
8.86400e-06;-0.008342762922686691
8.86425e-06;-0.008321245365209434
8.86450e-06;-0.008303096061316186
8.86475e-06;-0.008284946757423061
8.86500e-06;-0.008268685480770125
8.86525e-06;-0.00826038230540021
8.86550e-06;-0.008252079130030354
8.86575e-06;-0.008243775954660441
8.86600e-06;-0.008235472779290527
8.86625e-06;-0.00822716960392067
8.86650e-06;-0.008218866428550756
8.86675e-06;-0.008210563253180843
8.86700e-06;-0.00821239354297928
8.86725e-06;-0.008218739326650034
8.86750e-06;-0.008225085110320789
8.86775e-06;-0.0082314308939915
8.86800e-06;-0.008237776677662255
8.86825e-06;-0.008244122461333011
8.86850e-06;-0.008250468245003723
8.86875e-06;-0.008259140536528984
8.86900e-06;-0.008277619140562574
8.86925e-06;-0.008296097744596038
8.86950e-06;-0.008314576348629628
8.86975e-06;-0.008333054952663217
8.87000e-06;-0.008351533556696681
8.87025e-06;-0.00837001216073027
8.87050e-06;-0.00838849076476386
8.87075e-06;-0.008408037614474019
8.87100e-06;-0.008432087157318314
8.87125e-06;-0.00845613670016261
8.87150e-06;-0.008480186243006905
8.87175e-06;-0.00850423578585104
8.87200e-06;-0.008528285328695335
8.87225e-06;-0.00855233487153963
8.87250e-06;-0.008576384414383763
8.87275e-06;-0.008599703548097396
8.87300e-06;-0.008619943981611549
8.87325e-06;-0.008640184415125565
8.87350e-06;-0.008660424848639716
8.87375e-06;-0.008680665282153869
8.87400e-06;-0.008700905715667884
8.87425e-06;-0.008721146149182037
8.87450e-06;-0.008741386582696188
8.87475e-06;-0.008757931708549186
8.87500e-06;-0.00875890098251872
8.87525e-06;-0.008759870256488252
8.87550e-06;-0.008760839530457778
8.87575e-06;-0.00876180880442731
8.87600e-06;-0.008762778078396843
8.87625e-06;-0.008763747352366371
8.87650e-06;-0.008764716626335902
8.87675e-06;-0.008760880554220463
8.87700e-06;-0.008736789779185983
8.87725e-06;-0.008712699004151338
8.87750e-06;-0.008688608229116695
8.87775e-06;-0.008664517454082213
8.87800e-06;-0.008640426679047568
8.87825e-06;-0.008603096074814184
8.87850e-06;-0.008559865774214599
8.87875e-06;-0.00851663547361472
8.87900e-06;-0.008473405173014842
8.87925e-06;-0.008430174872415257
8.87950e-06;-0.008384383707724848
8.87975e-06;-0.00832779841073636
8.88000e-06;-0.008271213113747873
8.88025e-06;-0.00821462781675977
8.88050e-06;-0.008158042519771282
8.88075e-06;-0.008096965829998463
8.88100e-06;-0.008033887765941328
8.88125e-06;-0.007970809701883765
8.88150e-06;-0.007907731637826204
8.88175e-06;-0.007844358116231645
8.88200e-06;-0.007779780662234883
8.88225e-06;-0.007715490976607433
8.88250e-06;-0.007651859949433056
8.88275e-06;-0.007589233798395557
8.88300e-06;-0.007527902076460935
8.88325e-06;-0.007468141486340769
8.88350e-06;-0.0074103042830796105
8.88375e-06;-0.007354795642888018
8.88400e-06;-0.007302358655794523
8.88425e-06;-0.007253808809979818
8.88450e-06;-0.007206668037671474
8.88475e-06;-0.007165466559801407
8.88500e-06;-0.007125470346288224
8.88525e-06;-0.007090554364473959
8.88550e-06;-0.007056775874336129
8.88575e-06;-0.007027791951660877
8.88600e-06;-0.007000409407846045
8.88625e-06;-0.006979776732307725
8.88650e-06;-0.006959144056769264
8.88675e-06;-0.0069411777317247
8.88700e-06;-0.006934450167886567
8.88725e-06;-0.006927722604048388
8.88750e-06;-0.006920995040210208
8.88775e-06;-0.006914267476372075
8.88800e-06;-0.0069075399125338955
8.88825e-06;-0.006903753912230509
8.88850e-06;-0.006912366705790358
8.88875e-06;-0.006920979499350149
8.88900e-06;-0.0069295922929099975
8.88925e-06;-0.006938205086469846
8.88950e-06;-0.006946817880029637
8.88975e-06;-0.006957519751997413
8.89000e-06;-0.0069770271630051105
8.89025e-06;-0.006996534574012676
8.89050e-06;-0.007016041985020374
8.89075e-06;-0.007035549396028072
8.89100e-06;-0.007055056807035638
8.89125e-06;-0.007074564218043335
8.89150e-06;-0.007097250088199838
8.89175e-06;-0.007121352286589535
8.89200e-06;-0.007145454484979395
8.89225e-06;-0.007169556683369256
8.89250e-06;-0.007193658881758953
8.89275e-06;-0.007217761080148813
8.89300e-06;-0.007241604979476414
8.89325e-06;-0.007264360139162269
8.89350e-06;-0.007287115298848277
8.89375e-06;-0.007308220101947627
8.89400e-06;-0.007322368593928232
8.89425e-06;-0.007336517085908933
8.89450e-06;-0.007350665577889633
8.89475e-06;-0.007364814069870238
8.89500e-06;-0.007378962561850938
8.89525e-06;-0.00739311105383164
8.89550e-06;-0.007407259545812244
8.89575e-06;-0.007421408037792945
8.89600e-06;-0.007435556529773645
8.89625e-06;-0.00744970502175425
8.89650e-06;-0.007463853513734951
8.89675e-06;-0.007478002005715651
8.89700e-06;-0.007492150497696352
8.89725e-06;-0.007506298989676957
