Time(s);Current(A)
1.47500e-05;-0.003996604175064854
1.47503e-05;-0.004012877298587453
1.47505e-05;-0.004029150422109942
1.47508e-05;-0.004045423545632542
1.47510e-05;-0.004061696669155142
1.47513e-05;-0.004077969792677631
1.47515e-05;-0.00409424291620023
1.47518e-05;-0.00411051603972283
1.47520e-05;-0.004127271268005772
1.47523e-05;-0.004144362154837056
1.47525e-05;-0.00416145304166834
1.47528e-05;-0.004178543928499507
1.47530e-05;-0.004195634815330791
1.47533e-05;-0.004212725702162075
1.47535e-05;-0.004229816588993242
1.47538e-05;-0.00424673722974009
1.47540e-05;-0.004261926790491211
1.47543e-05;-0.004277116351242228
1.47545e-05;-0.004292097433785274
1.47548e-05;-0.004304958688099856
1.47550e-05;-0.00431781994241435
1.47553e-05;-0.004330375331400616
1.47555e-05;-0.004339820649731937
1.47558e-05;-0.004349265968063194
1.47560e-05;-0.0043580991954448225
1.47563e-05;-0.004360708618018504
1.47565e-05;-0.004363318040592168
1.47568e-05;-0.00436592746316585
1.47570e-05;-0.004368536885739532
1.47573e-05;-0.004371146308313214
1.47575e-05;-0.004373755730886878
1.47578e-05;-0.004370704928276196
1.47580e-05;-0.004363713274787949
1.47583e-05;-0.0043567216212997495
1.47585e-05;-0.004349729967811502
1.47588e-05;-0.004342738314323255
1.47590e-05;-0.004335746660835056
1.47593e-05;-0.004328049994986994
1.47595e-05;-0.004313184689712269
1.47598e-05;-0.004298319384437645
1.47600e-05;-0.00428345407916292
1.47603e-05;-0.004268588773888195
1.47605e-05;-0.004253723468613571
1.47608e-05;-0.004238428503650683
1.47610e-05;-0.004218764714030681
1.47613e-05;-0.004199100924410812
1.47615e-05;-0.00417943713479081
1.47618e-05;-0.004159773345170807
1.47620e-05;-0.004140109555550939
1.47623e-05;-0.004120318566426975
1.47625e-05;-0.004099234199439826
1.47628e-05;-0.00407814983245282
1.47630e-05;-0.004057088703836585
1.47633e-05;-0.0040362638654068955
1.47635e-05;-0.0040155062611994105
1.47638e-05;-0.003995432301595505
1.47640e-05;-0.003975469877832851
1.47643e-05;-0.003956641562172621
1.47645e-05;-0.003937972461319662
1.47648e-05;-0.003920922273284889
1.47650e-05;-0.0039041334057345807
1.47653e-05;-0.0038900016722077948
1.47655e-05;-0.0038758699386810085
1.47658e-05;-0.0038620523192700895
1.47660e-05;-0.003851428645051308
1.47663e-05;-0.003840804970832455
1.47665e-05;-0.003830726566402597
1.47668e-05;-0.0038261925222326655
1.47670e-05;-0.0038216584780627026
1.47673e-05;-0.00381712443389274
1.47675e-05;-0.003812590389722808
1.47678e-05;-0.0038080563455528457
1.47680e-05;-0.0038035223013828828
1.47683e-05;-0.003799688252578526
1.47685e-05;-0.0038029718298844624
1.47688e-05;-0.0038062554071903987
1.47690e-05;-0.0038095389844963125
1.47693e-05;-0.0038128225618022493
1.47695e-05;-0.0038161061391081856
1.47698e-05;-0.0038193897164140993
1.47700e-05;-0.003823188105835572
1.47703e-05;-0.0038322211587071965
1.47705e-05;-0.0038412542115787603
1.47708e-05;-0.0038502872644503847
1.47710e-05;-0.0038593203173220092
1.47713e-05;-0.0038683533701935726
1.47715e-05;-0.0038773864230651975
1.47718e-05;-0.003886419475936822
1.47720e-05;-0.003896828893791971
1.47723e-05;-0.003908196586093642
1.47725e-05;-0.003919564278395312
1.47728e-05;-0.003930931970696906
1.47730e-05;-0.003942299662998577
1.47733e-05;-0.003953667355300248
1.47735e-05;-0.003965035047601841
1.47738e-05;-0.003976328927499111
1.47740e-05;-0.003986872275145904
1.47743e-05;-0.003997415622792697
1.47745e-05;-0.004007591157301181
1.47748e-05;-0.004014026729337865
1.47750e-05;-0.004020462301374548
1.47753e-05;-0.004026897873411188
1.47755e-05;-0.004033333445447871
1.47758e-05;-0.004039769017484555
1.47760e-05;-0.004046204589521194
1.47763e-05;-0.004052640161557878
1.47765e-05;-0.0040590757335945615
1.47768e-05;-0.004065511305631201
1.47770e-05;-0.0040719468776678844
1.47773e-05;-0.004074733237158685
1.47775e-05;-0.0040749788845749115
1.47778e-05;-0.00407522453199114
1.47780e-05;-0.004075470179407369
1.47783e-05;-0.004075715826823595
1.47785e-05;-0.004075961474239824
1.47788e-05;-0.0040762071216560525
1.47790e-05;-0.004076452769072279
1.47793e-05;-0.004076698416488508
1.47795e-05;-0.004076944063904736
1.47798e-05;-0.004076820821306682
1.47800e-05;-0.004072946666447214
1.47803e-05;-0.004069072511587747
1.47805e-05;-0.004065198356728306
1.47808e-05;-0.0040613242018688375
1.47810e-05;-0.00405745004700937
1.47813e-05;-0.004053575892149929
1.47815e-05;-0.0040497017372904615
1.47818e-05;-0.004045827582430994
1.47820e-05;-0.004041953427571553
1.47823e-05;-0.0040373552746542805
1.47825e-05;-0.004032253048437739
1.47828e-05;-0.004027150822221196
1.47830e-05;-0.004022048596004689
1.47833e-05;-0.004016946369788147
1.47835e-05;-0.004011844143571605
1.47838e-05;-0.004006741917355097
1.47840e-05;-0.004001639691138555
1.47843e-05;-0.003996537464922013
1.47845e-05;-0.003991502950232837
1.47848e-05;-0.003987156933438394
1.47850e-05;-0.003982810916643951
1.47853e-05;-0.003978578423182857
1.47855e-05;-0.003975500246853316
1.47858e-05;-0.003972422070523777
1.47860e-05;-0.0039695818929160725
1.47863e-05;-0.003969161711214491
1.47865e-05;-0.003968741529512909
1.47868e-05;-0.0039687351909519965
1.47870e-05;-0.003972936852747379
1.47873e-05;-0.00397713851454276
1.47875e-05;-0.003981340176338113
1.47878e-05;-0.003985541838133495
1.47880e-05;-0.003989743499928877
1.47883e-05;-0.00399394516172423
1.47885e-05;-0.00399872798928416
1.47888e-05;-0.004009420171148126
1.47890e-05;-0.004020112353012019
1.47893e-05;-0.0040308045348759845
1.47895e-05;-0.00404149671673995
1.47898e-05;-0.004052188898603843
1.47900e-05;-0.004062881080467809
1.47903e-05;-0.004073993800998201
1.47905e-05;-0.0040893826026920125
1.47908e-05;-0.004104771404385929
1.47910e-05;-0.004120160206079845
1.47913e-05;-0.004135549007773762
1.47915e-05;-0.004150937809467574
1.47918e-05;-0.00416632661116149
1.47920e-05;-0.004181715412855407
1.47923e-05;-0.004197616590407844
1.47925e-05;-0.004213874502328391
1.47928e-05;-0.004230132414248939
1.47930e-05;-0.004246390326169376
1.47933e-05;-0.004262648238089924
1.47935e-05;-0.004278906150010471
1.47938e-05;-0.004295164061930908
1.47940e-05;-0.004310899909780405
1.47943e-05;-0.00432132735552679
1.47945e-05;-0.0043317548012731045
1.47948e-05;-0.00434218224701949
1.47950e-05;-0.0043526096927658745
1.47953e-05;-0.00436303713851219
1.47955e-05;-0.004373464584258574
1.47958e-05;-0.00438389203000496
1.47960e-05;-0.004394319475751274
1.47963e-05;-0.00440474692149766
1.47965e-05;-0.004415174367244044
1.47968e-05;-0.0044256018129903586
1.47970e-05;-0.004436029258736744
1.47973e-05;-0.004445890448805501
1.47975e-05;-0.004449993891889328
1.47978e-05;-0.004454097334973183
1.47980e-05;-0.004458200778057038
1.47983e-05;-0.004462304221140865
1.47985e-05;-0.00446640766422472
1.47988e-05;-0.004470511107308574
1.47990e-05;-0.004474614550392401
1.47993e-05;-0.004478717993476256
1.47995e-05;-0.004482821436560111
1.47998e-05;-0.004486924879643966
1.48000e-05;-0.004491028322727793
1.48003e-05;-0.004495131765811648
1.48005e-05;-0.0044989911902855355
1.48008e-05;-0.004500369407997572
1.48010e-05;-0.004501747625709618
1.48013e-05;-0.004503125843421663
1.48015e-05;-0.0045045040611337
1.48018e-05;-0.004505882278845745
1.48020e-05;-0.004507260496557791
1.48023e-05;-0.004508638714269827
1.48025e-05;-0.004510016931981873
1.48028e-05;-0.004511395149693918
1.48030e-05;-0.004512670800297511
1.48033e-05;-0.004512903537808908
1.48035e-05;-0.004513136275320305
1.48038e-05;-0.0045133690128317
1.48040e-05;-0.004513601750343097
1.48043e-05;-0.0045138344878544925
1.48045e-05;-0.0045140672253658875
1.48048e-05;-0.004514299962877284
1.48050e-05;-0.004514532700388681
1.48053e-05;-0.004514765437900076
1.48055e-05;-0.004514784531114194
1.48058e-05;-0.004512631266755555
1.48060e-05;-0.00451047800239693
1.48063e-05;-0.00450832473803829
1.48065e-05;-0.00450617147367965
1.48068e-05;-0.004504018209321025
1.48070e-05;-0.004501864944962386
1.48073e-05;-0.004499711680603746
1.48075e-05;-0.00449755841624512
1.48078e-05;-0.004495405151886481
1.48080e-05;-0.004492884724048355
1.48083e-05;-0.004486630939525941
1.48085e-05;-0.004480377155003569
1.48088e-05;-0.004474123370481154
1.48090e-05;-0.00446786958595874
1.48093e-05;-0.004461615801436368
1.48095e-05;-0.004455362016913954
1.48098e-05;-0.00444910823239154
1.48100e-05;-0.004442854447869168
1.48103e-05;-0.004436600663346754
1.48105e-05;-0.004430112688106361
1.48108e-05;-0.004421243437136194
1.48110e-05;-0.0044123741861659665
1.48113e-05;-0.0044035049351957385
1.48115e-05;-0.004394635684225571
1.48118e-05;-0.004385766433255344
1.48120e-05;-0.004376897182285117
1.48123e-05;-0.00436802793131495
1.48125e-05;-0.004359158680344722
1.48128e-05;-0.0043502894293744945
1.48130e-05;-0.004341420178404327
1.48133e-05;-0.004333270290882458
1.48135e-05;-0.004325621249879753
1.48138e-05;-0.0043179722088771
1.48140e-05;-0.0043103231678743945
1.48143e-05;-0.00430267412687169
1.48145e-05;-0.004295025085869037
1.48148e-05;-0.004287376044866332
1.48150e-05;-0.004279727003863627
1.48153e-05;-0.004272077962860974
1.48155e-05;-0.004264428921858268
1.48158e-05;-0.004257087492905892
1.48160e-05;-0.004252873895476494
1.48163e-05;-0.004248660298047068
1.48165e-05;-0.004244446700617642
1.48168e-05;-0.004240233103188216
1.48170e-05;-0.004236019505758818
1.48173e-05;-0.0042318059083293925
1.48175e-05;-0.004227592310899966
1.48178e-05;-0.004223378713470569
1.48180e-05;-0.004219165116041142
1.48183e-05;-0.004214951518611717
1.48185e-05;-0.004210737921182319
1.48188e-05;-0.004206524323752893
1.48190e-05;-0.0042023107263234665
1.48193e-05;-0.0041980971288940695
1.48195e-05;-0.004193883531464643
1.48198e-05;-0.004189669934035217
1.48200e-05;-0.004185456336605819
1.48203e-05;-0.004181242739176394
1.48205e-05;-0.004177191206121568
1.48208e-05;-0.004174787560590457
1.48210e-05;-0.0041723839150593295
1.48213e-05;-0.004169980269528202
1.48215e-05;-0.004167576623997091
1.48218e-05;-0.004165172978465964
1.48220e-05;-0.004162769332934836
1.48223e-05;-0.004160365687403725
1.48225e-05;-0.004157962041872598
1.48228e-05;-0.00415555839634147
1.48230e-05;-0.004153154750810359
1.48233e-05;-0.004150751105279232
1.48235e-05;-0.004148347459748105
1.48238e-05;-0.004145943814216994
1.48240e-05;-0.004143540168685867
1.48243e-05;-0.004141136523154739
1.48245e-05;-0.004138732877623628
1.48248e-05;-0.004136329232092501
1.48250e-05;-0.004133925586561373
1.48253e-05;-0.00413147015089847
1.48255e-05;-0.0041284881077547145
1.48258e-05;-0.004125506064610938
1.48260e-05;-0.004122524021467163
1.48263e-05;-0.0041195419783234075
1.48265e-05;-0.004116559935179631
1.48268e-05;-0.004113577892035856
1.48270e-05;-0.004110595848892101
1.48273e-05;-0.004107613805748324
1.48275e-05;-0.00410433605711594
1.48278e-05;-0.00409805154412262
1.48280e-05;-0.0040917670311292585
1.48283e-05;-0.004085482518135896
1.48285e-05;-0.0040791980051425765
1.48288e-05;-0.004072913492149214
1.48290e-05;-0.004066628979155852
1.48293e-05;-0.004060344466162533
1.48295e-05;-0.00405405995316917
1.48298e-05;-0.00404752219474872
1.48300e-05;-0.004038409410316741
1.48303e-05;-0.004029296625884701
1.48305e-05;-0.004020183841452661
1.48308e-05;-0.004011071057020682
1.48310e-05;-0.004001958272588642
1.48313e-05;-0.003992845488156602
1.48315e-05;-0.003983732703724623
1.48318e-05;-0.003974619919292583
1.48320e-05;-0.003965473359074622
1.48323e-05;-0.003955983363129855
1.48325e-05;-0.003946493367185024
1.48328e-05;-0.003937003371240193
1.48330e-05;-0.003927513375295426
1.48333e-05;-0.003918023379350595
1.48335e-05;-0.003908533383405764
1.48338e-05;-0.0038990433874609327
1.48340e-05;-0.0038895533915161663
1.48343e-05;-0.003880194067394881
1.48345e-05;-0.0038721634280544006
1.48348e-05;-0.003864132788713975
1.48350e-05;-0.003856210856859742
1.48353e-05;-0.0038493942741054878
1.48355e-05;-0.00384257769135128
1.48358e-05;-0.00383564689728613
1.48360e-05;-0.003827554790655725
1.48363e-05;-0.003819462684025375
1.48365e-05;-0.0038111961506287232
1.48368e-05;-0.003801156027613081
1.48370e-05;-0.0037911159045975066
1.48373e-05;-0.0037809200761585882
1.48375e-05;-0.00376914101867571
1.48378e-05;-0.003757361961192911
1.48380e-05;-0.0037452389626822426
1.48383e-05;-0.0037296187357951033
1.48385e-05;-0.00371399850890807
1.48388e-05;-0.0036983782820209305
1.48390e-05;-0.0036827580551337907
1.48393e-05;-0.003667137828246757
1.48395e-05;-0.0036492099084511815
1.48398e-05;-0.003629675290450089
1.48400e-05;-0.0036101406724491285
1.48403e-05;-0.003590606054448036
1.48405e-05;-0.0035710714364469436
1.48408e-05;-0.0035513422988029666
1.48410e-05;-0.0035296352650644727
1.48413e-05;-0.0035079282313259788
1.48415e-05;-0.0034861712774810713
1.48418e-05;-0.003463906730766348
1.48420e-05;-0.003441613226428734
1.48423e-05;-0.0034190252779499756
1.48425e-05;-0.0033964526005
1.48428e-05;-0.003374035200467718
1.48430e-05;-0.0033516591833594347
1.48433e-05;-0.003329745793731005
1.48435e-05;-0.0033083046361377343
1.48438e-05;-0.003287388785812431
1.48440e-05;-0.003267035390699599
1.48443e-05;-0.0032473413321595273
1.48445e-05;-0.0032284440845112123
1.48448e-05;-0.0032104822028355645
1.48450e-05;-0.003193594412500322
1.48453e-05;-0.003177919244233965
1.48455e-05;-0.0031635966432718827
1.48458e-05;-0.0031507534958450825
1.48460e-05;-0.0031394743652172017
1.48463e-05;-0.0031298712336641455
1.48465e-05;-0.00312249317981272
1.48468e-05;-0.003115413197676986
1.48470e-05;-0.003111364039953215
1.48473e-05;-0.0031076973563469983
1.48475e-05;-0.0031079197096116886
1.48478e-05;-0.0031081420628763777
1.48480e-05;-0.003108949460192787
1.48483e-05;-0.0031157056466780864
1.48485e-05;-0.0031224618331633404
1.48488e-05;-0.00312921801964864
1.48490e-05;-0.0031359742061339395
1.48493e-05;-0.003143356064903742
1.48495e-05;-0.0031570998249679863
1.48498e-05;-0.0031708435850322306
1.48500e-05;-0.0031845873450963816
1.48503e-05;-0.003198331105160626
1.48505e-05;-0.0032120325068761093
1.48508e-05;-0.0032253032044666265
1.48510e-05;-0.003238573902057053
1.48513e-05;-0.003253214679789225
1.48515e-05;-0.0032772336230144127
1.48518e-05;-0.0032938391118514485
1.48520e-05;-0.003319223489125938
1.48523e-05;-0.003341828123003628
1.48525e-05;-0.003363141960908778
1.48528e-05;-0.0033839241441517075
1.48530e-05;-0.0034049302983290295
1.48533e-05;-0.003426001657079734
1.48535e-05;-0.0034470730158305814
1.48538e-05;-0.0034676804914480484
1.48540e-05;-0.0034877452534950865
1.48543e-05;-0.0035078100155422603
1.48545e-05;-0.003527267565620367
1.48548e-05;-0.003543206422367544
1.48550e-05;-0.003559145279114829
1.48553e-05;-0.0035750841358621137
1.48555e-05;-0.003590104144581619
1.48558e-05;-0.00360372655679706
1.48560e-05;-0.003617348969012501
1.48563e-05;-0.00363097138122785
1.48565e-05;-0.0036436653833421305
1.48568e-05;-0.003655850974216002
1.48570e-05;-0.0036680365650897913
1.48573e-05;-0.003680222155963663
1.48575e-05;-0.003692407746837534
1.48578e-05;-0.0037045933377113233
1.48580e-05;-0.003716778928585195
1.48583e-05;-0.003728954762038185
1.48585e-05;-0.003741125252181657
1.48588e-05;-0.0037532957423252115
1.48590e-05;-0.0037654662324687663
1.48593e-05;-0.0037776367226123207
1.48595e-05;-0.0037898072127557927
1.48598e-05;-0.0038019777028993475
1.48600e-05;-0.003814504309494796
1.48603e-05;-0.0038272259307790693
1.48605e-05;-0.0038399475520634286
1.48608e-05;-0.003852669173347788
1.48610e-05;-0.0038653907946320613
1.48613e-05;-0.0038781124159164206
1.48615e-05;-0.00389083403720078
1.48618e-05;-0.0039035556584850533
1.48620e-05;-0.003916277279769413
1.48623e-05;-0.0039287633238252965
1.48625e-05;-0.003939873119834787
1.48628e-05;-0.003950982915844352
1.48630e-05;-0.003962092711853918
1.48633e-05;-0.003973202507863409
1.48635e-05;-0.003984312303872974
1.48638e-05;-0.00399542209988254
1.48640e-05;-0.0040065318958920305
1.48643e-05;-0.004017641691901596
1.48645e-05;-0.004028751487911162
1.48648e-05;-0.00403642063949926
1.48650e-05;-0.004042205642803745
1.48653e-05;-0.004047990646108231
1.48655e-05;-0.004053775649412676
1.48658e-05;-0.004059560652717162
1.48660e-05;-0.004065345656021647
1.48663e-05;-0.004071130659326094
1.48665e-05;-0.004076915662630579
1.48668e-05;-0.004082700665935065
1.48670e-05;-0.00408848566923951
1.48673e-05;-0.004089837424903698
1.48675e-05;-0.004088761467933243
1.48678e-05;-0.004087685510962796
1.48680e-05;-0.004086609553992341
1.48683e-05;-0.0040855335970218865
1.48685e-05;-0.004084457640051432
1.48688e-05;-0.004083381683080985
1.48690e-05;-0.00408230572611053
1.48693e-05;-0.004081229769140075
1.48695e-05;-0.004080153812169627
1.48698e-05;-0.0040758270024551305
1.48700e-05;-0.0040697199772145335
1.48703e-05;-0.004063612951973978
1.48705e-05;-0.004057505926733381
1.48708e-05;-0.004051398901492784
1.48710e-05;-0.004045291876252228
1.48713e-05;-0.004039184851011631
1.48715e-05;-0.004033077825771034
1.48718e-05;-0.004026970800530479
1.48720e-05;-0.004020642318510292
1.48723e-05;-0.004013020080457773
1.48725e-05;-0.004005397842405306
1.48728e-05;-0.003997775604352788
1.48730e-05;-0.0039901533663002685
1.48733e-05;-0.003982531128247802
1.48735e-05;-0.003974908890195283
1.48738e-05;-0.003967286652142765
1.48740e-05;-0.0039596644140902975
1.48743e-05;-0.003952042176037778
1.48745e-05;-0.003945127619839001
1.48748e-05;-0.003938600600795282
1.48750e-05;-0.003932073581751519
1.48753e-05;-0.003926546118060741
1.48755e-05;-0.003921566025813447
1.48758e-05;-0.0039165859335661204
1.48760e-05;-0.003913786990251275
1.48763e-05;-0.003912182476675645
1.48765e-05;-0.003910577963100004
1.48768e-05;-0.003912976513826561
1.48770e-05;-0.003917567202365967
1.48773e-05;-0.003922157890905343
1.48775e-05;-0.003926748579444751
1.48778e-05;-0.003931339267984158
1.48780e-05;-0.003935929956523534
1.48783e-05;-0.003940520645062942
1.48785e-05;-0.003950749790359323
1.48788e-05;-0.00396406663880759
1.48790e-05;-0.0039773834872559475
1.48793e-05;-0.003990700335704305
1.48795e-05;-0.004004017184152573
1.48798e-05;-0.00401733403260093
1.48800e-05;-0.0040306508810492876
1.48803e-05;-0.004048207510836065
1.48805e-05;-0.004068085908221344
1.48808e-05;-0.004087964305606624
1.48810e-05;-0.0041078427029917685
1.48813e-05;-0.004127721100377048
1.48815e-05;-0.004147599497762327
1.48818e-05;-0.004167477895147472
1.48820e-05;-0.004187598364737607
1.48823e-05;-0.004209133026189583
1.48825e-05;-0.004230667687641412
1.48828e-05;-0.004252202349093388
1.48830e-05;-0.004273737010545364
1.48833e-05;-0.004295271671997193
1.48835e-05;-0.004316806333449169
1.48838e-05;-0.004338340994901144
1.48840e-05;-0.004358322764969371
1.48843e-05;-0.004377454148517551
1.48845e-05;-0.0043965855320657315
1.48848e-05;-0.004411640041652782
1.48850e-05;-0.004424461994154726
1.48853e-05;-0.004437283946656671
1.48855e-05;-0.004450105899158615
1.48858e-05;-0.004462927851660472
1.48860e-05;-0.0044757498041624166
1.48863e-05;-0.004488571756664361
1.48865e-05;-0.004499764485912905
1.48868e-05;-0.004501439252254754
1.48870e-05;-0.004503114018596602
1.48873e-05;-0.004504788784938439
1.48875e-05;-0.004506463551280287
1.48878e-05;-0.004508138317622135
1.48880e-05;-0.004509813083963972
1.48883e-05;-0.00451148785030582
1.48885e-05;-0.004506351879562302
1.48888e-05;-0.004497486247445568
1.48890e-05;-0.004488620615328774
1.48893e-05;-0.004479754983211979
1.48895e-05;-0.0044708893510952445
1.48898e-05;-0.0044620237189784496
1.48900e-05;-0.004453158086861655
1.48903e-05;-0.004443240988769275
1.48905e-05;-0.0044271812002044195
1.48908e-05;-0.004411121411639564
1.48910e-05;-0.004395061623074818
1.48913e-05;-0.004379001834509962
1.48915e-05;-0.004362942045945107
1.48918e-05;-0.00434688225738036
1.48920e-05;-0.0043308224688155044
1.48923e-05;-0.00431328505139342
1.48925e-05;-0.004294938462334907
1.48928e-05;-0.00427659187327627
1.48930e-05;-0.004258245284217632
1.48933e-05;-0.004239898695159118
1.48935e-05;-0.004221552106100481
1.48938e-05;-0.004204604302786182
1.48940e-05;-0.004188422495442023
1.48943e-05;-0.004172240688097974
1.48945e-05;-0.004156058880753816
1.48948e-05;-0.004139877073409658
1.48950e-05;-0.004123695266065609
1.48953e-05;-0.004110396664982563
1.48955e-05;-0.0040986769507205785
1.48958e-05;-0.004086957236458674
1.48960e-05;-0.004075237522196691
