Time(s);Current(A)
9.25000e-06;-0.011021722847374637
9.25025e-06;-0.011006821462663456
9.25050e-06;-0.010991920077952175
9.25075e-06;-0.010977018693240893
9.25100e-06;-0.010962117308529713
9.25125e-06;-0.010947215923818431
9.25150e-06;-0.01093231453910715
9.25175e-06;-0.010917413154395969
9.25200e-06;-0.010902511769684688
9.25225e-06;-0.010887610384973405
9.25250e-06;-0.010882174220753825
9.25275e-06;-0.010881366577817117
9.25300e-06;-0.01088055893488041
9.25325e-06;-0.010879751291943707
9.25350e-06;-0.010878943649007
9.25375e-06;-0.010878136006070292
9.25400e-06;-0.01087732836313359
9.25425e-06;-0.010876520720196882
9.25450e-06;-0.010875713077260176
9.25475e-06;-0.010874905434323474
9.25500e-06;-0.010874097791386766
9.25525e-06;-0.010873290148450059
9.25550e-06;-0.01087355143675775
9.25575e-06;-0.010878973348434474
9.25600e-06;-0.010884395260111198
9.25625e-06;-0.010889817171787924
9.25650e-06;-0.010895239083464611
9.25675e-06;-0.010900660995141337
9.25700e-06;-0.01090608290681806
9.25725e-06;-0.010911504818494748
9.25750e-06;-0.010917967340837841
9.25775e-06;-0.01092493872492604
9.25800e-06;-0.010931910109014191
9.25825e-06;-0.01093888149310239
9.25850e-06;-0.010945852877190588
9.25875e-06;-0.010952824261278738
9.25900e-06;-0.010959795645366937
9.25925e-06;-0.010966746659525312
9.25950e-06;-0.010973580953346784
9.25975e-06;-0.010980373186087687
9.26000e-06;-0.010987692255486391
9.26025e-06;-0.010997426491810954
9.26050e-06;-0.011011792142524398
9.26075e-06;-0.011027492172793411
9.26100e-06;-0.011049634367004743
9.26125e-06;-0.01107294993629244
9.26150e-06;-0.011101930366508037
9.26175e-06;-0.011132064835281496
9.26200e-06;-0.011167770811469678
9.26225e-06;-0.011205050716309568
9.26250e-06;-0.011249929288534835
9.26275e-06;-0.011296364770079998
9.26300e-06;-0.01135031675248876
9.26325e-06;-0.011405567317923124
9.26350e-06;-0.011467087227573211
9.26375e-06;-0.011529736086249506
9.26400e-06;-0.011597835324227503
9.26425e-06;-0.011666863034686958
9.26450e-06;-0.011740985473360025
9.26475e-06;-0.011818597024490604
9.26500e-06;-0.01189923726760137
9.26525e-06;-0.011982439929695417
9.26550e-06;-0.012067739961195601
9.26575e-06;-0.012154687229502721
9.26600e-06;-0.012242957891372152
9.26625e-06;-0.012332466622795881
9.26650e-06;-0.012423136980358719
9.26675e-06;-0.012514612263395244
9.26700e-06;-0.012606376783784312
9.26725e-06;-0.01269790793726804
9.26750e-06;-0.012788686178143941
9.26775e-06;-0.012878198810122083
9.26800e-06;-0.012966014392625376
9.26825e-06;-0.013051851406923937
9.26850e-06;-0.01313543157076575
9.26875e-06;-0.01321630351873743
9.26900e-06;-0.01329391372561887
9.26925e-06;-0.013367706963349112
9.26950e-06;-0.013437127392156604
9.26975e-06;-0.01350160987601391
9.27000e-06;-0.01356052293488513
9.27025e-06;-0.01361317326147176
9.27050e-06;-0.013659042271875239
9.27075e-06;-0.013697929493517195
9.27100e-06;-0.013729777663815628
9.27125e-06;-0.013754531994544994
9.27150e-06;-0.013772138788607623
9.27175e-06;-0.013782539020283981
9.27200e-06;-0.01378562978164173
9.27225e-06;-0.013781271335085329
9.27250e-06;-0.013769432928849681
9.27275e-06;-0.013750282431646957
9.27300e-06;-0.01372407875115278
9.27325e-06;-0.013691081274461
9.27350e-06;-0.01365155122379744
9.27375e-06;-0.013604748826282593
9.27400e-06;-0.01354810547685362
9.27425e-06;-0.013491462127425033
9.27450e-06;-0.013432527294063927
9.27475e-06;-0.013362529555017115
9.27500e-06;-0.013291045221263193
9.27525e-06;-0.01321238385396602
9.27550e-06;-0.013132548152757677
9.27575e-06;-0.013047042961521522
9.27600e-06;-0.01296066275288935
9.27625e-06;-0.012870058104895308
9.27650e-06;-0.012778918027117697
9.27675e-06;-0.012685192982837407
9.27700e-06;-0.012591312367479695
9.27725e-06;-0.012496709605547834
9.27750e-06;-0.012402374652486779
9.27775e-06;-0.012308884900780396
9.27800e-06;-0.012216809917693994
9.27825e-06;-0.012126707515694723
9.27850e-06;-0.012039162520878536
9.27875e-06;-0.011954809141678525
9.27900e-06;-0.011874303960508665
9.27925e-06;-0.011798303559784635
9.27950e-06;-0.011727464521921988
9.27975e-06;-0.011662431923307593
9.28000e-06;-0.011603749746440288
9.28025e-06;-0.011552276562524822
9.28050e-06;-0.011509135372562197
9.28075e-06;-0.01146836066878298
9.28100e-06;-0.011439010969166748
9.28125e-06;-0.011412127634442782
9.28150e-06;-0.011397151501781626
9.28175e-06;-0.01138471332707178
9.28200e-06;-0.011384527993879432
9.28225e-06;-0.011386796081298957
9.28250e-06;-0.01140090887793344
9.28275e-06;-0.011417338620911502
9.28300e-06;-0.011444954197894094
9.28325e-06;-0.011474767106478328
9.28350e-06;-0.011515188368861515
9.28375e-06;-0.011557669769451643
9.28400e-06;-0.011610097176805759
9.28425e-06;-0.01166392791997468
9.28450e-06;-0.011725376712823081
9.28475e-06;-0.01179167415007278
9.28500e-06;-0.011862446132147118
9.28525e-06;-0.01193731627243403
9.28550e-06;-0.012015911562485387
9.28575e-06;-0.012097854122408097
9.28600e-06;-0.012182742541629096
9.28625e-06;-0.012270110376799353
9.28650e-06;-0.012359437790115687
9.28675e-06;-0.012450208167408473
9.28700e-06;-0.012541923383392592
9.28725e-06;-0.012634082254229372
9.28750e-06;-0.012726186654635548
9.28775e-06;-0.012817733642907172
9.28800e-06;-0.012908208137361543
9.28825e-06;-0.012997052242992397
9.28850e-06;-0.01308367595319158
9.28875e-06;-0.013167489823307912
9.28900e-06;-0.013247536599516576
9.28925e-06;-0.013322541128724521
9.28950e-06;-0.013395839969288906
9.28975e-06;-0.013460904026996692
9.29000e-06;-0.013524235069246607
9.29025e-06;-0.013579199399293976
9.29050e-06;-0.01363262823401834
9.29075e-06;-0.013678643951107516
9.29100e-06;-0.01372256780851274
9.29125e-06;-0.01375639251309997
9.29150e-06;-0.01379021721768743
9.29175e-06;-0.013821413114650773
9.29200e-06;-0.013839917562885681
9.29225e-06;-0.013858422011120716
9.29250e-06;-0.013874121669885327
9.29275e-06;-0.013876280268652706
9.29300e-06;-0.013878438867420097
9.29325e-06;-0.013880597466187491
9.29350e-06;-0.01388275606495487
9.29375e-06;-0.013873019528096168
9.29400e-06;-0.01385746623413947
9.29425e-06;-0.013841912940182879
9.29450e-06;-0.013826359646226182
9.29475e-06;-0.013808880726270031
9.29500e-06;-0.013782105202250018
9.29525e-06;-0.013755329678229823
9.29550e-06;-0.013727526282438342
9.29575e-06;-0.013694760491618442
9.29600e-06;-0.013661503776967279
9.29625e-06;-0.013625646363234333
9.29650e-06;-0.01358850274096886
9.29675e-06;-0.013550393776250065
9.29700e-06;-0.013511565949948604
9.29725e-06;-0.013472263720484063
9.29750e-06;-0.01343273003075498
9.29775e-06;-0.013393216475421934
9.29800e-06;-0.013354014893879695
9.29825e-06;-0.013315508467129127
9.29850e-06;-0.013278110824142007
9.29875e-06;-0.013242168461397632
9.29900e-06;-0.013207982967604462
9.29925e-06;-0.013175855000147708
9.29950e-06;-0.01314608444489663
9.29975e-06;-0.013118954248291358
9.30000e-06;-0.013094609803736496
9.30025e-06;-0.013072898480261585
9.30050e-06;-0.01305356632829551
9.30075e-06;-0.013036571227610698
9.30100e-06;-0.013022019056881952
9.30125e-06;-0.013010018621044632
9.30150e-06;-0.01300091830164279
9.30175e-06;-0.01299525586038911
9.30200e-06;-0.012990490969166813
9.30225e-06;-0.012990059301153477
9.30250e-06;-0.012990602795587069
9.30275e-06;-0.012995854213144456
9.30300e-06;-0.013001105630701879
9.30325e-06;-0.013007839717066346
9.30350e-06;-0.013021731883382761
9.30375e-06;-0.01303562404969927
9.30400e-06;-0.013049516216015779
9.30425e-06;-0.013063408382332194
9.30450e-06;-0.013078730588034528
9.30475e-06;-0.01310095678754224
9.30500e-06;-0.013123182987049804
9.30525e-06;-0.013145409186557516
9.30550e-06;-0.01316763538606523
9.30575e-06;-0.01319065461719602
9.30600e-06;-0.013217502473936176
9.30625e-06;-0.013244350330676334
9.30650e-06;-0.013271484985800129
9.30675e-06;-0.013300004256120861
9.30700e-06;-0.013328523526441595
9.30725e-06;-0.013357110341403987
9.30750e-06;-0.013386023250732728
9.30775e-06;-0.013414936160061666
9.30800e-06;-0.013443664759879462
9.30825e-06;-0.013471503543838822
9.30850e-06;-0.01349934232779837
9.30875e-06;-0.013526811054482241
9.30900e-06;-0.013552493205799663
9.30925e-06;-0.01357786900914082
9.30950e-06;-0.01360137740675907
9.30975e-06;-0.013623010633183379
9.31000e-06;-0.013643803120586454
9.31025e-06;-0.013660536658945857
9.31050e-06;-0.013676104892430856
9.31075e-06;-0.013686047226576197
9.31100e-06;-0.013694838398672395
9.31125e-06;-0.013698071950651447
9.31150e-06;-0.013700190296916642
9.31175e-06;-0.013696924614308742
9.31200e-06;-0.0136924409707711
9.31225e-06;-0.013682077213160743
9.31250e-06;-0.01367010367710351
9.31275e-06;-0.013650358396758362
9.31300e-06;-0.013630613116413082
9.31325e-06;-0.013608443287063954
9.31350e-06;-0.013574568135837265
9.31375e-06;-0.013540692984610348
9.31400e-06;-0.013506817833383429
9.31425e-06;-0.01347294268215674
9.31450e-06;-0.013439067530929823
9.31475e-06;-0.013403530424618603
9.31500e-06;-0.013359593970084453
9.31525e-06;-0.013313518315046449
9.31550e-06;-0.013265597145727755
9.31575e-06;-0.013216119299147146
9.31600e-06;-0.013165325332811288
9.31625e-06;-0.013113369631434868
9.31650e-06;-0.013060417964012515
9.31675e-06;-0.013006752906467155
9.31700e-06;-0.01295272264114806
9.31725e-06;-0.012898678408959125
9.31750e-06;-0.01284496823244478
9.31775e-06;-0.012791939065260634
9.31800e-06;-0.01273990709463313
9.31825e-06;-0.01268913489850258
9.31850e-06;-0.012639890019336767
9.31875e-06;-0.012592516654882193
9.31900e-06;-0.012547397898329185
9.31925e-06;-0.012504918226094522
9.31950e-06;-0.012465461343079255
9.31975e-06;-0.012429428852449005
9.32000e-06;-0.012397350156969418
9.32025e-06;-0.012369946172308072
9.32050e-06;-0.012347823705119488
9.32075e-06;-0.012331190800310417
9.32100e-06;-0.012320053470208201
9.32125e-06;-0.01231441126290816
9.32150e-06;-0.012314265561637552
9.32175e-06;-0.01231962678129518
9.32200e-06;-0.012330586162828536
9.32225e-06;-0.012347355430801734
9.32250e-06;-0.012370558638087205
9.32275e-06;-0.01240097051109978
9.32300e-06;-0.012433666144087306
9.32325e-06;-0.012477387392793488
9.32350e-06;-0.012521108641499374
9.32375e-06;-0.012567661757900991
9.32400e-06;-0.012627886663511076
9.32425e-06;-0.01268811156912116
9.32450e-06;-0.012748336474730837
9.32475e-06;-0.012811150076672693
9.32500e-06;-0.012886461476668973
9.32525e-06;-0.012961772876664744
9.32550e-06;-0.013037084276661025
9.32575e-06;-0.013113855983286035
9.32600e-06;-0.013197677808968585
9.32625e-06;-0.013281499634651701
9.32650e-06;-0.013365898599466953
9.32675e-06;-0.013453083896627704
9.32700e-06;-0.013540359164530115
9.32725e-06;-0.013628068796300965
9.32750e-06;-0.013715537121110274
9.32775e-06;-0.013801840455793454
9.32800e-06;-0.013887591421264375
9.32825e-06;-0.013970675639467835
9.32850e-06;-0.014052881084838618
9.32875e-06;-0.01413084396020483
9.32900e-06;-0.014207168664937098
9.32925e-06;-0.014275584552590925
9.32950e-06;-0.014344000440244753
9.32975e-06;-0.014409954943628117
9.33000e-06;-0.014464026290546859
9.33025e-06;-0.014518097637465602
9.33050e-06;-0.014569889672341975
9.33075e-06;-0.014610677565378975
9.33100e-06;-0.014651465458415978
9.33125e-06;-0.014688570091008716
9.33150e-06;-0.014707892550905165
9.33175e-06;-0.014727215010801615
9.33200e-06;-0.014746537470697933
9.33225e-06;-0.014765859930594382
9.33250e-06;-0.014785182390490832
9.33275e-06;-0.014800116366354732
9.33300e-06;-0.014793863466588798
9.33325e-06;-0.014787610566822823
9.33350e-06;-0.014781357667056847
9.33375e-06;-0.014775104767290916
9.33400e-06;-0.01476885186752494
9.33425e-06;-0.0147593377063616
9.33450e-06;-0.014734078714155805
9.33475e-06;-0.01470881972194984
9.33500e-06;-0.014683560729743873
9.33525e-06;-0.014658301737538078
9.33550e-06;-0.014633042745332111
9.33575e-06;-0.014600342057844091
9.33600e-06;-0.014564002358976973
9.33625e-06;-0.014527662660109608
9.33650e-06;-0.014491322961242245
9.33675e-06;-0.014454983262375126
9.33700e-06;-0.0144181184339436
9.33725e-06;-0.014378718366763205
9.33750e-06;-0.014339323173664074
9.33775e-06;-0.014299951511822204
9.33800e-06;-0.014260803418482475
9.33825e-06;-0.01422273467692275
9.33850e-06;-0.014185140558987733
9.33875e-06;-0.014149837845474359
9.33900e-06;-0.01411521902145717
9.33925e-06;-0.014083901902901862
9.33950e-06;-0.014053225686046165
9.33975e-06;-0.014026115144085749
9.34000e-06;-0.01400128096197234
9.34025e-06;-0.013976089293983859
9.34050e-06;-0.013949171743271217
9.34075e-06;-0.013921655959043294
9.34100e-06;-0.013891252002272397
9.34125e-06;-0.013860488402246329
9.34150e-06;-0.01382798850402148
9.34175e-06;-0.013795183216655953
9.34200e-06;-0.013760903560990793
9.34225e-06;-0.013725772539210881
9.34250e-06;-0.013686531262529458
9.34275e-06;-0.013646232443443483
9.34300e-06;-0.01360082798440442
9.34325e-06;-0.01355542352536505
9.34350e-06;-0.013508865118327874
9.34375e-06;-0.01345673564106573
9.34400e-06;-0.013404606163803233
9.34425e-06;-0.013352476686540736
9.34450e-06;-0.013300347209278592
9.34475e-06;-0.01324721872119853
9.34500e-06;-0.013189024908196711
9.34525e-06;-0.013129488725753598
9.34550e-06;-0.013069014979576462
9.34575e-06;-0.013007985678151259
9.34600e-06;-0.012946619332189832
9.34625e-06;-0.012884820209209152
9.34650e-06;-0.01282245627920474
9.34675e-06;-0.012759735346556018
9.34700e-06;-0.012697069402965012
9.34725e-06;-0.012634876452462215
9.34750e-06;-0.01257357324814366
9.34775e-06;-0.012513561603885415
9.34800e-06;-0.012455143870520054
9.34825e-06;-0.012398423359283168
9.34850e-06;-0.012343479589110463
9.34875e-06;-0.012290608372304378
9.34900e-06;-0.012240230694181996
9.34925e-06;-0.012192771849547377
9.34950e-06;-0.01214865590978418
9.34975e-06;-0.012108338373018711
9.35000e-06;-0.012072497475702947
9.35025e-06;-0.012042188351287397
9.35050e-06;-0.012018341495139064
9.35075e-06;-0.012001261011834971
9.35100e-06;-0.011990915208894485
9.35125e-06;-0.011987267125513507
9.35150e-06;-0.011990277034433151
9.35175e-06;-0.011999925928140087
9.35200e-06;-0.01201633564250973
9.35225e-06;-0.012039860691831113
9.35250e-06;-0.0120713826054876
9.35275e-06;-0.01211188535859634
9.35300e-06;-0.01215520850000383
9.35325e-06;-0.01221214801001153
9.35350e-06;-0.01226908752001923
9.35375e-06;-0.012329735610829805
9.35400e-06;-0.012408288116866034
9.35425e-06;-0.012486840622902262
9.35450e-06;-0.012565393128937959
9.35475e-06;-0.012643945634974188
9.35500e-06;-0.012735912189028826
9.35525e-06;-0.012834438252920735
9.35550e-06;-0.01293296431681331
9.35575e-06;-0.013031490380705887
9.35600e-06;-0.01313169596945393
9.35625e-06;-0.013240010026645144
9.35650e-06;-0.013348324083836358
9.35675e-06;-0.013457103842153434
9.35700e-06;-0.013568131928547505
9.35725e-06;-0.013679038003110811
9.35750e-06;-0.013789355024718416
9.35775e-06;-0.013899137255767972
9.35800e-06;-0.014006337606380374
9.35825e-06;-0.014112626423944103
9.35850e-06;-0.014214514510590208
9.35875e-06;-0.014315045365437904
9.35900e-06;-0.01440902372945849
9.35925e-06;-0.014500624740498513
9.35950e-06;-0.014580748284237832
9.35975e-06;-0.014660871827977151
9.36000e-06;-0.014737950163102833
9.36025e-06;-0.014800326734301138
9.36050e-06;-0.014862703305499443
9.36075e-06;-0.014922265854002456
9.36100e-06;-0.014968242765984357
9.36125e-06;-0.015014219677966258
9.36150e-06;-0.015055675573532963
9.36175e-06;-0.01507530474899732
9.36200e-06;-0.015094933924461677
9.36225e-06;-0.0151145630999259
9.36250e-06;-0.015134192275390257
9.36275e-06;-0.015153821450854614
9.36300e-06;-0.015168295020539357
9.36325e-06;-0.015157878177542258
9.36350e-06;-0.015147461334545162
9.36375e-06;-0.015137044491548134
9.36400e-06;-0.015126627648551036
9.36425e-06;-0.01511621080555394
9.36450e-06;-0.01510210135589173
9.36475e-06;-0.015070164611494394
9.36500e-06;-0.015038227867097057
9.36525e-06;-0.015006291122699937
9.36550e-06;-0.0149743543783026
9.36575e-06;-0.014942417633905263
9.36600e-06;-0.014902515621303472
9.36625e-06;-0.014858718568584095
9.36650e-06;-0.014814921515864719
9.36675e-06;-0.014771124463145343
9.36700e-06;-0.014727327410426263
9.36725e-06;-0.01468307998100102
9.36750e-06;-0.014636658207269311
9.36775e-06;-0.01459033375535181
9.36800e-06;-0.014544479157068042
9.36825e-06;-0.014499028628088753
9.36850e-06;-0.014455528878935196
9.36875e-06;-0.014414630272532128
9.36900e-06;-0.014386289553464994
9.36925e-06;-0.014357948834398053
9.36950e-06;-0.01432960811533092
9.36975e-06;-0.014301267396263787
9.37000e-06;-0.014272926677196845
9.37025e-06;-0.014244585958129712
9.37050e-06;-0.01421624523906258
9.37075e-06;-0.014187904519995638
9.37100e-06;-0.014159563800928504
9.37125e-06;-0.01413122308186137
9.37150e-06;-0.014102882362794429
9.37175e-06;-0.014074541643727297
9.37200e-06;-0.014048576316943078
9.37225e-06;-0.01403407899154572
9.37250e-06;-0.014019581666148266
9.37275e-06;-0.014005084340750812
9.37300e-06;-0.013990587015353455
9.37325e-06;-0.013976089689956001
9.37350e-06;-0.013961592364558545
9.37375e-06;-0.01394709503916119
9.37400e-06;-0.013932597713763734
9.37425e-06;-0.01391810038836628
9.37450e-06;-0.013903603062968922
9.37475e-06;-0.013889105737571468
9.37500e-06;-0.013874608412174014
9.37525e-06;-0.013860919915419058
9.37550e-06;-0.013851136309684616
9.37575e-06;-0.01384135270395011
9.37600e-06;-0.013831569098215602
9.37625e-06;-0.013821785492481161
9.37650e-06;-0.013812001886746654
9.37675e-06;-0.013802218281012146
9.37700e-06;-0.013792434675277705
9.37725e-06;-0.013784759227661748
9.37750e-06;-0.013778114675709068
9.37775e-06;-0.013771470123756433
9.37800e-06;-0.013764825571803753
9.37825e-06;-0.013758181019851073
9.37850e-06;-0.013751536467898439
9.37875e-06;-0.013744891915945759
9.37900e-06;-0.013738581603431017
9.37925e-06;-0.013733985941037577
9.37950e-06;-0.013729991818791904
9.37975e-06;-0.01372694354730666
9.38000e-06;-0.01372580593678177
9.38025e-06;-0.013725550979201705
9.38050e-06;-0.013729557324174692
9.38075e-06;-0.013739166669853987
9.38100e-06;-0.013752305547559022
9.38125e-06;-0.01376516588475151
9.38150e-06;-0.013783993751401232
9.38175e-06;-0.013815489003066315
9.38200e-06;-0.013848678000658447
9.38225e-06;-0.013883058083941002
9.38250e-06;-0.013917438167223791
9.38275e-06;-0.013963114394322363
9.38300e-06;-0.014016734360232912
9.38325e-06;-0.014070354326143824
9.38350e-06;-0.014123974292054736
9.38375e-06;-0.014177594257965647
9.38400e-06;-0.014232900580918903
9.38425e-06;-0.014305876985889244
9.38450e-06;-0.014378853390859586
9.38475e-06;-0.014451829795829435
9.38500e-06;-0.014524806200799777
9.38525e-06;-0.01459778260577012
9.38550e-06;-0.014678458464469054
9.38575e-06;-0.01476454877702334
9.38600e-06;-0.014850639089577627
9.38625e-06;-0.01493672940213133
9.38650e-06;-0.015022819714685616
9.38675e-06;-0.015108910027239901
9.38700e-06;-0.015194806033053553
9.38725e-06;-0.015278666042962229
9.38750e-06;-0.015362526052870905
9.38775e-06;-0.015446386062779014
9.38800e-06;-0.01553024607268769
9.38825e-06;-0.015614106082596366
9.38850e-06;-0.015697966092504474
9.38875e-06;-0.015775429644574075
9.38900e-06;-0.0158483950430049
9.38925e-06;-0.015916655780531933
9.38950e-06;-0.015981608079530765
9.38975e-06;-0.016040543399382705
9.39000e-06;-0.016095247424770098
9.39025e-06;-0.016139087277765227
9.39050e-06;-0.016175287165358813
9.39075e-06;-0.016211487052952157
9.39100e-06;-0.016234576881292526
9.39125e-06;-0.016248447378837162
9.39150e-06;-0.01626231787638171
9.39175e-06;-0.01626275242230926
9.39200e-06;-0.016253738461550395
9.39225e-06;-0.01624472450079153
9.39250e-06;-0.01621745808883548
9.39275e-06;-0.016177356083830544
9.39300e-06;-0.01613725407882561
9.39325e-06;-0.016097152073820942
9.39350e-06;-0.016057050068816005
9.39375e-06;-0.01599761324168921
9.39400e-06;-0.01592457967044642
9.39425e-06;-0.015851546099203133
9.39450e-06;-0.015778512527959847
9.39475e-06;-0.015705478956717055
9.39500e-06;-0.015620400418288605
9.39525e-06;-0.015526851549195345
9.39550e-06;-0.01543330268010272
9.39575e-06;-0.01533469774044345
9.39600e-06;-0.015232537241943579
9.39625e-06;-0.015127367707071893
9.39650e-06;-0.015020082140443914
9.39675e-06;-0.014911461290003166
9.39700e-06;-0.014801507191376403
9.39725e-06;-0.014691249605080045
9.39750e-06;-0.014581362882743878
