Time(s);Current(A)
3.00000e-06;-0.0031533229787563148
3.00025e-06;-0.003151126134943656
3.00050e-06;-0.003156563528749469
3.00075e-06;-0.0031620009225552725
3.00100e-06;-0.0031674383163610856
3.00125e-06;-0.0031728757101668987
3.00150e-06;-0.0031783131039727023
3.00175e-06;-0.0031837504977785154
3.00200e-06;-0.0031901557251637624
3.00225e-06;-0.0032017623637939953
3.00250e-06;-0.003213369002424208
3.00275e-06;-0.0032249756410544406
3.00300e-06;-0.003236582279684673
3.00325e-06;-0.003248188918314886
3.00350e-06;-0.0032597955569451183
3.00375e-06;-0.003271402195575351
3.00400e-06;-0.0032841762090308987
3.00425e-06;-0.003297559997397987
3.00450e-06;-0.003310943785765098
3.00475e-06;-0.003324327574132209
3.00500e-06;-0.0033377113624992972
3.00525e-06;-0.003351095150866408
3.00550e-06;-0.0033644789392335193
3.00575e-06;-0.0033773228781645128
3.00600e-06;-0.003387265513620066
3.00625e-06;-0.003397208149075619
3.00650e-06;-0.0034071507845311725
3.00675e-06;-0.003417093419986709
3.00700e-06;-0.0034270360554422624
3.00725e-06;-0.0034369786908978153
3.00750e-06;-0.003446921326353352
3.00775e-06;-0.003456863961808905
3.00800e-06;-0.0034656708328279586
3.00825e-06;-0.003473884440531896
3.00850e-06;-0.0034820980482358193
3.00875e-06;-0.003490311655939757
3.00900e-06;-0.0034985252636436943
3.00925e-06;-0.0035067388713476175
3.00950e-06;-0.003514952479051555
3.00975e-06;-0.0035231660867554924
3.01000e-06;-0.003531528958165284
3.01025e-06;-0.003540694014924686
3.01050e-06;-0.003549859071684088
3.01075e-06;-0.0035590241284434903
3.01100e-06;-0.0035681891852028767
3.01125e-06;-0.003577354241962279
3.01150e-06;-0.0035865192987216813
3.01175e-06;-0.003595684355481068
3.01200e-06;-0.00360484941224047
3.01225e-06;-0.003614014468999872
3.01250e-06;-0.003623179525759274
3.01275e-06;-0.003632411061258319
3.01300e-06;-0.003641677321737497
3.01325e-06;-0.0036509435822166757
3.01350e-06;-0.0036602098426958387
3.01375e-06;-0.003669476103175017
3.01400e-06;-0.0036787423636541958
3.01425e-06;-0.0036880086241333583
3.01450e-06;-0.003697274884612537
3.01475e-06;-0.0037065411450917154
3.01500e-06;-0.003715807405570894
3.01525e-06;-0.0037247287196168744
3.01550e-06;-0.0037317961940204294
3.01575e-06;-0.0037388636684239844
3.01600e-06;-0.0037459311428275277
3.01625e-06;-0.0037529986172310827
3.01650e-06;-0.0037600660916346377
3.01675e-06;-0.0037671335660381926
3.01700e-06;-0.003773067840323721
3.01725e-06;-0.003772911976838555
3.01750e-06;-0.0037727561133533887
3.01775e-06;-0.003772600249868223
3.01800e-06;-0.003772444386383057
3.01825e-06;-0.0037722885228978907
3.01850e-06;-0.003772132659412725
3.01875e-06;-0.003770335399731894
3.01900e-06;-0.0037597168129006333
3.01925e-06;-0.003749098226069373
3.01950e-06;-0.0037384796392381306
3.01975e-06;-0.0037278610524068704
3.02000e-06;-0.0037172424655756097
3.02025e-06;-0.0037007820315624906
3.02050e-06;-0.003683885534654821
3.02075e-06;-0.0036669890377471516
3.02100e-06;-0.003650092540839482
3.02125e-06;-0.003633196043931841
3.02150e-06;-0.0036081435646874668
3.02175e-06;-0.0035815915851351516
3.02200e-06;-0.0035584627131077322
3.02225e-06;-0.003533764070425044
3.02250e-06;-0.0035007403802894406
3.02275e-06;-0.0034703338562925286
3.02300e-06;-0.003440865956319335
3.02325e-06;-0.003411398056346141
3.02350e-06;-0.003381055083000711
3.02375e-06;-0.003350398272150858
3.02400e-06;-0.0033184150559413816
3.02425e-06;-0.0032859561359095957
3.02450e-06;-0.0032543348734227705
3.02475e-06;-0.0032230140295771647
3.02500e-06;-0.0031928561039189013
3.02525e-06;-0.0031631152488211306
3.02550e-06;-0.0031341955997289707
3.02575e-06;-0.00310626674620426
3.02600e-06;-0.003079270773764301
3.02625e-06;-0.003052519813377057
3.02650e-06;-0.0030284048694291456
3.02675e-06;-0.00300523531000254
3.02700e-06;-0.002985031826023422
3.02725e-06;-0.0029658920993771774
3.02750e-06;-0.0029493761362008983
3.02775e-06;-0.0029338011631243163
3.02800e-06;-0.0029212099737493565
3.02825e-06;-0.0029096888926196467
3.02850e-06;-0.002898167811489937
3.02875e-06;-0.0028913097135428592
3.02900e-06;-0.0028861239542269683
3.02925e-06;-0.0028809381949110773
3.02950e-06;-0.0028815844206073003
3.02975e-06;-0.002884322237340916
3.03000e-06;-0.002887060054074536
3.03025e-06;-0.002889797870808156
3.03050e-06;-0.0028925356875417717
3.03075e-06;-0.0028952735042753917
3.03100e-06;-0.0029046248398250326
3.03125e-06;-0.002916348056758525
3.03150e-06;-0.002928071273692037
3.03175e-06;-0.0029397944906255488
3.03200e-06;-0.0029515177075590607
3.03225e-06;-0.002963240924492553
3.03250e-06;-0.0029793570341858575
3.03275e-06;-0.0029970486169137505
3.03300e-06;-0.0030147401996416137
3.03325e-06;-0.0030324317823695068
3.03350e-06;-0.0030501233650974
3.03375e-06;-0.003067814947825293
3.03400e-06;-0.0030858516810158393
3.03425e-06;-0.0031050055834662697
3.03450e-06;-0.0031241594859167006
3.03475e-06;-0.003143313388367099
3.03500e-06;-0.0031624672908175293
3.03525e-06;-0.00318162119326796
3.03550e-06;-0.0032007750957183585
3.03575e-06;-0.0032182711540513506
3.03600e-06;-0.0032351726409150434
3.03625e-06;-0.0032520741277787357
3.03650e-06;-0.0032644705272592126
3.03675e-06;-0.0032752512160727177
3.03700e-06;-0.003286031904886223
3.03725e-06;-0.0032968125936997097
3.03750e-06;-0.003307593282513215
3.03775e-06;-0.00331837397132672
3.03800e-06;-0.0033291546601402254
3.03825e-06;-0.003339935348953712
3.03850e-06;-0.0033485810988798234
3.03875e-06;-0.0033503165637139387
3.03900e-06;-0.0033520520285480514
3.03925e-06;-0.003353787493382167
3.03950e-06;-0.003355522958216283
3.03975e-06;-0.0033572584230503956
3.04000e-06;-0.003358993887884511
3.04025e-06;-0.0033607293527186267
3.04050e-06;-0.0033624648175527424
3.04075e-06;-0.003358806274247171
3.04100e-06;-0.003353213216525317
3.04125e-06;-0.0033476201588034634
3.04150e-06;-0.0033420271010816192
3.04175e-06;-0.003336434043359765
3.04200e-06;-0.0033308409856379114
3.04225e-06;-0.0033252479279160577
3.04250e-06;-0.003319654870194213
3.04275e-06;-0.003313167851746978
3.04300e-06;-0.0033037872968570458
3.04325e-06;-0.0032944067419671294
3.04350e-06;-0.003285026187077197
3.04375e-06;-0.003275645632187265
3.04400e-06;-0.003266265077297348
3.04425e-06;-0.003256884522407416
3.04450e-06;-0.0032475039675174838
3.04475e-06;-0.0032381234126275514
3.04500e-06;-0.0032291268214945917
3.04525e-06;-0.003220267935645693
3.04550e-06;-0.003211409049796795
3.04575e-06;-0.003202550163947911
3.04600e-06;-0.003193691278099013
3.04625e-06;-0.003184832392250114
3.04650e-06;-0.003175973506401216
3.04675e-06;-0.003167114620552332
3.04700e-06;-0.003162867178297825
3.04725e-06;-0.003160273590446673
3.04750e-06;-0.0031576800025955244
3.04775e-06;-0.003155086414744372
3.04800e-06;-0.00315249282689322
3.04825e-06;-0.003149899239042072
3.04850e-06;-0.0031473056511909193
3.04875e-06;-0.003144712063339767
3.04900e-06;-0.0031491623691441823
3.04925e-06;-0.003156138906550615
3.04950e-06;-0.0031631154439570597
3.04975e-06;-0.0031700919813635042
3.05000e-06;-0.003177068518769937
3.05025e-06;-0.0031840450561763816
3.05050e-06;-0.003191021593582826
3.05075e-06;-0.0032040148898005577
3.05100e-06;-0.0032191660445826265
3.05125e-06;-0.0032343171993647214
3.05150e-06;-0.0032494683541468158
3.05175e-06;-0.0032646195089288846
3.05200e-06;-0.0032797706637109794
3.05225e-06;-0.003294921818493074
3.05250e-06;-0.003313727229017102
3.05275e-06;-0.003333843206791168
3.05300e-06;-0.003353959184565234
3.05325e-06;-0.0033740751623393
3.05350e-06;-0.003394191140113332
3.05375e-06;-0.003414307117887398
3.05400e-06;-0.003434423095661464
3.05425e-06;-0.003454448156082588
3.05450e-06;-0.0034741789388397885
3.05475e-06;-0.003493909721596989
3.05500e-06;-0.0035136405043541897
3.05525e-06;-0.003533371287111357
3.05550e-06;-0.0035531020698685574
3.05575e-06;-0.003572832852625758
3.05600e-06;-0.003592563635382925
3.05625e-06;-0.0036093386134802446
3.05650e-06;-0.0036250535177736625
3.05675e-06;-0.003640768422067054
3.05700e-06;-0.0036530748872997563
3.05725e-06;-0.003664158945311328
3.05750e-06;-0.0036752430033228996
3.05775e-06;-0.003681367150716317
3.05800e-06;-0.0036857124690188345
3.05825e-06;-0.0036900577873213514
3.05850e-06;-0.003689354196747736
3.05875e-06;-0.003686839858626916
3.05900e-06;-0.0036843255205060966
3.05925e-06;-0.0036764592909929172
3.05950e-06;-0.0036666736518707996
3.05975e-06;-0.003656888012748666
3.06000e-06;-0.0036402478397594834
3.06025e-06;-0.0036211493474202624
3.06050e-06;-0.003602050855081009
3.06075e-06;-0.0035829523627417554
3.06100e-06;-0.0035638538704025344
3.06125e-06;-0.0035376573614139925
3.06150e-06;-0.0035089152100791104
3.06175e-06;-0.0034801730587442287
3.06200e-06;-0.0034514309074093956
3.06225e-06;-0.003422688756074514
3.06250e-06;-0.0033898679253962518
3.06275e-06;-0.0033555843116102086
3.06300e-06;-0.003321300697824107
3.06325e-06;-0.003285445447920207
3.06350e-06;-0.003249026544301156
3.06375e-06;-0.0032118807739725795
3.06400e-06;-0.0031744743191784706
3.06425e-06;-0.0031369689837781062
3.06450e-06;-0.003099428185702673
3.06475e-06;-0.003062213419435495
3.06500e-06;-0.0030255369809849934
3.06525e-06;-0.002989564685402036
3.06550e-06;-0.0029544784312844517
3.06575e-06;-0.0029204894996014597
3.06600e-06;-0.0028884374446119187
3.06625e-06;-0.002856970615952795
3.06650e-06;-0.002829650860484363
3.06675e-06;-0.002803818416986288
3.06700e-06;-0.0027779859734882568
3.06725e-06;-0.0027521535299901818
3.06750e-06;-0.002729650852349429
3.06775e-06;-0.0027083423664652096
3.06800e-06;-0.0026870338805810266
3.06825e-06;-0.0026657253946968072
3.06850e-06;-0.002647443396150608
3.06875e-06;-0.0026302468211402696
3.06900e-06;-0.0026130502461299025
3.06925e-06;-0.0025958536711195353
3.06950e-06;-0.002578657096109197
3.06975e-06;-0.002562165512270407
3.07000e-06;-0.0025479558157553693
3.07025e-06;-0.0025337461192403315
3.07050e-06;-0.0025195364227253176
3.07075e-06;-0.00250532672621028
3.07100e-06;-0.002491117029695242
3.07125e-06;-0.0024787771203429554
3.07150e-06;-0.0024671077940021757
3.07175e-06;-0.002455438467661396
3.07200e-06;-0.0024437691413206164
3.07225e-06;-0.0024320998149798567
3.07250e-06;-0.002420430488639077
3.07275e-06;-0.0024087611622982973
3.07300e-06;-0.002397091835957537
3.07325e-06;-0.002387109627829034
3.07350e-06;-0.0023777324900711963
3.07375e-06;-0.002368355352313374
3.07400e-06;-0.0023589782145555364
3.07425e-06;-0.0023496010767976986
3.07450e-06;-0.002340223939039861
3.07475e-06;-0.002330846801282039
3.07500e-06;-0.0023214696635242013
3.07525e-06;-0.002313354867232145
3.07550e-06;-0.0023056927988005823
3.07575e-06;-0.002298030730369006
3.07600e-06;-0.002290892683451846
3.07625e-06;-0.002283942572323468
3.07650e-06;-0.0022775743487141917
3.07675e-06;-0.0022714148140363286
3.07700e-06;-0.002266059776769297
3.07725e-06;-0.002260993265548075
3.07750e-06;-0.0022571054385725976
3.07775e-06;-0.002253640336518419
3.07800e-06;-0.0022517562673813594
3.07825e-06;-0.0022504392220404224
3.07850e-06;-0.002249122176699486
3.07875e-06;-0.002249686204936757
3.07900e-06;-0.0022509248639609944
3.07925e-06;-0.002252163522985234
3.07950e-06;-0.0022563862227660833
3.07975e-06;-0.002261679122983152
3.08000e-06;-0.00226697202320023
3.08025e-06;-0.0022722649234173074
3.08050e-06;-0.002277557823634376
3.08075e-06;-0.0022828507238514535
3.08100e-06;-0.0022914715191343945
3.08125e-06;-0.0023012858352308
3.08150e-06;-0.0023111001513271886
3.08175e-06;-0.0023209144674235936
3.08200e-06;-0.0023307287835199987
3.08225e-06;-0.0023405430996163872
3.08250e-06;-0.0023525032848139647
3.08275e-06;-0.0023652330674250946
3.08300e-06;-0.002377962850036225
3.08325e-06;-0.002390692632647333
3.08350e-06;-0.002403422415258463
3.08375e-06;-0.002416152197869593
3.08400e-06;-0.002428963169974434
3.08425e-06;-0.0024420369329964916
3.08450e-06;-0.002455110696018549
3.08475e-06;-0.0024681844590405846
3.08500e-06;-0.0024812582220626427
3.08525e-06;-0.0024943319850847002
3.08550e-06;-0.002507405748106758
3.08575e-06;-0.002518476413178951
3.08600e-06;-0.0025288286844775184
3.08625e-06;-0.0025391809557760857
3.08650e-06;-0.0025495332270746357
3.08675e-06;-0.002559885498373203
3.08700e-06;-0.0025702377696717707
3.08725e-06;-0.0025787061112221414
3.08750e-06;-0.002586498797644794
3.08775e-06;-0.00259429148406746
3.08800e-06;-0.002602084170490126
3.08825e-06;-0.0026098768569127787
3.08850e-06;-0.0026176695433354443
3.08875e-06;-0.0026246951930572913
3.08900e-06;-0.002631445751693299
3.08925e-06;-0.0026381963103293176
3.08950e-06;-0.0026449468689653363
3.08975e-06;-0.002651697427601355
3.09000e-06;-0.002658447986237362
3.09025e-06;-0.002665198544873381
3.09050e-06;-0.0026719491035093997
3.09075e-06;-0.002678699662145407
3.09100e-06;-0.002685450220781426
3.09125e-06;-0.0026921490747263957
3.09150e-06;-0.0026986805729882555
3.09175e-06;-0.0027052120712501046
3.09200e-06;-0.0027117435695119645
3.09225e-06;-0.0027182750677738243
3.09250e-06;-0.0027248065660356734
3.09275e-06;-0.0027313380642975333
3.09300e-06;-0.002737869562559393
3.09325e-06;-0.0027444010608212418
3.09350e-06;-0.0027509325590831016
3.09375e-06;-0.002757464057344962
3.09400e-06;-0.0027635617352801817
3.09425e-06;-0.002769503827303285
3.09450e-06;-0.0027754459193263985
3.09475e-06;-0.0027813880113495117
3.09500e-06;-0.0027873301033726153
3.09525e-06;-0.002793004844902165
3.09550e-06;-0.002797814237010323
3.09575e-06;-0.002802623629118481
3.09600e-06;-0.0028074330212266305
3.09625e-06;-0.0028122424133347887
3.09650e-06;-0.0028170518054429464
3.09675e-06;-0.0028207504018703607
3.09700e-06;-0.002824050621023727
3.09725e-06;-0.0028273508401770934
3.09750e-06;-0.0028287282856699755
3.09775e-06;-0.002829416145001544
3.09800e-06;-0.0028301040043331124
3.09825e-06;-0.0028274970430478366
3.09850e-06;-0.0028237084228143064
3.09875e-06;-0.0028199198025807694
3.09900e-06;-0.0028161311823472327
3.09925e-06;-0.002812342562113702
3.09950e-06;-0.002808553941880165
3.09975e-06;-0.00280020304701973
3.10000e-06;-0.0027902159317806235
3.10025e-06;-0.0027802288165415336
3.10050e-06;-0.0027702417013024273
3.10075e-06;-0.002760254586063321
3.10100e-06;-0.0027502674708242314
3.10125e-06;-0.0027366051762096237
3.10150e-06;-0.0027216248102640917
3.10175e-06;-0.002706644444318585
3.10200e-06;-0.002691664078373053
3.10225e-06;-0.0026766837124275215
3.10250e-06;-0.002661017129895813
3.10275e-06;-0.0026431294288694228
3.10300e-06;-0.002625241727843002
3.10325e-06;-0.002607354026816581
3.10350e-06;-0.0025894663257901907
3.10375e-06;-0.00257157862476377
3.10400e-06;-0.002553123703949605
3.10425e-06;-0.0025344653546591146
3.10450e-06;-0.0025159596105330624
3.10475e-06;-0.002497508596930746
3.10500e-06;-0.0024795050309244586
3.10525e-06;-0.002461661938132753
3.10550e-06;-0.0024445073251254073
3.10575e-06;-0.0024275996294445506
3.10600e-06;-0.002411401063657388
3.10625e-06;-0.0023960451350816033
3.10650e-06;-0.002381575227427424
3.10675e-06;-0.0023681093243707405
3.10700e-06;-0.0023558347046092974
3.10725e-06;-0.0023451154822281208
3.10750e-06;-0.002336356062997801
3.10775e-06;-0.002329751135451657
3.10800e-06;-0.0023253133556472958
3.10825e-06;-0.0023237896360710037
3.10850e-06;-0.0023231065109625224
3.10875e-06;-0.002325502651319077
3.10900e-06;-0.002329003143631094
3.10925e-06;-0.0023367227988649016
3.10950e-06;-0.002345955620428771
3.10975e-06;-0.002355188441992656
3.11000e-06;-0.002370870735389983
3.11025e-06;-0.0023888660761395737
3.11050e-06;-0.002406861416889195
3.11075e-06;-0.0024248567576388167
3.11100e-06;-0.002442852098388438
3.11125e-06;-0.0024675119919989642
3.11150e-06;-0.0024945620699141557
3.11175e-06;-0.002521612147829347
3.11200e-06;-0.002548662225744493
3.11225e-06;-0.002575712303659685
3.11250e-06;-0.002606588472665537
3.11275e-06;-0.002638836836185245
3.11300e-06;-0.002671085199704899
3.11325e-06;-0.002704788210618036
3.11350e-06;-0.002739012918251293
3.11375e-06;-0.002773914623865375
3.11400e-06;-0.0028090591289563864
3.11425e-06;-0.0028442712395918756
3.11450e-06;-0.0028795075963717488
3.11475e-06;-0.002914193854804984
3.11500e-06;-0.002948682825218788
3.11525e-06;-0.002982082138206587
3.11550e-06;-0.003015090654972662
3.11575e-06;-0.003046443906962861
3.11600e-06;-0.003077203512541939
3.11625e-06;-0.0031056277707005326
3.11650e-06;-0.0031332144766832177
3.11675e-06;-0.0031577768413504894
3.11700e-06;-0.003181254552133971
3.11725e-06;-0.0032000945282786397
3.11750e-06;-0.0032172712209631313
3.11775e-06;-0.003234447913647623
3.11800e-06;-0.0032456023147123154
3.11825e-06;-0.0032545968729175275
3.11850e-06;-0.0032635914311227397
3.11875e-06;-0.003266320352022084
3.11900e-06;-0.0032668021562340184
3.11925e-06;-0.0032672839604459534
3.11950e-06;-0.0032595309923397786
3.11975e-06;-0.003248824694286529
3.12000e-06;-0.0032381183962332605
3.12025e-06;-0.003227412098179992
3.12050e-06;-0.003216705800126742
3.12075e-06;-0.0031970317337050107
3.12100e-06;-0.00317414145463546
3.12125e-06;-0.0031512511755659093
3.12150e-06;-0.0031283608964963973
3.12175e-06;-0.003105470617426847
3.12200e-06;-0.0030769402022867882
3.12225e-06;-0.0030463870010733612
3.12250e-06;-0.003015833799859882
3.12275e-06;-0.0029827481754943056
3.12300e-06;-0.002948754319444289
3.12325e-06;-0.002913316155336301
3.12350e-06;-0.002877360002621512
3.12375e-06;-0.002840678011418435
3.12400e-06;-0.002803459798488161
3.12425e-06;-0.0027660243888068853
3.12450e-06;-0.0027285851297158253
3.12475e-06;-0.0026913554039943895
3.12500e-06;-0.0026545487173426823
3.12525e-06;-0.002618380974643818
3.12550e-06;-0.002583077681107313
3.12575e-06;-0.0025488765590459695
3.12600e-06;-0.002516020473248069
3.12625e-06;-0.002484752964566932
3.12650e-06;-0.0024553179165962735
3.12675e-06;-0.0024279591644803386
3.12700e-06;-0.0024029182540904665
3.12725e-06;-0.002380408513079999
3.12750e-06;-0.0023605717421588852
3.12775e-06;-0.002343481174953409
3.12800e-06;-0.00232918173613628
3.12825e-06;-0.002317713485589349
3.12850e-06;-0.002309117094203638
3.12875e-06;-0.002304522426432542
3.12900e-06;-0.002301090037083799
3.12925e-06;-0.0023020193621025925
3.12950e-06;-0.0023045129782961276
3.12975e-06;-0.002312215506009828
3.13000e-06;-0.0023217861648376385
3.13025e-06;-0.0023313568236654654
3.13050e-06;-0.0023466693553399905
3.13075e-06;-0.0023640411601038346
3.13100e-06;-0.0023814129648677077
3.13125e-06;-0.0024038703517300824
3.13150e-06;-0.002428151638674987
3.13175e-06;-0.0024524329256199323
3.13200e-06;-0.002480235556026152
3.13225e-06;-0.0025093010858420048
3.13250e-06;-0.0025406116509820134
3.13275e-06;-0.0025727273786450536
3.13300e-06;-0.0026065922819543787
3.13325e-06;-0.0026410845119971354
3.13350e-06;-0.0026767728203610265
3.13375e-06;-0.002712890091881224
3.13400e-06;-0.0027495766552106645
3.13425e-06;-0.0027864673901290176
3.13450e-06;-0.002823289062856246
3.13475e-06;-0.002860085967025269
3.13500e-06;-0.002896173055819794
3.13525e-06;-0.0029320055754628025
3.13550e-06;-0.0029664513674356203
3.13575e-06;-0.003000399821510124
3.13600e-06;-0.0030322388797749547
3.13625e-06;-0.003063321421456781
3.13650e-06;-0.0030907198751093895
3.13675e-06;-0.003116797062419008
3.13700e-06;-0.0031428742497286704
3.13725e-06;-0.0031639074978988676
3.13750e-06;-0.0031831317808738335
3.13775e-06;-0.0032023560638488316
3.13800e-06;-0.0032165092740691456
3.13825e-06;-0.0032288437878575677
3.13850e-06;-0.0032411783016459686
3.13875e-06;-0.0032454827505345855
3.13900e-06;-0.003246907286022675
3.13925e-06;-0.003248331821510762
3.13950e-06;-0.003249756356998851
3.13975e-06;-0.0032511808924869405
3.14000e-06;-0.0032526054279750274
3.14025e-06;-0.003244581296035679
3.14050e-06;-0.0032331684811552617
3.14075e-06;-0.0032217556662748445
3.14100e-06;-0.0032103428513944464
3.14125e-06;-0.003198930036514029
3.14150e-06;-0.003187517221633612
3.14175e-06;-0.0031693040996121085
3.14200e-06;-0.0031486521061856953
3.14225e-06;-0.0031280001127592825
3.14250e-06;-0.0031073481193328698
3.14275e-06;-0.003086696125906492
3.14300e-06;-0.0030648939268494656
3.14325e-06;-0.0030393687880513848
3.14350e-06;-0.003013843649253347
3.14375e-06;-0.0029883185104552655
3.14400e-06;-0.0029627933716571842
3.14425e-06;-0.0029372682328591463
