Time(s);Current(A)
8.75000e-06;-0.007656669096406683
8.75025e-06;-0.007755922929959747
8.75050e-06;-0.00785514262220984
8.75075e-06;-0.007954362314459933
8.75100e-06;-0.008052529463254469
8.75125e-06;-0.00814689944841768
8.75150e-06;-0.00824000613888245
8.75175e-06;-0.008328555357954315
8.75200e-06;-0.008415316155986945
8.75225e-06;-0.008495625032918612
8.75250e-06;-0.00857360520293503
8.75275e-06;-0.00864318431248408
8.75300e-06;-0.008709328607968397
8.75325e-06;-0.008763081442566621
8.75350e-06;-0.00881683427716448
8.75375e-06;-0.008866234505677308
8.75400e-06;-0.008899932239953761
8.75425e-06;-0.008933629974229987
8.75450e-06;-0.008960100439703843
8.75475e-06;-0.008960497756242214
8.75500e-06;-0.008960895072780584
8.75525e-06;-0.008961292389318955
8.75550e-06;-0.008961689705857326
8.75575e-06;-0.008962087022395695
8.75600e-06;-0.008962484338934066
8.75625e-06;-0.0089335682086792
8.75650e-06;-0.008893083902921648
8.75675e-06;-0.008852599597163821
8.75700e-06;-0.008812115291405994
8.75725e-06;-0.00877163098564844
8.75750e-06;-0.008731146679890615
8.75775e-06;-0.008684227420812806
8.75800e-06;-0.008614093376055369
8.75825e-06;-0.008543959331297458
8.75850e-06;-0.008473825286539546
8.75875e-06;-0.008403691241782111
8.75900e-06;-0.008333557197024201
8.75925e-06;-0.008263423152266289
8.75950e-06;-0.008190991701427248
8.75975e-06;-0.008110272111240175
8.76000e-06;-0.008029552521053102
8.76025e-06;-0.00794883293086603
8.76050e-06;-0.007868113340679503
8.76075e-06;-0.0077873937504924304
8.76100e-06;-0.007706674160305358
8.76125e-06;-0.007627372795278693
8.76150e-06;-0.00755318782993641
8.76175e-06;-0.0074790028645941265
8.76200e-06;-0.007410561402905686
8.76225e-06;-0.007362840247917809
8.76250e-06;-0.007315119092929933
8.76275e-06;-0.007267397937942379
8.76300e-06;-0.007219676782954503
8.76325e-06;-0.007171955627966626
8.76350e-06;-0.007124234472979073
8.76375e-06;-0.007076513317991196
8.76400e-06;-0.007028792163003319
8.76425e-06;-0.006981071008015766
8.76450e-06;-0.00694165870395843
8.76475e-06;-0.006932221472611458
8.76500e-06;-0.006922784241264551
8.76525e-06;-0.00691334700991758
8.76550e-06;-0.006903909778570609
8.76575e-06;-0.006894472547223702
8.76600e-06;-0.0068850353158767304
8.76625e-06;-0.006875598084529759
8.76650e-06;-0.006866160853182851
8.76675e-06;-0.00685672362183588
8.76700e-06;-0.006853161145407665
8.76725e-06;-0.00687079247872889
8.76750e-06;-0.0068884238120502355
8.76775e-06;-0.006906055145371581
8.76800e-06;-0.006923686478692806
8.76825e-06;-0.00694131781201415
8.76850e-06;-0.006958949145335495
8.76875e-06;-0.00697658047865684
8.76900e-06;-0.006994211811978066
8.76925e-06;-0.007011843145299411
8.76950e-06;-0.007031566484534037
8.76975e-06;-0.007058836959936327
8.77000e-06;-0.007086107435338801
8.77025e-06;-0.0071133779107412755
8.77050e-06;-0.007140648386143565
8.77075e-06;-0.00716791886154604
8.77100e-06;-0.007195189336948514
8.77125e-06;-0.0072224598123508035
8.77150e-06;-0.007249730287753278
8.77175e-06;-0.007277000763155753
8.77200e-06;-0.007302938944388353
8.77225e-06;-0.007324070731216593
8.77250e-06;-0.007345202518044833
8.77275e-06;-0.007366334304872929
8.77300e-06;-0.007387466091701169
8.77325e-06;-0.007408597878529409
8.77350e-06;-0.007429729665357506
8.77375e-06;-0.007450861452185745
8.77400e-06;-0.007471993239013985
8.77425e-06;-0.007493125025842082
8.77450e-06;-0.007514256812670321
8.77475e-06;-0.007535388599498561
8.77500e-06;-0.007556768623734724
8.77525e-06;-0.007579044191099913
8.77550e-06;-0.007601319758465102
8.77575e-06;-0.007623595325830141
8.77600e-06;-0.00764587089319533
8.77625e-06;-0.007668146460560519
8.77650e-06;-0.007690422027925558
8.77675e-06;-0.007712697595290747
8.77700e-06;-0.0077349731626559365
8.77725e-06;-0.0077572487300211265
8.77750e-06;-0.007779524297386165
8.77775e-06;-0.007801799864751354
8.77800e-06;-0.007824379242241143
8.77825e-06;-0.007848054647407359
8.77850e-06;-0.007871730052573734
8.77875e-06;-0.007895405457740111
8.77900e-06;-0.007919080862906325
8.77925e-06;-0.007942756268072702
8.77950e-06;-0.007966431673239077
8.77975e-06;-0.007990107078405292
8.78000e-06;-0.008013782483571668
8.78025e-06;-0.008037457888738043
8.78050e-06;-0.008061133293904258
8.78075e-06;-0.008084808699070634
8.78100e-06;-0.008108484104237009
8.78125e-06;-0.008132159509403224
8.78150e-06;-0.0081558349145696
8.78175e-06;-0.008179510319735976
8.78200e-06;-0.00820318572490219
8.78225e-06;-0.008217358824359752
8.78250e-06;-0.008227781960839679
8.78275e-06;-0.008238205097319535
8.78300e-06;-0.008248628233799462
8.78325e-06;-0.008259051370279389
8.78350e-06;-0.008269474506759245
8.78375e-06;-0.008279897643239172
8.78400e-06;-0.008290320779719099
8.78425e-06;-0.008300743916198955
8.78450e-06;-0.008311167052678882
8.78475e-06;-0.008321590189158809
8.78500e-06;-0.008332013325638665
8.78525e-06;-0.008342436462118592
8.78550e-06;-0.008352859598598519
8.78575e-06;-0.008363282735078446
8.78600e-06;-0.008373705871558302
8.78625e-06;-0.008380763117804071
8.78650e-06;-0.008375677553275167
8.78675e-06;-0.008370591988746295
8.78700e-06;-0.00836550642421739
8.78725e-06;-0.008360420859688486
8.78750e-06;-0.008355335295159614
8.78775e-06;-0.00835024973063071
8.78800e-06;-0.008345164166101805
8.78825e-06;-0.008340078601572933
8.78850e-06;-0.008334993037044028
8.78875e-06;-0.008329907472515122
8.78900e-06;-0.008324821907986252
8.78925e-06;-0.008318846158638189
8.78950e-06;-0.00830965897188046
8.78975e-06;-0.008300471785122795
8.79000e-06;-0.008291284598365065
8.79025e-06;-0.008282097411607337
8.79050e-06;-0.008272910224849672
8.79075e-06;-0.008263723038091942
8.79100e-06;-0.008254535851334214
8.79125e-06;-0.008245348664576548
8.79150e-06;-0.008236161477818818
8.79175e-06;-0.00822697429106109
8.79200e-06;-0.008217787104303423
8.79225e-06;-0.00821023416369097
8.79250e-06;-0.008208576941692481
8.79275e-06;-0.008206919719694002
8.79300e-06;-0.008205262497695513
8.79325e-06;-0.008203605275697025
8.79350e-06;-0.008201948053698546
8.79375e-06;-0.008200290831700057
8.79400e-06;-0.008198633609701567
8.79425e-06;-0.008196976387703078
8.79450e-06;-0.0081953191657046
8.79475e-06;-0.008193661943706111
8.79500e-06;-0.008201953624665383
8.79525e-06;-0.008214171512475615
8.79550e-06;-0.00822638940028593
8.79575e-06;-0.008238607288096243
8.79600e-06;-0.008250825175906475
8.79625e-06;-0.008263043063716788
8.79650e-06;-0.008275260951527103
8.79675e-06;-0.008287478839337335
8.79700e-06;-0.008299696727147648
8.79725e-06;-0.008311914614957963
8.79750e-06;-0.008326333878237408
8.79775e-06;-0.008348694840121669
8.79800e-06;-0.00837105580200593
8.79825e-06;-0.008393416763890037
8.79850e-06;-0.008415777725774298
8.79875e-06;-0.008438138687658558
8.79900e-06;-0.008460499649542666
8.79925e-06;-0.008482860611426927
8.79950e-06;-0.008505221573311187
8.79975e-06;-0.008527582535195297
8.80000e-06;-0.008550044156400977
8.80025e-06;-0.008572868916927396
8.80050e-06;-0.00859569367745366
8.80075e-06;-0.008618518437980078
8.80100e-06;-0.008641343198506497
8.80125e-06;-0.008664167959032762
8.80150e-06;-0.00868699271955918
8.80175e-06;-0.008709817480085598
8.80200e-06;-0.008732642240611863
8.80225e-06;-0.008755467001138282
8.80250e-06;-0.008777240316435682
8.80275e-06;-0.008795220430061085
8.80300e-06;-0.008813200543686612
8.80325e-06;-0.00883218004132449
8.80350e-06;-0.008854764924199773
8.80375e-06;-0.008877349807074903
8.80400e-06;-0.008902314498751732
8.80425e-06;-0.008935864606460077
8.80450e-06;-0.008969414714168194
8.80475e-06;-0.009002964821876536
8.80500e-06;-0.00903651492958488
8.80525e-06;-0.009070065037292997
8.80550e-06;-0.009103615145001341
8.80575e-06;-0.009149589918926986
8.80600e-06;-0.00920046792789749
8.80625e-06;-0.009251345936868337
8.80650e-06;-0.009302223945839185
8.80675e-06;-0.009353101954809687
8.80700e-06;-0.009403979963780534
8.80725e-06;-0.009457907073551408
8.80750e-06;-0.009522834142174598
8.80775e-06;-0.009587761210798226
8.80800e-06;-0.009652688279421855
8.80825e-06;-0.009717615348045045
8.80850e-06;-0.009782542416668675
8.80875e-06;-0.00985216318810371
8.80900e-06;-0.009923636269106762
8.80925e-06;-0.009995109350110299
8.80950e-06;-0.010066582431113833
8.80975e-06;-0.010138055512116885
8.81000e-06;-0.010209668841800676
8.81025e-06;-0.010281788133672462
8.81050e-06;-0.010353464564955131
8.81075e-06;-0.010423543329065935
8.81100e-06;-0.010492931525764118
8.81125e-06;-0.010559828426298294
8.81150e-06;-0.010625832531205396
8.81175e-06;-0.010688615779927949
8.81200e-06;-0.010749749940598328
8.81225e-06;-0.010804934838875077
8.81250e-06;-0.010860119737152202
8.81275e-06;-0.010912908957055845
8.81300e-06;-0.010957055509737468
8.81325e-06;-0.01100120206241939
8.81350e-06;-0.01104204356667403
8.81375e-06;-0.011070961753497388
8.81400e-06;-0.011099879940320941
8.81425e-06;-0.011128798127144495
8.81450e-06;-0.011157716313967852
8.81475e-06;-0.011186634500791404
8.81500e-06;-0.011215552687614958
8.81525e-06;-0.011244470874438315
8.81550e-06;-0.011258944174064953
8.81575e-06;-0.011267716984365152
8.81600e-06;-0.011276489794665293
8.81625e-06;-0.011285262604965492
8.81650e-06;-0.01129403541526569
8.81675e-06;-0.011302808225565831
8.81700e-06;-0.01131158103586603
8.81725e-06;-0.011317178886773837
8.81750e-06;-0.01131132273042469
8.81775e-06;-0.011305466574075503
8.81800e-06;-0.011299610417726315
8.81825e-06;-0.011293754261377168
8.81850e-06;-0.011287898105027982
8.81875e-06;-0.011282041948678795
8.81900e-06;-0.011276185792329647
8.81925e-06;-0.011268785157151412
8.81950e-06;-0.01125581264859426
8.81975e-06;-0.011242840140037196
8.82000e-06;-0.011229867631480045
8.82025e-06;-0.011216895122922892
8.82050e-06;-0.01120392261436574
8.82075e-06;-0.011190950105808676
8.82100e-06;-0.011177977597251525
8.82125e-06;-0.011165427088076472
8.82150e-06;-0.011154398987029667
8.82175e-06;-0.011143370885982787
8.82200e-06;-0.011132342784935906
8.82225e-06;-0.011121314683889102
8.82250e-06;-0.011110286582842221
8.82275e-06;-0.01109925848179534
8.82300e-06;-0.011088230380748536
8.82325e-06;-0.011081652688971802
8.82350e-06;-0.011076831294091186
8.82375e-06;-0.0110720098992106
8.82400e-06;-0.011067188504329984
8.82425e-06;-0.011062367109449366
8.82450e-06;-0.011057545714568783
8.82475e-06;-0.011052724319688166
8.82500e-06;-0.011049352497799621
8.82525e-06;-0.011051210166283501
8.82550e-06;-0.011053067834767392
8.82575e-06;-0.011054925503251285
8.82600e-06;-0.011056783171735163
8.82625e-06;-0.011058640840219056
8.82650e-06;-0.011060498508702948
8.82675e-06;-0.011062356177186827
8.82700e-06;-0.011064213845670719
8.82725e-06;-0.011066071514154611
8.82750e-06;-0.01106792918263849
8.82775e-06;-0.011069786851122383
8.82800e-06;-0.01107367983130093
8.82825e-06;-0.011080664860203376
8.82850e-06;-0.011087649889105869
8.82875e-06;-0.011094634918008361
8.82900e-06;-0.011101619946910855
8.82925e-06;-0.011108604975813301
8.82950e-06;-0.011115590004715794
8.82975e-06;-0.011122575033618286
8.83000e-06;-0.011129560062520732
8.83025e-06;-0.011136545091423224
8.83050e-06;-0.011143530120325717
8.83075e-06;-0.011150515149228163
8.83100e-06;-0.011157762472975594
8.83125e-06;-0.011165202188142482
8.83150e-06;-0.011172641903309318
8.83175e-06;-0.011180026639686995
8.83200e-06;-0.011187371049510413
8.83225e-06;-0.01119471545933378
8.83250e-06;-0.011201581446240687
8.83275e-06;-0.011208096513311432
8.83300e-06;-0.011213001973354722
8.83325e-06;-0.011216726797991908
8.83350e-06;-0.011216540427983004
8.83375e-06;-0.011213485224276988
8.83400e-06;-0.011206581684410242
8.83425e-06;-0.011196855417102212
8.83450e-06;-0.011182477532333894
8.83475e-06;-0.011164687718954448
8.83500e-06;-0.011146897905575002
8.83525e-06;-0.011119113593019831
8.83550e-06;-0.011083998385784812
8.83575e-06;-0.011048883178549794
8.83600e-06;-0.011013767971315013
8.83625e-06;-0.010978652764079996
8.83650e-06;-0.010943537556844976
8.83675e-06;-0.010896768816222133
8.83700e-06;-0.01084145229102113
8.83725e-06;-0.010786135765820127
8.83750e-06;-0.010730819240619124
8.83775e-06;-0.010675502715418497
8.83800e-06;-0.010620186190217493
8.83825e-06;-0.010557150001064495
8.83850e-06;-0.010488451492829837
8.83875e-06;-0.010419752984594712
8.83900e-06;-0.010351054476359587
8.83925e-06;-0.01028235596812493
8.83950e-06;-0.010213657459889804
8.83975e-06;-0.010144859903133874
8.84000e-06;-0.010074872874297145
8.84025e-06;-0.010004885845459941
8.84050e-06;-0.009934898816622737
8.84075e-06;-0.009864911787786007
8.84100e-06;-0.009794924758948803
8.84125e-06;-0.009724937730111599
8.84150e-06;-0.00965971594753524
8.84175e-06;-0.009597989439494017
8.84200e-06;-0.009536262931452795
8.84225e-06;-0.009479359782431578
8.84250e-06;-0.009425994533244823
8.84275e-06;-0.00937938191505189
8.84300e-06;-0.009337722304085331
8.84325e-06;-0.009296062693118489
8.84350e-06;-0.009264622331751205
8.84375e-06;-0.00924067771791709
8.84400e-06;-0.009216733104082815
8.84425e-06;-0.009203586718432816
8.84450e-06;-0.009198360757025814
8.84475e-06;-0.009193134795618778
8.84500e-06;-0.009202739425278642
8.84525e-06;-0.009223222188926565
8.84550e-06;-0.009243704952574625
8.84575e-06;-0.009264187716222687
8.84600e-06;-0.009284670479870747
8.84625e-06;-0.009322115256583207
8.84650e-06;-0.009372001550292552
8.84675e-06;-0.009421887844001898
8.84700e-06;-0.009471774137710906
8.84725e-06;-0.009521660431420251
8.84750e-06;-0.009584467098760091
8.84775e-06;-0.009656750769065808
8.84800e-06;-0.009729034439372014
8.84825e-06;-0.00980131810967822
8.84850e-06;-0.00987464115003023
8.84875e-06;-0.009960445968435275
8.84900e-06;-0.01004625078684032
8.84925e-06;-0.010132055605244784
8.84950e-06;-0.01021786042364983
8.84975e-06;-0.010306282614466684
8.85000e-06;-0.01039697652956175
8.85025e-06;-0.010487984435085343
8.85050e-06;-0.010578789948786166
8.85075e-06;-0.010668880771013689
8.85100e-06;-0.010757760076006212
8.85125e-06;-0.010844938919411443
8.85150e-06;-0.010929904717788624
8.85175e-06;-0.011012103909505445
8.85200e-06;-0.01109096290756302
8.85225e-06;-0.011165904542853709
8.85250e-06;-0.011236347240547626
8.85275e-06;-0.011301701688869846
8.85300e-06;-0.011361252679133297
8.85325e-06;-0.011414127317628846
8.85350e-06;-0.011459632607545626
8.85375e-06;-0.01149748275416709
8.85400e-06;-0.011527611522024347
8.85425e-06;-0.011549986995260539
8.85450e-06;-0.011564575216718484
8.85475e-06;-0.011569022696891338
8.85500e-06;-0.011568453658798246
8.85525e-06;-0.011558418240259008
8.85550e-06;-0.01154143929840125
8.85575e-06;-0.011513076344583496
8.85600e-06;-0.011476363298251212
8.85625e-06;-0.011439650251919177
8.85650e-06;-0.011386938986816208
8.85675e-06;-0.011322493141033452
8.85700e-06;-0.011258047295251131
8.85725e-06;-0.011193601449468373
8.85750e-06;-0.011129155603685617
8.85775e-06;-0.011049050258617906
8.85800e-06;-0.0109574587812238
8.85825e-06;-0.010865867303829697
8.85850e-06;-0.010774275826436214
8.85875e-06;-0.010682684349042109
8.85900e-06;-0.010583354078770979
8.85925e-06;-0.010478347458483795
8.85950e-06;-0.0103733408381959
8.85975e-06;-0.010265963503864498
8.86000e-06;-0.010156847267496423
8.86025e-06;-0.010047731031127608
8.86050e-06;-0.009939136287378116
8.86075e-06;-0.009830924054789128
8.86100e-06;-0.009724850085205813
8.86125e-06;-0.009620344516463061
8.86150e-06;-0.009519464861547667
8.86175e-06;-0.009421244788860994
8.86200e-06;-0.009330009171409822
8.86225e-06;-0.009243896602634593
8.86250e-06;-0.00915778403385878
8.86275e-06;-0.009082892510598234
8.86300e-06;-0.00901623154511584
8.86325e-06;-0.008949570579633897
8.86350e-06;-0.008894013896896107
8.86375e-06;-0.008846602127267582
8.86400e-06;-0.008799190357639378
8.86425e-06;-0.008769508710272794
8.86450e-06;-0.008752831982590404
8.86475e-06;-0.008736155254908127
8.86500e-06;-0.008719478527225738
8.86525e-06;-0.008702801799543348
8.86550e-06;-0.00868612507186107
8.86575e-06;-0.008691226928974364
8.86600e-06;-0.008712303224499248
8.86625e-06;-0.008733379520023989
8.86650e-06;-0.008754455815548871
8.86675e-06;-0.008775532111073755
8.86700e-06;-0.008796608406598495
8.86725e-06;-0.008834216166306263
8.86750e-06;-0.008883949638447616
8.86775e-06;-0.008933683110588632
8.86800e-06;-0.008983416582729983
8.86825e-06;-0.009033150054871337
8.86850e-06;-0.009084192413716743
8.86875e-06;-0.009150953171824102
8.86900e-06;-0.00921771392993146
8.86925e-06;-0.009284474688038367
8.86950e-06;-0.009351235446145726
8.86975e-06;-0.009417996204253085
8.87000e-06;-0.009487679173733318
8.87025e-06;-0.009559505564655388
8.87050e-06;-0.009631400455208938
8.87075e-06;-0.009703345589758782
8.87100e-06;-0.00977434354901266
8.87125e-06;-0.009844646761863945
8.87150e-06;-0.009913450235724841
8.87175e-06;-0.00997977131218279
8.87200e-06;-0.010043430155910972
8.87225e-06;-0.010102876752406988
8.87250e-06;-0.010160120494455341
8.87275e-06;-0.010212502105799187
8.87300e-06;-0.010261317378547657
8.87325e-06;-0.010304614535884816
8.87350e-06;-0.01034386419446941
8.87375e-06;-0.01037736364477402
8.87400e-06;-0.010406645357842307
8.87425e-06;-0.010428435449777368
8.87450e-06;-0.010444730490424593
8.87475e-06;-0.010461025531071708
8.87500e-06;-0.010468112430408476
8.87525e-06;-0.010468445223008473
8.87550e-06;-0.010468778015608467
8.87575e-06;-0.010456412677830802
8.87600e-06;-0.010434733350938879
8.87625e-06;-0.010413054024047103
8.87650e-06;-0.01039137469715518
8.87675e-06;-0.010369695370263256
8.87700e-06;-0.010348016043371478
8.87725e-06;-0.010312681740269463
8.87750e-06;-0.010267331608380278
8.87775e-06;-0.010221981476491402
8.87800e-06;-0.010176631344602217
8.87825e-06;-0.010131281212713032
8.87850e-06;-0.010085931080824156
8.87875e-06;-0.010032536068435424
8.87900e-06;-0.009973240192913619
8.87925e-06;-0.009913944317392214
8.87950e-06;-0.009854648441870407
8.87975e-06;-0.0097953525663486
8.88000e-06;-0.009736056690826793
8.88025e-06;-0.009676776488167019
8.88050e-06;-0.009617684500648855
8.88075e-06;-0.00955859251313069
8.88100e-06;-0.009499500525612927
8.88125e-06;-0.009440408538094764
8.88150e-06;-0.009381316550576599
8.88175e-06;-0.009322224563058836
8.88200e-06;-0.00927433900159977
8.88225e-06;-0.009234673274654933
8.88250e-06;-0.009195007547710363
8.88275e-06;-0.009155341820765526
8.88300e-06;-0.009115676093820689
8.88325e-06;-0.009076010366876119
8.88350e-06;-0.009036344639931282
8.88375e-06;-0.008996678912986443
8.88400e-06;-0.008973482579298565
8.88425e-06;-0.008962366429463266
8.88450e-06;-0.00895125027962797
8.88475e-06;-0.008940134129792747
8.88500e-06;-0.00892901797995745
8.88525e-06;-0.00891790183012215
8.88550e-06;-0.008906785680286928
8.88575e-06;-0.00889566953045163
8.88600e-06;-0.008898682325026667
8.88625e-06;-0.008912058600724932
8.88650e-06;-0.008925434876423288
8.88675e-06;-0.008938811152121643
8.88700e-06;-0.008952187427819908
8.88725e-06;-0.008965563703518266
8.88750e-06;-0.008978939979216621
8.88775e-06;-0.008993547338553565
8.88800e-06;-0.009022938761421365
8.88825e-06;-0.009052330184289166
8.88850e-06;-0.009081721607156968
8.88875e-06;-0.00911111303002457
8.88900e-06;-0.009140504452892372
8.88925e-06;-0.009169895875760174
8.88950e-06;-0.009199287298627776
8.88975e-06;-0.009231859312012928
8.89000e-06;-0.009266764266121254
8.89025e-06;-0.009301669220229342
8.89050e-06;-0.009336574174337666
8.89075e-06;-0.009371479128445992
8.89100e-06;-0.009406181168408776
8.89125e-06;-0.009438446415677886
8.89150e-06;-0.009470711662946996
8.89175e-06;-0.009502976910215889
8.89200e-06;-0.009535242157484998
8.89225e-06;-0.009567507404754108
8.89250e-06;-0.009596546966525584
8.89275e-06;-0.009623220510723859
8.89300e-06;-0.009649249083882363
8.89325e-06;-0.009674804575329638
8.89350e-06;-0.0097032099200719
8.89375e-06;-0.009733705612116396
8.89400e-06;-0.009767627807947763
8.89425e-06;-0.009804063320152729
8.89450e-06;-0.009840498832357693
8.89475e-06;-0.00988031025711837
8.89500e-06;-0.00992259788994136
8.89525e-06;-0.00996488552276435
8.89550e-06;-0.010013081315956919
8.89575e-06;-0.010065610703132956
8.89600e-06;-0.010118140090308992
8.89625e-06;-0.010176304982458664
8.89650e-06;-0.01023860347778113
8.89675e-06;-0.010300901973103595
8.89700e-06;-0.010363200468426061
8.89725e-06;-0.010431277109131063
