Time(s);Current(A)
8.25000e-06;-0.013550583231399991
8.25025e-06;-0.01356815507649187
8.25050e-06;-0.01358572692158363
8.25075e-06;-0.01360329876667551
8.25100e-06;-0.013620870611767389
8.25125e-06;-0.01363844245685915
8.25150e-06;-0.01365601430195103
8.25175e-06;-0.01367413254847015
8.25200e-06;-0.013694400106754115
8.25225e-06;-0.013714667665038219
8.25250e-06;-0.013734935223322323
8.25275e-06;-0.01375520278160629
8.25300e-06;-0.013775470339890393
8.25325e-06;-0.013795737898174497
8.25350e-06;-0.013816005456458464
8.25375e-06;-0.013835837324544542
8.25400e-06;-0.013853955371945068
8.25425e-06;-0.01387207341934547
8.25450e-06;-0.013890191466745994
8.25475e-06;-0.01390830951414652
8.25500e-06;-0.013926427561546922
8.25525e-06;-0.013944545608947445
8.25550e-06;-0.013962663656347971
8.25575e-06;-0.013980781703748371
8.25600e-06;-0.013998899751148897
8.25625e-06;-0.014010166154424004
8.25650e-06;-0.014018533646604131
8.25675e-06;-0.014026901138784202
8.25700e-06;-0.01403526863096433
8.25725e-06;-0.014043636123144456
8.25750e-06;-0.014052003615324528
8.25775e-06;-0.014060371107504655
8.25800e-06;-0.014068738599684784
8.25825e-06;-0.014077106091864853
8.25850e-06;-0.014083052735320433
8.25875e-06;-0.014079476785335991
8.25900e-06;-0.014075900835351575
8.25925e-06;-0.014072324885367134
8.25950e-06;-0.014068748935382692
8.25975e-06;-0.014065172985398276
8.26000e-06;-0.014061597035413835
8.26025e-06;-0.014058021085429393
8.26050e-06;-0.014054445135444977
8.26075e-06;-0.01404471519995894
8.26100e-06;-0.014032381530752255
8.26125e-06;-0.014020047861545653
8.26150e-06;-0.014007714192338967
8.26175e-06;-0.013995380523132282
8.26200e-06;-0.013983046853925681
8.26225e-06;-0.013970713184718994
8.26250e-06;-0.01395837951551231
8.26275e-06;-0.013945291341627133
8.26300e-06;-0.013929235265934948
8.26325e-06;-0.013913179190242762
8.26350e-06;-0.013897123114550684
8.26375e-06;-0.013881067038858498
8.26400e-06;-0.013865010963166313
8.26425e-06;-0.013848954887474237
8.26450e-06;-0.013832898811782051
8.26475e-06;-0.013816842736089865
8.26500e-06;-0.01380078666039768
8.26525e-06;-0.013784730584705604
8.26550e-06;-0.013768674509013418
8.26575e-06;-0.013752618433321233
8.26600e-06;-0.013741777722140533
8.26625e-06;-0.01373314361681579
8.26650e-06;-0.013724509511491043
8.26675e-06;-0.013715875406166356
8.26700e-06;-0.01370724130084161
8.26725e-06;-0.013698607195516866
8.26750e-06;-0.01368997309019218
8.26775e-06;-0.013681338984867434
8.26800e-06;-0.01367270487954269
8.26825e-06;-0.013664070774218003
8.26850e-06;-0.013655436668893257
8.26875e-06;-0.013646802563568513
8.26900e-06;-0.013640497104497279
8.26925e-06;-0.0136433515534048
8.26950e-06;-0.013646206002312318
8.26975e-06;-0.01364906045121982
8.27000e-06;-0.01365191490012734
8.27025e-06;-0.01365476934903486
8.27050e-06;-0.01365762379794236
8.27075e-06;-0.013660478246849881
8.27100e-06;-0.013663332695757402
8.27125e-06;-0.013671013168925801
8.27150e-06;-0.013680735519200625
8.27175e-06;-0.013690457869475448
8.27200e-06;-0.013700180219750205
8.27225e-06;-0.013709902570025028
8.27250e-06;-0.01371962492029985
8.27275e-06;-0.013729347270574607
8.27300e-06;-0.01373906962084943
8.27325e-06;-0.013749246958496364
8.27350e-06;-0.013761214023738986
8.27375e-06;-0.013773181088981524
8.27400e-06;-0.013785148154224144
8.27425e-06;-0.013797115219466765
8.27450e-06;-0.013809082284709305
8.27475e-06;-0.013821049349951925
8.27500e-06;-0.013831595690214193
8.27525e-06;-0.013841540925787455
8.27550e-06;-0.013851486161360782
8.27575e-06;-0.013861431396934111
8.27600e-06;-0.013871376632507372
8.27625e-06;-0.013881321868080701
8.27650e-06;-0.013890823114257867
8.27675e-06;-0.013898577894217794
8.27700e-06;-0.013906332674177775
8.27725e-06;-0.013914087454137754
8.27750e-06;-0.01392184223409768
8.27775e-06;-0.013929597014057661
8.27800e-06;-0.01393735179401764
8.27825e-06;-0.013945106573977567
8.27850e-06;-0.013952861353937548
8.27875e-06;-0.013960616133897527
8.27900e-06;-0.013970710272830355
8.27925e-06;-0.013981794187875742
8.27950e-06;-0.013992878102921128
8.27975e-06;-0.01400396201796644
8.28000e-06;-0.014015045933011828
8.28025e-06;-0.014026129848057215
8.28050e-06;-0.014037213763102525
8.28075e-06;-0.014048297678147912
8.28100e-06;-0.0140593815931933
8.28125e-06;-0.014071149803459936
8.28150e-06;-0.014085609741270834
8.28175e-06;-0.014100069679081732
8.28200e-06;-0.01411452961689263
8.28225e-06;-0.014128989554703429
8.28250e-06;-0.014143449492514327
8.28275e-06;-0.014157909430325225
8.28300e-06;-0.014172369368136024
8.28325e-06;-0.014186829305946922
8.28350e-06;-0.01420128924375782
8.28375e-06;-0.01421574918156862
8.28400e-06;-0.014230209119379517
8.28425e-06;-0.014244669057190415
8.28450e-06;-0.014256378489159645
8.28475e-06;-0.014266924189948143
8.28500e-06;-0.01427746989073664
8.28525e-06;-0.014288015591525066
8.28550e-06;-0.014298561292313565
8.28575e-06;-0.014309106993102063
8.28600e-06;-0.014319652693890489
8.28625e-06;-0.014330198394678988
8.28650e-06;-0.014340744095467485
8.28675e-06;-0.014351289796255912
8.28700e-06;-0.014361835497044409
8.28725e-06;-0.014372381197832908
8.28750e-06;-0.01438133631615381
8.28775e-06;-0.014384034756790717
8.28800e-06;-0.014386733197427627
8.28825e-06;-0.014389431638064517
8.28850e-06;-0.014392130078701425
8.28875e-06;-0.014394828519338333
8.28900e-06;-0.014397526959975223
8.28925e-06;-0.014400225400612131
8.28950e-06;-0.01440292384124904
8.28975e-06;-0.01440562228188593
8.29000e-06;-0.014408320722522839
8.29025e-06;-0.014411019163159747
8.29050e-06;-0.014413717603796655
8.29075e-06;-0.014416416044433545
8.29100e-06;-0.014419114485070453
8.29125e-06;-0.014421812925707362
8.29150e-06;-0.014424511366344251
8.29175e-06;-0.01442720980698116
8.29200e-06;-0.01442707683134742
8.29225e-06;-0.014425745891560654
8.29250e-06;-0.014424414951773877
8.29275e-06;-0.014423084011987101
8.29300e-06;-0.014421753072200335
8.29325e-06;-0.014420422132413558
8.29350e-06;-0.014419091192626783
8.29375e-06;-0.014417760252840016
8.29400e-06;-0.014416429313053241
8.29425e-06;-0.014415098373266464
8.29450e-06;-0.014413767433479698
8.29475e-06;-0.014412436493692922
8.29500e-06;-0.014411105553906145
8.29525e-06;-0.014409774614119379
8.29550e-06;-0.014408443674332604
8.29575e-06;-0.014407112734545828
8.29600e-06;-0.01440578179475906
8.29625e-06;-0.014403746964410538
8.29650e-06;-0.014398943326747014
8.29675e-06;-0.014394139689083523
8.29700e-06;-0.01438933605142
8.29725e-06;-0.014384532413756475
8.29750e-06;-0.014379728776092985
8.29775e-06;-0.014374925138429463
8.29800e-06;-0.014370121500765939
8.29825e-06;-0.014358467339554003
8.29850e-06;-0.014343914741355749
8.29875e-06;-0.014329362143157493
8.29900e-06;-0.014314809544959239
8.29925e-06;-0.014300256946761082
8.29950e-06;-0.014285704348562828
8.29975e-06;-0.014271151750364572
8.30000e-06;-0.014254567750059724
8.30025e-06;-0.014229993074329426
8.30050e-06;-0.01420541839859913
8.30075e-06;-0.014180843722869
8.30100e-06;-0.014156269047138704
8.30125e-06;-0.014131694371408408
8.30150e-06;-0.014107119695678277
8.30175e-06;-0.014081263309956807
8.30200e-06;-0.014050365220037036
8.30225e-06;-0.014019467130117473
8.30250e-06;-0.013988569040197702
8.30275e-06;-0.013957670950277931
8.30300e-06;-0.013926772860358368
8.30325e-06;-0.013895874770438597
8.30350e-06;-0.01386466864906884
8.30375e-06;-0.013832250862450986
8.30400e-06;-0.013799833075832914
8.30425e-06;-0.013767628979459937
8.30450e-06;-0.013736265449996541
8.30475e-06;-0.013704901920532931
8.30500e-06;-0.01367399666729282
8.30525e-06;-0.013644894078599718
8.30550e-06;-0.013615791489906416
8.30575e-06;-0.013587446003989574
8.30600e-06;-0.01356207863970237
8.30625e-06;-0.013536711275414993
8.30650e-06;-0.013512388136574335
8.30675e-06;-0.01349217253832901
8.30700e-06;-0.013471956940083548
8.30725e-06;-0.01345366290543228
8.30750e-06;-0.013442927488026496
8.30775e-06;-0.013432192070620786
8.30800e-06;-0.013421456653215001
8.30825e-06;-0.013410721235809218
8.30850e-06;-0.013399985818403506
8.30875e-06;-0.013389250400997723
8.30900e-06;-0.01337851498359194
8.30925e-06;-0.013377091719862963
8.30950e-06;-0.013379608401812265
8.30975e-06;-0.013382125083761567
8.31000e-06;-0.013384641765710853
8.31025e-06;-0.013387158447660155
8.31050e-06;-0.013389675129609457
8.31075e-06;-0.013392191811558742
8.31100e-06;-0.013396778661803959
8.31125e-06;-0.013409508677245734
8.31150e-06;-0.013422238692687423
8.31175e-06;-0.013434968708129198
8.31200e-06;-0.013447698723570973
8.31225e-06;-0.013460428739012662
8.31250e-06;-0.013473158754454437
8.31275e-06;-0.013485888769896212
8.31300e-06;-0.013499486831168769
8.31325e-06;-0.013516499417054592
8.31350e-06;-0.013533512002940415
8.31375e-06;-0.013550524588826123
8.31400e-06;-0.013567537174711946
8.31425e-06;-0.013584549760597768
8.31450e-06;-0.013601562346483475
8.31475e-06;-0.013618574932369298
8.31500e-06;-0.01363481520357759
8.31525e-06;-0.01364801751597994
8.31550e-06;-0.013661219828382379
8.31575e-06;-0.013674422140784816
8.31600e-06;-0.013687624453187256
8.31625e-06;-0.013700826765589603
8.31650e-06;-0.013714029077992042
8.31675e-06;-0.01372723139039448
8.31700e-06;-0.013737626705870344
8.31725e-06;-0.013736980484418883
8.31750e-06;-0.01373633426296742
8.31775e-06;-0.013735688041515962
8.31800e-06;-0.013735041820064499
8.31825e-06;-0.013734395598613038
8.31850e-06;-0.01373374937716158
8.31875e-06;-0.013733103155710117
8.31900e-06;-0.01372919152739513
8.31925e-06;-0.01371243517163276
8.31950e-06;-0.013695678815870279
8.31975e-06;-0.013678922460107797
8.32000e-06;-0.01366216610434543
8.32025e-06;-0.013645409748582948
8.32050e-06;-0.013626254411492266
8.32075e-06;-0.013597662498010907
8.32100e-06;-0.013569070584529355
8.32125e-06;-0.0135404786710478
8.32150e-06;-0.01351188675756644
8.32175e-06;-0.013483294844084887
8.32200e-06;-0.013453191373583716
8.32225e-06;-0.013417142078028499
8.32250e-06;-0.013381092782473037
8.32275e-06;-0.013345043486917575
8.32300e-06;-0.013308994191362358
8.32325e-06;-0.013272944895806896
8.32350e-06;-0.013235425385447848
8.32375e-06;-0.013197283831395927
8.32400e-06;-0.013159142277343747
8.32425e-06;-0.013121000723291568
8.32450e-06;-0.013082859169239389
8.32475e-06;-0.013045060082464076
8.32500e-06;-0.013008608116893626
8.32525e-06;-0.012972587873576016
8.32550e-06;-0.012938265842733944
8.32575e-06;-0.012904755469862661
8.32600e-06;-0.012874437815650345
8.32625e-06;-0.012844120161438235
8.32650e-06;-0.012815783051151363
8.32675e-06;-0.012795236561756162
8.32700e-06;-0.0127746900723611
8.32725e-06;-0.012754143582965899
8.32750e-06;-0.012733597093570697
8.32775e-06;-0.012713050604175635
8.32800e-06;-0.012692504114780434
8.32825e-06;-0.012671957625385233
8.32850e-06;-0.0126538528113196
8.32875e-06;-0.012645352513765756
8.32900e-06;-0.012636852216211912
8.32925e-06;-0.012628351918658125
8.32950e-06;-0.01261985162110428
8.32975e-06;-0.012611351323550436
8.33000e-06;-0.01260285102599665
8.33025e-06;-0.012594350728442805
8.33050e-06;-0.012587776098521122
8.33075e-06;-0.012588776229398893
8.33100e-06;-0.01258977636027667
8.33125e-06;-0.012590776491154447
8.33150e-06;-0.012591776622032216
8.33175e-06;-0.012592776752909993
8.33200e-06;-0.012593776883787771
8.33225e-06;-0.012594777014665541
8.33250e-06;-0.012595777145543318
8.33275e-06;-0.012600250547955527
8.33300e-06;-0.012606193481655195
8.33325e-06;-0.012612136415354825
8.33350e-06;-0.012618079349054493
8.33375e-06;-0.01262402228275416
8.33400e-06;-0.012629965216453789
8.33425e-06;-0.012635908150153459
8.33450e-06;-0.012641851083853127
8.33475e-06;-0.012647666562936727
8.33500e-06;-0.012652980689547486
8.33525e-06;-0.012658294816158247
8.33550e-06;-0.01266360894276897
8.33575e-06;-0.012668923069379731
8.33600e-06;-0.01267423719599049
8.33625e-06;-0.012679551322601216
8.33650e-06;-0.012684865449211975
8.33675e-06;-0.012690179575822736
8.33700e-06;-0.012689444272326326
8.33725e-06;-0.012686149472192055
8.33750e-06;-0.012682854672057783
8.33775e-06;-0.012679559871923535
8.33800e-06;-0.012676265071789263
8.33825e-06;-0.012672970271654992
8.33850e-06;-0.012669675471520743
8.33875e-06;-0.01266638067138647
8.33900e-06;-0.012660793879403092
8.33925e-06;-0.012646191362314938
8.33950e-06;-0.012631588845226683
8.33975e-06;-0.012616986328138428
8.34000e-06;-0.012602383811050274
8.34025e-06;-0.012587781293962019
8.34050e-06;-0.012571520097587963
8.34075e-06;-0.012548734359477575
8.34100e-06;-0.012525948621367033
8.34125e-06;-0.01250316288325649
8.34150e-06;-0.012480377145145948
8.34175e-06;-0.01245759140703556
8.34200e-06;-0.012433909944356286
8.34225e-06;-0.012406705080629193
8.34250e-06;-0.012379500216902284
8.34275e-06;-0.012351967581536387
8.34300e-06;-0.012323145631378905
8.34325e-06;-0.012294323681221617
8.34350e-06;-0.012265371069169728
8.34375e-06;-0.012235904488570181
8.34400e-06;-0.012206481891916988
8.34425e-06;-0.012177232309477327
8.34450e-06;-0.012148150639999479
8.34475e-06;-0.01211972946899013
8.34500e-06;-0.01209157607148967
8.34525e-06;-0.012064475981552221
8.34550e-06;-0.012037832059880495
8.34575e-06;-0.012012982510944605
8.34600e-06;-0.011988132962008714
8.34625e-06;-0.011965711361685855
8.34650e-06;-0.011944317019501789
8.34675e-06;-0.011923367708017482
8.34700e-06;-0.011904168958803201
8.34725e-06;-0.011884885293515364
8.34750e-06;-0.011865267604362807
8.34775e-06;-0.011845649915210381
8.34800e-06;-0.011826097100805283
8.34825e-06;-0.011806799476177535
8.34850e-06;-0.011787501851549916
8.34875e-06;-0.011768170373756178
8.34900e-06;-0.011748705731946715
8.34925e-06;-0.011729241090137385
8.34950e-06;-0.011709445090015496
8.34975e-06;-0.011688345666646723
8.35000e-06;-0.011667246243278095
8.35025e-06;-0.011646146819909322
8.35050e-06;-0.011625047396540552
8.35075e-06;-0.01160311742423333
8.35100e-06;-0.011580836049037237
8.35125e-06;-0.011558554673840992
8.35150e-06;-0.011536273298644747
8.35175e-06;-0.011513768060474343
8.35200e-06;-0.01149038224018489
8.35225e-06;-0.011466996419895436
8.35250e-06;-0.011443629634146494
8.35275e-06;-0.011420337722216648
8.35300e-06;-0.011397038542553214
8.35325e-06;-0.01137369680555413
8.35350e-06;-0.011350310879855796
8.35375e-06;-0.011327004656438659
8.35400e-06;-0.011303909640558194
8.35425e-06;-0.011281158080019683
8.35450e-06;-0.011258878069638257
8.35475e-06;-0.011237163057209816
8.35500e-06;-0.011216022570498323
8.35525e-06;-0.011195436157335727
8.35550e-06;-0.011175464931857
8.35575e-06;-0.011156232596269857
8.35600e-06;-0.011137868969417977
8.35625e-06;-0.011120502020038794
8.35650e-06;-0.011104287630092087
8.35675e-06;-0.011089602677402903
8.35700e-06;-0.01107734558319139
8.35725e-06;-0.011068522648038558
8.35750e-06;-0.011063506595253477
8.35775e-06;-0.011062222617407464
8.35800e-06;-0.01106456118344238
8.35825e-06;-0.011070411478510818
8.35850e-06;-0.011079681879845241
8.35875e-06;-0.0110924160300875
8.35900e-06;-0.01110943018464825
8.35925e-06;-0.011131576104150031
8.35950e-06;-0.011155770140193227
8.35975e-06;-0.01118802059918873
8.36000e-06;-0.01122027105818423
8.36025e-06;-0.01125509364465382
8.36050e-06;-0.011300033891129888
8.36075e-06;-0.011344974137605955
8.36100e-06;-0.011389914384081717
8.36125e-06;-0.011434854630557784
8.36150e-06;-0.011488742583912163
8.36175e-06;-0.011546416286549127
8.36200e-06;-0.01160408998918648
8.36225e-06;-0.011661763691823835
8.36250e-06;-0.011720737280525194
8.36275e-06;-0.01178482407041135
8.36300e-06;-0.011848910860297508
8.36325e-06;-0.011913506265686094
8.36350e-06;-0.011980102349029123
8.36375e-06;-0.012046698432372152
8.36400e-06;-0.012113207302911691
8.36425e-06;-0.012179373115225248
8.36450e-06;-0.012245096917196142
8.36475e-06;-0.012309082037700803
8.36500e-06;-0.012372379366327428
8.36525e-06;-0.01243297121303191
8.36550e-06;-0.012492561056362634
8.36575e-06;-0.012548209442841058
8.36600e-06;-0.012602082992146116
8.36625e-06;-0.012648975083777686
8.36650e-06;-0.012695867175409575
8.36675e-06;-0.012740433088901253
8.36700e-06;-0.012775848802886774
8.36725e-06;-0.012811264516872535
8.36750e-06;-0.012843211970616974
8.36775e-06;-0.012861516757620088
8.36800e-06;-0.012879821544623079
8.36825e-06;-0.012898126331626195
8.36850e-06;-0.01291643111862931
8.36875e-06;-0.012934735905632301
8.36900e-06;-0.012953040692635417
8.36925e-06;-0.012955561548311357
8.36950e-06;-0.012951404267618694
8.36975e-06;-0.012947246986926002
8.37000e-06;-0.012943089706233311
8.37025e-06;-0.012938932425540646
8.37050e-06;-0.012934775144847956
8.37075e-06;-0.012927257550868165
8.37100e-06;-0.012906521907741558
8.37125e-06;-0.01288578626461481
8.37150e-06;-0.012865050621488062
8.37175e-06;-0.012844314978361455
8.37200e-06;-0.012823579335234708
8.37225e-06;-0.01279597725591255
8.37250e-06;-0.012765470007001765
8.37275e-06;-0.012734962758090775
8.37300e-06;-0.012704455509179785
8.37325e-06;-0.012673948260269
8.37350e-06;-0.012642753296704756
8.37375e-06;-0.012608853154988752
8.37400e-06;-0.012574846734467581
8.37425e-06;-0.01254042225814207
8.37450e-06;-0.012506046579456335
8.37475e-06;-0.012471862850016594
8.37500e-06;-0.012437954822522048
8.37525e-06;-0.0124051312897023
8.37550e-06;-0.012372789220636143
8.37575e-06;-0.012342341026042952
8.37600e-06;-0.012312550136601387
8.37625e-06;-0.012285344807213007
8.37650e-06;-0.012258957145046
8.37675e-06;-0.012235785839389567
8.37700e-06;-0.012213715768412268
8.37725e-06;-0.012195977488215404
8.37750e-06;-0.012178239208018419
8.37775e-06;-0.012161883244456507
8.37800e-06;-0.012150964729032649
8.37825e-06;-0.012140046213608714
8.37850e-06;-0.012131375187316499
8.37875e-06;-0.012131544831305473
8.37900e-06;-0.01213171447529445
8.37925e-06;-0.012131884119283426
8.37950e-06;-0.012132053763272402
8.37975e-06;-0.012132223407261378
8.38000e-06;-0.012132393051250355
8.38025e-06;-0.012141800176359248
8.38050e-06;-0.012155115653409543
8.38075e-06;-0.01216843113045984
8.38100e-06;-0.012181746607510044
8.38125e-06;-0.01219506208456034
8.38150e-06;-0.012208377561610636
8.38175e-06;-0.012223533361151976
8.38200e-06;-0.012245928209873344
8.38225e-06;-0.012268323058594712
8.38250e-06;-0.012290717907315929
8.38275e-06;-0.012313112756037296
8.38300e-06;-0.012335507604758664
8.38325e-06;-0.01235790245347988
8.38350e-06;-0.012380811760655957
8.38375e-06;-0.012405744729485316
8.38400e-06;-0.012430677698314506
8.38425e-06;-0.012455610667143867
8.38450e-06;-0.012480543635973226
8.38475e-06;-0.012505476604802584
8.38500e-06;-0.012530409573631775
8.38525e-06;-0.012554251141920214
8.38550e-06;-0.012573799602761393
8.38575e-06;-0.01259334806360244
8.38600e-06;-0.012612896524443619
8.38625e-06;-0.012632444985284798
8.38650e-06;-0.012651993446125845
8.38675e-06;-0.012671541906967024
8.38700e-06;-0.01268610076476824
8.38725e-06;-0.012698548535739674
8.38750e-06;-0.012710996306711192
8.38775e-06;-0.012723444077682711
8.38800e-06;-0.012735891848654144
8.38825e-06;-0.012748339619625662
8.38850e-06;-0.012759324974861857
8.38875e-06;-0.012764557806024614
8.38900e-06;-0.012769790637187408
8.38925e-06;-0.012775023468350202
8.38950e-06;-0.01278025629951296
8.38975e-06;-0.012785489130675752
8.39000e-06;-0.012790721961838546
8.39025e-06;-0.012795954793001304
8.39050e-06;-0.012801187624164097
8.39075e-06;-0.012806420455326891
8.39100e-06;-0.012811653286489649
8.39125e-06;-0.012816886117652443
8.39150e-06;-0.012822118948815235
8.39175e-06;-0.012827351779977994
8.39200e-06;-0.012832584611140787
8.39225e-06;-0.01283781744230358
8.39250e-06;-0.012839555344776913
8.39275e-06;-0.012839814552879294
8.39300e-06;-0.012840073760981674
8.39325e-06;-0.012840332969084054
8.39350e-06;-0.012840592177186434
8.39375e-06;-0.012840851385288813
8.39400e-06;-0.012841110593391193
8.39425e-06;-0.012841369801493571
8.39450e-06;-0.012841629009595953
8.39475e-06;-0.012841888217698333
8.39500e-06;-0.01284214742580071
8.39525e-06;-0.012842406633903092
8.39550e-06;-0.012842665842005472
8.39575e-06;-0.01284292505010785
8.39600e-06;-0.01284318425821023
8.39625e-06;-0.012843122995899849
8.39650e-06;-0.01284180113872562
8.39675e-06;-0.012840479281551381
8.39700e-06;-0.012838390253746924
8.39725e-06;-0.012833283501629484
8.39750e-06;-0.01282817674951201
