Time(s);Current(A)
7.00000e-06;0.0007870290504126485
7.00025e-06;0.0007603824828194127
7.00050e-06;0.000733735915226177
7.00075e-06;0.000708405334987659
7.00100e-06;0.0006862003347100503
7.00125e-06;0.0006651712667790462
7.00150e-06;0.000646935136458207
7.00175e-06;0.0006286990061374295
7.00200e-06;0.0006114062074872797
7.00225e-06;0.0005963539004005424
7.00250e-06;0.0005813015933138562
7.00275e-06;0.0005672776363450953
7.00300e-06;0.0005556960968582499
7.00325e-06;0.0005441145573714045
7.00350e-06;0.0005335416554961934
7.00375e-06;0.0005253643522527649
7.00400e-06;0.0005171870490093364
7.00425e-06;0.0005097279041615881
7.00450e-06;0.000503974445528811
7.00475e-06;0.0004982209868960339
7.00500e-06;0.0004932578997380077
7.00525e-06;0.0004901720108934035
7.00550e-06;0.00048708612204879915
7.00575e-06;0.0004846053364382879
7.00600e-06;0.0004835617215844935
7.00625e-06;0.0004825181067306991
7.00650e-06;0.0004822144417778135
7.00675e-06;0.00048366821968602803
7.00700e-06;0.0004851219975942475
7.00725e-06;0.00048657577550246194
7.00750e-06;0.00048802955341067646
7.00775e-06;0.0004894833313188959
7.00800e-06;0.0004909371092271104
7.00825e-06;0.0004929462446857813
7.00850e-06;0.0004962744007446021
7.00875e-06;0.0004996025568034117
7.00900e-06;0.0005029307128622212
7.00925e-06;0.0005062588689210422
7.00950e-06;0.0005095870249798518
7.00975e-06;0.0005129151810386613
7.01000e-06;0.0005157652689819683
7.01025e-06;0.0005174799051931618
7.01050e-06;0.0005191945414043553
7.01075e-06;0.0005209091776155547
7.01100e-06;0.0005226238138267483
7.01125e-06;0.0005243384500379477
7.01150e-06;0.0005260530862491413
7.01175e-06;0.0005277677224603348
7.01200e-06;0.0005294823586715342
7.01225e-06;0.0005311969948827278
7.01250e-06;0.0005329116310939213
7.01275e-06;0.0005346262673051207
7.01300e-06;0.0005363409035163142
7.01325e-06;0.0005380555397275079
7.01350e-06;0.0005397701759387071
7.01375e-06;0.0005414848121499008
7.01400e-06;0.0005397167304204913
7.01425e-06;0.0005370576805439676
7.01450e-06;0.000534398630667453
7.01475e-06;0.0005317395807909383
7.01500e-06;0.0005290805309144147
7.01525e-06;0.0005264214810379
7.01550e-06;0.0005237624311613763
7.01575e-06;0.0005211033812848617
7.01600e-06;0.000518444331408347
7.01625e-06;0.0005157852815318234
7.01650e-06;0.0005131262316553087
7.01675e-06;0.0005104671817787941
7.01700e-06;0.0005078081319022704
7.01725e-06;0.0005051490820257557
7.01750e-06;0.0005024900321492411
7.01775e-06;0.0004993226932972643
7.01800e-06;0.0004949481256451431
7.01825e-06;0.0004905735579930219
7.01850e-06;0.0004861989903408859
7.01875e-06;0.00048182442268876474
7.01900e-06;0.00047744985503664355
7.01925e-06;0.00047316036619386226
7.01950e-06;0.00046907294663430405
7.01975e-06;0.00046498552707473196
7.02000e-06;0.00046089810751517374
7.02025e-06;0.0004568106879556155
7.02050e-06;0.00045272326839604344
7.02075e-06;0.0004488394642524522
7.02100e-06;0.000445439263740192
7.02125e-06;0.0004423152538949952
7.02150e-06;0.0004398472199684337
7.02175e-06;0.00043811427454308876
7.02200e-06;0.0004388818025534533
7.02225e-06;0.0004421864324309078
7.02250e-06;0.00044796958635360683
7.02275e-06;0.0004561110040597365
7.02300e-06;0.00046649045223687746
7.02325e-06;0.00047900054174223667
7.02350e-06;0.0004936610855828939
7.02375e-06;0.0005108012223826755
7.02400e-06;0.0005308463015644871
7.02425e-06;0.000554287623111929
7.02450e-06;0.0005807026379842565
7.02475e-06;0.0006085761627458691
7.02500e-06;0.000639913770397818
7.02525e-06;0.0006725032774177632
7.02550e-06;0.0007080661500717107
7.02575e-06;0.0007449426896713184
7.02600e-06;0.0007849392980645852
7.02625e-06;0.0008263579634447414
7.02650e-06;0.0008711541330250122
7.02675e-06;0.0009159503026052831
7.02700e-06;0.0009621285431328859
7.02725e-06;0.0010115893176744796
7.02750e-06;0.0010610500922160733
7.02775e-06;0.0011105108667578347
7.02800e-06;0.0011599716412994284
7.02825e-06;0.0012094324158411897
7.02850e-06;0.001259467249231454
7.02875e-06;0.001309648941528247
7.02900e-06;0.00135983063382521
7.02925e-06;0.0014100123261220029
7.02950e-06;0.0014601940184187957
7.02975e-06;0.001508090027342224
7.03000e-06;0.0015505573472144544
7.03025e-06;0.0015930246670866847
7.03050e-06;0.0016354919869590587
7.03075e-06;0.001677959306831289
7.03100e-06;0.0017204266267035193
7.03125e-06;0.0017577219287495413
7.03150e-06;0.0017827332561776636
7.03175e-06;0.001807744583605786
7.03200e-06;0.0018327559110339932
7.03225e-06;0.0018577672384621155
7.03250e-06;0.0018827785658903225
7.03275e-06;0.001902888440995076
7.03300e-06;0.0019113569571660544
7.03325e-06;0.0019198254733370616
7.03350e-06;0.001924890262256831
7.03375e-06;0.0019218709144699275
7.03400e-06;0.0019188515666830137
7.03425e-06;0.0019126262835645461
7.03450e-06;0.0018987866360802238
7.03475e-06;0.0018849469885958545
7.03500e-06;0.001868175966672921
7.03525e-06;0.001844442685452922
7.03550e-06;0.0018207094042328425
7.03575e-06;0.0017944249487253504
7.03600e-06;0.0017620812410570658
7.03625e-06;0.0017297375333886716
7.03650e-06;0.0016947534870825566
7.03675e-06;0.0016534984158311744
7.03700e-06;0.0016122433445799318
7.03725e-06;0.0015709882733286893
7.03750e-06;0.001529733202077307
7.03775e-06;0.0014884781308260645
7.03800e-06;0.0014428064495588997
7.03825e-06;0.0013960048867144035
7.03850e-06;0.0013492033238700655
7.03875e-06;0.0013024017610257276
7.03900e-06;0.0012556001981812311
7.03925e-06;0.0012094657825600505
7.03950e-06;0.0011649158973541258
7.03975e-06;0.0011203660121480504
7.04000e-06;0.001075816126942126
7.04025e-06;0.0010312662417362015
7.04050e-06;0.0009895917541196027
7.04075e-06;0.0009547465761040725
7.04100e-06;0.0009199013980884243
7.04125e-06;0.0008850562200728942
7.04150e-06;0.0008502110420573641
7.04175e-06;0.000817779087002387
7.04200e-06;0.0007910787381762617
7.04225e-06;0.0007654119248524595
7.04250e-06;0.0007421998447294778
7.04275e-06;0.0007201957721738771
7.04300e-06;0.0007010608185558275
7.04325e-06;0.000683254493038059
7.04350e-06;0.0006686037703052915
7.04375e-06;0.000654986229525982
7.04400e-06;0.0006438225822393502
7.04425e-06;0.0006335268371123593
7.04450e-06;0.0006252924321535747
7.04475e-06;0.0006179889127954153
7.04500e-06;0.000612896324542096
7.04525e-06;0.000608957443920707
7.04550e-06;0.000607758715351855
7.04575e-06;0.0006065599867830031
7.04600e-06;0.0006063318620143611
7.04625e-06;0.0006084090023940582
7.04650e-06;0.0006104861427737553
7.04675e-06;0.000613420187930598
7.04700e-06;0.0006183894535529953
7.04725e-06;0.0006233587191753926
7.04750e-06;0.0006291801985848226
7.04775e-06;0.0006370257569661516
7.04800e-06;0.0006448713153474806
7.04825e-06;0.0006527168737288362
7.04850e-06;0.0006605624321101651
7.04875e-06;0.0006684079904914941
7.04900e-06;0.0006765580004560914
7.04925e-06;0.0006854311083768027
7.04950e-06;0.000694304216297544
7.04975e-06;0.0007031773242182553
7.05000e-06;0.0007120504321389664
7.05025e-06;0.0007209235400597077
7.05050e-06;0.0007291024786625014
7.05075e-06;0.0007356327071169006
7.05100e-06;0.0007421629355713219
7.05125e-06;0.0007486931640257211
7.05150e-06;0.0007552233924801203
7.05175e-06;0.0007617536209345416
7.05200e-06;0.0007682838493889408
7.05225e-06;0.00077481407784334
7.05250e-06;0.0007813443062977614
7.05275e-06;0.0007868179483747627
7.05300e-06;0.0007920212886869011
7.05325e-06;0.0007972246289990571
7.05350e-06;0.0008024279693111954
7.05375e-06;0.0008076313096233514
7.05400e-06;0.0008128346499354898
7.05425e-06;0.0008180379902476281
7.05450e-06;0.0008232413305597841
7.05475e-06;0.000828431138935503
7.05500e-06;0.000833588807831236
7.05525e-06;0.0008387464767269863
7.05550e-06;0.0008439041456227192
7.05575e-06;0.0008490618145184521
7.05600e-06;0.0008542194834142025
7.05625e-06;0.0008593771523099353
7.05650e-06;0.0008645348212056683
7.05675e-06;0.0008696924901014186
7.05700e-06;0.0008748501589971515
7.05725e-06;0.0008800078278928844
7.05750e-06;0.0008851654967886348
7.05775e-06;0.0008903231656843676
7.05800e-06;0.0008952344063614346
7.05825e-06;0.0008995603594229267
7.05850e-06;0.0009038863124844043
7.05875e-06;0.0009082122655458964
7.05900e-06;0.0009125382186073739
7.05925e-06;0.0009168641716688514
7.05950e-06;0.0009211901247303436
7.05975e-06;0.0009255160777918211
7.06000e-06;0.0009298420308532985
7.06025e-06;0.0009341679839147906
7.06050e-06;0.0009384939369762682
7.06075e-06;0.0009428198900377457
7.06100e-06;0.0009471458430992378
7.06125e-06;0.0009497611359328733
7.06150e-06;0.0009483134677502097
7.06175e-06;0.0009468657995675412
7.06200e-06;0.0009454181313848775
7.06225e-06;0.0009439704632022139
7.06250e-06;0.0009425227950195454
7.06275e-06;0.0009410751268368818
7.06300e-06;0.0009396274586542133
7.06325e-06;0.0009381797904715497
7.06350e-06;0.0009367321222888861
7.06375e-06;0.0009352844541062175
7.06400e-06;0.0009338367859235538
7.06425e-06;0.0009294018092797612
7.06450e-06;0.0009178717253651243
7.06475e-06;0.0009063416414505264
7.06500e-06;0.0008948115575359287
7.06525e-06;0.0008832814736212918
7.06550e-06;0.0008717513897066939
7.06575e-06;0.0008602213057920961
7.06600e-06;0.0008486912218774592
7.06625e-06;0.0008371611379628614
7.06650e-06;0.0008256310540482635
7.06675e-06;0.0008141009701336266
7.06700e-06;0.0008025708862190288
7.06725e-06;0.0007896659141334482
7.06750e-06;0.0007734954677306925
7.06775e-06;0.0007573250213279369
7.06800e-06;0.0007411545749251263
7.06825e-06;0.0007249841285223707
7.06850e-06;0.000708813682119615
7.06875e-06;0.0006926432357168045
7.06900e-06;0.00067697946027776
7.06925e-06;0.0006614453042040195
7.06950e-06;0.0006459111481302265
7.06975e-06;0.000630376992056486
7.07000e-06;0.0006148428359827456
7.07025e-06;0.0005993086799089525
7.07050e-06;0.0005845723618476644
7.07075e-06;0.0005717309757480079
7.07100e-06;0.000558889589648308
7.07125e-06;0.000546797707072223
7.07150e-06;0.0005364859580068933
7.07175e-06;0.0005271852121701147
7.07200e-06;0.0005202856834990587
7.07225e-06;0.0005145590144624288
7.07250e-06;0.0005116179850832845
7.07275e-06;0.0005098229369998971
7.07300e-06;0.000510749690273134
7.07325e-06;0.0005128163196564484
7.07350e-06;0.0005175902500700969
7.07375e-06;0.0005236330846919829
7.07400e-06;0.0005326896728611702
7.07425e-06;0.0005430060850683371
7.07450e-06;0.0005563146846596374
7.07475e-06;0.0005707557961963395
7.07500e-06;0.0005878867182567993
7.07525e-06;0.000606035869740253
7.07550e-06;0.0006266034012048744
7.07575e-06;0.0006483854995754381
7.07600e-06;0.0006730522958586137
7.07625e-06;0.0006977190921417893
7.07650e-06;0.0007235520996158397
7.07675e-06;0.0007521549561376449
7.07700e-06;0.0007807578126594499
7.07725e-06;0.0008103102988836695
7.07750e-06;0.0008421182350190006
7.07775e-06;0.0008739261711543315
7.07800e-06;0.0009057341072897703
7.07825e-06;0.0009375420434251014
7.07850e-06;0.0009693499795604324
7.07875e-06;0.0010012481888706111
7.07900e-06;0.0010331694923629991
7.07925e-06;0.001065090795855387
7.07950e-06;0.0010970120993478833
7.07975e-06;0.001128933402840271
7.08000e-06;0.001158898448321936
7.08025e-06;0.00118421721752783
7.08050e-06;0.0012095359867337237
7.08075e-06;0.0012348547559397033
7.08100e-06;0.001260173525145597
7.08125e-06;0.0012854922943514907
7.08150e-06;0.0013108110635574703
7.08175e-06;0.0013338566932621773
7.08200e-06;0.0013515034266675119
7.08225e-06;0.0013691501600729063
7.08250e-06;0.0013867968934782409
7.08275e-06;0.0014044436268835754
7.08300e-06;0.0014220903602889699
7.08325e-06;0.0014397370936943044
7.08350e-06;0.001455706919166206
7.08375e-06;0.0014676939481440574
7.08400e-06;0.0014796809771218684
7.08425e-06;0.0014916680060997197
7.08450e-06;0.0015036550350775305
7.08475e-06;0.0015156420640553415
7.08500e-06;0.0015276290930331929
7.08525e-06;0.0015396161220110037
7.08550e-06;0.0015516031509888147
7.08575e-06;0.001563590179966666
7.08600e-06;0.001575577208944477
7.08625e-06;0.0015875642379222878
7.08650e-06;0.0015995512669001392
7.08675e-06;0.0016115382958779502
7.08700e-06;0.001623525324855761
7.08725e-06;0.0016355123538336124
7.08750e-06;0.0016474993828114234
7.08775e-06;0.0016594864117892342
7.08800e-06;0.0016714734407670855
7.08825e-06;0.0016834604697448965
7.08850e-06;0.0016914702070058448
7.08875e-06;0.0016984624515257107
7.08900e-06;0.0017054546960455766
7.08925e-06;0.001712446940565466
7.08950e-06;0.0017194391850853317
7.08975e-06;0.0017264314296051976
7.09000e-06;0.0017334236741250871
7.09025e-06;0.001740415918644953
7.09050e-06;0.0017474081631648187
7.09075e-06;0.0017544004076847082
7.09100e-06;0.001761392652204574
7.09125e-06;0.00176838489672444
7.09150e-06;0.0017753771412443295
7.09175e-06;0.0017823693857641953
7.09200e-06;0.001789361630284061
7.09225e-06;0.0017963538748039505
7.09250e-06;0.0018033461193238164
7.09275e-06;0.001810338363843706
7.09300e-06;0.0018173306083635718
7.09325e-06;0.0018245605438677892
7.09350e-06;0.001832355015325416
7.09375e-06;0.0018401494867830166
7.09400e-06;0.0018479439582406172
7.09425e-06;0.0018557384296982442
7.09450e-06;0.0018635329011558448
7.09475e-06;0.0018713273726134454
7.09500e-06;0.0018791218440710725
7.09525e-06;0.001886916315528673
7.09550e-06;0.0018947107869862736
7.09575e-06;0.0019025052584439007
7.09600e-06;0.0019102997299015013
7.09625e-06;0.0019180942013591019
7.09650e-06;0.001925888672816729
7.09675e-06;0.0019341507748897719
7.09700e-06;0.0019435235387576927
7.09725e-06;0.001952896302625582
7.09750e-06;0.001962269066493471
7.09775e-06;0.0019716418303613917
7.09800e-06;0.001981014594229281
7.09825e-06;0.00199038735809717
7.09850e-06;0.001999760121965091
7.09875e-06;0.00200913288583298
7.09900e-06;0.0020185056497008694
7.09925e-06;0.00202787841356879
7.09950e-06;0.0020372511774366794
7.09975e-06;0.0020466239413045686
7.10000e-06;0.0020559967051724895
7.10025e-06;0.0020640406822859413
7.10050e-06;0.002068928679801832
7.10075e-06;0.0020738166773177392
7.10100e-06;0.00207870467483363
7.10125e-06;0.0020835926723495376
7.10150e-06;0.0020884806698654285
7.10175e-06;0.0020933686673813194
7.10200e-06;0.002098256664897227
7.10225e-06;0.0021031446624131178
7.10250e-06;0.0021080326599290087
7.10275e-06;0.0021025278681642804
7.10300e-06;0.002094364335627998
7.10325e-06;0.002086200803091716
7.10350e-06;0.0020780372705554062
7.10375e-06;0.002069873738019124
7.10400e-06;0.0020617102054828417
7.10425e-06;0.0020535466729465317
7.10450e-06;0.0020453831404102494
7.10475e-06;0.002037219607873967
7.10500e-06;0.0020252391515474667
7.10525e-06;0.002004193182213967
7.10550e-06;0.001983147212880396
7.10575e-06;0.001962101243546896
7.10600e-06;0.0019410552742133967
7.10625e-06;0.0019200093048798257
7.10650e-06;0.001898963335546326
7.10675e-06;0.0018779173662128263
7.10700e-06;0.001854989939039159
7.10725e-06;0.001827593892249796
7.10750e-06;0.001800197845460433
7.10775e-06;0.001772801798670977
7.10800e-06;0.001745405751881614
7.10825e-06;0.001718009705092251
7.10850e-06;0.0016906136583027952
7.10875e-06;0.0016632176115134322
7.10900e-06;0.001636298714058297
7.10925e-06;0.0016105130861502695
7.10950e-06;0.0015847274582423292
7.10975e-06;0.0015589418303343014
7.11000e-06;0.0015331562024263612
7.11025e-06;0.0015073705745184207
7.11050e-06;0.0014815849466103931
7.11075e-06;0.0014576934242306135
7.11100e-06;0.0014383005607824363
7.11125e-06;0.0014189076973341935
7.11150e-06;0.0013995148338860164
7.11175e-06;0.0013801219704378395
7.11200e-06;0.0013607291069895966
7.11225e-06;0.0013413362435414195
7.11250e-06;0.0013215970612062034
7.11275e-06;0.0013010353425701954
7.11300e-06;0.001280473623934257
7.11325e-06;0.0012599119052983186
7.11350e-06;0.0012393501866623106
7.11375e-06;0.0012187884680263722
7.11400e-06;0.0011982267493903642
7.11425e-06;0.0011776650307544257
7.11450e-06;0.0011571033121184873
7.11475e-06;0.0011365415934824793
7.11500e-06;0.001115979874846541
7.11525e-06;0.0010939234204928772
7.11550e-06;0.0010683168438854818
7.11575e-06;0.0010427102672781732
7.11600e-06;0.0010171036906708646
7.11625e-06;0.0009914971140634692
7.11650e-06;0.0009658905374561607
7.11675e-06;0.0009402839608488521
7.11700e-06;0.0009146773842414567
7.11725e-06;0.0008890708076341481
7.11750e-06;0.0008634642310268396
7.11775e-06;0.0008378576544194442
7.11800e-06;0.0008119945439925072
7.11825e-06;0.0007855221443038295
7.11850e-06;0.0007590497446152416
7.11875e-06;0.0007325773449266535
7.11900e-06;0.0007061049452379759
7.11925e-06;0.0006796325455493879
7.11950e-06;0.0006557346505090955
7.11975e-06;0.0006324953794710661
7.12000e-06;0.0006092561084331153
7.12025e-06;0.0005860168373951647
7.12050e-06;0.0005627775663571352
7.12075e-06;0.000540700740548798
7.12100e-06;0.0005213848193129684
7.12125e-06;0.0005029809119290285
7.12150e-06;0.00048674311366570964
7.12175e-06;0.0004715484096607581
7.12200e-06;0.0004588311416966797
7.12225e-06;0.00044720586983858446
7.12250e-06;0.00043817417999632226
7.12275e-06;0.0004302699748076783
7.12300e-06;0.00042504363990149513
7.12325e-06;0.00042097754034842573
7.12350e-06;0.0004196670967263656
7.12375e-06;0.0004195118309836942
7.12400e-06;0.00042210020924920305
7.12425e-06;0.0004257872061949934
7.12450e-06;0.0004320835143240879
7.12475e-06;0.00043941347436934864
7.12500e-06;0.0004491984441033766
7.12525e-06;0.00045995040885323874
7.12550e-06;0.0004729990675828138
7.12575e-06;0.00048692437665230837
7.12600e-06;0.000502931803545647
7.12625e-06;0.000519855166384232
7.12650e-06;0.0005389539536423008
7.12675e-06;0.0005580527409004342
7.12700e-06;0.0005782227149204386
7.12725e-06;0.0006009368470248532
7.12750e-06;0.0006236509791293449
7.12775e-06;0.0006463651112337595
7.12800e-06;0.0006690792433381742
7.12825e-06;0.0006917933754426658
7.12850e-06;0.000715585333184785
7.12875e-06;0.0007396530262360671
7.12900e-06;0.0007637207192874307
7.12925e-06;0.0007877884123387126
7.12950e-06;0.0008118561053899947
7.12975e-06;0.0008344172349058945
7.13000e-06;0.0008534001501136381
7.13025e-06;0.0008723830653213818
7.13050e-06;0.0008913659805291897
7.13075e-06;0.0009103488957369334
7.13100e-06;0.0009293318109447413
7.13125e-06;0.0009483147261524849
7.13150e-06;0.0009672976413602286
7.13175e-06;0.0009862805565680366
7.13200e-06;0.0010027843103149639
7.13225e-06;0.001013399848396325
7.13250e-06;0.001024015386477722
7.13275e-06;0.0010346309245590833
7.13300e-06;0.0010452464626404445
7.13325e-06;0.0010558620007218417
7.13350e-06;0.001066477538803203
7.13375e-06;0.0010770930768845641
7.13400e-06;0.0010877086149659611
7.13425e-06;0.001096579957448709
7.13450e-06;0.0011013086896136581
7.13475e-06;0.0011060374217786233
7.13500e-06;0.0011107661539435725
7.13525e-06;0.0011154948861085378
7.13550e-06;0.001120223618273487
7.13575e-06;0.0011249523504384361
7.13600e-06;0.0011296810826034013
7.13625e-06;0.0011344098147683505
7.13650e-06;0.0011391385469332997
7.13675e-06;0.001143867279098265
7.13700e-06;0.001148596011263214
7.13725e-06;0.0011522658127662419
7.13750e-06;0.0011534205654472776
7.13775e-06;0.0011545753181283094
7.13800e-06;0.0011557300708093412
7.13825e-06;0.001156884823490377
7.13850e-06;0.0011580395761714088
7.13875e-06;0.0011591943288524406
7.13900e-06;0.0011603490815334763
7.13925e-06;0.0011615038342145082
7.13950e-06;0.0011626585868955439
7.13975e-06;0.0011638133395765757
7.14000e-06;0.0011649680922576075
7.14025e-06;0.0011657941777987648
7.14050e-06;0.0011658396514144754
7.14075e-06;0.001165885125030186
7.14100e-06;0.0011659305986458967
7.14125e-06;0.0011659760722616073
7.14150e-06;0.001166021545877318
7.14175e-06;0.0011660670194930285
7.14200e-06;0.0011623863144438102
7.14225e-06;0.0011577523577833665
7.14250e-06;0.001153118401122907
7.14275e-06;0.0011484844444624633
7.14300e-06;0.0011438504878020198
7.14325e-06;0.0011392165311415604
7.14350e-06;0.0011320664665344566
7.14375e-06;0.001118940435271612
7.14400e-06;0.001105814404008812
7.14425e-06;0.0010926883727460119
7.14450e-06;0.0010795623414831673
7.14475e-06;0.0010664363102203672
7.14500e-06;0.0010533102789575671
7.14525e-06;0.0010401842476947226
7.14550e-06;0.0010246421236850191
7.14575e-06;0.0010033615774780382
7.14600e-06;0.0009820810312709852
7.14625e-06;0.0009608004850640042
7.14650e-06;0.0009395199388570233
7.14675e-06;0.0009182393926499702
7.14700e-06;0.0008969588464429893
7.14725e-06;0.0008756783002360083
