Time(s);Current(A)
7.50000e-07;0.011948594945937096
7.50250e-07;0.011911310910169268
7.50500e-07;0.011874026874401441
7.50750e-07;0.011836742838633613
7.51000e-07;0.011799458802865785
7.51250e-07;0.011762174767097974
7.51500e-07;0.011724890731330146
7.51750e-07;0.0116854254811214
7.52000e-07;0.011644055821916124
7.52250e-07;0.011602686162710846
7.52500e-07;0.011561664882222369
7.52750e-07;0.011520947769701037
7.53000e-07;0.011480230657179707
7.53250e-07;0.011441037494373325
7.53500e-07;0.01140317488554319
7.53750e-07;0.011365312276713056
7.54000e-07;0.01133024879640232
7.54250e-07;0.011297629223226413
7.54500e-07;0.011265009650050506
7.54750e-07;0.011236573439001292
7.55000e-07;0.011211789703527342
7.55250e-07;0.01118700596805339
7.55500e-07;0.011170091415011813
7.55750e-07;0.011160047411485442
7.56000e-07;0.011150003407959073
7.56250e-07;0.011139959404432704
7.56500e-07;0.011129915400906333
7.56750e-07;0.011119871397379967
7.57000e-07;0.011120849055625588
7.57250e-07;0.01113144967961072
7.57500e-07;0.011142050303595852
7.57750e-07;0.011152650927580983
7.58000e-07;0.011163251551566115
7.58250e-07;0.011173852175551242
7.58500e-07;0.011195894438315169
7.58750e-07;0.011227926346946493
7.59000e-07;0.011259958255577816
7.59250e-07;0.011291990164209141
7.59500e-07;0.011324022072840466
7.59750e-07;0.011356053981471775
7.60000e-07;0.0113880858901031
7.60250e-07;0.011420117798734423
7.60500e-07;0.011452621247041972
7.60750e-07;0.011498572922008224
7.61000e-07;0.011544524596974456
7.61250e-07;0.011590476271940708
7.61500e-07;0.011636427946906962
7.61750e-07;0.011682379621873214
7.62000e-07;0.011728331296839466
7.62250e-07;0.011774282971805718
7.62500e-07;0.011820234646771951
7.62750e-07;0.01186691461790655
7.63000e-07;0.011913379402931834
7.63250e-07;0.01195910113252829
7.63500e-07;0.012004822862124747
7.63750e-07;0.012048201570827229
7.64000e-07;0.012089534598011221
7.64250e-07;0.01213086762519523
7.64500e-07;0.01216599281545453
7.64750e-07;0.012195697969853609
7.65000e-07;0.012225403124252686
7.65250e-07;0.01225510827865175
7.65500e-07;0.012284813433050826
7.65750e-07;0.012314518587449905
7.66000e-07;0.01233369431832102
7.66250e-07;0.012343676854557464
7.66500e-07;0.01235365939079391
7.66750e-07;0.012363641927030352
7.67000e-07;0.012373624463266796
7.67250e-07;0.01238360699950324
7.67500e-07;0.012384868431566881
7.67750e-07;0.01237851550488837
7.68000e-07;0.01237216257820986
7.68250e-07;0.012364138760831919
7.68500e-07;0.012350202402099568
7.68750e-07;0.012336266043367216
7.69000e-07;0.012322329684634866
7.69250e-07;0.012301288468367208
7.69500e-07;0.012279015212459027
7.69750e-07;0.012250009954015904
7.70000e-07;0.01221438387204767
7.70250e-07;0.012182877702118853
7.70500e-07;0.012149175856894272
7.70750e-07;0.012116750166620357
7.71000e-07;0.01208288776213882
7.71250e-07;0.0120438786618169
7.71500e-07;0.01200504334850099
7.71750e-07;0.011964698225526855
7.72000e-07;0.011922604618240244
7.72250e-07;0.01188051101095365
7.72500e-07;0.01183947543619187
7.72750e-07;0.01180000585441649
7.73000e-07;0.011761023795851666
7.73250e-07;0.011722041737286845
7.73500e-07;0.011684014730431532
7.73750e-07;0.01164783237433006
7.74000e-07;0.011612536180074708
7.74250e-07;0.011577239985819356
7.74500e-07;0.01154536641617281
7.74750e-07;0.011517034652130432
7.75000e-07;0.011491027737205521
7.75250e-07;0.011467426626180914
7.75500e-07;0.011445695646762549
7.75750e-07;0.01142589991977781
7.76000e-07;0.01140610419279307
7.76250e-07;0.01138630846580833
7.76500e-07;0.011370002529808614
7.76750e-07;0.011357307904624674
7.77000e-07;0.011344613279440734
7.77250e-07;0.011331918654256794
7.77500e-07;0.01132298859710393
7.77750e-07;0.011317954195967643
7.78000e-07;0.01131291979483136
7.78250e-07;0.011307885393695073
7.78500e-07;0.011302850992558787
7.78750e-07;0.011297816591422502
7.79000e-07;0.011292782190286215
7.79250e-07;0.011287747789149928
7.79500e-07;0.011282713388013645
7.79750e-07;0.011285386927138789
7.80000e-07;0.01128812698772067
7.80250e-07;0.01129086704830255
7.80500e-07;0.011293607108884432
7.80750e-07;0.01129634716946631
7.81000e-07;0.011299087230048192
7.81250e-07;0.011301827290630072
7.81500e-07;0.011304567351211952
7.81750e-07;0.01130886564838869
7.82000e-07;0.011314776442328917
7.82250e-07;0.011320687236269139
7.82500e-07;0.011326598030209366
7.82750e-07;0.011332508824149592
7.83000e-07;0.011338419618089818
7.83250e-07;0.011344563835211442
7.83500e-07;0.011350949603664721
7.83750e-07;0.011357335372118
7.84000e-07;0.011363721140571279
7.84250e-07;0.011370106909024558
7.84500e-07;0.01137649267747784
7.84750e-07;0.01138375076427026
7.85000e-07;0.011391911544853365
7.85250e-07;0.011400072325436475
7.85500e-07;0.011408233106019584
7.85750e-07;0.011416393886602693
7.86000e-07;0.011424554667185803
7.86250e-07;0.011432715447768912
7.86500e-07;0.01144494943017505
7.86750e-07;0.011461398449487908
7.87000e-07;0.011477847468800767
7.87250e-07;0.011494296488113625
7.87500e-07;0.011510745507426484
7.87750e-07;0.011527194526739335
7.88000e-07;0.011543643546052194
7.88250e-07;0.011565380561577935
7.88500e-07;0.011592589709388873
7.88750e-07;0.011619798857199808
7.89000e-07;0.011647008005010744
7.89250e-07;0.011674217152821667
7.89500e-07;0.011701426300632605
7.89750e-07;0.01172863544844354
7.90000e-07;0.011755844596254476
7.90250e-07;0.011783053744065412
7.90500e-07;0.011810262891876347
7.90750e-07;0.01184027041747819
7.91000e-07;0.011873173764642583
7.91250e-07;0.011906077111806974
7.91500e-07;0.011938980458971366
7.91750e-07;0.01197188380613576
7.92000e-07;0.012004787153300138
7.92250e-07;0.01203769050046453
7.92500e-07;0.012070593847628923
7.92750e-07;0.012103497194793315
7.93000e-07;0.012136400541957708
7.93250e-07;0.012166662408324484
7.93500e-07;0.012194190813513986
7.93750e-07;0.012221719218703499
7.94000e-07;0.012249247623893011
7.94250e-07;0.012276776029082526
7.94500e-07;0.012304304434272039
7.94750e-07;0.012331832839461552
7.95000e-07;0.012359361244651054
7.95250e-07;0.012372902440252825
7.95500e-07;0.012386322922729379
7.95750e-07;0.01239974340520593
7.96000e-07;0.012413163887682484
7.96250e-07;0.012426584370159031
7.96500e-07;0.012440004852635585
7.96750e-07;0.012453425335112137
7.97000e-07;0.012457666437070098
7.97250e-07;0.012452408518515904
7.97500e-07;0.01244715059996171
7.97750e-07;0.012441892681407518
7.98000e-07;0.012436634762853324
7.98250e-07;0.012431376844299132
7.98500e-07;0.012426118925744937
7.98750e-07;0.012420861007190743
7.99000e-07;0.01241560308863655
7.99250e-07;0.012394818921623044
7.99500e-07;0.012373900759193009
7.99750e-07;0.012352982596762974
8.00000e-07;0.01233206443433294
8.00250e-07;0.012311146271902905
8.00500e-07;0.012290228109472879
8.00750e-07;0.012269309947042844
8.01000e-07;0.012248391784612811
8.01250e-07;0.012224375010966905
8.01500e-07;0.012197151727748892
8.01750e-07;0.01216992844453088
8.02000e-07;0.012142705161312878
8.02250e-07;0.012115481878094865
8.02500e-07;0.012088258594876854
8.02750e-07;0.01206103531165884
8.03000e-07;0.012033812028440827
8.03250e-07;0.012006588745222814
8.03500e-07;0.01198306514314781
8.03750e-07;0.011963370050741273
8.04000e-07;0.011943674958334734
8.04250e-07;0.011923979865928197
8.04500e-07;0.01190428477352166
8.04750e-07;0.01188458968111513
8.05000e-07;0.011864894588708591
8.05250e-07;0.011845199496302054
8.05500e-07;0.011825504403895517
8.05750e-07;0.011814392514903094
8.06000e-07;0.01181216270952474
8.06250e-07;0.011809932904146388
8.06500e-07;0.011807703098768035
8.06750e-07;0.011805473293389683
8.07000e-07;0.011803243488011329
8.07250e-07;0.011801013682632977
8.07500e-07;0.011798783877254625
8.07750e-07;0.011796554071876271
8.08000e-07;0.011811189921116266
8.08250e-07;0.011825971325183754
8.08500e-07;0.011840752729251242
8.08750e-07;0.01185553413331873
8.09000e-07;0.011870315537386211
8.09250e-07;0.0118850969414537
8.09500e-07;0.011899878345521187
8.09750e-07;0.011914659749588675
8.10000e-07;0.011935260445892715
8.10250e-07;0.01196188307104153
8.10500e-07;0.011988505696190335
8.10750e-07;0.01201512832133915
8.11000e-07;0.012041750946487965
8.11250e-07;0.01206837357163678
8.11500e-07;0.012094996196785595
8.11750e-07;0.012121618821934398
8.12000e-07;0.012148241447083213
8.12250e-07;0.012174864072232028
8.12500e-07;0.012201486697380843
8.12750e-07;0.012228109322529658
8.13000e-07;0.012251542763945456
8.13250e-07;0.01227494868190611
8.13500e-07;0.012298354599866773
8.13750e-07;0.012321760517827438
8.14000e-07;0.012345166435788103
8.14250e-07;0.012368572353748766
8.14500e-07;0.01239197827170943
8.14750e-07;0.012415384189670085
8.15000e-07;0.012438790107630748
8.15250e-07;0.012462196025591413
8.15500e-07;0.012485601943552077
8.15750e-07;0.012501246476509792
8.16000e-07;0.012508859361231762
8.16250e-07;0.012516472245953736
8.16500e-07;0.012524085130675707
8.16750e-07;0.01253169801539768
8.17000e-07;0.012539310900119652
8.17250e-07;0.012546923784841625
8.17500e-07;0.012554536669563595
8.17750e-07;0.012562149554285567
8.18000e-07;0.01256976243900754
8.18250e-07;0.012577375323729514
8.18500e-07;0.012578306688328315
8.18750e-07;0.012572323872108986
8.19000e-07;0.01256634105588966
8.19250e-07;0.01256035823967033
8.19500e-07;0.012554375423451
8.19750e-07;0.01254839260723167
8.20000e-07;0.01254240979101234
8.20250e-07;0.012536426974793012
8.20500e-07;0.012530444158573682
8.20750e-07;0.012524461342354352
8.21000e-07;0.012518478526135022
8.21250e-07;0.01250988407066994
8.21500e-07;0.012498587034707596
8.21750e-07;0.012487289998745257
8.22000e-07;0.012475992962782914
8.22250e-07;0.012464695926820571
8.22500e-07;0.012453398890858228
8.22750e-07;0.012442101854895884
8.23000e-07;0.012430804818933541
8.23250e-07;0.012419507782971203
8.23500e-07;0.01240821074700886
8.23750e-07;0.012399086926634512
8.24000e-07;0.012392211996520958
8.24250e-07;0.012385337066407405
8.24500e-07;0.012378462136293853
8.24750e-07;0.0123715872061803
8.25000e-07;0.012364712276066746
8.25250e-07;0.012357837345953191
8.25500e-07;0.012350962415839637
8.25750e-07;0.012344087485726083
8.26000e-07;0.012337212555612532
8.26250e-07;0.01233560264554761
8.26500e-07;0.012339441091538887
8.26750e-07;0.012343279537530165
8.27000e-07;0.012347117983521443
8.27250e-07;0.012350956429512719
8.27500e-07;0.012354794875503996
8.27750e-07;0.012358633321495274
8.28000e-07;0.012362471767486552
8.28250e-07;0.01236631021347783
8.28500e-07;0.012370148659469107
8.28750e-07;0.012373987105460383
8.29000e-07;0.01237782555145166
8.29250e-07;0.012381663997442938
8.29500e-07;0.012385502443434216
8.29750e-07;0.012393247589250828
8.30000e-07;0.012405035472123817
8.30250e-07;0.012416823354996803
8.30500e-07;0.012428611237869792
8.30750e-07;0.012440399120742783
8.31000e-07;0.012452187003615774
8.31250e-07;0.012463974886488764
8.31500e-07;0.01247576276936175
8.31750e-07;0.012487550652234738
8.32000e-07;0.01249933853510773
8.32250e-07;0.01251112641798072
8.32500e-07;0.01252291430085371
8.32750e-07;0.0125347021837267
8.33000e-07;0.012546490066599685
8.33250e-07;0.012557661998589726
8.33500e-07;0.012568196531350044
8.33750e-07;0.012578731064110364
8.34000e-07;0.012589265596870682
8.34250e-07;0.012599800129631002
8.34500e-07;0.012610334662391314
8.34750e-07;0.012620869195151634
8.35000e-07;0.012631403727911952
8.35250e-07;0.012641938260672272
8.35500e-07;0.01265247279343259
8.35750e-07;0.01265446076342164
8.36000e-07;0.012656374974431317
8.36250e-07;0.012658289185440996
8.36500e-07;0.012660203396450673
8.36750e-07;0.012662117607460352
8.37000e-07;0.012664031818470029
8.37250e-07;0.012665946029479706
8.37500e-07;0.012667860240489385
8.37750e-07;0.012669774451499062
8.38000e-07;0.012665971493326619
8.38250e-07;0.012656252285443738
8.38500e-07;0.012646533077560857
8.38750e-07;0.01263681386967798
8.39000e-07;0.012627094661795098
8.39250e-07;0.012617375453912217
8.39500e-07;0.012607656246029336
8.39750e-07;0.012597937038146457
8.40000e-07;0.012588217830263579
8.40250e-07;0.012578498622380698
8.40500e-07;0.012568779414497817
8.40750e-07;0.012559060206614936
8.41000e-07;0.012549340998732054
8.41250e-07;0.012535074753528972
8.41500e-07;0.012520769266253853
8.41750e-07;0.01250646377897873
8.42000e-07;0.012492158291703605
8.42250e-07;0.012477852804428482
8.42500e-07;0.012463547317153358
8.42750e-07;0.012449241829878234
8.43000e-07;0.012434936342603117
8.43250e-07;0.012420630855327993
8.43500e-07;0.012406325368052869
8.43750e-07;0.012392019880777745
8.44000e-07;0.01237771439350262
8.44250e-07;0.012366067078348295
8.44500e-07;0.012357170496911837
8.44750e-07;0.012348273915475378
8.45000e-07;0.01233937733403892
8.45250e-07;0.012330480752602463
8.45500e-07;0.012321584171166003
8.45750e-07;0.01231268758972955
8.46000e-07;0.012303791008293092
8.46250e-07;0.012294894426856632
8.46500e-07;0.012285997845420175
8.46750e-07;0.012278345653320479
8.47000e-07;0.01227070420061274
8.47250e-07;0.012263062747904997
8.47500e-07;0.012255421295197255
8.47750e-07;0.012247779842489512
8.48000e-07;0.012240138389781769
8.48250e-07;0.012232496937074027
8.48500e-07;0.012224855484366288
8.48750e-07;0.012217214031658544
8.49000e-07;0.012209212748847856
8.49250e-07;0.01220083910610263
8.49500e-07;0.012192465463357406
8.49750e-07;0.01218409182061218
8.50000e-07;0.012175718177866958
8.50250e-07;0.012167344535121732
8.50500e-07;0.012158970892376506
8.50750e-07;0.012150597249631282
8.51000e-07;0.012142223606886056
8.51250e-07;0.012133849964140834
8.51500e-07;0.012125476321395608
8.51750e-07;0.012117102678650384
8.52000e-07;0.012110234182890516
8.52250e-07;0.012103378676926485
8.52500e-07;0.012096523170962456
8.52750e-07;0.012089667664998428
8.53000e-07;0.012082812159034397
8.53250e-07;0.012075956653070367
8.53500e-07;0.012069101147106336
8.53750e-07;0.012062245641142307
8.54000e-07;0.012055390135178277
8.54250e-07;0.01204853462921425
8.54500e-07;0.012041679123250219
8.54750e-07;0.012038449568808562
8.55000e-07;0.012038972227037436
8.55250e-07;0.01203949488526631
8.55500e-07;0.012040017543495185
8.55750e-07;0.012040540201724058
8.56000e-07;0.012041062859952932
8.56250e-07;0.012041585518181807
8.56500e-07;0.01204210817641068
8.56750e-07;0.012055843042604385
8.57000e-07;0.012069691933465255
8.57250e-07;0.01208354082432613
8.57500e-07;0.012097389715187007
8.57750e-07;0.012111238606047882
8.58000e-07;0.012125087496908759
8.58250e-07;0.012138936387769634
8.58500e-07;0.0121601495317397
8.58750e-07;0.012188983363315482
8.59000e-07;0.012217817194891267
8.59250e-07;0.01224665102646705
8.59500e-07;0.012275484858042834
8.59750e-07;0.012304318689618605
8.60000e-07;0.01233315252119439
8.60250e-07;0.012361986352770173
8.60500e-07;0.012390820184345957
8.60750e-07;0.012419654015921742
8.61000e-07;0.012448487847497525
8.61250e-07;0.012480158207615432
8.61500e-07;0.01251476386851455
8.61750e-07;0.01254936952941367
8.62000e-07;0.012583975190312789
8.62250e-07;0.012618580851211907
8.62500e-07;0.012653186512111026
8.62750e-07;0.01268779217301013
8.63000e-07;0.012722397833909249
8.63250e-07;0.012757003494808369
8.63500e-07;0.012791609155707487
8.63750e-07;0.012826214816606606
8.64000e-07;0.01285638860664124
8.64250e-07;0.012881976201325673
8.64500e-07;0.012907563796010105
8.64750e-07;0.012933151390694536
8.65000e-07;0.012958738985378969
8.65250e-07;0.012984326580063401
8.65500e-07;0.013009914174747821
8.65750e-07;0.013035501769432254
8.66000e-07;0.013061089364116686
8.66250e-07;0.013082300153160085
8.66500e-07;0.013103473169273478
8.66750e-07;0.013124646185386864
8.67000e-07;0.013145819201500257
8.67250e-07;0.013166992217613652
8.67500e-07;0.013188165233727045
8.67750e-07;0.01320933824984044
8.68000e-07;0.013230511265953834
8.68250e-07;0.01325183863752091
8.68500e-07;0.01327332573943341
8.68750e-07;0.013294812841345907
8.69000e-07;0.013316299943258407
8.69250e-07;0.013337787045170905
8.69500e-07;0.013359274147083405
8.69750e-07;0.013380761248995895
8.70000e-07;0.013402248350908393
8.70250e-07;0.013423735452820893
8.70500e-07;0.013445222554733391
8.70750e-07;0.013466709656645889
8.71000e-07;0.01348819675855838
8.71250e-07;0.013509683860470878
8.71500e-07;0.013529055817367042
8.71750e-07;0.013548409520031416
8.72000e-07;0.013567763222695792
8.72250e-07;0.013587116925360167
8.72500e-07;0.013606470628024534
8.72750e-07;0.013625824330688908
8.73000e-07;0.013645178033353283
8.73250e-07;0.013664531736017659
8.73500e-07;0.013683885438682033
8.73750e-07;0.013703239141346408
8.74000e-07;0.013722592844010775
8.74250e-07;0.01374194654667515
8.74500e-07;0.013756925090766196
8.74750e-07;0.013767376126606367
8.75000e-07;0.013777827162446538
8.75250e-07;0.013788278198286704
8.75500e-07;0.013798729234126875
8.75750e-07;0.013809180269967046
8.76000e-07;0.013819631305807217
8.76250e-07;0.013822219380436302
8.76500e-07;0.013816670693582825
8.76750e-07;0.01381112200672935
8.77000e-07;0.013805573319875874
8.77250e-07;0.013800024633022396
8.77500e-07;0.01379447594616892
8.77750e-07;0.013788927259315442
8.78000e-07;0.013774013660578746
8.78250e-07;0.01374940904947999
8.78500e-07;0.013724804438381224
8.78750e-07;0.013700199827282458
8.79000e-07;0.013675595216183691
8.79250e-07;0.013650990605084925
8.79500e-07;0.013626385993986169
8.79750e-07;0.013601781382887403
8.80000e-07;0.013577176771788636
8.80250e-07;0.013546261852310386
8.80500e-07;0.013508816889914824
8.80750e-07;0.01347137192751926
8.81000e-07;0.013433926965123714
8.81250e-07;0.013396482002728152
8.81500e-07;0.01335903704033259
8.81750e-07;0.013321592077937029
8.82000e-07;0.013284147115541467
8.82250e-07;0.01324670215314592
8.82500e-07;0.01320874833838589
8.82750e-07;0.013170267952247927
8.83000e-07;0.013131787566109965
8.83250e-07;0.013095273935552997
8.83500e-07;0.013060795545998443
8.83750e-07;0.013026317156443902
8.84000e-07;0.012991838766889346
8.84250e-07;0.012957360377334791
8.84500e-07;0.012931491133420039
8.84750e-07;0.012905696188590629
8.85000e-07;0.012879901243761219
8.85250e-07;0.01285410629893182
8.85500e-07;0.012834070915996094
8.85750e-07;0.012819995651661415
8.86000e-07;0.012805920387326737
8.86250e-07;0.012791845122992057
8.86500e-07;0.012777769858657384
8.86750e-07;0.012763694594322706
8.87000e-07;0.012749619329988028
8.87250e-07;0.012735544065653349
8.87500e-07;0.01272146880131867
8.87750e-07;0.012707393536983991
8.88000e-07;0.012693318272649318
8.88250e-07;0.01267924300831464
8.88500e-07;0.012665167743979962
8.88750e-07;0.012651092479645283
8.89000e-07;0.012637017215310605
8.89250e-07;0.012627751444923072
8.89500e-07;0.012623462642378798
8.89750e-07;0.012619173839834522
8.90000e-07;0.012614885037290247
8.90250e-07;0.01261059623474597
8.90500e-07;0.012606307432201693
8.90750e-07;0.01260201862965742
8.91000e-07;0.012597729827113144
8.91250e-07;0.012593441024568868
8.91500e-07;0.012589152222024592
8.91750e-07;0.012584863419480317
8.92000e-07;0.012580574616936041
8.92250e-07;0.012576285814391765
8.92500e-07;0.01257199701184749
8.92750e-07;0.012567708209303214
8.93000e-07;0.012564981724893978
8.93250e-07;0.012563871960914066
8.93500e-07;0.012562762196934153
8.93750e-07;0.012561652432954243
8.94000e-07;0.01256054266897433
8.94250e-07;0.012560235148430347
8.94500e-07;0.01256075780665922
8.94750e-07;0.012561280464888096
8.95000e-07;0.01256180312311697
8.95250e-07;0.012562325781345843
8.95500e-07;0.012568751469908638
8.95750e-07;0.01258128574130214
8.96000e-07;0.012593820012695645
8.96250e-07;0.012606354284089148
8.96500e-07;0.012618888555482646
8.96750e-07;0.012631422826876149
8.97000e-07;0.012643957098269654
8.97250e-07;0.012665583431424163
8.97500e-07;0.012696618425762403
8.97750e-07;0.012727653420100642
8.98000e-07;0.01275868841443887
8.98250e-07;0.012789723408777109
8.98500e-07;0.01282075840311535
8.98750e-07;0.01285179339745359
8.99000e-07;0.012892026193600145
8.99250e-07;0.012941777073007053
8.99500e-07;0.012991527952413984
8.99750e-07;0.013041278831820912
9.00000e-07;0.013091029711227841
9.00250e-07;0.01314078059063477
9.00500e-07;0.013190531470041698
9.00750e-07;0.013240282349448608
9.01000e-07;0.013290033228855537
9.01250e-07;0.013339784108262465
9.01500e-07;0.01339207495226756
9.01750e-07;0.013446994206302318
9.02000e-07;0.013501913460337052
