Time(s);Current(A)
7.50000e-07;-0.0021984293611667437
7.50250e-07;-0.0022171849366535126
7.50500e-07;-0.002235940512140282
7.50750e-07;-0.0022546960876270515
7.51000e-07;-0.0022734516631138205
7.51250e-07;-0.002292207238600582
7.51500e-07;-0.002310962814087351
7.51750e-07;-0.0023297183895741205
7.52000e-07;-0.00234847396506089
7.52250e-07;-0.002367229540547659
7.52500e-07;-0.0023859851160344205
7.52750e-07;-0.0024022844712573814
7.53000e-07;-0.0024162958474228395
7.53250e-07;-0.0024303072235882972
7.53500e-07;-0.0024443185997537554
7.53750e-07;-0.0024583299759192135
7.54000e-07;-0.0024723413520846655
7.54250e-07;-0.0024863527282501237
7.54500e-07;-0.0025003641044155814
7.54750e-07;-0.0025143754805810395
7.55000e-07;-0.0025283868567464976
7.55250e-07;-0.0025423982329119557
7.55500e-07;-0.002556409609077408
7.55750e-07;-0.0025704209852428655
7.56000e-07;-0.0025844323614083236
7.56250e-07;-0.0025984437375737818
7.56500e-07;-0.00261245511373924
7.56750e-07;-0.002626466489904692
7.57000e-07;-0.0026404778660701496
7.57250e-07;-0.0026544892422356078
7.57500e-07;-0.002668500618401066
7.57750e-07;-0.002682511994566524
7.58000e-07;-0.0026965233707319817
7.58250e-07;-0.0027105347468974338
7.58500e-07;-0.002724546123062892
7.58750e-07;-0.00273855749922835
7.59000e-07;-0.002752568875393808
7.59250e-07;-0.002766580251559266
7.59500e-07;-0.002780591627724724
7.59750e-07;-0.002794603003890176
7.60000e-07;-0.002808614380055634
7.60250e-07;-0.0028226257562210923
7.60500e-07;-0.002836467028340319
7.60750e-07;-0.0028492815225006334
7.61000e-07;-0.0028620960166609423
7.61250e-07;-0.002874910510821257
7.61500e-07;-0.0028877250049815714
7.61750e-07;-0.0029005394991418855
7.62000e-07;-0.0029125986472870726
7.62250e-07;-0.0029200983939549146
7.62500e-07;-0.0029275981406227535
7.62750e-07;-0.0029350978872905954
7.63000e-07;-0.0029425976339584378
7.63250e-07;-0.0029500973806262797
7.63500e-07;-0.0029554146593288215
7.63750e-07;-0.0029475581773097943
7.64000e-07;-0.0029397016952907706
7.64250e-07;-0.002930250173534464
7.64500e-07;-0.0029111707112198185
7.64750e-07;-0.0028920912489051732
7.65000e-07;-0.0028710290584516777
7.65250e-07;-0.002837998772020379
7.65500e-07;-0.0028049684855890665
7.65750e-07;-0.0027700517643996342
7.66000e-07;-0.002723748191024687
7.66250e-07;-0.00267744461764974
7.66500e-07;-0.0026295798009772138
7.66750e-07;-0.0025722910450040578
7.67000e-07;-0.002515002289030878
7.67250e-07;-0.002455768180147223
7.67500e-07;-0.0023847915787416486
7.67750e-07;-0.002313814977336074
7.68000e-07;-0.0022428383759304994
7.68250e-07;-0.002171861774524955
7.68500e-07;-0.0021008851731193806
7.68750e-07;-0.0020242911483638456
7.69000e-07;-0.0019445663376849922
7.69250e-07;-0.0018648415270061387
7.69500e-07;-0.0017851167163273189
7.69750e-07;-0.0017053919056484652
7.70000e-07;-0.0016259354850676126
7.70250e-07;-0.0015480991143511239
7.70500e-07;-0.0014702627436346352
7.70750e-07;-0.0013924263729181464
7.71000e-07;-0.0013145900022016907
7.71250e-07;-0.0012440149469513202
7.71500e-07;-0.0011774868760263066
7.71750e-07;-0.0011109588051012927
7.72000e-07;-0.001044430734176279
7.72250e-07;-0.0009795279743698676
7.72500e-07;-0.000925164324695759
7.72750e-07;-0.0008760623015020059
7.73000e-07;-0.0008321791384857164
7.73250e-07;-0.0007889297497126027
7.73500e-07;-0.0007499450365862278
7.73750e-07;-0.0007140908277624184
7.74000e-07;-0.0006816543228327966
7.74250e-07;-0.0006529192424819243
7.74500e-07;-0.0006281468229921328
7.74750e-07;-0.0006073756779566892
7.75000e-07;-0.000590075029374442
7.75250e-07;-0.0005754925503863722
7.75500e-07;-0.0005633640700421734
7.75750e-07;-0.0005537872706512242
7.76000e-07;-0.000546877130684706
7.76250e-07;-0.0005427466229398244
7.76500e-07;-0.0005416738250083674
7.76750e-07;-0.0005441624935507227
7.77000e-07;-0.0005472255636907634
7.77250e-07;-0.0005537558229609844
7.77500e-07;-0.000560761588706911
7.77750e-07;-0.0005706375952226077
7.78000e-07;-0.0005809920532692911
7.78250e-07;-0.0005942345289577486
7.78500e-07;-0.0006079990267259398
7.78750e-07;-0.0006249145416359125
7.79000e-07;-0.0006418300565458853
7.79250e-07;-0.0006591686819937008
7.79500e-07;-0.000679061277109402
7.79750e-07;-0.0006989538722251116
7.80000e-07;-0.0007188464673408212
7.80250e-07;-0.0007387390624565308
7.80500e-07;-0.0007586316575722404
7.80750e-07;-0.000778802557791727
7.81000e-07;-0.0007991285671505999
7.81250e-07;-0.0008194545765094727
7.81500e-07;-0.0008397805858683455
7.81750e-07;-0.0008601065952272184
7.82000e-07;-0.0008794312194822653
7.82250e-07;-0.0008927113070209441
7.82500e-07;-0.0009059913945596285
7.82750e-07;-0.0009192714820983129
7.83000e-07;-0.0009325515696369973
7.83250e-07;-0.0009458316571756818
7.83500e-07;-0.0009591117447143661
7.83750e-07;-0.0009723918322530449
7.84000e-07;-0.0009856719197917294
7.84250e-07;-0.0009989520073304138
7.84500e-07;-0.001012232094869098
7.84750e-07;-0.0010255121824077826
7.85000e-07;-0.0010373050059965404
7.85250e-07;-0.001040120442645987
7.85500e-07;-0.0010429358792954338
7.85750e-07;-0.0010457513159448804
7.86000e-07;-0.001048566752594327
7.86250e-07;-0.0010513821892437739
7.86500e-07;-0.0010541976258932194
7.86750e-07;-0.001057013062542666
7.87000e-07;-0.0010598284991921126
7.87250e-07;-0.0010626439358415595
7.87500e-07;-0.001065459372491006
7.87750e-07;-0.0010682748091404516
7.88000e-07;-0.0010703108147100781
7.88250e-07;-0.0010676420371129413
7.88500e-07;-0.0010649732595158046
7.88750e-07;-0.0010623044819186678
7.89000e-07;-0.001059635704321531
7.89250e-07;-0.0010569669267243955
7.89500e-07;-0.0010542981491272587
7.89750e-07;-0.0010516293715301219
7.90000e-07;-0.0010489249926817887
7.90250e-07;-0.0010460057184159108
7.90500e-07;-0.0010430864441500329
7.90750e-07;-0.001040167169884156
7.91000e-07;-0.0010372478956182781
7.91250e-07;-0.0010343286213524002
7.91500e-07;-0.0010314093470865223
7.91750e-07;-0.0010284900728206444
7.92000e-07;-0.0010263056229392815
7.92250e-07;-0.0010285567023617032
7.92500e-07;-0.001030807781784125
7.92750e-07;-0.0010330588612065467
7.93000e-07;-0.0010353099406289685
7.93250e-07;-0.0010375610200513902
7.93500e-07;-0.0010398120994738111
7.93750e-07;-0.0010420631788962329
7.94000e-07;-0.001046044023305026
7.94250e-07;-0.0010604660335861492
7.94500e-07;-0.0010748880438672724
7.94750e-07;-0.0010893100541483956
7.95000e-07;-0.0011037320644295128
7.95250e-07;-0.001118154074710636
7.95500e-07;-0.0011325760849917592
7.95750e-07;-0.0011469980952728824
7.96000e-07;-0.0011631297510973672
7.96250e-07;-0.0011895811282954568
7.96500e-07;-0.0012160325054935575
7.96750e-07;-0.0012424838826916584
7.97000e-07;-0.0012689352598897594
7.97250e-07;-0.00129538663708786
7.97500e-07;-0.001321838014285961
7.97750e-07;-0.0013482893914840506
7.98000e-07;-0.0013793469735555422
7.98250e-07;-0.0014129717542303167
7.98500e-07;-0.0014465965349050912
7.98750e-07;-0.0014802213155798657
7.99000e-07;-0.0015138460962546402
7.99250e-07;-0.0015474708769294004
7.99500e-07;-0.001581095657604175
7.99750e-07;-0.0016147626956466046
8.00000e-07;-0.0016486848065969126
8.00250e-07;-0.0016826069175472208
8.00500e-07;-0.0017165290284975147
8.00750e-07;-0.001750451139447823
8.01000e-07;-0.0017843732503981312
8.01250e-07;-0.0018182953613484392
8.01500e-07;-0.0018511377171773402
8.01750e-07;-0.0018774624810714213
8.02000e-07;-0.0019037872449654911
8.02250e-07;-0.0019301120088595723
8.02500e-07;-0.0019564367727536534
8.02750e-07;-0.0019827615366477345
8.03000e-07;-0.0020090863005418156
8.03250e-07;-0.0020329432603221243
8.03500e-07;-0.0020419041201721697
8.03750e-07;-0.0020508649800222187
8.04000e-07;-0.0020598258398722676
8.04250e-07;-0.002068786699722317
8.04500e-07;-0.002077747559572366
8.04750e-07;-0.002086708419422411
8.05000e-07;-0.00209566927927246
8.05250e-07;-0.002104630139122509
8.05500e-07;-0.002113590998972558
8.05750e-07;-0.0021197548934902928
8.06000e-07;-0.0021090358130346916
8.06250e-07;-0.002098316732579095
8.06500e-07;-0.0020875976521234937
8.06750e-07;-0.0020768785716678926
8.07000e-07;-0.0020661594912122915
8.07250e-07;-0.0020554404107566903
8.07500e-07;-0.0020447213303010935
8.07750e-07;-0.0020340022498454924
8.08000e-07;-0.002023283169389891
8.08250e-07;-0.002011163141734315
8.08500e-07;-0.0019905867502321645
8.08750e-07;-0.001970010358730014
8.09000e-07;-0.0019494339672278724
8.09250e-07;-0.0019288575757257218
8.09500e-07;-0.0019082811842235715
8.09750e-07;-0.0018877047927214209
8.10000e-07;-0.0018671364705762112
8.10250e-07;-0.0018466168564895916
8.10500e-07;-0.001826097242402981
8.10750e-07;-0.0018055776283163614
8.11000e-07;-0.0017850580142297421
8.11250e-07;-0.0017645384001431226
8.11500e-07;-0.001744018786056503
8.11750e-07;-0.001724966072453919
8.12000e-07;-0.0017147678283274054
8.12250e-07;-0.0017045695842008918
8.12500e-07;-0.0016943713400743782
8.12750e-07;-0.0016841730959478646
8.13000e-07;-0.001673974851821351
8.13250e-07;-0.0016637766076948418
8.13500e-07;-0.0016535783635683282
8.13750e-07;-0.001646470348995012
8.14000e-07;-0.001658015503843148
8.14250e-07;-0.001669560658691284
8.14500e-07;-0.00168110581353942
8.14750e-07;-0.0016926509683875513
8.15000e-07;-0.0017041961232356873
8.15250e-07;-0.0017157412780838233
8.15500e-07;-0.0017272864329319593
8.15750e-07;-0.0017411388931366687
8.16000e-07;-0.0017689186545280383
8.16250e-07;-0.0017966984159194198
8.16500e-07;-0.0018255484401833526
8.16750e-07;-0.001860858759497753
8.17000e-07;-0.0018961690788121533
8.17250e-07;-0.0019328656982067016
8.17500e-07;-0.001977930268855012
8.17750e-07;-0.0020229948395033416
8.18000e-07;-0.0020680594101516714
8.18250e-07;-0.002113123980800001
8.18500e-07;-0.0021581885514483307
8.18750e-07;-0.00220325312209666
8.19000e-07;-0.002249107435556072
8.19250e-07;-0.0022997287756073652
8.19500e-07;-0.0023503501156586586
8.19750e-07;-0.002400971455709952
8.20000e-07;-0.0024515927957612454
8.20250e-07;-0.0025022141358125175
8.20500e-07;-0.002552835475863811
8.20750e-07;-0.0026019234779876793
8.21000e-07;-0.002641755982534839
8.21250e-07;-0.002681588487081999
8.21500e-07;-0.002721420991629159
8.21750e-07;-0.002761253496176302
8.22000e-07;-0.0028010860007234616
8.22250e-07;-0.002840918505270622
8.22500e-07;-0.0028807510098177815
8.22750e-07;-0.0029205835143649413
8.23000e-07;-0.002960416018912101
8.23250e-07;-0.0030002485234592443
8.23500e-07;-0.003040081028006404
8.23750e-07;-0.0030676779883726255
8.24000e-07;-0.0030884556532892967
8.24250e-07;-0.003109233318205968
8.24500e-07;-0.00313001098312263
8.24750e-07;-0.0031507886480393013
8.25000e-07;-0.0031715663129559726
8.25250e-07;-0.003192343977872644
8.25500e-07;-0.003213121642789315
8.25750e-07;-0.0032338993077059863
8.26000e-07;-0.003254676972622649
8.26250e-07;-0.00327545463753932
8.26500e-07;-0.003294475670391554
8.26750e-07;-0.003302893362959175
8.27000e-07;-0.003311311055526796
8.27250e-07;-0.0033197287480944138
8.27500e-07;-0.0033281464406620343
8.27750e-07;-0.0033365641332296554
8.28000e-07;-0.0033449818257972764
8.28250e-07;-0.0033533995183648974
8.28500e-07;-0.0033618172109325184
8.28750e-07;-0.0033702349035001355
8.29000e-07;-0.0033786525960677566
8.29250e-07;-0.0033870702886353776
8.29500e-07;-0.0033954879812029986
8.29750e-07;-0.0034039056737706196
8.30000e-07;-0.0034117201665435004
8.30250e-07;-0.003415893639200234
8.30500e-07;-0.0034200671118569696
8.30750e-07;-0.003424240584513705
8.31000e-07;-0.00342841405717044
8.31250e-07;-0.0034325875298271756
8.31500e-07;-0.0034367610024839093
8.31750e-07;-0.0034409344751406444
8.32000e-07;-0.00344510794779738
8.32250e-07;-0.0034492814204541153
8.32500e-07;-0.0034534548931108504
8.32750e-07;-0.003457628365767586
8.33000e-07;-0.0034618018384243196
8.33250e-07;-0.0034659753110810546
8.33500e-07;-0.0034695172061726706
8.33750e-07;-0.003469246787931982
8.34000e-07;-0.003468976369691293
8.34250e-07;-0.0034687059514506044
8.34500e-07;-0.0034684355332099156
8.34750e-07;-0.003468165114969227
8.35000e-07;-0.003467894696728538
8.35250e-07;-0.0034676242784878494
8.35500e-07;-0.0034673538602471607
8.35750e-07;-0.0034670834420064724
8.36000e-07;-0.0034668130237657836
8.36250e-07;-0.003466542605525095
8.36500e-07;-0.003466272187284406
8.36750e-07;-0.0034660017690437174
8.37000e-07;-0.0034657313508030287
8.37250e-07;-0.00346546093256234
8.37500e-07;-0.0034645724849562973
8.37750e-07;-0.0034599535033360005
8.38000e-07;-0.0034553345217157036
8.38250e-07;-0.003450715540095407
8.38500e-07;-0.00344609655847511
8.38750e-07;-0.0034414775768548153
8.39000e-07;-0.0034368585952345185
8.39250e-07;-0.0034322396136142216
8.39500e-07;-0.003427620631993925
8.39750e-07;-0.003423001650373628
8.40000e-07;-0.003418382668753333
8.40250e-07;-0.003413763687133036
8.40500e-07;-0.003409144705512739
8.40750e-07;-0.0034045257238924423
8.41000e-07;-0.0033999067422721455
8.41250e-07;-0.0033952877606518487
8.41500e-07;-0.0033914963784483477
8.41750e-07;-0.003392700531971197
8.42000e-07;-0.003393904685494046
8.42250e-07;-0.003395108839016895
8.42500e-07;-0.0033963129925397443
8.42750e-07;-0.003397517146062593
8.43000e-07;-0.003398721299585442
8.43250e-07;-0.0033999254531082907
8.43500e-07;-0.00340112960663114
8.43750e-07;-0.0034023337601539892
8.44000e-07;-0.0034063576452790056
8.44250e-07;-0.0034274019265903297
8.44500e-07;-0.003448446207901663
8.44750e-07;-0.003469490489212996
8.45000e-07;-0.0034905347705243292
8.45250e-07;-0.0035115790518356624
8.45500e-07;-0.0035326233331469956
8.45750e-07;-0.00355366761445832
8.46000e-07;-0.0035747118957696533
8.46250e-07;-0.0035957561770809865
8.46500e-07;-0.003619501539195304
8.46750e-07;-0.0036595511003912075
8.47000e-07;-0.003699600661587094
8.47250e-07;-0.0037396502227829975
8.47500e-07;-0.0037796997839789005
8.47750e-07;-0.003819749345174804
8.48000e-07;-0.0038597989063707074
8.48250e-07;-0.003899848467566611
8.48500e-07;-0.003939898028762497
8.48750e-07;-0.003980895691864071
8.49000e-07;-0.004027616264921802
8.49250e-07;-0.004074336837979533
8.49500e-07;-0.004121057411037264
8.49750e-07;-0.004167777984094995
8.50000e-07;-0.004214498557152706
8.50250e-07;-0.004261219130210437
8.50500e-07;-0.004307939703268168
8.50750e-07;-0.004354660276325899
8.51000e-07;-0.004399526010045328
8.51250e-07;-0.004433195607091256
8.51500e-07;-0.004466865204137197
8.51750e-07;-0.0045005348011831385
8.52000e-07;-0.004534204398229081
8.52250e-07;-0.004567873995275022
8.52500e-07;-0.0046015435923209645
8.52750e-07;-0.004635213189366892
8.53000e-07;-0.004668882786412833
8.53250e-07;-0.004702552383458776
8.53500e-07;-0.004736221980504717
8.53750e-07;-0.004764942073716516
8.54000e-07;-0.004763786090737196
8.54250e-07;-0.004762630107757878
8.54500e-07;-0.004761474124778559
8.54750e-07;-0.004760318141799239
8.55000e-07;-0.00475916215881992
8.55250e-07;-0.0047580061758406
8.55500e-07;-0.004756850192861282
8.55750e-07;-0.004755694209881963
8.56000e-07;-0.004754538226902643
8.56250e-07;-0.004753382243923324
8.56500e-07;-0.004748038169364245
8.56750e-07;-0.004717414036979973
8.57000e-07;-0.004686789904595715
8.57250e-07;-0.0046561657722114435
8.57500e-07;-0.0046255416398271725
8.57750e-07;-0.004594917507442901
8.58000e-07;-0.00456429337505863
8.58250e-07;-0.004533669242674358
8.58500e-07;-0.0045030451102901
8.58750e-07;-0.004465242903964162
8.59000e-07;-0.0044234401067167785
8.59250e-07;-0.004381637309469396
8.59500e-07;-0.004339834512222013
8.59750e-07;-0.004298031714974648
8.60000e-07;-0.004256228917727265
8.60250e-07;-0.004214426120479882
8.60500e-07;-0.004172623323232499
8.60750e-07;-0.004132525096422306
8.61000e-07;-0.004102715956753363
8.61250e-07;-0.004072906817084434
8.61500e-07;-0.004043097677415492
8.61750e-07;-0.00401328853774655
8.62000e-07;-0.003983479398077608
8.62250e-07;-0.003953670258408665
8.62500e-07;-0.003923861118739724
8.62750e-07;-0.0038940519790707944
8.63000e-07;-0.0038642428394018522
8.63250e-07;-0.0038344336997329104
8.63500e-07;-0.0038046245600639687
8.63750e-07;-0.0037748154203950265
8.64000e-07;-0.00375926083640735
8.64250e-07;-0.0037516508133856523
8.64500e-07;-0.0037440407903639545
8.64750e-07;-0.0037364307673422564
8.65000e-07;-0.0037288207443205586
8.65250e-07;-0.003721210721298861
8.65500e-07;-0.003713600698277166
8.65750e-07;-0.0037059906752554684
8.66000e-07;-0.0036983806522337703
8.66250e-07;-0.0036907706292120725
8.66500e-07;-0.003683160606190375
8.66750e-07;-0.00367555058316868
8.67000e-07;-0.003669798616408252
8.67250e-07;-0.003675262204234948
8.67500e-07;-0.003680725792061644
8.67750e-07;-0.0036861893798883394
8.68000e-07;-0.0036916529677150354
8.68250e-07;-0.003697116555541729
8.68500e-07;-0.003702580143368425
8.68750e-07;-0.003708043731195121
8.69000e-07;-0.0037135073190218163
8.69250e-07;-0.0037189709068485123
8.69500e-07;-0.0037244344946752083
8.69750e-07;-0.0037298980825019017
8.70000e-07;-0.0037353616703285977
8.70250e-07;-0.0037408252581552933
8.70500e-07;-0.0037462888459819893
8.70750e-07;-0.0037538953060349024
8.71000e-07;-0.0037626960635057287
8.71250e-07;-0.0037714968209765585
8.71500e-07;-0.0037802975784473883
8.71750e-07;-0.003789098335918218
8.72000e-07;-0.003797899093389048
8.72250e-07;-0.003806699850859878
8.72500e-07;-0.0038155006083307043
8.72750e-07;-0.003824301365801534
8.73000e-07;-0.003833102123272364
8.73250e-07;-0.0038419028807431936
8.73500e-07;-0.0038507036382140238
8.73750e-07;-0.0038595043956848535
8.74000e-07;-0.0038683051531556794
8.74250e-07;-0.0038776220625380427
8.74500e-07;-0.003890054555694599
8.74750e-07;-0.003902487048851155
8.75000e-07;-0.003914919542007711
8.75250e-07;-0.0039273520351642615
8.75500e-07;-0.003939784528320818
8.75750e-07;-0.003952217021477374
8.76000e-07;-0.00396464951463393
8.76250e-07;-0.003977082007790486
8.76500e-07;-0.003989514500947042
8.76750e-07;-0.004001946994103593
8.77000e-07;-0.004014379487260149
8.77250e-07;-0.004026811980416705
8.77500e-07;-0.004039244473573261
8.77750e-07;-0.0040516769667298174
8.78000e-07;-0.0040641094598863736
8.78250e-07;-0.0040765419530429245
8.78500e-07;-0.004090143300905492
8.78750e-07;-0.00410439609225603
8.79000e-07;-0.004118648883606567
8.79250e-07;-0.004132901674957105
8.79500e-07;-0.004147154466307638
8.79750e-07;-0.004161407257658175
8.80000e-07;-0.004175660049008713
8.80250e-07;-0.0041899128403592506
8.80500e-07;-0.004204165631709789
8.80750e-07;-0.004218418423060327
8.81000e-07;-0.004232671214410858
8.81250e-07;-0.004246924005761397
8.81500e-07;-0.004261176797111934
8.81750e-07;-0.004275429588462472
8.82000e-07;-0.00428968237981301
8.82250e-07;-0.004303935171163542
8.82500e-07;-0.004316621973522223
8.82750e-07;-0.004319856190731699
8.83000e-07;-0.004323090407941175
8.83250e-07;-0.00432632462515065
8.83500e-07;-0.004329558842360125
8.83750e-07;-0.004332793059569599
8.84000e-07;-0.004336027276779075
8.84250e-07;-0.00433926149398855
8.84500e-07;-0.004342495711198026
8.84750e-07;-0.004345729928407501
8.85000e-07;-0.004348964145616976
8.85250e-07;-0.00435219836282645
8.85500e-07;-0.004355432580035926
8.85750e-07;-0.004358666797245401
8.86000e-07;-0.004359575082589102
8.86250e-07;-0.0043464436338561474
8.86500e-07;-0.004333312185123198
8.86750e-07;-0.004320180736390243
8.87000e-07;-0.004307049287657288
8.87250e-07;-0.004293917838924332
8.87500e-07;-0.0042807863901913774
8.87750e-07;-0.004267654941458423
8.88000e-07;-0.004254523492725473
8.88250e-07;-0.004241392043992518
8.88500e-07;-0.004228260595259562
8.88750e-07;-0.0042151291465266074
8.89000e-07;-0.004201997697793653
8.89250e-07;-0.004188866249060697
8.89500e-07;-0.004175309442321322
8.89750e-07;-0.0041591850997974526
8.90000e-07;-0.004143060757273583
8.90250e-07;-0.004126936414749713
8.90500e-07;-0.0041108120722258435
8.90750e-07;-0.00409468772970198
8.91000e-07;-0.00407856338717811
8.91250e-07;-0.0040624390446542405
8.91500e-07;-0.004046314702130371
8.91750e-07;-0.004030190359606501
8.92000e-07;-0.0040140660170826315
8.92250e-07;-0.004005911787675195
8.92500e-07;-0.004002199580241472
8.92750e-07;-0.0039984873728077484
8.93000e-07;-0.003994775165374025
8.93250e-07;-0.003991062957940302
8.93500e-07;-0.0039873507505065785
8.93750e-07;-0.003983638543072857
8.94000e-07;-0.003979926335639134
8.94250e-07;-0.00397621412820541
8.94500e-07;-0.003972501920771687
