Time(s);Current(A)
7.55000e-06;0.0015648597017993385
7.55025e-06;0.0015732332230677063
7.55050e-06;0.0015816067443361025
7.55075e-06;0.0015899802656044702
7.55100e-06;0.001598353786872838
7.55125e-06;0.0016067273081412342
7.55150e-06;0.001615100829409602
7.55175e-06;0.0016234743506779697
7.55200e-06;0.0016318478719463657
7.55225e-06;0.0016402213932147334
7.55250e-06;0.0016496018239172726
7.55275e-06;0.001664442736758148
7.55300e-06;0.001679283649598973
7.55325e-06;0.0016941245624397983
7.55350e-06;0.0017089654752806735
7.55375e-06;0.0017238063881214987
7.55400e-06;0.001738647300962374
7.55425e-06;0.0017534882138031992
7.55450e-06;0.0017683291266440244
7.55475e-06;0.0017821968195405895
7.55500e-06;0.001795553464419956
7.55525e-06;0.0018089101092993224
7.55550e-06;0.0018222667541787341
7.55575e-06;0.0018356233990581008
7.55600e-06;0.0018489800439374672
7.55625e-06;0.001862336688816879
7.55650e-06;0.0018756933336962454
7.55675e-06;0.0018884313669995587
7.55700e-06;0.001897814662184044
7.55725e-06;0.0019071979573684976
7.55750e-06;0.001916581252552951
7.55775e-06;0.0019259645477374364
7.55800e-06;0.00193534784292189
7.55825e-06;0.0019447311381063754
7.55850e-06;0.001954114433290829
7.55875e-06;0.0019634977284752825
7.55900e-06;0.001972881023659768
7.55925e-06;0.0019822643188442215
7.55950e-06;0.0019916476140286747
7.55975e-06;0.00200103090921316
7.56000e-06;0.0020104142043976137
7.56025e-06;0.0020197974995820674
7.56050e-06;0.0020291807947665527
7.56075e-06;0.0020385640899510064
7.56100e-06;0.0020479473851354596
7.56125e-06;0.002057330680319945
7.56150e-06;0.0020664252864254695
7.56175e-06;0.002075368298862775
7.56200e-06;0.0020843113113001113
7.56225e-06;0.0020932543237374168
7.56250e-06;0.002102197336174753
7.56275e-06;0.0021111403486120586
7.56300e-06;0.0021200833610493645
7.56325e-06;0.0021290263734867003
7.56350e-06;0.0021379693859240063
7.56375e-06;0.002146912398361312
7.56400e-06;0.002155855410798648
7.56425e-06;0.002164798423235954
7.56450e-06;0.0021737414356732595
7.56475e-06;0.0021826844481105958
7.56500e-06;0.0021916274605479013
7.56525e-06;0.002200570472985207
7.56550e-06;0.002209513485422543
7.56575e-06;0.002218456497859849
7.56600e-06;0.002226682701180447
7.56625e-06;0.0022310216399233375
7.56650e-06;0.0022353605786662135
7.56675e-06;0.0022396995174091042
7.56700e-06;0.00224403845615198
7.56725e-06;0.002245781644452755
7.56750e-06;0.002233448046464823
7.56775e-06;0.002221114448476933
7.56800e-06;0.002208780850489043
7.56825e-06;0.0021964472525011105
7.56850e-06;0.0021815313187832403
7.56875e-06;0.002152611346924779
7.56900e-06;0.002123691375066219
7.56925e-06;0.0020924128933167453
7.56950e-06;0.002048344183680017
7.56975e-06;0.00200427547404314
7.57000e-06;0.001958151040109412
7.57025e-06;0.001900878388255751
7.57050e-06;0.0018436057364018962
7.57075e-06;0.0017845413468531995
7.57100e-06;0.0017157603419447822
7.57125e-06;0.001646979337036598
7.57150e-06;0.0015765514955584728
7.57175e-06;0.0014971928392883951
7.57200e-06;0.0014178341830185866
7.57225e-06;0.0013374472265860525
7.57250e-06;0.0012514837858372087
7.57275e-06;0.0011655203450886562
7.57300e-06;0.0010789116443222378
7.57325e-06;0.0009888036906138895
7.57350e-06;0.0008986957369058464
7.57375e-06;0.0008085877831978033
7.57400e-06;0.0007187921052752292
7.57425e-06;0.0006291604066486932
7.57450e-06;0.000539528708022157
7.57475e-06;0.00045042401163206483
7.57500e-06;0.0003645108493990629
7.57525e-06;0.0002808024737377466
7.57550e-06;0.00019972234301524896
7.57575e-06;0.00012183144005511662
7.57600e-06;4.771420371245663e-05
7.57625e-06;-2.2045033584063454e-05
7.57650e-06;-8.687512427096935e-05
7.57675e-06;-0.0001464009415458821
7.57700e-06;-0.00020105781689377093
7.57725e-06;-0.00025192667454625617
7.57750e-06;-0.00029954057387830354
7.57775e-06;-0.0003437406687373077
7.57800e-06;-0.0003842421917359554
7.57825e-06;-0.0004207604627983735
7.57850e-06;-0.000453019090597347
7.57875e-06;-0.00048086444220275825
7.57900e-06;-0.000504650608903447
7.57925e-06;-0.0005251360018688643
7.57950e-06;-0.0005427358284623801
7.57975e-06;-0.0005574319075309737
7.58000e-06;-0.0005691270685304283
7.58025e-06;-0.0005777243284353202
7.58050e-06;-0.0005831318115587756
7.58075e-06;-0.0005851473187777591
7.58100e-06;-0.0005836202116898586
7.58125e-06;-0.000581441112975196
7.58150e-06;-0.0005757262557228813
7.58175e-06;-0.0005694145195976508
7.58200e-06;-0.0005598659020707619
7.58225e-06;-0.000549734751389862
7.58250e-06;-0.0005364445163155799
7.58275e-06;-0.0005226011010775087
7.58300e-06;-0.0005057577830696223
7.58325e-06;-0.0004889144650616787
7.58350e-06;-0.0004716891379142861
7.58375e-06;-0.000452392170547976
7.58400e-06;-0.00043309520318173135
7.58425e-06;-0.0004137982358154867
7.58450e-06;-0.00039438892234871224
7.58475e-06;-0.00037437035461012334
7.58500e-06;-0.00035435178687153444
7.58525e-06;-0.0003343332191328777
7.58550e-06;-0.0003145800709823938
7.58575e-06;-0.00029626629649259615
7.58600e-06;-0.000278269158661918
7.58625e-06;-0.0002619891452925217
7.58650e-06;-0.00024599929062642673
7.58675e-06;-0.00023178571783571218
7.58700e-06;-0.0002188565997256523
7.58725e-06;-0.00020710489901632306
7.58750e-06;-0.0001964780681966458
7.58775e-06;-0.00018700830353998035
7.58800e-06;-0.0001787440260650018
7.58825e-06;-0.0001717336936494739
7.58850e-06;-0.00016602465629733616
7.58875e-06;-0.0001616473766342801
7.58900e-06;-0.00015856051323720415
7.58925e-06;-0.00015665783847790464
7.58950e-06;-0.00015586727550837291
7.58975e-06;-0.00015616983279108767
7.59000e-06;-0.0001575566941310077
7.59025e-06;-0.00016001905108825037
7.59050e-06;-0.0001635473841763388
7.59075e-06;-0.00016812163399068308
7.59100e-06;-0.00017373894524217367
7.59125e-06;-0.00018044431498429522
7.59150e-06;-0.00018738280605675283
7.59175e-06;-0.0001955855169441978
7.59200e-06;-0.0002039929488525531
7.59225e-06;-0.000213510585351953
7.59250e-06;-0.00022323475685503714
7.59275e-06;-0.00023407897019981475
7.59300e-06;-0.0002449231835446291
7.59325e-06;-0.00025592477507450435
7.59350e-06;-0.00026777983041972674
7.59375e-06;-0.00027963488576498926
7.59400e-06;-0.0002914899411102116
7.59425e-06;-0.00030334499645543394
7.59450e-06;-0.00031513986503036074
7.59475e-06;-0.0003266083400163924
7.59500e-06;-0.00033807681500242404
7.59525e-06;-0.0003495452899884946
7.59550e-06;-0.0003610137649745262
7.59575e-06;-0.0003722020688862267
7.59600e-06;-0.0003818710016482565
7.59625e-06;-0.0003915399344102535
7.59650e-06;-0.00040086825830017554
7.59675e-06;-0.00040834945612673986
7.59700e-06;-0.00041583065395330417
7.59725e-06;-0.00042294144737223613
7.59750e-06;-0.0004280435331755611
7.59775e-06;-0.0004331456189788861
7.59800e-06;-0.00043785547367591936
7.59825e-06;-0.0004404382543046949
7.59850e-06;-0.0004430210349334705
7.59875e-06;-0.0004452020115809802
7.59900e-06;-0.0004452040003427281
7.59925e-06;-0.00044520598910447595
7.59950e-06;-0.00044483820631348157
7.59975e-06;-0.00044246514788697725
7.60000e-06;-0.0004400920894604729
7.60025e-06;-0.00043737575480662887
7.60050e-06;-0.00043279782898982965
7.60075e-06;-0.0004282199031730149
7.60100e-06;-0.0004233458057756586
7.60125e-06;-0.00041686556628871594
7.60150e-06;-0.0004103853268017513
7.60175e-06;-0.0004035845334495425
7.60200e-06;-0.0003950453725807686
7.60225e-06;-0.0003865062117119658
7.60250e-06;-0.00037796705084319196
7.60275e-06;-0.0003694278899744181
7.60300e-06;-0.0003608887291056153
7.60325e-06;-0.00035215987865344406
7.60350e-06;-0.00034240233927962155
7.60375e-06;-0.00033264479990576597
7.60400e-06;-0.00032288726053194346
7.60425e-06;-0.00031312972115812095
7.60450e-06;-0.00030337218178426537
7.60475e-06;-0.00029366386598848366
7.60500e-06;-0.0002842224902560362
7.60525e-06;-0.00027478111452362077
7.60550e-06;-0.00026584912006093154
7.60575e-06;-0.00025718460705409
7.60600e-06;-0.0002486405618365558
7.60625e-06;-0.0002408338230026648
7.60650e-06;-0.000233561700745504
7.60675e-06;-0.00022665516917939806
7.60700e-06;-0.0002190731841269595
7.60725e-06;-0.00020919995939845898
7.60750e-06;-0.00019623660957948647
7.60775e-06;-0.00018025885457806622
7.60800e-06;-0.0001614934154989756
7.60825e-06;-0.0001401670212023409
7.60850e-06;-0.00011649691373681775
7.60875e-06;-9.056314297589812e-05
7.60900e-06;-6.189958669345247e-05
7.60925e-06;-2.9680160029807186e-05
7.60950e-06;6.409451362422851e-06
7.60975e-06;4.6135702926528004e-05
7.61000e-06;8.917046944798645e-05
7.61025e-06;0.00013518565767411605
7.61050e-06;0.00018385911743097068
7.61075e-06;0.00023495469468086296
7.61100e-06;0.00028857828299872135
7.61125e-06;0.0003450612987220759
7.61150e-06;0.00040458631913649096
7.61175e-06;0.0004672373491572793
7.61200e-06;0.0005304537255632552
7.61225e-06;0.0005967359823026938
7.61250e-06;0.000663539894269965
7.61275e-06;0.0007331727488930904
7.61300e-06;0.0008028056035164517
7.61325e-06;0.0008724384581395771
7.61350e-06;0.0009420713127629384
7.61375e-06;0.0010120565940063195
7.61400e-06;0.0010822269381702673
7.61425e-06;0.0011523972823344528
7.61450e-06;0.0012225676264984004
7.61475e-06;0.0012919653016029706
7.61500e-06;0.001357172782987469
7.61525e-06;0.0014223802643717463
7.61550e-06;0.0014864448973374198
7.61575e-06;0.0015443118494092032
7.61600e-06;0.0016021788014807905
7.61625e-06;0.0016586298350239534
7.61650e-06;0.0017074023251418176
7.61675e-06;0.001754633606556895
7.61700e-06;0.0017935068944060233
7.61725e-06;0.0018305162719074362
7.61750e-06;0.001857417640890526
7.61775e-06;0.001882400815977988
7.61800e-06;0.001896981602206168
7.61825e-06;0.0019096292053920319
7.61850e-06;0.0019117931333941583
7.61875e-06;0.0019119618555490166
7.61900e-06;0.001901310552093783
7.61925e-06;0.0018886259264970203
7.61950e-06;0.001864914570162632
7.61975e-06;0.0018392999184554191
7.62000e-06;0.001803363672760541
7.62025e-06;0.001765678753711811
7.62050e-06;0.0017185107577671918
7.62075e-06;0.00166971924874873
7.62100e-06;0.001612123408559124
7.62125e-06;0.0015530441684733145
7.62150e-06;0.0014859204326838776
7.62175e-06;0.0014175587238836641
7.62200e-06;0.001342483472367455
7.62225e-06;0.0012662381642014077
7.62250e-06;0.0011836476245721472
7.62275e-06;0.0011010570849426067
7.62300e-06;0.0010175502831293007
7.62325e-06;0.0009290745803331693
7.62350e-06;0.0008405988775367382
7.62375e-06;0.0007518754973688177
7.62400e-06;0.0006618089597973677
7.62425e-06;0.0005717424222256124
7.62450e-06;0.00048201114069145747
7.62475e-06;0.00039409795673039385
7.62500e-06;0.0003066182142112567
7.62525e-06;0.00022188633518621445
7.62550e-06;0.00013979736494306615
7.62575e-06;6.093706291356187e-05
7.62600e-06;-1.4102382270582937e-05
7.62625e-06;-8.472884562701147e-05
7.62650e-06;-0.00015035522823968935
7.62675e-06;-0.0002104724395912991
7.62700e-06;-0.00026491454677301325
7.62725e-06;-0.00031386232882207594
7.62750e-06;-0.00035740363169671485
7.62775e-06;-0.0003954129423455058
7.62800e-06;-0.0004277209301514258
7.62825e-06;-0.0004541582716434455
7.62850e-06;-0.00047455891015559453
7.62875e-06;-0.000488805603059512
7.62900e-06;-0.0004969960545954151
7.62925e-06;-0.0004994452402940533
7.62950e-06;-0.0004964097992363722
7.62975e-06;-0.0004880128025819233
7.63000e-06;-0.00047434970706122564
7.63025e-06;-0.0004555162370890866
7.63050e-06;-0.0004316099271152085
7.63075e-06;-0.0004027590046365028
7.63100e-06;-0.00036922637457246544
7.63125e-06;-0.00033141085555992914
7.63150e-06;-0.0002896748337072249
7.63175e-06;-0.00024429694731182135
7.63200e-06;-0.00019553862153107502
7.63225e-06;-0.00014366128492081736
7.63250e-06;-8.892759995457166e-05
7.63275e-06;-3.161938851693349e-05
7.63300e-06;2.789720437283067e-05
7.63325e-06;8.917086649026806e-05
7.63350e-06;0.0001518233426390108
7.63375e-06;0.000215600232513145
7.63400e-06;0.00027943821365647057
7.63425e-06;0.00034360749349941853
7.63450e-06;0.00040777677334236643
7.63475e-06;0.0004716518564438487
7.63500e-06;0.0005339315070360939
7.63525e-06;0.0005956419982542325
7.63550e-06;0.0006542659312543253
7.63575e-06;0.0007120475811519405
7.63600e-06;0.0007652615195241502
7.63625e-06;0.0008176764521024539
7.63650e-06;0.0008651314867084344
7.63675e-06;0.0009084477909767053
7.63700e-06;0.0009468805593066772
7.63725e-06;0.0009796203904182334
7.63750e-06;0.0010062658500528327
7.63775e-06;0.0010267623945954703
7.63800e-06;0.0010411095507181427
7.63825e-06;0.0010493073260875692
7.63850e-06;0.0010513521117983416
7.63875e-06;0.0010471985641759345
7.63900e-06;0.0010366491653067903
7.63925e-06;0.0010194658183775235
7.63950e-06;0.0009956663297470238
7.63975e-06;0.0009654855921374678
7.64000e-06;0.0009291924266518264
7.64025e-06;0.0008870557526829989
7.64050e-06;0.0008393425502791971
7.64075e-06;0.0007862934141990939
7.64100e-06;0.0007280536240478013
7.64125e-06;0.0006647432269300855
7.64150e-06;0.0005966422176256344
7.64175e-06;0.0005241668496140361
7.64200e-06;0.00044775456897633894
7.64225e-06;0.00036784275713949564
7.64250e-06;0.0002848676031322673
7.64275e-06;0.00019924865338298843
7.64300e-06;0.00011134588457293278
7.64325e-06;2.1503330386784968e-05
7.64350e-06;-6.986878148695779e-05
7.64375e-06;-0.0001623125951150092
7.64400e-06;-0.0002547564087424342
7.64425e-06;-0.00034720022237048567
7.64450e-06;-0.00043929434729328393
7.64475e-06;-0.0005294921528407595
7.64500e-06;-0.0006190350396186606
7.64525e-06;-0.0007050262939278529
7.64550e-06;-0.0007900130443246354
7.64575e-06;-0.0008695523577713658
7.64600e-06;-0.0009477090085375126
7.64625e-06;-0.0010183674627428747
7.64650e-06;-0.0010873758692801939
7.64675e-06;-0.0011474360472098933
7.64700e-06;-0.0012063555909581007
7.64725e-06;-0.0012590894616469265
7.64750e-06;-0.001310946657569854
7.64775e-06;-0.0013580496355569136
7.64800e-06;-0.001404079901765727
7.64825e-06;-0.0014442928389307786
7.64850e-06;-0.0014830570941087478
7.64875e-06;-0.0015139651292231553
7.64900e-06;-0.0015448731643375629
7.64925e-06;-0.0015746432205428623
7.64950e-06;-0.001598242003261044
7.64975e-06;-0.0016218407859792255
7.65000e-06;-0.0016442830663207786
7.65025e-06;-0.0016604536201837176
7.65050e-06;-0.0016766241740467662
7.65075e-06;-0.0016911727947090634
7.65100e-06;-0.0016969256518626493
7.65125e-06;-0.001702678509016274
7.65150e-06;-0.0017084313661698987
7.65175e-06;-0.0017141842233234846
7.65200e-06;-0.0017199370804771093
7.65225e-06;-0.001725689937630734
7.65250e-06;-0.0017314427947843199
7.65275e-06;-0.0017312800549647016
7.65300e-06;-0.0017280109730294121
7.65325e-06;-0.0017247418910941448
7.65350e-06;-0.0017214728091588553
7.65375e-06;-0.0017182037272235658
7.65400e-06;-0.0017149346452882985
7.65425e-06;-0.001711665563353009
7.65450e-06;-0.001707951366541574
7.65475e-06;-0.0017018233063334901
7.65500e-06;-0.0016956952461253645
7.65525e-06;-0.001689567185917239
7.65550e-06;-0.001683439125709155
7.65575e-06;-0.0016773110655010294
7.65600e-06;-0.0016711010243117192
7.65625e-06;-0.0016648479340479938
7.65650e-06;-0.0016585948437842263
7.65675e-06;-0.0016523417535204586
7.65700e-06;-0.0016460886632567332
7.65725e-06;-0.001638343167582044
7.65750e-06;-0.0016225043391785412
7.65775e-06;-0.0016053709251906503
7.65800e-06;-0.001581216957802676
7.65825e-06;-0.0015559421574949143
7.65850e-06;-0.0015245890666051624
7.65875e-06;-0.0014919765611577159
7.65900e-06;-0.0014525342352154976
7.65925e-06;-0.0014114186347721428
7.65950e-06;-0.001361228846319202
7.65975e-06;-0.0013095317242735932
7.66000e-06;-0.0012496603137882362
7.66025e-06;-0.001188553250258386
7.66050e-06;-0.0011207452252074777
7.66075e-06;-0.0010517775757968204
7.66100e-06;-0.0009765212693521043
7.66125e-06;-0.0009000089739219332
7.66150e-06;-0.000816685434920066
7.66175e-06;-0.0007323726983369692
7.66200e-06;-0.000642695531211923
7.66225e-06;-0.0005523621697897954
7.66250e-06;-0.0004584702586982174
7.66275e-06;-0.0003641325666258746
7.66300e-06;-0.00026737739886545397
7.66325e-06;-0.0001703288371392671
7.66350e-06;-7.158922604429925e-05
7.66375e-06;2.7656046315183264e-05
7.66400e-06;0.00012670350452128118
7.66425e-06;0.00022552807414420622
7.66450e-06;0.0003228741512033858
7.66475e-06;0.00041842460093426175
7.66500e-06;0.0005118022423095542
7.66525e-06;0.00060274355104759
7.66550e-06;0.000690819085172824
7.66575e-06;0.0007754229847892335
7.66600e-06;0.0008559192238477782
7.66625e-06;0.0009316718345071967
7.66650e-06;0.0010020456683737767
7.66675e-06;0.0010664237376271021
7.66700e-06;0.001124297736705532
7.66725e-06;0.0011753642638483754
7.66750e-06;0.0012194716822416863
7.66775e-06;0.0012565044249292197
7.66800e-06;0.0012863457893841728
7.66825e-06;0.0013088787963332219
7.66850e-06;0.0013239870722853166
7.66875e-06;0.0013315657501278193
7.66900e-06;0.0013315780086686846
7.66925e-06;0.001324115351913997
7.66950e-06;0.0013093644076090285
7.66975e-06;0.0012875344437951594
7.67000e-06;0.001258833825773605
7.67025e-06;0.001223470838680449
7.67050e-06;0.00118165419218612
7.67075e-06;0.001133599820734575
7.67100e-06;0.001079566130918561
7.67125e-06;0.0010198919534717523
7.67150e-06;0.0009549758488224814
7.67175e-06;0.0008852302531028835
7.67200e-06;0.0008107824252563925
7.67225e-06;0.0007313544339611591
7.67250e-06;0.0006509178742865517
7.67275e-06;0.0005650118359929367
7.67300e-06;0.0004783859697628965
7.67325e-06;0.0003878564678597078
7.67350e-06;0.0002969366760834365
7.67375e-06;0.00020390033757111643
7.67400e-06;0.00011078121211794138
7.67425e-06;1.7269874917460963e-05
7.67450e-06;-7.579293529006459e-05
7.67475e-06;-0.00016786512095133004
7.67500e-06;-0.0002583879551318303
7.67525e-06;-0.0003467711853131757
7.67550e-06;-0.0004324012604775362
7.67575e-06;-0.0005146591764832646
7.67600e-06;-0.0005929262505515384
7.67625e-06;-0.0006665837223504343
7.67650e-06;-0.0007350145363149199
7.67675e-06;-0.000797629631468393
7.67700e-06;-0.0008539868331741984
7.67725e-06;-0.0009038699353767449
7.67750e-06;-0.0009471702622730526
7.67775e-06;-0.0009837724629929352
7.67800e-06;-0.001013552429740801
7.67825e-06;-0.0010363860508881206
7.67850e-06;-0.0010521503486437395
7.67875e-06;-0.0010607397400141665
7.67900e-06;-0.0010621407078177342
7.67925e-06;-0.0010564815551095676
7.67950e-06;-0.0010439576107604677
7.67975e-06;-0.0010247600356904734
7.68000e-06;-0.0009990748783130852
7.68025e-06;-0.0009670877189430821
7.68050e-06;-0.0009289850838605533
7.68075e-06;-0.0008849643724021273
7.68100e-06;-0.000835280607817113
7.68125e-06;-0.0007802775545213394
7.68150e-06;-0.000720341138016697
7.68175e-06;-0.0006558545142338027
7.68200e-06;-0.0005871975373045195
7.68225e-06;-0.0005147499940920165
7.68250e-06;-0.0004388919537881636
7.68275e-06;-0.0003600104750794999
7.68300e-06;-0.00027852865456011553
7.68325e-06;-0.00019492508568892024
7.68350e-06;-0.00010970476627772765
7.68375e-06;-2.3367484888118896e-05
7.68400e-06;6.35715647637274e-05
7.68425e-06;0.00015051061441498457
7.68450e-06;0.00023719635608608232
7.68475e-06;0.0003225084288558211
7.68500e-06;0.00040742127059990033
7.68525e-06;0.0004897836599077008
7.68550e-06;0.000569580440217045
7.68575e-06;0.0006462333820291215
7.68600e-06;0.0007191657237576885
7.68625e-06;0.0007878007930431909
7.68650e-06;0.0008515648770850437
7.68675e-06;0.0009099338563160373
7.68700e-06;0.0009626129188362801
7.68725e-06;0.001009577420202396
7.68750e-06;0.0010508136106808076
7.68775e-06;0.0010862071613170399
7.68800e-06;0.0011156191265908385
7.68825e-06;0.0011389108558542977
7.68850e-06;0.0011559455834302104
7.68875e-06;0.0011666175911711942
7.68900e-06;0.001170964709485855
7.68925e-06;0.0011691941165517883
7.68950e-06;0.0011615199111869347
7.68975e-06;0.0011476645123962854
7.69000e-06;0.0011267257033664565
7.69025e-06;0.0011041163204215986
7.69050e-06;0.0010724473947637302
7.69075e-06;0.001039232248920509
7.69100e-06;0.0009976319321578666
7.69125e-06;0.0009546945635843876
7.69150e-06;0.0009045063467379513
7.69175e-06;0.0008531795574002342
7.69200e-06;0.0007956782755557822
7.69225e-06;0.0007372302578273214
7.69250e-06;0.0006736480798549004
7.69275e-06;0.0006093355638728506
7.69300e-06;0.0005410624159554979
7.69325e-06;0.00047226815428736335
7.69350e-06;0.0004006478863943505
7.69375e-06;0.0003290276185008524
7.69400e-06;0.00025726742169825123
7.69425e-06;0.0001847483887156333
7.69450e-06;0.00011233960842723097
