Time(s);Current(A)
1.15500e-05;-0.002075952005684423
1.15503e-05;-0.0020996707248812307
1.15505e-05;-0.002126464758937596
1.15508e-05;-0.0021552925334716116
1.15510e-05;-0.0021867612247757242
1.15513e-05;-0.002219573081251671
1.15515e-05;-0.002254926497255176
1.15517e-05;-0.0022920151081798792
1.15520e-05;-0.002330576783728953
1.15523e-05;-0.002370301272518291
1.15525e-05;-0.002410902369306082
1.15528e-05;-0.0024521315272313057
1.15530e-05;-0.0024937503277145875
1.15532e-05;-0.0025355202508820355
1.15535e-05;-0.0025772022401464407
1.15538e-05;-0.00261854161989356
1.15540e-05;-0.002659240716593899
1.15543e-05;-0.0026989717757538085
1.15545e-05;-0.0027374219226034453
1.15548e-05;-0.0027743019541759694
1.15550e-05;-0.0028093291838281274
1.15553e-05;-0.0028422208841061185
1.15555e-05;-0.0028720656031160276
1.15558e-05;-0.002899637640767976
1.15560e-05;-0.002924477461665153
1.15563e-05;-0.002945769358366012
1.15565e-05;-0.002963365896368227
1.15568e-05;-0.0029761638207477636
1.15570e-05;-0.0029889617451273
1.15573e-05;-0.002997187944492852
1.15575e-05;-0.0029994775234323348
1.15578e-05;-0.0030017671023718174
1.15580e-05;-0.0029993764023500107
1.15583e-05;-0.0029909081190096377
1.15585e-05;-0.002982439835669264
1.15588e-05;-0.0029685664886554804
1.15590e-05;-0.0029476743880398463
1.15593e-05;-0.0029267822874242126
1.15595e-05;-0.0029058901868087204
1.15598e-05;-0.0028849980861930867
1.15600e-05;-0.002852266344490807
1.15602e-05;-0.0028187122925917864
1.15605e-05;-0.002785158240692539
1.15608e-05;-0.0027516041887932913
1.15610e-05;-0.0027149688648935534
1.15613e-05;-0.0026743323505800344
1.15615e-05;-0.0026323251189890023
1.15617e-05;-0.0025885379404058557
1.15620e-05;-0.0025439511936262934
1.15623e-05;-0.0024979300035377575
1.15625e-05;-0.0024511146001911788
1.15628e-05;-0.0024037753422426517
1.15630e-05;-0.002356185866181083
1.15633e-05;-0.002308619282351798
1.15635e-05;-0.0022613488023946284
1.15638e-05;-0.0022146461487724603
1.15640e-05;-0.0021687823574940736
1.15643e-05;-0.002124038713518263
1.15645e-05;-0.0020807141047397117
1.15648e-05;-0.002039117721151115
1.15650e-05;-0.001999560654734283
1.15653e-05;-0.0019623536837507036
1.15655e-05;-0.001927803570208809
1.15658e-05;-0.001896113285357214
1.15660e-05;-0.0018672115669201548
1.15663e-05;-0.0018408586329456693
1.15665e-05;-0.0018169492253022877
1.15668e-05;-0.0017955512255612774
1.15670e-05;-0.0017767768732138633
1.15673e-05;-0.00176073837750957
1.15675e-05;-0.001747545394929293
1.15678e-05;-0.0017378130505002654
1.15680e-05;-0.0017304430293060707
1.15683e-05;-0.0017252017881607031
1.15685e-05;-0.0017227248775658441
1.15687e-05;-0.0017227825159350538
1.15690e-05;-0.0017261313966929496
1.15693e-05;-0.0017294802774508453
1.15695e-05;-0.0017357516060485566
1.15698e-05;-0.0017458178837065253
1.15700e-05;-0.001755884161364494
1.15702e-05;-0.0017682774102166549
1.15705e-05;-0.0017836923510308321
1.15708e-05;-0.0017991072918450094
1.15710e-05;-0.0018161135271681172
1.15713e-05;-0.0018351861403811992
1.15715e-05;-0.001855334374647363
1.15718e-05;-0.0018768793582578738
1.15720e-05;-0.0018991848610315526
1.15723e-05;-0.0019224779371146167
1.15725e-05;-0.0019462050854865182
1.15728e-05;-0.0019704958990851354
1.15730e-05;-0.001994974639319202
1.15733e-05;-0.0020196974119696225
1.15735e-05;-0.002044357483319652
1.15738e-05;-0.002068936133801651
1.15740e-05;-0.0020931112776125037
1.15743e-05;-0.0021167624472253474
1.15745e-05;-0.0021396621635335054
1.15748e-05;-0.002161586079016563
1.15750e-05;-0.0021821379435112403
1.15753e-05;-0.002200908129120899
1.15755e-05;-0.0022196783147305573
1.15758e-05;-0.0022364341577614413
1.15760e-05;-0.002250574273191399
1.15763e-05;-0.0022647143886213566
1.15765e-05;-0.002276856503653166
1.15768e-05;-0.002286404112247266
1.15770e-05;-0.0022959517208413654
1.15772e-05;-0.00230229290244386
1.15775e-05;-0.0023044703734284235
1.15778e-05;-0.002306647844412987
1.15780e-05;-0.002308825315397535
1.15783e-05;-0.0023110027863820983
1.15785e-05;-0.0023131802573666616
1.15787e-05;-0.0023115152562638783
1.15790e-05;-0.00230486060722227
1.15793e-05;-0.0022982059581806618
1.15795e-05;-0.002291551309139054
1.15798e-05;-0.002284896660097491
1.15800e-05;-0.0022782420110558825
1.15803e-05;-0.0022687560377930133
1.15805e-05;-0.0022555934441818404
1.15808e-05;-0.002242430850570578
1.15810e-05;-0.002229268256959316
1.15813e-05;-0.0022161056633481432
1.15815e-05;-0.0022029430697368814
1.15818e-05;-0.002186387804894317
1.15820e-05;-0.0021695969055309998
1.15823e-05;-0.002152806006167569
1.15825e-05;-0.0021360151068041374
1.15828e-05;-0.0021192242074408204
1.15830e-05;-0.0021020680262700316
1.15833e-05;-0.0020844375078559515
1.15835e-05;-0.0020668899496437284
1.15838e-05;-0.0020494501195268008
1.15840e-05;-0.0020323032331258997
1.15843e-05;-0.0020155367492305327
1.15845e-05;-0.0019991287972447548
1.15848e-05;-0.0019834928332980216
1.15850e-05;-0.001968611424124216
1.15853e-05;-0.0019545997498388664
1.15855e-05;-0.001941579129445137
1.15857e-05;-0.0019298187979166696
1.15860e-05;-0.0019199334507039574
1.15863e-05;-0.0019126291558776733
1.15865e-05;-0.0019082414559392232
1.15868e-05;-0.0019067724603306258
1.15870e-05;-0.001908148761631102
1.15872e-05;-0.0019128768532730798
1.15875e-05;-0.0019199004806772272
1.15878e-05;-0.001929414104343924
1.15880e-05;-0.0019421611164226861
1.15883e-05;-0.001958459041230579
1.15885e-05;-0.001979368009132842
1.15888e-05;-0.002000276977035105
1.15890e-05;-0.002024389856448147
1.15893e-05;-0.0020526631799989673
1.15895e-05;-0.0020831428498673302
1.15898e-05;-0.0021164875740826714
1.15900e-05;-0.0021520117509239768
1.15903e-05;-0.0021903660592684005
1.15905e-05;-0.0022302657672678933
1.15908e-05;-0.0022730560509061064
1.15910e-05;-0.0023177623061715258
1.15913e-05;-0.002364118903541051
1.15915e-05;-0.0024118615711323822
1.15918e-05;-0.00246076268306755
1.15920e-05;-0.002510679579915956
1.15923e-05;-0.002561491909972661
1.15925e-05;-0.002612988280647282
1.15928e-05;-0.002664875113936017
1.15930e-05;-0.0027168407206605984
1.15933e-05;-0.0027685734010720795
1.15935e-05;-0.00281976204351656
1.15938e-05;-0.0028701185589687945
1.15940e-05;-0.0029194083005208813
1.15942e-05;-0.002967410492173159
1.15945e-05;-0.003013847083354792
1.15948e-05;-0.0030583891193082654
1.15950e-05;-0.0031006961003377715
1.15953e-05;-0.0031404272939177117
1.15955e-05;-0.003177242443752528
1.15957e-05;-0.003210041006480725
1.15960e-05;-0.0032399037484204486
1.15963e-05;-0.003265756865453853
1.15965e-05;-0.0032864032780002893
1.15968e-05;-0.003307049690546585
1.15970e-05;-0.0033226571065181664
1.15973e-05;-0.003331721125865417
1.15975e-05;-0.003340785145212607
1.15978e-05;-0.0033446486032453642
1.15980e-05;-0.0033417588645167483
1.15983e-05;-0.0033388691257881524
1.15985e-05;-0.00333103999675039
1.15988e-05;-0.0033167968149554763
1.15990e-05;-0.0033025536331606586
1.15993e-05;-0.003283796734342381
1.15995e-05;-0.003259178541456068
1.15998e-05;-0.003234560348569922
1.16000e-05;-0.0032059843429179877
1.16003e-05;-0.0031722689135126165
1.16005e-05;-0.0031385534841074734
1.16008e-05;-0.0031016894162280415
1.16010e-05;-0.0030607366790953335
1.16013e-05;-0.0030197839419629025
1.16015e-05;-0.0029768380496867104
1.16018e-05;-0.002931303942783932
1.16020e-05;-0.0028846615220266543
1.16023e-05;-0.0028365798986363373
1.16025e-05;-0.0027879696192109026
1.16027e-05;-0.002738485255263634
1.16030e-05;-0.0026886934708522593
1.16033e-05;-0.0026388785824346416
1.16035e-05;-0.002589324744690881
1.16038e-05;-0.0025403190800824178
1.16040e-05;-0.0024921602950551043
1.16042e-05;-0.0024451634335438386
1.16045e-05;-0.0023996531536573593
1.16048e-05;-0.002355956450914186
1.16050e-05;-0.002314399945896115
1.16053e-05;-0.0022753098040935314
1.16055e-05;-0.0022390124540683084
1.16058e-05;-0.0022058289557742193
1.16060e-05;-0.0021760414899798524
1.16063e-05;-0.0021498409666726123
1.16065e-05;-0.002127325420188464
1.16068e-05;-0.002108553278982217
1.16070e-05;-0.002093578518951697
1.16073e-05;-0.002083310700787017
1.16075e-05;-0.002076347201896641
1.16078e-05;-0.0020728376937730023
1.16080e-05;-0.0020738133705852373
1.16083e-05;-0.0020789909292785696
1.16085e-05;-0.0020896248480457916
1.16088e-05;-0.002100258766813014
1.16090e-05;-0.002114810672721373
1.16093e-05;-0.0021344502867595423
1.16095e-05;-0.00215698555623874
1.16098e-05;-0.0021832809834715426
1.16100e-05;-0.0022122260724338444
1.16103e-05;-0.002244611883643523
1.16105e-05;-0.0022787685254344976
1.16108e-05;-0.002316275713767184
1.16110e-05;-0.002356101307542131
1.16113e-05;-0.002398021323679852
1.16115e-05;-0.0024418118803962306
1.16118e-05;-0.002487247505435809
1.16120e-05;-0.002534093197224225
1.16123e-05;-0.0025820920243618483
1.16125e-05;-0.002630963887182336
1.16127e-05;-0.0026804187996698724
1.16130e-05;-0.002730165926109579
1.16133e-05;-0.0027799144912688256
1.16135e-05;-0.002829373456843045
1.16138e-05;-0.0028782512780548045
1.16140e-05;-0.0029262505864270953
1.16143e-05;-0.002973059505461889
1.16145e-05;-0.0030183521811874238
1.16148e-05;-0.0030617967483146068
1.16150e-05;-0.003103060532664595
1.16153e-05;-0.003141153154087331
1.16155e-05;-0.0031768653002875705
1.16158e-05;-0.003209330501694888
1.16160e-05;-0.003237579378027933
1.16163e-05;-0.00326582825436117
1.16165e-05;-0.0032897623392027556
1.16168e-05;-0.003308093445023497
1.16170e-05;-0.0033264245508443624
1.16173e-05;-0.0033447556566652283
1.16175e-05;-0.0033578204610375285
1.16178e-05;-0.003364046701694809
1.16180e-05;-0.0033702729423520893
1.16183e-05;-0.0033764991830093276
1.16185e-05;-0.0033766490817289784
1.16188e-05;-0.00336890853743045
1.16190e-05;-0.0033611679931319738
1.16193e-05;-0.003353427448833445
1.16195e-05;-0.0033456869045349166
1.16198e-05;-0.0033379463602364406
1.16200e-05;-0.003330205815937912
1.16203e-05;-0.0033098264456852596
1.16205e-05;-0.003288569258660476
1.16208e-05;-0.0032673120716355487
1.16210e-05;-0.0032460548846106217
1.16212e-05;-0.0032247976975858382
1.16215e-05;-0.003203540510560911
1.16218e-05;-0.003179530671265884
1.16220e-05;-0.00315194637119985
1.16223e-05;-0.003124362071134003
1.16225e-05;-0.0030960473701387697
1.16228e-05;-0.0030667842059115625
1.16230e-05;-0.003037521041684553
1.16233e-05;-0.0030081334709196428
1.16235e-05;-0.002978584351856921
1.16238e-05;-0.002949306651427405
1.16240e-05;-0.002920381402074354
1.16243e-05;-0.0028921358895142813
1.16245e-05;-0.002864773050195655
1.16248e-05;-0.0028384469601616994
1.16250e-05;-0.002813467142480685
1.16253e-05;-0.0027902610085095703
1.16255e-05;-0.002769358094204042
1.16258e-05;-0.0027484551798985144
1.16260e-05;-0.0027298918985989577
1.16263e-05;-0.0027143667512801177
1.16265e-05;-0.0026988416039612777
1.16268e-05;-0.002685695459446939
1.16270e-05;-0.0026756385726249537
1.16273e-05;-0.0026655816858029684
1.16275e-05;-0.0026594436653054397
1.16278e-05;-0.002658394494605034
1.16280e-05;-0.0026573453239046286
1.16283e-05;-0.0026562961532042304
1.16285e-05;-0.002655246982503825
1.16288e-05;-0.0026541978118034193
1.16290e-05;-0.0026531486411030206
1.16293e-05;-0.0026620124353168226
1.16295e-05;-0.0026715647244038815
1.16297e-05;-0.0026811170134908753
1.16300e-05;-0.0026906693025779338
1.16303e-05;-0.0027002215916649927
1.16305e-05;-0.002709773880752051
1.16308e-05;-0.002721872365721347
1.16310e-05;-0.0027372772172076327
1.16313e-05;-0.0027526820686939184
1.16315e-05;-0.002769197884574073
1.16318e-05;-0.0027871563449497396
1.16320e-05;-0.0028051148053254062
1.16323e-05;-0.002823641072063015
1.16325e-05;-0.002842904664611683
1.16328e-05;-0.0028623694786995965
1.16330e-05;-0.0028820955893217497
1.16333e-05;-0.0029018224090055895
1.16335e-05;-0.002921550149442382
1.16338e-05;-0.00294105919503725
1.16340e-05;-0.0029602842541143937
1.16343e-05;-0.0029790291265785183
1.16345e-05;-0.002997150451989298
1.16348e-05;-0.0030147582648942075
1.16350e-05;-0.003031277971500232
1.16353e-05;-0.003046770078172286
1.16355e-05;-0.003060737567948177
1.16358e-05;-0.0030735355699378995
1.16360e-05;-0.0030843841084826737
1.16363e-05;-0.0030927011683199836
1.16365e-05;-0.0030980299557726975
1.16368e-05;-0.003099478317596647
1.16370e-05;-0.0031009266794206065
1.16373e-05;-0.0030989009097545403
1.16375e-05;-0.0030923638013829
1.16378e-05;-0.003085826693011215
1.16380e-05;-0.003074217147373846
1.16382e-05;-0.0030560207806466172
1.16385e-05;-0.003037824413919265
1.16388e-05;-0.0030196280471919126
1.16390e-05;-0.0030014316804645607
1.16393e-05;-0.002977565414454449
1.16395e-05;-0.0029463364921469577
1.16398e-05;-0.002915107569839466
1.16400e-05;-0.0028838786475321866
1.16403e-05;-0.002852649725224695
1.16405e-05;-0.0028176749860521467
1.16408e-05;-0.0027778361107189484
1.16410e-05;-0.0027379972353854805
1.16413e-05;-0.002696521255103609
1.16415e-05;-0.0026529194097128102
1.16418e-05;-0.0026084124472496284
1.16420e-05;-0.0025627301436421646
1.16423e-05;-0.0025165187788221584
1.16425e-05;-0.002469401402037601
1.16428e-05;-0.002421901894926983
1.16430e-05;-0.0023742989557710794
1.16433e-05;-0.0023268715867332205
1.16435e-05;-0.0022798977664630076
1.16438e-05;-0.002233638134044472
1.16440e-05;-0.0021883146666370023
1.16443e-05;-0.002144140667053165
1.16445e-05;-0.002101374552636053
1.16448e-05;-0.0020603142497161646
1.16450e-05;-0.002021266527787623
1.16453e-05;-0.001984538126102868
1.16455e-05;-0.0019504302429573146
1.16458e-05;-0.0019191094847220563
1.16460e-05;-0.0018903951208566047
1.16463e-05;-0.0018639132222491154
1.16465e-05;-0.0018394952982961107
1.16467e-05;-0.0018177213504930302
1.16470e-05;-0.0017978561235611602
1.16473e-05;-0.0017801381375998023
1.16475e-05;-0.001765208454652107
1.16478e-05;-0.0017528670151959122
1.16480e-05;-0.0017438865432446461
1.16483e-05;-0.0017349060712933799
1.16485e-05;-0.001729343340179144
1.16488e-05;-0.001728218721604164
1.16490e-05;-0.001727094103029184
1.16493e-05;-0.0017259694844542117
1.16495e-05;-0.0017248448658792317
1.16498e-05;-0.0017274711221411446
1.16500e-05;-0.001734968082602254
1.16503e-05;-0.0017424650430634138
1.16505e-05;-0.001749962003524574
1.16508e-05;-0.001757458963985683
1.16510e-05;-0.001767143409725152
1.16513e-05;-0.00177966841778519
1.16515e-05;-0.0017921934258451433
1.16518e-05;-0.001805925239785377
1.16520e-05;-0.0018212241533288002
1.16523e-05;-0.0018365230668721194
1.16525e-05;-0.0018523484248535425
1.16528e-05;-0.001868857398057142
1.16530e-05;-0.001885578583253881
1.16533e-05;-0.0019025753366559352
1.16535e-05;-0.0019196123039774743
1.16538e-05;-0.0019367014911449434
1.16540e-05;-0.0019535457481933524
1.16543e-05;-0.0019700719508645823
1.16545e-05;-0.001985896098186529
1.16548e-05;-0.002000808590471701
1.16550e-05;-0.002015721082756873
1.16552e-05;-0.002029630236062602
1.16555e-05;-0.002042236502017275
1.16558e-05;-0.002054395248837752
1.16560e-05;-0.0020659728690087626
1.16563e-05;-0.002078323011741237
1.16565e-05;-0.0020916763148160736
1.16568e-05;-0.0021059867496923935
1.16570e-05;-0.0021215400695190102
1.16573e-05;-0.0021370933893457324
1.16575e-05;-0.0021535014997565013
1.16578e-05;-0.0021710195997746854
1.16580e-05;-0.002188537699792988
1.16583e-05;-0.002207791278608444
1.16585e-05;-0.0022292984660443223
1.16588e-05;-0.0022508056534803465
1.16590e-05;-0.00227378485269947
1.16593e-05;-0.0022986755350489036
1.16595e-05;-0.0023235662173985063
1.16598e-05;-0.002349642045485928
1.16600e-05;-0.0023772568463660934
1.16603e-05;-0.002404871647246446
1.16605e-05;-0.0024336471143586195
1.16608e-05;-0.0024639297663639676
1.16610e-05;-0.0024948066625977857
1.16613e-05;-0.0025264552155743344
1.16615e-05;-0.002558386126990328
1.16618e-05;-0.002590683695386062
1.16620e-05;-0.0026232313092735627
1.16623e-05;-0.002656103620112933
1.16625e-05;-0.0026890991557209
1.16628e-05;-0.0027222547050384984
1.16630e-05;-0.0027552858647006645
1.16633e-05;-0.00278795290897286
1.16635e-05;-0.002820065963147209
1.16637e-05;-0.002851455020911681
1.16640e-05;-0.002882034690072354
1.16643e-05;-0.0029115160780956934
1.16645e-05;-0.002940177995990772
1.16648e-05;-0.002967348014614436
1.16650e-05;-0.002992580725179566
1.16653e-05;-0.003017813435744696
1.16655e-05;-0.00304112796598609
1.16658e-05;-0.003061951640262561
1.16660e-05;-0.0030819883068630627
1.16663e-05;-0.0031010030034535362
1.16665e-05;-0.003119654305998512
1.16668e-05;-0.003137833722655006
1.16670e-05;-0.003156013139311377
1.16673e-05;-0.0031732994422953307
1.16675e-05;-0.0031894259911667286
1.16678e-05;-0.0032055525400380173
1.16680e-05;-0.003221269757804654
1.16683e-05;-0.0032364554380450465
1.16685e-05;-0.0032516411182853364
1.16688e-05;-0.003266826798525729
1.16690e-05;-0.0032820124787661217
1.16693e-05;-0.003296471346836243
1.16695e-05;-0.0033108797349078326
1.16698e-05;-0.0033252881229794227
1.16700e-05;-0.003339696511050915
1.16703e-05;-0.003353846285638176
1.16705e-05;-0.003367660237293522
1.16708e-05;-0.003381474188948774
1.16710e-05;-0.0033952881406041197
1.16713e-05;-0.0034091020922594655
1.16715e-05;-0.003422916043914718
1.16718e-05;-0.003436729995570064
1.16720e-05;-0.0034505439472254096
1.16722e-05;-0.0034643578988806617
1.16725e-05;-0.003476374028378519
1.16728e-05;-0.0034882652919704118
1.16730e-05;-0.0035001565555623044
1.16733e-05;-0.0035120478191541164
1.16735e-05;-0.003523939082746009
1.16738e-05;-0.0035358303463379017
1.16740e-05;-0.0035477216099297137
1.16743e-05;-0.003559612873521606
1.16745e-05;-0.0035699294978217156
1.16748e-05;-0.00357820137188332
1.16750e-05;-0.003586473245944981
1.16753e-05;-0.0035947451200066417
1.16755e-05;-0.0036030169940682462
1.16758e-05;-0.0036112888681299068
1.16760e-05;-0.0036195607421915673
1.16763e-05;-0.0036256377958065354
1.16765e-05;-0.003628864762004537
1.16768e-05;-0.0036320917282025387
1.16770e-05;-0.0036353186944005187
1.16773e-05;-0.00363854566059852
1.16775e-05;-0.0036417726267965215
1.16778e-05;-0.0036449995929945015
1.16780e-05;-0.0036455546010979527
1.16783e-05;-0.0036426399339684343
1.16785e-05;-0.0036397252668389354
1.16788e-05;-0.0036368105997094165
1.16790e-05;-0.003633895932579898
1.16793e-05;-0.003630981265450399
1.16795e-05;-0.003628066598320881
1.16798e-05;-0.003625151931191362
1.16800e-05;-0.0036222372640618635
1.16803e-05;-0.0036193225969323446
1.16805e-05;-0.003614325466671075
1.16807e-05;-0.0036066241507540474
1.16810e-05;-0.0035989228348369674
1.16813e-05;-0.0035912215189198874
1.16815e-05;-0.0035835202030028595
1.16818e-05;-0.00357581888708578
1.16820e-05;-0.0035681175711687
1.16823e-05;-0.00356041625525162
1.16825e-05;-0.003552714939334592
1.16828e-05;-0.0035450136234175126
1.16830e-05;-0.0035368642717644736
1.16833e-05;-0.003528133122627513
1.16835e-05;-0.0035194019734904928
1.16838e-05;-0.0035106708243534727
1.16840e-05;-0.0035022164877817736
1.16843e-05;-0.0034941216065861986
1.16845e-05;-0.0034860267253906236
1.16848e-05;-0.0034779318441951032
1.16850e-05;-0.003470195976057588
1.16853e-05;-0.003463117042428328
1.16855e-05;-0.0034564880764749615
1.16858e-05;-0.0034500682033910893
1.16860e-05;-0.0034429320835555628
1.16863e-05;-0.0034333673313826636
1.16865e-05;-0.003421739303377302
1.16868e-05;-0.0034076834486172487
1.16870e-05;-0.0033904749357449074
1.16873e-05;-0.00337326642287245
1.16875e-05;-0.003353996414831545
1.16878e-05;-0.0033320494491149147
1.16880e-05;-0.003307164588151243
1.16883e-05;-0.0032784647188612488
1.16885e-05;-0.003249764849571449
1.16888e-05;-0.0032168275946809406
1.16890e-05;-0.0031783878762954034
1.16892e-05;-0.0031399481579101264
1.16895e-05;-0.003101508439524589
1.16898e-05;-0.003063068721139051
1.16900e-05;-0.003015628297852022
1.16903e-05;-0.002967562739776117
1.16905e-05;-0.0029194971817002122
1.16908e-05;-0.0028714316236243074
1.16910e-05;-0.0028208931120911962
1.16913e-05;-0.0027671433430964476
1.16915e-05;-0.002712588738592787
1.16918e-05;-0.002656989013719263
1.16920e-05;-0.002600898415662287
1.16923e-05;-0.0025438702578636824
1.16925e-05;-0.002486276916406987
1.16928e-05;-0.002428431241091184
1.16930e-05;-0.002370680048281199
1.16933e-05;-0.002313369921511311
1.16935e-05;-0.0022568455907718723
1.16938e-05;-0.0022014083230755595
1.16940e-05;-0.0021472538861452644
1.16943e-05;-0.0020945400463665714
