Time(s);Current(A)
1.30000e-05;0.0007592224300146522
1.30003e-05;0.0008034849905647756
1.30005e-05;0.0008492574154952552
1.30008e-05;0.0008981223975861457
1.30010e-05;0.0009469873796770361
1.30013e-05;0.000997217913597535
1.30015e-05;0.0010502454186526048
1.30018e-05;0.0011032729237076748
1.30020e-05;0.0011563004287623853
1.30023e-05;0.0012093279338174553
1.30025e-05;0.0012625236704828027
1.30028e-05;0.0013160639850301574
1.30030e-05;0.001369604299577875
1.30033e-05;0.0014231446141255925
1.30035e-05;0.0014766849286729474
1.30038e-05;0.0015287921696003541
1.30040e-05;0.0015779641388949021
1.30043e-05;0.001627136108189117
1.30045e-05;0.00167422045241333
1.30048e-05;0.0017170288497759597
1.30050e-05;0.0017598372471382992
1.30053e-05;0.0017995183060690444
1.30055e-05;0.001832793840778339
1.30058e-05;0.0018660693754876338
1.30060e-05;0.0018953988064038926
1.30063e-05;0.001916645689180312
1.30065e-05;0.0019378925719567312
1.30068e-05;0.001954947018616532
1.30070e-05;0.0019634143706343306
1.30073e-05;0.001971881722652129
1.30075e-05;0.0019760166555955493
1.30078e-05;0.001971277775895037
1.30080e-05;0.0019665388961945243
1.30083e-05;0.001957591705627707
1.30085e-05;0.001940024905199734
1.30088e-05;0.0019224581047717609
1.30090e-05;0.001901080027716018
1.30093e-05;0.0018718955602463653
1.30095e-05;0.0018427110927767129
1.30098e-05;0.0018101588105139633
1.30100e-05;0.001770708451914539
1.30103e-05;0.0017312580933151146
1.30105e-05;0.001689106061085783
1.30108e-05;0.0016414203662049995
1.30110e-05;0.001593734671324216
1.30113e-05;0.0015436998368313195
1.30115e-05;0.0014888534122218969
1.30118e-05;0.0014340069876124743
1.30120e-05;0.0013791605630034231
1.30123e-05;0.0013243141383940005
1.30125e-05;0.0012686697116288243
1.30128e-05;0.0012113907888702158
1.30130e-05;0.0011541118661112194
1.30133e-05;0.0010968329433522228
1.30135e-05;0.0010395540205936145
1.30138e-05;0.0009835269892566748
1.30140e-05;0.0009300641258225686
1.30143e-05;0.0008766012623884626
1.30145e-05;0.0008249043725694991
1.30148e-05;0.0007768246118243314
1.30150e-05;0.000730738147418581
1.30153e-05;0.0006887344224619807
1.30155e-05;0.0006485116133712593
1.30158e-05;0.0006131997078393926
1.30160e-05;0.0005817484360896176
1.30163e-05;0.0005541976076691842
1.30165e-05;0.0005306134611672579
1.30168e-05;0.0005110797765035361
1.30170e-05;0.0004956803058750989
1.30173e-05;0.0004844985213705504
1.30175e-05;0.00047760214390671086
1.30178e-05;0.00047499160087234555
1.30180e-05;0.00047657400922760117
1.30183e-05;0.00048222029329381616
1.30185e-05;0.0004918178997414409
1.30188e-05;0.0005052652662105004
1.30190e-05;0.0005224608103241554
1.30193e-05;0.000543302845601773
1.30195e-05;0.0005676797489791945
1.30198e-05;0.0005959312992995751
1.30200e-05;0.000627375514282487
1.30203e-05;0.000660646063847144
1.30205e-05;0.0006976573759348909
1.30208e-05;0.0007362077972056004
1.30210e-05;0.0007779106758670541
1.30213e-05;0.0008211080979288791
1.30215e-05;0.0008673666961844936
1.30218e-05;0.000913625294440108
1.30220e-05;0.0009610646405415233
1.30223e-05;0.0010109224357800182
1.30225e-05;0.001060780231018513
1.30228e-05;0.001110638026257008
1.30230e-05;0.001160495821495165
1.30233e-05;0.0012097133360091383
1.30235e-05;0.0012576194050941403
1.30238e-05;0.0013055254741788176
1.30240e-05;0.0013534315432638196
1.30243e-05;0.0014013376123488215
1.30245e-05;0.0014467606862707744
1.30248e-05;0.0014773160445140194
1.30250e-05;0.0015167396235437477
1.30253e-05;0.00154908114982626
1.30255e-05;0.0015872971453983191
1.30258e-05;0.0016180593471929947
1.30260e-05;0.001643380917583691
1.30263e-05;0.001668702487974559
1.30265e-05;0.00168986054571305
1.30268e-05;0.0017053408861206606
1.30270e-05;0.0017208212265283761
1.30273e-05;0.0017321560015844957
1.30275e-05;0.0017286077237381055
1.30278e-05;0.0017250594458916915
1.30280e-05;0.0017215111680452778
1.30283e-05;0.0017179628901988877
1.30285e-05;0.0017144146123524737
1.30288e-05;0.00171086633450606
1.30290e-05;0.0016963469665744004
1.30293e-05;0.0016708144264998973
1.30295e-05;0.0016452818864253944
1.30298e-05;0.0016197493463510646
1.30300e-05;0.0015942168062765614
1.30303e-05;0.0015686842662020585
1.30305e-05;0.0015431517261277287
1.30308e-05;0.0015084483400974607
1.30310e-05;0.0014711617154746191
1.30313e-05;0.0014338750908517773
1.30315e-05;0.0013923349440026257
1.30318e-05;0.0013495966674688432
1.30320e-05;0.0013068583909350607
1.30323e-05;0.001264120114401568
1.30325e-05;0.0012213818378677855
1.30328e-05;0.0011773711197118418
1.30330e-05;0.0011330019809348863
1.30333e-05;0.0010886328421576303
1.30335e-05;0.0010442637033803743
1.30338e-05;0.000999894564603419
1.30340e-05;0.0009581259577653634
1.30343e-05;0.0009170898672622271
1.30345e-05;0.0008760537767593689
1.30348e-05;0.0008385540805850739
1.30350e-05;0.0008020505139232243
1.30353e-05;0.000769671051454028
1.30355e-05;0.0007384532642720694
1.30358e-05;0.0007113077171832786
1.30360e-05;0.0006853092363326241
1.30363e-05;0.0006627903960137133
1.30365e-05;0.0006412516988305811
1.30368e-05;0.0006235797609026887
1.30370e-05;0.0006069970094888814
1.30373e-05;0.0005947203634737953
1.30375e-05;0.0005836566587410648
1.30378e-05;0.0005766255693845065
1.30380e-05;0.000570730384798662
1.30383e-05;0.0005682558010520768
1.30385e-05;0.0005667447301747581
1.30388e-05;0.0005686559404971718
1.30390e-05;0.0005715311370118133
1.30393e-05;0.0005778629485782412
1.30395e-05;0.0005851684174765326
1.30398e-05;0.0005955183816643014
1.30400e-05;0.000606725917527148
1.30403e-05;0.0006208954899088038
1.30405e-05;0.0006358994070267173
1.30408e-05;0.0006509033241445292
1.30410e-05;0.0006690390244667145
1.30413e-05;0.0006880568836735599
1.30415e-05;0.0007070747428802764
1.30418e-05;0.0007286776419557864
1.30420e-05;0.000751008693568906
1.30423e-05;0.0007733397451818742
1.30425e-05;0.0007956707967949938
1.30428e-05;0.0008180018484081132
1.30430e-05;0.0008404276124289363
1.30433e-05;0.0008630966494709526
1.30435e-05;0.0008857656865129689
1.30438e-05;0.0009084347235548317
1.30440e-05;0.0009311037605968481
1.30443e-05;0.0009537727976388643
1.30445e-05;0.0009740496027594741
1.30448e-05;0.0009936525653738218
1.30450e-05;0.0010132555279881693
1.30453e-05;0.0010295126506664682
1.30455e-05;0.0010448273190834451
1.30458e-05;0.001060141987500422
1.30460e-05;0.0010700832718288404
1.30463e-05;0.0010785109844295472
1.30465e-05;0.0010816237168222859
1.30468e-05;0.0010832393286585946
1.30470e-05;0.0010797803426663224
1.30473e-05;0.001074891946887471
1.30475e-05;0.0010649115138631554
1.30478e-05;0.0010534967587273421
1.30480e-05;0.0010362593274419304
1.30482e-05;0.001017381768100568
1.30485e-05;0.0009927843979201526
1.30488e-05;0.0009665758747249156
1.30490e-05;0.000935312259507252
1.30493e-05;0.0009026247288874499
1.30495e-05;0.0008653854423324411
1.30498e-05;0.0008268640197935347
1.30500e-05;0.00078384726964157
1.30503e-05;0.0007395642782024659
1.30505e-05;0.0006913645708455608
1.30508e-05;0.0006420616052104612
1.30510e-05;0.000589772411920949
1.30513e-05;0.0005366420597498112
1.30515e-05;0.00048135468105441173
1.30518e-05;0.000425459712372443
1.30520e-05;0.00036772843894236705
1.30523e-05;0.0003094799162513331
1.30525e-05;0.0002512313935599044
1.30528e-05;0.0001925263038683904
1.30530e-05;0.0001336926086482609
1.30533e-05;7.540335873955928e-05
1.30535e-05;1.797859245457083e-05
1.30538e-05;-3.832431842126334e-05
1.30540e-05;-9.325494425394126e-05
1.30543e-05;-0.0001465084933693122
1.30545e-05;-0.0001977215597691244
1.30548e-05;-0.000246509577992841
1.30550e-05;-0.0002924856767414035
1.30553e-05;-0.00033526934795012213
1.30555e-05;-0.00037464312946694386
1.30558e-05;-0.0004111170332452121
1.30560e-05;-0.0004458082155261744
1.30563e-05;-0.0004793570019895002
1.30565e-05;-0.0005111338977851205
1.30567e-05;-0.0005424759728748322
1.30570e-05;-0.0005711173112861742
1.30573e-05;-0.0005989979077488114
1.30575e-05;-0.000623388834501545
1.30578e-05;-0.0006467967931045401
1.30580e-05;-0.0006702047517076937
1.30583e-05;-0.0006916506850789009
1.30585e-05;-0.0007125439563151292
1.30588e-05;-0.0007334372275514993
1.30590e-05;-0.0007519067982978642
1.30593e-05;-0.0007696936624890374
1.30595e-05;-0.0007874805266803311
1.30598e-05;-0.0008017123026327434
1.30600e-05;-0.0008149426833818856
1.30603e-05;-0.0008281730641311175
1.30605e-05;-0.0008414034448803494
1.30608e-05;-0.0008546338256294917
1.30610e-05;-0.0008678642063787236
1.30613e-05;-0.0008810945871279554
1.30615e-05;-0.0008943249678770976
1.30618e-05;-0.0009075553486263295
1.30620e-05;-0.0009194509381893117
1.30623e-05;-0.0009279180573763709
1.30625e-05;-0.0009363851765634875
1.30628e-05;-0.0009448522957506042
1.30630e-05;-0.0009533194149376634
1.30633e-05;-0.0009617865341247801
1.30635e-05;-0.0009702536533118967
1.30638e-05;-0.0009787207724989558
1.30640e-05;-0.0009871878916860725
1.30643e-05;-0.000995655010873189
1.30645e-05;-0.0010023334998642173
1.30648e-05;-0.001008508168533918
1.30650e-05;-0.0010146828372036185
1.30652e-05;-0.0010194821535257292
1.30655e-05;-0.0010238940613923363
1.30658e-05;-0.0010283059692589435
1.30660e-05;-0.0010282366282088984
1.30663e-05;-0.0010269050115501856
1.30665e-05;-0.001020580408085082
1.30668e-05;-0.001012849382977851
1.30670e-05;-0.001000558631577956
1.30673e-05;-0.0009869834991073322
1.30675e-05;-0.0009689581135586992
1.30678e-05;-0.0009496791832915108
1.30680e-05;-0.000924737438197279
1.30683e-05;-0.0008982005946906597
1.30685e-05;-0.0008659923528943501
1.30688e-05;-0.0008321865949005179
1.30690e-05;-0.000793528160200674
1.30693e-05;-0.0007535028263270176
1.30695e-05;-0.0007092405543261721
1.30698e-05;-0.0006637848240388139
1.30700e-05;-0.0006138798625147077
1.30703e-05;-0.0005627216441029788
1.30705e-05;-0.0005076560880022971
1.30708e-05;-0.0004514899152765978
1.30710e-05;-0.00039247638306636135
1.30713e-05;-0.00033266080827973554
1.30715e-05;-0.0002709306103227209
1.30718e-05;-0.0002086611024153899
1.30720e-05;-0.00014519359966798406
1.30723e-05;-8.078333062324145e-05
1.30725e-05;-1.589357461145864e-05
1.30728e-05;4.9088594682026036e-05
1.30730e-05;0.00011377411127992672
1.30733e-05;0.000177773840233646
1.30735e-05;0.00024071972048198592
1.30737e-05;0.00030233251025950164
1.30740e-05;0.00036239592750074407
1.30743e-05;0.00042061501724512996
1.30745e-05;0.00047659719731883737
1.30748e-05;0.0005299249492487664
1.30750e-05;0.0005801795597456768
1.30753e-05;0.0006269423865193906
1.30755e-05;0.0006698294972455422
1.30758e-05;0.0007086373123769384
1.30760e-05;0.0007433782916764204
1.30763e-05;0.00077406993290859
1.30765e-05;0.000800636394648642
1.30768e-05;0.0008229724949598839
1.30770e-05;0.0008409713844068858
1.30773e-05;0.0008545261156867545
1.30775e-05;0.0008635517294653075
1.30778e-05;0.0008664002865775205
1.30780e-05;0.0008677903437277997
1.30783e-05;0.0008626996819405654
1.30785e-05;0.000855783534982342
1.30788e-05;0.0008426961279062472
1.30790e-05;0.0008278704038408932
1.30793e-05;0.0008071562879083048
1.30795e-05;0.0007847835331519435
1.30798e-05;0.0007570130290815542
1.30800e-05;0.0007277220900990125
1.30803e-05;0.0006938132480192309
1.30805e-05;0.0006586036376594876
1.30808e-05;0.0006194547173470522
1.30810e-05;0.0005791961744796748
1.30813e-05;0.0005356602928592042
1.30815e-05;0.0004912012523499685
1.30818e-05;0.00044425684514885636
1.30820e-05;0.00039661236129199954
1.30822e-05;0.00034726747751878803
1.30825e-05;0.00029744362607775484
1.30828e-05;0.00024761977463672166
1.30830e-05;0.00019741580408234153
1.30833e-05;0.00014710476179576114
1.30835e-05;9.724317052276844e-05
1.30838e-05;4.813988235563807e-05
1.30840e-05;1.2769402913095289e-07
1.30843e-05;-4.643922064470427e-05
1.30845e-05;-9.122109525845514e-05
1.30848e-05;-0.00013388271102157372
1.30850e-05;-0.00017408916216226272
1.30853e-05;-0.00021150560199519747
1.30855e-05;-0.00024592232263681975
1.30858e-05;-0.0002776876235927947
1.30860e-05;-0.00030762347716156973
1.30863e-05;-0.00033620266178515474
1.30865e-05;-0.000363376949099203
1.30868e-05;-0.00038824688319733533
1.30870e-05;-0.0004125568762202234
1.30873e-05;-0.0004337514127860788
1.30875e-05;-0.00045406838937429823
1.30878e-05;-0.00047169656211473135
1.30880e-05;-0.0004885673541385689
1.30883e-05;-0.0005038064025960845
1.30885e-05;-0.0005185858224670316
1.30888e-05;-0.0005310417655115542
1.30890e-05;-0.0005428432329438842
1.30893e-05;-0.0005546447003761343
1.30895e-05;-0.0005634791053480045
1.30898e-05;-0.0005714777498775359
1.30900e-05;-0.000579476394407013
1.30903e-05;-0.0005857025765336512
1.30905e-05;-0.0005914294924730518
1.30907e-05;-0.0005971564084124135
1.30910e-05;-0.0006010677629733205
1.30913e-05;-0.0006044677112523834
1.30915e-05;-0.0006078676595314464
1.30918e-05;-0.0006092123733940963
1.30920e-05;-0.0006099781700118356
1.30923e-05;-0.000610743966629575
1.30925e-05;-0.0006115097632473091
1.30928e-05;-0.0006122755598650484
1.30930e-05;-0.0006130413564827877
1.30933e-05;-0.0006138071531005218
1.30935e-05;-0.00061336156551955
1.30938e-05;-0.0006125747559362208
1.30940e-05;-0.000611787946352897
1.30943e-05;-0.0006110011367695679
1.30945e-05;-0.0006102143271862388
1.30948e-05;-0.000609427517602915
1.30950e-05;-0.0006086407080195859
1.30953e-05;-0.0006075737605013233
1.30955e-05;-0.0006064279038911423
1.30958e-05;-0.0006052820472809533
1.30960e-05;-0.0006008608804613832
1.30963e-05;-0.0005955171261512585
1.30965e-05;-0.0005862207552503
1.30968e-05;-0.0005758110135878574
1.30970e-05;-0.0005627216873531021
1.30973e-05;-0.000547249171728625
1.30975e-05;-0.0005297230331786367
1.30978e-05;-0.0005098490995196437
1.30980e-05;-0.0004870698531687655
1.30983e-05;-0.00046113467089227715
1.30985e-05;-0.0004321816223984654
1.30988e-05;-0.00040044870265661895
1.30990e-05;-0.00036617913237804527
1.30992e-05;-0.0003296160868589741
1.30995e-05;-0.0002909496155865983
1.30998e-05;-0.00025014355864346973
1.31000e-05;-0.000206996820472401
1.31003e-05;-0.00016150057423486178
1.31005e-05;-0.00011388942774016938
1.31008e-05;-6.446059108167318e-05
1.31010e-05;-1.3514528487207846e-05
1.31013e-05;3.864832764874083e-05
1.31015e-05;9.176086777561172e-05
1.31018e-05;0.00014569769993570886
1.31020e-05;0.0002008352373048456
1.31023e-05;0.0002562611589538968
1.31025e-05;0.0003116870806025724
1.31028e-05;0.0003670089675009573
1.31030e-05;0.00042230154995077105
1.31033e-05;0.00047759413240021
1.31035e-05;0.0005306184401363999
1.31038e-05;0.0005830038215593369
1.31040e-05;0.0006353892029819187
1.31043e-05;0.0006846810407571361
1.31045e-05;0.0007331014909416303
1.31048e-05;0.0007778529194281054
1.31050e-05;0.000821570859998892
1.31053e-05;0.0008605977336700628
1.31055e-05;0.0008983032303218592
1.31058e-05;0.0009325477823467685
1.31060e-05;0.0009658174574848644
1.31063e-05;0.0009990871326227351
1.31065e-05;0.0010299479883020943
1.31068e-05;0.00106013032910534
1.31070e-05;0.0010903126699083811
1.31073e-05;0.001120495010711627
1.31075e-05;0.0011506773515148725
1.31077e-05;0.0011808596923179137
1.31080e-05;0.0012091117682170665
1.31083e-05;0.0012368201282110607
1.31085e-05;0.001264528488205055
1.31088e-05;0.0012922368481988614
1.31090e-05;0.0013199452081928556
1.31093e-05;0.0013476535681868499
1.31095e-05;0.001374612741730473
1.31098e-05;0.0014013608848669743
1.31100e-05;0.0014281090280034757
1.31103e-05;0.0014548571711397956
1.31105e-05;0.001481605314276297
1.31108e-05;0.0015083534574127984
1.31110e-05;0.0015351016005491183
1.31113e-05;0.0015618497436856197
1.31115e-05;0.0015885978868221211
1.31118e-05;0.001615346029958441
1.31120e-05;0.001639721458679142
1.31123e-05;0.0016634285425712193
1.31125e-05;0.001687135626463136
1.31128e-05;0.001710842710355213
1.31130e-05;0.0017345497942472903
1.31133e-05;0.0017582568781392069
1.31135e-05;0.001781963962031284
1.31138e-05;0.0018056710459233613
1.31140e-05;0.0018293781298152777
1.31143e-05;0.001853085213707355
1.31145e-05;0.0018720080569823543
1.31148e-05;0.0018895832781184712
1.31150e-05;0.0019071584992547074
1.31153e-05;0.0019247337203909436
1.31155e-05;0.0019423089415270605
1.31158e-05;0.0019498223457577201
1.31160e-05;0.0019545015432032384
1.31162e-05;0.0019591807406487247
1.31165e-05;0.001963859938094243
1.31168e-05;0.001968539135539761
1.31170e-05;0.001961320321085958
1.31173e-05;0.001950750081499847
1.31175e-05;0.0019401798419136644
1.31178e-05;0.0019200974903752252
1.31180e-05;0.0018973357726262408
1.31183e-05;0.001874574054877102
1.31185e-05;0.0018417542139877842
1.31188e-05;0.0018061012067712742
1.31190e-05;0.0017704481995545226
1.31193e-05;0.0017263659591784048
1.31195e-05;0.0016799093772657848
1.31198e-05;0.00163345279535285
1.31200e-05;0.0015791573469299512
1.31203e-05;0.001522653851107984
1.31205e-05;0.0014661503552856336
1.31208e-05;0.0014035313767190244
1.31210e-05;0.0013391897924989319
1.31213e-05;0.0012748482082784033
1.31215e-05;0.0012062408018987507
1.31218e-05;0.0011364318011929234
1.31220e-05;0.0010666228004866233
1.31223e-05;0.0009968137997803232
1.31225e-05;0.0009255190992713925
1.31228e-05;0.0008538059076978844
1.31230e-05;0.0007820927161243763
1.31233e-05;0.0007103795245513542
1.31235e-05;0.0006406707646032104
1.31238e-05;0.000571526611799864
1.31240e-05;0.0005051514659953721
1.31243e-05;0.00043955629248558064
1.31245e-05;0.00037681389421495413
1.31247e-05;0.000317260767177598
1.31250e-05;0.000261129167527164
1.31253e-05;0.00020888534006671442
1.31255e-05;0.00016088990068120865
1.31258e-05;0.00011701850888370726
1.31260e-05;7.669956021708879e-05
1.31263e-05;3.959852079774695e-05
1.31265e-05;5.7912518618956676e-06
1.31268e-05;-2.4534874558519956e-05
1.31270e-05;-5.118639204005047e-05
1.31273e-05;-7.396989010816546e-05
1.31275e-05;-9.275815594395157e-05
1.31278e-05;-0.00010772772833095201
1.31280e-05;-0.00011933532791587091
1.31283e-05;-0.000127889113137893
1.31285e-05;-0.00013344016450941761
1.31288e-05;-0.00013596971074489642
1.31290e-05;-0.00013545519173889162
1.31293e-05;-0.00013187407792847073
1.31295e-05;-0.00012524529562541094
1.31298e-05;-0.00011577805393123174
1.31300e-05;-0.00010385703585053506
1.31303e-05;-8.977384869816902e-05
1.31305e-05;-7.365903130386824e-05
1.31308e-05;-5.559939136750382e-05
1.31310e-05;-3.567932999753801e-05
1.31313e-05;-1.3983279524946163e-05
1.31315e-05;9.378359909213354e-06
1.31318e-05;3.4176015695141915e-05
1.31320e-05;6.007021708092715e-05
1.31323e-05;8.67798229958701e-05
1.31325e-05;0.00011429977728922986
1.31328e-05;0.00014200102867263504
1.31330e-05;0.0001701842161467822
1.31332e-05;0.0001985031551010132
1.31335e-05;0.00022682209405543608
1.31338e-05;0.0002543857904498187
1.31340e-05;0.0002817367505551658
1.31343e-05;0.0003090877106603276
1.31345e-05;0.0003345023997086741
1.31348e-05;0.000359371681041614
1.31350e-05;0.0003819681726387659
1.31353e-05;0.00040392446613320653
1.31355e-05;0.0004232412425706778
1.31358e-05;0.000441814521364617
1.31360e-05;0.0004584455418713501
1.31363e-05;0.0004745294681830442
1.31365e-05;0.0004888682833654507
1.31368e-05;0.0005027155366507991
1.31370e-05;0.0005145261930323296
1.31373e-05;0.0005257631819715982
1.31375e-05;0.0005343762350344549
1.31378e-05;0.000542250179351756
1.31380e-05;0.0005501241236690038
1.31383e-05;0.0005556706021969837
1.31385e-05;0.0005605614815026841
1.31388e-05;0.0005654523608083514
1.31390e-05;0.0005679982138008051
1.31393e-05;0.0005698835211326935
1.31395e-05;0.0005717688284645691
1.31398e-05;0.0005715726535879088
1.31400e-05;0.0005707901680022474
1.31403e-05;0.0005700076824165911
1.31405e-05;0.0005668710377476261
1.31408e-05;0.0005630712749047155
1.31410e-05;0.0005592715120618306
1.31413e-05;0.00055547174921892
1.31415e-05;0.0005516719863760094
1.31418e-05;0.0005478722235331244
1.31420e-05;0.0005440724606902139
1.31423e-05;0.0005384932999032951
1.31425e-05;0.0005324129193288883
1.31428e-05;0.0005263325387545227
1.31430e-05;0.0005202521581801158
1.31433e-05;0.000514171777605709
1.31435e-05;0.0005080913970313435
1.31438e-05;0.0005020110164569366
1.31440e-05;0.000496217039377689
1.31443e-05;0.0004905037362699594
1.31445e-05;0.00048479043316219115
1.31448e-05;0.0004790771300544228
1.31450e-05;0.0004733638269466933
1.31453e-05;0.000468346356572839
1.31455e-05;0.0004635248879625225
1.31458e-05;0.0004587034193522386
