Time(s);Current(A)
1.25000e-06;0.007599490326668123
1.25025e-06;0.007610612781707455
1.25050e-06;0.007621735236746796
1.25075e-06;0.007632857691786128
1.25100e-06;0.00764398014682547
1.25125e-06;0.007655102601864802
1.25150e-06;0.007666225056904135
1.25175e-06;0.0076773475119434765
1.25200e-06;0.007688469966982809
1.25225e-06;0.007699592422022151
1.25250e-06;0.007710714877061483
1.25275e-06;0.007720151175074989
1.25300e-06;0.007727893889650104
1.25325e-06;0.007735636604225212
1.25350e-06;0.007743379318800327
1.25375e-06;0.007751122033375436
1.25400e-06;0.007758864747950544
1.25425e-06;0.007766607462525659
1.25450e-06;0.007774350177100767
1.25475e-06;0.0077820928916758824
1.25500e-06;0.0077898356062509905
1.25525e-06;0.007797578320826106
1.25550e-06;0.007805321035401214
1.25575e-06;0.007813063749976323
1.25600e-06;0.007820806464551437
1.25625e-06;0.007828549179126546
1.25650e-06;0.00783629189370166
1.25675e-06;0.007844034608276769
1.25700e-06;0.007845291644953558
1.25725e-06;0.007840034438587211
1.25750e-06;0.007834777232220869
1.25775e-06;0.007829520025854521
1.25800e-06;0.007824262819488179
1.25825e-06;0.007819005613121837
1.25850e-06;0.00781374840675549
1.25875e-06;0.007808491200389146
1.25900e-06;0.0078032339940227995
1.25925e-06;0.007797976787656456
1.25950e-06;0.00779271958129011
1.25975e-06;0.007787462374923767
1.26000e-06;0.0077822051685574245
1.26025e-06;0.007776947962191077
1.26050e-06;0.007771690755824735
1.26075e-06;0.007766433549458387
1.26100e-06;0.007761176343092045
1.26125e-06;0.007754240524558137
1.26150e-06;0.007745618700674304
1.26175e-06;0.007736996876790478
1.26200e-06;0.007728375052906645
1.26225e-06;0.007719753229022819
1.26250e-06;0.007711131405138993
1.26275e-06;0.00770250958125516
1.26300e-06;0.007693887757371334
1.26325e-06;0.0076852659334875
1.26350e-06;0.007676644109603675
1.26375e-06;0.007668022285719841
1.26400e-06;0.007659400461836015
1.26425e-06;0.007650778637952189
1.26450e-06;0.007642156814068356
1.26475e-06;0.00763353499018453
1.26500e-06;0.007624913166300697
1.26525e-06;0.007628647698582757
1.26550e-06;0.0076323958213056296
1.26575e-06;0.007636143944028504
1.26600e-06;0.007639892066751376
1.26625e-06;0.007643640189474251
1.26650e-06;0.007647388312197123
1.26675e-06;0.007651136434919994
1.26700e-06;0.007654884557642869
1.26725e-06;0.0076586326803657415
1.26750e-06;0.007662380803088616
1.26775e-06;0.007666128925811488
1.26800e-06;0.007669877048534363
1.26825e-06;0.007673625171257234
1.26850e-06;0.007677373293980106
1.26875e-06;0.007681121416702981
1.26900e-06;0.007691082698080943
1.26925e-06;0.007707284502990398
1.26950e-06;0.007723486307899839
1.26975e-06;0.00773968811280928
1.27000e-06;0.007755889917718735
1.27025e-06;0.007772091722628176
1.27050e-06;0.007788293527537632
1.27075e-06;0.007804495332447072
1.27100e-06;0.007820697137356513
1.27125e-06;0.007837877676557284
1.27150e-06;0.00785604126073001
1.27175e-06;0.007874204844902751
1.27200e-06;0.007892368429075477
1.27225e-06;0.007910532013248203
1.27250e-06;0.007928695597420942
1.27275e-06;0.007946859181593668
1.27300e-06;0.007965022765766409
1.27325e-06;0.007983186349939135
1.27350e-06;0.008000277084797183
1.27375e-06;0.008011710733560138
1.27400e-06;0.008018544701002451
1.27425e-06;0.008025378668444771
1.27450e-06;0.008032212635887085
1.27475e-06;0.008039046603329405
1.27500e-06;0.008045880570771718
1.27525e-06;0.008052714538214033
1.27550e-06;0.008059548505656352
1.27575e-06;0.008066382473098667
1.27600e-06;0.008073216440540985
1.27625e-06;0.0080800504079833
1.27650e-06;0.008086884375425613
1.27675e-06;0.00808285402052371
1.27700e-06;0.008067911493085507
1.27725e-06;0.00805296896564729
1.27750e-06;0.008038026438209087
1.27775e-06;0.00802308391077087
1.27800e-06;0.008008141383332668
1.27825e-06;0.007993198855894463
1.27850e-06;0.007978256328456248
1.27875e-06;0.007963313801018043
1.27900e-06;0.007948371273579828
1.27925e-06;0.007933428746141623
1.27950e-06;0.00791848621870342
1.27975e-06;0.007896732086247093
1.28000e-06;0.007868136348134167
1.28025e-06;0.007839540610021217
1.28050e-06;0.0078109448719082914
1.28075e-06;0.007782349133795366
1.28100e-06;0.007753753395682417
1.28125e-06;0.007725157657569491
1.28150e-06;0.0076965619194565415
1.28175e-06;0.0076679661813436155
1.28200e-06;0.007639370443230666
1.28225e-06;0.00761077470511774
1.28250e-06;0.007582178967004815
1.28275e-06;0.0075535832288918655
1.28300e-06;0.0075322444211949925
1.28325e-06;0.007510913595210496
1.28350e-06;0.007489582769226017
1.28375e-06;0.007468251943241538
1.28400e-06;0.007446921117257041
1.28425e-06;0.007425590291272563
1.28450e-06;0.007404259465288066
1.28475e-06;0.007382928639303587
1.28500e-06;0.007361597813319108
1.28525e-06;0.0073402669873346114
1.28550e-06;0.007318936161350133
1.28575e-06;0.007297605335365636
1.28600e-06;0.007286770637027244
1.28625e-06;0.007286478294871072
1.28650e-06;0.007286185952714901
1.28675e-06;0.0072858936105587285
1.28700e-06;0.007285601268402556
1.28725e-06;0.007285308926246385
1.28750e-06;0.007285016584090213
1.28775e-06;0.007284724241934041
1.28800e-06;0.0072844318997778695
1.28825e-06;0.007284139557621697
1.28850e-06;0.007283847215465525
1.28875e-06;0.007283554873309353
1.28900e-06;0.007283262531153182
1.28925e-06;0.00728297018899701
1.28950e-06;0.0072826778468408375
1.28975e-06;0.007288789518342184
1.29000e-06;0.007301333408967432
1.29025e-06;0.007313877299592671
1.29050e-06;0.00732642119021792
1.29075e-06;0.007338965080843158
1.29100e-06;0.007351508971468397
1.29125e-06;0.007364052862093646
1.29150e-06;0.007376596752718884
1.29175e-06;0.007389140643344133
1.29200e-06;0.007401684533969372
1.29225e-06;0.0074142284245946105
1.29250e-06;0.007426772315219859
1.29275e-06;0.0074393162058450975
1.29300e-06;0.007451860096470347
1.29325e-06;0.007464403987095585
1.29350e-06;0.007475971237080671
1.29375e-06;0.007486557544966235
1.29400e-06;0.0074971438528517904
1.29425e-06;0.007507730160737355
1.29450e-06;0.007518316468622909
1.29475e-06;0.0075289027765084735
1.29500e-06;0.007539489084394029
1.29525e-06;0.007550075392279584
1.29550e-06;0.007560661700165148
1.29575e-06;0.007571248008050703
1.29600e-06;0.007581834315936268
1.29625e-06;0.007592420623821822
1.29650e-06;0.007603006931707378
1.29675e-06;0.007616573249497894
1.29700e-06;0.007633132702176042
1.29725e-06;0.0076496921548542055
1.29750e-06;0.007666251607532354
1.29775e-06;0.007682811060210502
1.29800e-06;0.007699370512888665
1.29825e-06;0.007715929965566813
1.29850e-06;0.007732489418244976
1.29875e-06;0.007749048870923124
1.29900e-06;0.0077656083236012875
1.29925e-06;0.007782167776279435
1.29950e-06;0.007798727228957584
1.29975e-06;0.007815286681635747
1.30000e-06;0.007834154080985029
1.30025e-06;0.007855339591991806
1.30050e-06;0.007876525102998563
1.30075e-06;0.007897710614005323
1.30100e-06;0.0079188961250121
1.30125e-06;0.007940081636018859
1.30150e-06;0.007961267147025636
1.30175e-06;0.007982452658032393
1.30200e-06;0.008003638169039153
1.30225e-06;0.00802482368004593
1.30250e-06;0.008046009191052687
1.30275e-06;0.008067194702059464
1.30300e-06;0.008088380213066224
1.30325e-06;0.008103867295499114
1.30350e-06;0.008113630851530194
1.30375e-06;0.008123394407561274
1.30400e-06;0.008133157963592362
1.30425e-06;0.008142921519623442
1.30450e-06;0.008152685075654531
1.30475e-06;0.008162448631685613
1.30500e-06;0.008172212187716693
1.30525e-06;0.008181975743747781
1.30550e-06;0.008191739299778861
1.30575e-06;0.00820150285580995
1.30600e-06;0.00821126641184103
1.30625e-06;0.008221029967872112
1.30650e-06;0.008216888570442553
1.30675e-06;0.008198780977383014
1.30700e-06;0.008180673384323458
1.30725e-06;0.008162565791263917
1.30750e-06;0.008144458198204361
1.30775e-06;0.00812635060514482
1.30800e-06;0.00810824301208528
1.30825e-06;0.008090135419025726
1.30850e-06;0.008072027825966185
1.30875e-06;0.008053920232906629
1.30900e-06;0.008035812639847088
1.30925e-06;0.008017705046787548
1.30950e-06;0.007999597453727992
1.30975e-06;0.007963586658775671
1.31000e-06;0.00792755617254956
1.31025e-06;0.00789152568632348
1.31050e-06;0.0078554952000974
1.31075e-06;0.007819464713871288
1.31100e-06;0.007783434227645208
1.31125e-06;0.007747403741419096
1.31150e-06;0.007711373255193016
1.31175e-06;0.007675342768966935
1.31200e-06;0.007639312282740824
1.31225e-06;0.007603281796514743
1.31250e-06;0.007567251310288632
1.31275e-06;0.007534702751677306
1.31300e-06;0.0075056514562803255
1.31325e-06;0.007476600160883369
1.31350e-06;0.007447548865486413
1.31375e-06;0.007418497570089431
1.31400e-06;0.0073894462746924745
1.31425e-06;0.007360394979295494
1.31450e-06;0.007331343683898537
1.31475e-06;0.007302292388501581
1.31500e-06;0.007273241093104599
1.31525e-06;0.007244189797707643
1.31550e-06;0.007225559236094004
1.31575e-06;0.0072173953047377695
1.31600e-06;0.007209231373381534
1.31625e-06;0.0072010674420252925
1.31650e-06;0.007192903510669057
1.31675e-06;0.0071847395793128155
1.31700e-06;0.00717657564795658
1.31725e-06;0.0071684117166003385
1.31750e-06;0.007160247785244103
1.31775e-06;0.0071520838538878685
1.31800e-06;0.007143919922531627
1.31825e-06;0.007145039747857035
1.31850e-06;0.00715548421870216
1.31875e-06;0.007165928689547276
1.31900e-06;0.007176373160392393
1.31925e-06;0.007186817631237518
1.31950e-06;0.007197262102082634
1.31975e-06;0.007207706572927759
1.32000e-06;0.007218151043772875
1.32025e-06;0.0072285955146179914
1.32050e-06;0.0072390399854631166
1.32075e-06;0.007249484456308233
1.32100e-06;0.007259928927153358
1.32125e-06;0.007270373397998475
1.32150e-06;0.0072808178688436
1.32175e-06;0.007294553329528642
1.32200e-06;0.007308564822445529
1.32225e-06;0.007322576315362428
1.32250e-06;0.007336587808279315
1.32275e-06;0.007350599301196214
1.32300e-06;0.007364610794113101
1.32325e-06;0.007378622287029988
1.32350e-06;0.0073926337799468875
1.32375e-06;0.007406645272863774
1.32400e-06;0.0074206567657806735
1.32425e-06;0.00743466825869756
1.32450e-06;0.0074486797516144475
1.32475e-06;0.007462691244531347
1.32500e-06;0.007474061168779257
1.32525e-06;0.007480445337268119
1.32550e-06;0.007486829505756977
1.32575e-06;0.007493213674245839
1.32600e-06;0.0074995978427346965
1.32625e-06;0.007505982011223553
1.32650e-06;0.007512366179712416
1.32675e-06;0.007518750348201273
1.32700e-06;0.007525134516690136
1.32725e-06;0.007531518685178993
1.32750e-06;0.00753790285366785
1.32775e-06;0.0075442870221567124
1.32800e-06;0.00755067119064557
1.32825e-06;0.007557055359134432
1.32850e-06;0.00756343952762329
1.32875e-06;0.007569823696112147
1.32900e-06;0.0075762078646010094
1.32925e-06;0.007582592033089867
1.32950e-06;0.007588976201578729
1.32975e-06;0.007595360370067587
1.33000e-06;0.007598600728730113
1.33025e-06;0.007601270257429951
1.33050e-06;0.007603939786129789
1.33075e-06;0.00760660931482963
1.33100e-06;0.007609278843529467
1.33125e-06;0.0076119483722293085
1.33150e-06;0.007614617900929146
1.33175e-06;0.007617287429628985
1.33200e-06;0.007619956958328825
1.33225e-06;0.007622626487028663
1.33250e-06;0.007625296015728504
1.33275e-06;0.007627965544428341
1.33300e-06;0.00763063507312818
1.33325e-06;0.00763330460182802
1.33350e-06;0.007635974130527858
1.33375e-06;0.007638643659227699
1.33400e-06;0.007641313187927537
1.33425e-06;0.007643982716627377
1.33450e-06;0.0076466522453272154
1.33475e-06;0.007645459100619004
1.33500e-06;0.007636975459769406
1.33525e-06;0.007628491818919816
1.33550e-06;0.007620008178070218
1.33575e-06;0.007611524537220627
1.33600e-06;0.007603040896371037
1.33625e-06;0.007594557255521439
1.33650e-06;0.007586073614671849
1.33675e-06;0.00757758997382225
1.33700e-06;0.00756910633297266
1.33725e-06;0.007560622692123069
1.33750e-06;0.007552139051273472
1.33775e-06;0.007543655410423881
1.33800e-06;0.007520477908754744
1.33825e-06;0.00749463240345756
1.33850e-06;0.007468786898160355
1.33875e-06;0.007442941392863172
1.33900e-06;0.007417095887565989
1.33925e-06;0.007391250382268784
1.33950e-06;0.007365404876971601
1.33975e-06;0.007339559371674396
1.34000e-06;0.0073137138663772125
1.34025e-06;0.00728786836108003
1.34050e-06;0.007262022855782825
1.34075e-06;0.007236177350485641
1.34100e-06;0.007208709630813129
1.34125e-06;0.007178180107463801
1.34150e-06;0.007147650584114473
1.34175e-06;0.00711712106076512
1.34200e-06;0.007086591537415792
1.34225e-06;0.007056062014066438
1.34250e-06;0.00702553249071711
1.34275e-06;0.006995002967367757
1.34300e-06;0.006964473444018429
1.34325e-06;0.006933943920669101
1.34350e-06;0.006903414397319748
1.34375e-06;0.0068728848739704205
1.34400e-06;0.006856419720037909
1.34425e-06;0.006842508271294878
1.34450e-06;0.006828596822551845
1.34475e-06;0.0068146853738088025
1.34500e-06;0.00680077392506577
1.34525e-06;0.006786862476322726
1.34550e-06;0.006772951027579695
1.34575e-06;0.006759039578836663
1.34600e-06;0.0067451281300936194
1.34625e-06;0.006731216681350587
1.34650e-06;0.006717305232607544
1.34675e-06;0.006713654080461765
1.34700e-06;0.006729368441483681
1.34725e-06;0.00674508280250561
1.34750e-06;0.006760797163527526
1.34775e-06;0.006776511524549456
1.34800e-06;0.006792225885571372
1.34825e-06;0.0068079402465933015
1.34850e-06;0.006823654607615217
1.34875e-06;0.006839368968637133
1.34900e-06;0.006855083329659063
1.34925e-06;0.006870797690680979
1.34950e-06;0.0068865120517029085
1.34975e-06;0.006908424228740816
1.35000e-06;0.006942034302279933
1.35025e-06;0.00697564437581908
1.35050e-06;0.007009254449358198
1.35075e-06;0.007042864522897345
1.35100e-06;0.007076474596436463
1.35125e-06;0.00711008466997558
1.35150e-06;0.007143694743514727
1.35175e-06;0.0071773048170538445
1.35200e-06;0.007210914890592991
1.35225e-06;0.00724452496413211
1.35250e-06;0.007278135037671256
1.35275e-06;0.0073090907900455766
1.35300e-06;0.007335036717316011
1.35325e-06;0.007360982644586467
1.35350e-06;0.007386928571856901
1.35375e-06;0.007412874499127357
1.35400e-06;0.007438820426397792
1.35425e-06;0.007464766353668225
1.35450e-06;0.007490712280938681
1.35475e-06;0.007516658208209116
1.35500e-06;0.007542604135479572
1.35525e-06;0.007568550062750006
1.35550e-06;0.0075852531364473475
1.35575e-06;0.007584511041686755
1.35600e-06;0.007583768946926164
1.35625e-06;0.007583026852165572
1.35650e-06;0.007582284757404981
1.35675e-06;0.007581542662644388
1.35700e-06;0.007580800567883797
1.35725e-06;0.007580058473123206
1.35750e-06;0.007579316378362614
1.35775e-06;0.007578574283602022
1.35800e-06;0.007577832188841431
1.35825e-06;0.0075684874329533455
1.35850e-06;0.007542905822140963
1.35875e-06;0.007517324211328559
1.35900e-06;0.007491742600516177
1.35925e-06;0.007466160989703773
1.35950e-06;0.007440579378891391
1.35975e-06;0.007414997768079009
1.36000e-06;0.0073894161572666045
1.36025e-06;0.007363834546454223
1.36050e-06;0.007338252935641818
1.36075e-06;0.0073126713248294365
1.36100e-06;0.00728438545585724
1.36125e-06;0.007250995509580749
1.36150e-06;0.007217605563304258
1.36175e-06;0.007184215617027738
1.36200e-06;0.007150825670751247
1.36225e-06;0.007117435724474727
1.36250e-06;0.007084045778198236
1.36275e-06;0.0070506558319217445
1.36300e-06;0.007017265885645225
1.36325e-06;0.0069838759393687335
1.36350e-06;0.006950485993092214
1.36375e-06;0.006922312907433314
1.36400e-06;0.0069039862411265085
1.36425e-06;0.006885659574819687
1.36450e-06;0.006867332908512882
1.36475e-06;0.006849006242206061
1.36500e-06;0.006830679575899256
1.36525e-06;0.006812352909592435
1.36550e-06;0.006794026243285629
1.36575e-06;0.006775699576978825
1.36600e-06;0.006757372910672003
1.36625e-06;0.006739046244365198
1.36650e-06;0.006720719578058377
1.36675e-06;0.0067023929117515715
1.36700e-06;0.006684066245444766
1.36725e-06;0.0066657395791379455
1.36750e-06;0.00664741291283114
1.36775e-06;0.006629086246524319
1.36800e-06;0.006610759580217514
1.36825e-06;0.006592432913910708
1.36850e-06;0.006583746559844942
1.36875e-06;0.006576810623068575
1.36900e-06;0.006569874686292202
1.36925e-06;0.006562938749515835
1.36950e-06;0.006556002812739462
1.36975e-06;0.006549066875963094
1.37000e-06;0.006542130939186727
1.37025e-06;0.006535195002410354
1.37050e-06;0.006528259065633987
1.37075e-06;0.006521323128857614
1.37100e-06;0.006514387192081246
1.37125e-06;0.006507451255304879
1.37150e-06;0.006500515318528506
1.37175e-06;0.006493579381752139
1.37200e-06;0.006486643444975766
1.37225e-06;0.006479707508199399
1.37250e-06;0.006472771571423031
1.37275e-06;0.006465835634646658
1.37300e-06;0.006460401356235342
1.37325e-06;0.0064578013413915
1.37350e-06;0.006455201326547661
1.37375e-06;0.0064526013117038195
1.37400e-06;0.0064500012968599805
1.37425e-06;0.006447401282016141
1.37450e-06;0.006444801267172299
1.37475e-06;0.00644220125232846
1.37500e-06;0.0064396012374846184
1.37525e-06;0.006437001222640779
1.37550e-06;0.0064344012077969396
1.37575e-06;0.006431801192953098
1.37600e-06;0.006429201178109259
1.37625e-06;0.006426601163265417
1.37650e-06;0.006424001148421578
1.37675e-06;0.0064214011335777385
1.37700e-06;0.006418801118733897
1.37725e-06;0.006416201103890058
1.37750e-06;0.006413601089046216
1.37775e-06;0.006411001074202377
1.37800e-06;0.006408401059358536
1.37825e-06;0.006405801044514697
1.37850e-06;0.006403201029670857
1.37875e-06;0.006400601014827015
1.37900e-06;0.006399850701256333
1.37925e-06;0.006399436242895255
1.37950e-06;0.006399021784534178
1.37975e-06;0.0063986073261730995
1.38000e-06;0.0063981928678120215
1.38025e-06;0.0063977784094509434
1.38050e-06;0.006397363951089865
1.38075e-06;0.006396949492728787
1.38100e-06;0.00639653503436771
1.38125e-06;0.006396120576006631
1.38150e-06;0.006395706117645554
1.38175e-06;0.006395291659284476
1.38200e-06;0.006394877200923398
1.38225e-06;0.00639446274256232
1.38250e-06;0.006394048284201242
1.38275e-06;0.006393633825840164
1.38300e-06;0.006393219367479086
1.38325e-06;0.006392804909118008
1.38350e-06;0.00639239045075693
1.38375e-06;0.006391975992395852
1.38400e-06;0.006391561534034774
1.38425e-06;0.006391147075673696
1.38450e-06;0.006390732617312618
1.38475e-06;0.006393687158496691
1.38500e-06;0.0064030004247351315
1.38525e-06;0.006412313690973571
1.38550e-06;0.0064216269572120194
1.38575e-06;0.00643094022345046
1.38600e-06;0.006440253489688908
1.38625e-06;0.006449566755927348
1.38650e-06;0.0064588800221657885
1.38675e-06;0.006468193288404237
1.38700e-06;0.006477506554642677
1.38725e-06;0.006486819820881126
1.38750e-06;0.006496133087119565
1.38775e-06;0.006521716157201905
1.38800e-06;0.006550253379102701
1.38825e-06;0.006578790601003497
1.38850e-06;0.006607327822904316
1.38875e-06;0.006635865044805112
1.38900e-06;0.006664402266705932
1.38925e-06;0.006692939488606728
1.38950e-06;0.006721476710507524
1.38975e-06;0.006750013932408344
1.39000e-06;0.00677855115430914
1.39025e-06;0.00680708837620996
1.39050e-06;0.0068382855675784985
1.39075e-06;0.006874503244783005
1.39100e-06;0.006910720921987542
1.39125e-06;0.006946938599192049
1.39150e-06;0.006983156276396586
1.39175e-06;0.007019373953601093
1.39200e-06;0.00705559163080563
1.39225e-06;0.007091809308010137
1.39250e-06;0.007128026985214643
1.39275e-06;0.0071642446624191804
1.39300e-06;0.007200462339623687
1.39325e-06;0.007236680016828224
1.39350e-06;0.007261144995490525
1.39375e-06;0.007283476005230939
1.39400e-06;0.0073058070149713715
1.39425e-06;0.007328138024711786
1.39450e-06;0.007350469034452219
1.39475e-06;0.007372800044192633
1.39500e-06;0.0073951310539330465
1.39525e-06;0.007417462063673479
1.39550e-06;0.007439793073413894
1.39575e-06;0.007462124083154327
1.39600e-06;0.007484455092894741
1.39625e-06;0.007498472852370315
1.39650e-06;0.007496799997457183
1.39675e-06;0.00749512714254405
1.39700e-06;0.007493454287630917
1.39725e-06;0.007491781432717784
1.39750e-06;0.007490108577804649
1.39775e-06;0.007488435722891517
1.39800e-06;0.007486762867978385
1.39825e-06;0.007485090013065251
1.39850e-06;0.007483417158152118
1.39875e-06;0.0074817443032389845
1.39900e-06;0.007480071448325852
1.39925e-06;0.007478398593412719
1.39950e-06;0.007476725738499585
1.39975e-06;0.007470106799920772
1.40000e-06;0.007454152512464144
1.40025e-06;0.007438198225007529
1.40050e-06;0.007422243937550901
1.40075e-06;0.0074062896500942865
1.40100e-06;0.007390335362637672
