Time(s);Current(A)
1.05000e-05;0.0062170212290533645
1.05002e-05;0.006276381527076645
1.05005e-05;0.006323567162714344
1.05008e-05;0.006370752798352044
1.05010e-05;0.006417938433989424
1.05013e-05;0.0064651240696271236
1.05015e-05;0.006512309705264823
1.05017e-05;0.006559495340902203
1.05020e-05;0.006606680976539903
1.05023e-05;0.006653866612177603
1.05025e-05;0.006701052247814983
1.05028e-05;0.006748237883452683
1.05030e-05;0.006766647151109618
1.05033e-05;0.0067808856097685945
1.05035e-05;0.006795124068427475
1.05038e-05;0.006809362527086452
1.05040e-05;0.006823600985745429
1.05043e-05;0.006837839444404309
1.05045e-05;0.006852077903063286
1.05048e-05;0.006866316361722263
1.05050e-05;0.006880554820381144
1.05053e-05;0.006894793279040121
1.05055e-05;0.006899856939680866
1.05058e-05;0.006889525040538013
1.05060e-05;0.00687919314139509
1.05063e-05;0.006868861242252166
1.05065e-05;0.006858529343109312
1.05068e-05;0.006848197443966389
1.05070e-05;0.006837865544823465
1.05073e-05;0.0068275336456806125
1.05075e-05;0.006817201746537689
1.05078e-05;0.006806869847394766
1.05080e-05;0.006796537948251912
1.05083e-05;0.006785577995134524
1.05085e-05;0.0067675407195129595
1.05087e-05;0.006749503443891517
1.05090e-05;0.006731466168269952
1.05093e-05;0.006713428892648387
1.05095e-05;0.0066953916170269445
1.05098e-05;0.00667735434140538
1.05100e-05;0.006659317065783815
1.05102e-05;0.006641279790162372
1.05105e-05;0.006623242514540807
1.05108e-05;0.006605205238919243
1.05110e-05;0.006587167963297801
1.05113e-05;0.006577232750563965
1.05115e-05;0.006569456344013774
1.05118e-05;0.006561679937463582
1.05120e-05;0.006553903530913444
1.05123e-05;0.006546127124363254
1.05125e-05;0.0065383507178130625
1.05128e-05;0.006530574311262924
1.05130e-05;0.006524387184309621
1.05133e-05;0.006542200359988735
1.05135e-05;0.006560013535667729
1.05138e-05;0.006577826711346843
1.05140e-05;0.006595639887025957
1.05143e-05;0.006613453062704951
1.05145e-05;0.006631266238384065
1.05148e-05;0.006649079414063179
1.05150e-05;0.0066769255070555965
1.05153e-05;0.006724723030494527
1.05155e-05;0.006772520553933458
1.05158e-05;0.006820318077372064
1.05160e-05;0.006868115600810995
1.05163e-05;0.0069159131242499255
1.05165e-05;0.006963710647688532
1.05168e-05;0.0070115081711274625
1.05170e-05;0.007059305694566393
1.05172e-05;0.0071071032180049995
1.05175e-05;0.007159906706389099
1.05178e-05;0.007222665042232781
1.05180e-05;0.007285423378076038
1.05183e-05;0.007348181713919721
1.05185e-05;0.007410940049763403
1.05187e-05;0.00747369838560666
1.05190e-05;0.007536456721450343
1.05193e-05;0.007599215057294025
1.05195e-05;0.007661973393137281
1.05198e-05;0.007724731728980964
1.05200e-05;0.007782592448545883
1.05203e-05;0.007830713782496015
1.05205e-05;0.00787883511644582
1.05208e-05;0.007926956450395952
1.05210e-05;0.007975077784346085
1.05213e-05;0.00802319911829589
1.05215e-05;0.008071320452246022
1.05218e-05;0.008119441786196155
1.05220e-05;0.00816756312014596
1.05223e-05;0.008204316985166929
1.05225e-05;0.008218465534240212
1.05228e-05;0.008232614083313399
1.05230e-05;0.008246762632386682
1.05233e-05;0.008260911181459964
1.05235e-05;0.008275059730533153
1.05238e-05;0.008289208279606435
1.05240e-05;0.008303356828679718
1.05243e-05;0.008317505377752905
1.05245e-05;0.008319718265985173
1.05248e-05;0.008298195933470124
1.05250e-05;0.008276673600955221
1.05253e-05;0.008255151268440172
1.05255e-05;0.008233628935925122
1.05257e-05;0.00821210660341022
1.05260e-05;0.00819058427089517
1.05263e-05;0.00816906193838012
1.05265e-05;0.008147539605865218
1.05268e-05;0.008126017273350168
1.05270e-05;0.008104494940835118
1.05272e-05;0.008065683088883063
1.05275e-05;0.008023444949202582
1.05278e-05;0.007981206809522102
1.05280e-05;0.007938968669841905
1.05283e-05;0.007896730530161425
1.05285e-05;0.007854492390480944
1.05288e-05;0.007812254250800463
1.05290e-05;0.007770016111120269
1.05293e-05;0.007727777971439787
1.05295e-05;0.007685539831759306
1.05298e-05;0.007643929062676524
1.05300e-05;0.007603565880955444
1.05303e-05;0.007563202699234363
1.05305e-05;0.007522839517513556
1.05308e-05;0.0074824763357924755
1.05310e-05;0.007442113154071396
1.05313e-05;0.0074084482044769456
1.05315e-05;0.00737611065270977
1.05318e-05;0.007343773100942594
1.05320e-05;0.007311435549175637
1.05323e-05;0.007279097997408461
1.05325e-05;0.007243410972797942
1.05328e-05;0.0072010631961437095
1.05330e-05;0.0071587154194891894
1.05333e-05;0.00711636764283467
1.05335e-05;0.007074019866180437
1.05338e-05;0.007031672089525918
1.05340e-05;0.006989324312871399
1.05342e-05;0.006946976536217166
1.05345e-05;0.006904628759562647
1.05348e-05;0.0068622809829081265
1.05350e-05;0.006803602291615199
1.05353e-05;0.006741687280617075
1.05355e-05;0.006679772269618952
1.05357e-05;0.006617857258621248
1.05360e-05;0.006555942247623124
1.05363e-05;0.006494027236625
1.05365e-05;0.006432112225627297
1.05368e-05;0.006370197214629173
1.05370e-05;0.00630828220363105
1.05373e-05;0.006243042379940206
1.05375e-05;0.006171190843309108
1.05378e-05;0.006099339306677524
1.05380e-05;0.00602748777004594
1.05383e-05;0.005955636233414843
1.05385e-05;0.005883784696783259
1.05388e-05;0.005811933160151675
1.05390e-05;0.005740081623520577
1.05393e-05;0.005668230086888993
1.05395e-05;0.005604638500843007
1.05398e-05;0.005542683800510197
1.05400e-05;0.005480729100176966
1.05403e-05;0.005418774399843735
1.05405e-05;0.0053568196995109245
1.05408e-05;0.0052948649991776935
1.05410e-05;0.005232910298844463
1.05413e-05;0.005170955598511652
1.05415e-05;0.005119512676015134
1.05418e-05;0.0050889734446402405
1.05420e-05;0.0050584342132655525
1.05423e-05;0.005027894981890659
1.05425e-05;0.004997355750515764
1.05427e-05;0.004966816519141077
1.05430e-05;0.004936277287766183
1.05433e-05;0.004905738056391288
1.05435e-05;0.004875198825016601
1.05438e-05;0.004844659593641706
1.05440e-05;0.004814120362266812
1.05442e-05;0.004783581130892125
1.05445e-05;0.0047627981096528445
1.05448e-05;0.004761416259782758
1.05450e-05;0.00476003440991268
1.05453e-05;0.0047586525600425925
1.05455e-05;0.004757270710172505
1.05458e-05;0.004755888860302418
1.05460e-05;0.00475450701043234
1.05463e-05;0.004753125160562252
1.05465e-05;0.004751743310692166
1.05468e-05;0.004750361460822088
1.05470e-05;0.004748979610952
1.05473e-05;0.004747597761081913
1.05475e-05;0.004750750387023954
1.05478e-05;0.004762920258503228
1.05480e-05;0.0047750901299825005
1.05483e-05;0.004787260001461691
1.05485e-05;0.0047994298729409635
1.05488e-05;0.004811599744420236
1.05490e-05;0.004823769615899426
1.05493e-05;0.0048359394873787
1.05495e-05;0.004848109358857973
1.05498e-05;0.004860279230337163
1.05500e-05;0.0048720706640111985
1.05503e-05;0.004883109537355858
1.05505e-05;0.0048941484107004425
1.05508e-05;0.004905187284045103
1.05510e-05;0.004916226157389763
1.05512e-05;0.0049272650307343475
1.05515e-05;0.004938303904079008
1.05518e-05;0.004949342777423667
1.05520e-05;0.0049603816507682525
1.05523e-05;0.004971420524112912
1.05525e-05;0.004982959757258108
1.05527e-05;0.004995494004461329
1.05530e-05;0.0050080282516646365
1.05533e-05;0.005020562498867943
1.05535e-05;0.005033096746071165
1.05538e-05;0.005045630993274472
1.05540e-05;0.005058165240477778
1.05543e-05;0.005070699487681085
1.05545e-05;0.0050832337348843066
1.05548e-05;0.005095767982087614
1.05550e-05;0.00510830222929092
1.05553e-05;0.005120836476494142
1.05555e-05;0.005133370723697448
1.05558e-05;0.005145904970900755
1.05560e-05;0.0051584392181039775
1.05563e-05;0.005170973465307284
1.05565e-05;0.005183507712510591
1.05568e-05;0.005198891280478935
1.05570e-05;0.005214839502243717
1.05573e-05;0.005230787724008498
1.05575e-05;0.0052467359457731705
1.05578e-05;0.005262684167537952
1.05580e-05;0.005278632389302733
1.05583e-05;0.005294580611067407
1.05585e-05;0.005310528832832188
1.05588e-05;0.005326477054596969
1.05590e-05;0.005342425276361642
1.05593e-05;0.005358373498126423
1.05595e-05;0.005374321719891204
1.05597e-05;0.005390269941655878
1.05600e-05;0.005406218163420659
1.05603e-05;0.005422166385185441
1.05605e-05;0.005438114606950113
1.05608e-05;0.00545072044870495
1.05610e-05;0.005456679643197167
1.05612e-05;0.005462638837689344
1.05615e-05;0.005468598032181561
1.05618e-05;0.005474557226673778
1.05620e-05;0.005480516421165956
1.05623e-05;0.005486475615658173
1.05625e-05;0.00549243481015039
1.05628e-05;0.005498394004642608
1.05630e-05;0.005504353199134785
1.05633e-05;0.005510312393627002
1.05635e-05;0.005509033579814009
1.05638e-05;0.005493361283528467
1.05640e-05;0.005477688987242818
1.05643e-05;0.00546201669095717
1.05645e-05;0.0054463443946716275
1.05648e-05;0.005430672098385979
1.05650e-05;0.00541499980210033
1.05653e-05;0.005399327505814787
1.05655e-05;0.005383655209529139
1.05658e-05;0.005367982913243491
1.05660e-05;0.005352310616957948
1.05663e-05;0.005331157282911255
1.05665e-05;0.005299104372955873
1.05668e-05;0.005267051463000707
1.05670e-05;0.005234998553045325
1.05673e-05;0.005202945643089943
1.05675e-05;0.0051708927331347776
1.05678e-05;0.005138839823179395
1.05680e-05;0.005106786913224013
1.05682e-05;0.005074734003268848
1.05685e-05;0.005042681093313466
1.05688e-05;0.005010426639673598
1.05690e-05;0.0049777713968433045
1.05693e-05;0.00494511615401279
1.05695e-05;0.004912460911182275
1.05697e-05;0.0048798056683519815
1.05700e-05;0.004847150425521466
1.05703e-05;0.004814495182690951
1.05705e-05;0.004781839939860658
1.05708e-05;0.004749184697030143
1.05710e-05;0.004716529454199628
1.05713e-05;0.004690349469254512
1.05715e-05;0.00467704616349691
1.05718e-05;0.0046637428577392176
1.05720e-05;0.004650439551981526
1.05723e-05;0.004637136246223923
1.05725e-05;0.004623832940466231
1.05728e-05;0.0046105296347085396
1.05730e-05;0.004597226328950937
1.05733e-05;0.004583923023193245
1.05735e-05;0.004570619717435553
1.05738e-05;0.004583837472090997
1.05740e-05;0.004602310941596207
1.05743e-05;0.004620784411101419
1.05745e-05;0.004639257880606504
1.05748e-05;0.004657731350111716
1.05750e-05;0.004676204819616926
1.05753e-05;0.004694678289122012
1.05755e-05;0.004713151758627223
1.05758e-05;0.004731625228132434
1.05760e-05;0.00475837805881791
1.05763e-05;0.0048015952033105104
1.05765e-05;0.00484481234780311
1.05767e-05;0.004888029492295417
1.05770e-05;0.004931246636788017
1.05773e-05;0.004974463781280617
1.05775e-05;0.005017680925772923
1.05778e-05;0.005060898070265523
1.05780e-05;0.005104115214758123
1.05782e-05;0.005149441681882889
1.05785e-05;0.005198962741922488
1.05788e-05;0.005248483801962089
1.05790e-05;0.0052980048620013525
1.05793e-05;0.005347525922040953
1.05795e-05;0.005397046982080552
1.05798e-05;0.005446568042120152
1.05800e-05;0.005496089102159416
1.05803e-05;0.005545610162199016
1.05805e-05;0.005589429136511321
1.05808e-05;0.005621908959560722
1.05810e-05;0.005654388782610343
1.05813e-05;0.0056868686056599635
1.05815e-05;0.005719348428709364
1.05818e-05;0.005751828251758985
1.05820e-05;0.005784308074808606
1.05823e-05;0.005816787897858006
1.05825e-05;0.005849267720907627
1.05828e-05;0.00587027578443051
1.05830e-05;0.00586847113998163
1.05833e-05;0.005866666495532738
1.05835e-05;0.005864861851083845
1.05838e-05;0.005863057206634965
1.05840e-05;0.005861252562186073
1.05843e-05;0.00585944791773718
1.05845e-05;0.0058576432732883
1.05848e-05;0.005855838628839408
1.05850e-05;0.005843043270503818
1.05853e-05;0.0058083918101710505
1.05855e-05;0.005773740349838048
1.05858e-05;0.005739088889505044
1.05860e-05;0.005704437429172276
1.05863e-05;0.005669785968839274
1.05865e-05;0.00563513450850627
1.05867e-05;0.005600483048173502
1.05870e-05;0.0055658315878405
1.05873e-05;0.005525347782391375
1.05875e-05;0.005473265792232507
1.05878e-05;0.005421183802073287
1.05880e-05;0.005369101811914067
1.05883e-05;0.0053170198217548465
1.05885e-05;0.0052649378315959795
1.05888e-05;0.005212855841436759
1.05890e-05;0.005160773851277539
1.05893e-05;0.0051086918611186714
1.05895e-05;0.005057440231285442
1.05898e-05;0.00500783985360652
1.05900e-05;0.004958239475927933
1.05903e-05;0.00490863909824901
1.05905e-05;0.0048590387205700875
1.05908e-05;0.0048094383428915
1.05910e-05;0.004759837965212578
1.05913e-05;0.00472697191077436
1.05915e-05;0.004697422120084982
1.05918e-05;0.004667872329395403
1.05920e-05;0.004638322538705825
1.05923e-05;0.004608772748016447
1.05925e-05;0.004579222957326868
1.05928e-05;0.004558393953650929
1.05930e-05;0.004554907081931584
1.05933e-05;0.004551420210212216
1.05935e-05;0.00455384912994757
1.05938e-05;0.0045680421755438195
1.05940e-05;0.004582235221140166
1.05943e-05;0.004602770050022113
1.05945e-05;0.004635916130893311
1.05948e-05;0.004669062211764735
1.05950e-05;0.004711945759797108
1.05952e-05;0.004774193207000531
1.05955e-05;0.004836440654204376
1.05958e-05;0.00489868810140822
1.05960e-05;0.004960935548611644
1.05963e-05;0.005023182995815488
1.05965e-05;0.005085430443019333
1.05968e-05;0.005147677890223178
1.05970e-05;0.0052188305182433664
1.05973e-05;0.005307691963208371
1.05975e-05;0.005396553408173376
1.05978e-05;0.005485414853137779
1.05980e-05;0.005574276298102784
1.05983e-05;0.005663137743067789
1.05985e-05;0.005751999188032192
1.05988e-05;0.005840860632997197
1.05990e-05;0.005929799498879167
1.05993e-05;0.006018892323773211
1.05995e-05;0.006107985148667859
1.05998e-05;0.006197077973562507
1.06000e-05;0.006286170798456552
1.06003e-05;0.0063752636233512005
1.06005e-05;0.0064643564482458485
1.06008e-05;0.0065342680516186705
1.06010e-05;0.006600378486059137
1.06013e-05;0.006666488920499603
1.06015e-05;0.006732599354939621
1.06018e-05;0.006798709789380087
1.06020e-05;0.006864820223820553
1.06023e-05;0.006919258875226454
1.06025e-05;0.006950487052475919
1.06028e-05;0.006981715229725385
1.06030e-05;0.007012943406974639
1.06033e-05;0.007044171584224104
1.06035e-05;0.0070753997614735695
1.06037e-05;0.007106627938722823
1.06040e-05;0.007137856115972289
1.06043e-05;0.007169084293221754
1.06045e-05;0.007200312470471008
1.06048e-05;0.0072315406477204735
1.06050e-05;0.007262768824969939
1.06053e-05;0.007293997002219404
1.06055e-05;0.007299818944443041
1.06058e-05;0.007300606098283107
1.06060e-05;0.007301393252123173
1.06063e-05;0.007302180405963233
1.06065e-05;0.007302967559803299
1.06068e-05;0.007303754713643365
1.06070e-05;0.007304541867483426
1.06073e-05;0.007305329021323491
1.06075e-05;0.007306116175163557
1.06078e-05;0.007306903329003618
1.06080e-05;0.007307690482843684
1.06083e-05;0.007308477636683749
1.06085e-05;0.007305839085902039
1.06088e-05;0.007296388188765884
1.06090e-05;0.0072869372916297285
1.06093e-05;0.007277486394493637
1.06095e-05;0.0072680354973574815
1.06098e-05;0.007258584600221327
1.06100e-05;0.0072491337030852355
1.06103e-05;0.00723968280594908
1.06105e-05;0.007230231908812924
1.06108e-05;0.007220730122264553
1.06110e-05;0.007211218250891601
1.06113e-05;0.00720170637951865
1.06115e-05;0.007192194508145761
1.06118e-05;0.007182682636772809
1.06120e-05;0.007173170765399857
1.06122e-05;0.0071636588940269695
1.06125e-05;0.007154147022654017
1.06128e-05;0.007141150816256773
1.06130e-05;0.007121225671254396
1.06133e-05;0.007101300526251885
1.06135e-05;0.007081375381249372
1.06138e-05;0.007061450236246861
1.06140e-05;0.007041525091244484
1.06143e-05;0.007021599946241972
1.06145e-05;0.0070016748012394605
1.06148e-05;0.0069817496562370835
1.06150e-05;0.006961824511234571
1.06153e-05;0.00694189936623206
1.06155e-05;0.006921974221229683
1.06158e-05;0.006902049076227171
1.06160e-05;0.006877870964560724
1.06163e-05;0.0068452354156208735
1.06165e-05;0.006812599866680802
1.06168e-05;0.00677996431774073
1.06170e-05;0.006747328768800879
1.06173e-05;0.006714693219860808
1.06175e-05;0.006682057670920736
1.06178e-05;0.006649422121980886
1.06180e-05;0.006616786573040814
1.06183e-05;0.006584151024100742
1.06185e-05;0.0065515154751608915
1.06188e-05;0.0065188799262208205
1.06190e-05;0.006486244377280749
1.06193e-05;0.00645484521269468
1.06195e-05;0.006425904718478056
1.06198e-05;0.006396964224261432
1.06200e-05;0.006368023730045005
1.06203e-05;0.006339083235828381
1.06205e-05;0.006310142741611758
1.06207e-05;0.0062812022473953295
1.06210e-05;0.0062522617531787054
1.06213e-05;0.006223321258962082
1.06215e-05;0.006194380764745654
1.06218e-05;0.006165440270529031
1.06220e-05;0.006146079796896923
1.06222e-05;0.00612861780906386
1.06225e-05;0.006111155821230677
1.06228e-05;0.006093693833397495
1.06230e-05;0.0060762318455643135
1.06233e-05;0.006058769857731249
1.06235e-05;0.006041307869898068
1.06238e-05;0.0060238458820648854
1.06240e-05;0.006006383894231822
1.06243e-05;0.00598892190639864
1.06245e-05;0.0059737278683833816
1.06248e-05;0.005963043868853543
1.06250e-05;0.005952359869323633
1.06253e-05;0.005941675869793722
1.06255e-05;0.005930991870263884
1.06258e-05;0.005920307870733972
1.06260e-05;0.005909623871204062
1.06263e-05;0.005898939871674223
1.06265e-05;0.005888255872144313
1.06268e-05;0.005877571872614402
1.06270e-05;0.005866887873084563
1.06273e-05;0.005856203873554652
1.06275e-05;0.005845519874024742
1.06278e-05;0.005834835874494904
1.06280e-05;0.0058241518749649925
1.06283e-05;0.005813467875435081
1.06285e-05;0.005802783875905243
1.06288e-05;0.005792099876375333
1.06290e-05;0.005786170294812882
1.06292e-05;0.0057811829027705494
1.06295e-05;0.005776195510728182
1.06298e-05;0.005771208118685816
1.06300e-05;0.005766220726643484
1.06303e-05;0.005761233334601118
1.06305e-05;0.005756245942558752
1.06307e-05;0.0057512585505164185
1.06310e-05;0.005746271158474052
1.06313e-05;0.005741283766431686
1.06315e-05;0.00573629637438932
1.06318e-05;0.005731308982346987
1.06320e-05;0.005726321590304621
1.06323e-05;0.0057213341982622545
1.06325e-05;0.005716346806219922
1.06328e-05;0.005711359414177556
1.06330e-05;0.005706372022135189
1.06333e-05;0.005705510218587352
1.06335e-05;0.005712852548457023
1.06338e-05;0.005720194878326694
1.06340e-05;0.005727537208196316
1.06343e-05;0.005734879538065987
1.06345e-05;0.005742221867935657
1.06348e-05;0.005749564197805279
1.06350e-05;0.00575690652767495
1.06353e-05;0.005764248857544621
1.06355e-05;0.005771591187414242
1.06358e-05;0.005778933517283913
1.06360e-05;0.005786275847153584
1.06363e-05;0.0057936181770232055
1.06365e-05;0.005800960506892876
1.06368e-05;0.005808302836762547
1.06370e-05;0.005818018349356588
1.06373e-05;0.005832453166293247
1.06375e-05;0.005846887983229905
1.06377e-05;0.005861322800166466
1.06380e-05;0.005875757617103124
1.06383e-05;0.005890192434039782
1.06385e-05;0.005904627250976343
1.06388e-05;0.005919062067913002
1.06390e-05;0.00593349688484966
1.06392e-05;0.00594793170178622
1.06395e-05;0.005962366518722879
1.06398e-05;0.005976801335659537
1.06400e-05;0.005991236152596196
1.06403e-05;0.0060056709695327564
1.06405e-05;0.006020105786469414
1.06408e-05;0.006033672996025395
1.06410e-05;0.0060455148840384085
1.06413e-05;0.006057356772051502
1.06415e-05;0.006069198660064595
1.06418e-05;0.006081040548077608
1.06420e-05;0.006092882436090702
1.06423e-05;0.006104724324103795
1.06425e-05;0.006116566212116808
1.06428e-05;0.006128408100129901
1.06430e-05;0.006140249988142995
1.06433e-05;0.006152091876156008
1.06435e-05;0.006163933764169101
1.06438e-05;0.0061832205372273534
1.06440e-05;0.006203982673352259
1.06443e-05;0.0062247448094773054
1.06445e-05;0.006245506945602352
1.06448e-05;0.006266269081727257
1.06450e-05;0.006287031217852303
1.06453e-05;0.00630779335397735
1.06455e-05;0.006328555490102255
1.06458e-05;0.006349317626227302
1.06460e-05;0.006370079762352348
1.06462e-05;0.006390841898477254
1.06465e-05;0.0064143702909531435
1.06468e-05;0.006443399652856811
1.06470e-05;0.006472429014760282
1.06473e-05;0.006501458376663949
1.06475e-05;0.0065304877385676165
1.06477e-05;0.006559517100471088
1.06480e-05;0.0065885464623747555
1.06483e-05;0.006617575824278422
1.06485e-05;0.00664660518618209
1.06488e-05;0.006675634548085561
1.06490e-05;0.0067046639099892285
1.06493e-05;0.006733693271892896
1.06495e-05;0.006762722633796367
1.06498e-05;0.00678512404159694
1.06500e-05;0.006806211978653959
1.06503e-05;0.006827299915710834
1.06505e-05;0.006848387852767852
1.06508e-05;0.00686947578982487
