Time(s);Current(A)
1.02500e-05;-0.008694704037731345
1.02503e-05;-0.008713183044678425
1.02505e-05;-0.008731662051625505
1.02508e-05;-0.00875014105857246
1.02510e-05;-0.008768845512017148
1.02513e-05;-0.008787903646118344
1.02515e-05;-0.008806961780219412
1.02518e-05;-0.008826019914320608
1.02520e-05;-0.008845078048421802
1.02522e-05;-0.00886413618252287
1.02525e-05;-0.008883194316624066
1.02528e-05;-0.008902252450725262
1.02530e-05;-0.008920759818857572
1.02533e-05;-0.00893719828243378
1.02535e-05;-0.008953636746009987
1.02537e-05;-0.008970075209586082
1.02540e-05;-0.00898651367316229
1.02543e-05;-0.009002952136738497
1.02545e-05;-0.009019390600314594
1.02548e-05;-0.009034187651544439
1.02550e-05;-0.009042450197691563
1.02553e-05;-0.009050712743838688
1.02555e-05;-0.009058975289985758
1.02558e-05;-0.009067237836132882
1.02560e-05;-0.009075500382280006
1.02563e-05;-0.009083762928427075
1.02565e-05;-0.009089459234695728
1.02568e-05;-0.009084305725408984
1.02570e-05;-0.009079152216122273
1.02573e-05;-0.009073998706835529
1.02575e-05;-0.009068845197548784
1.02578e-05;-0.009063691688262075
1.02580e-05;-0.00905853817897533
1.02583e-05;-0.009044135160776784
1.02585e-05;-0.009025601411700855
1.02588e-05;-0.0090070676626248
1.02590e-05;-0.008988533913548744
1.02593e-05;-0.008970000164472813
1.02595e-05;-0.008951466415396757
1.02598e-05;-0.008930997950296676
1.02600e-05;-0.008902349691799554
1.02603e-05;-0.008873701433302236
1.02605e-05;-0.008845053174804917
1.02607e-05;-0.008816404916307793
1.02610e-05;-0.008787756657810477
1.02613e-05;-0.008758160670318102
1.02615e-05;-0.008724557775724057
1.02618e-05;-0.008690954881129784
1.02620e-05;-0.008657351986535514
1.02622e-05;-0.008623749091941468
1.02625e-05;-0.008590146197347198
1.02628e-05;-0.008556469610291597
1.02630e-05;-0.008522481458592523
1.02633e-05;-0.00848869790590651
1.02635e-05;-0.00845577937818415
1.02638e-05;-0.008423200839331506
1.02640e-05;-0.008392059740743012
1.02643e-05;-0.00836156337696398
1.02645e-05;-0.008333792889993237
1.02648e-05;-0.008306022403022683
1.02650e-05;-0.008279073667160698
1.02653e-05;-0.008255599216006227
1.02655e-05;-0.008232251603770025
1.02658e-05;-0.00820944025428868
1.02660e-05;-0.008186267122921299
1.02663e-05;-0.008161564412511507
1.02665e-05;-0.008136861702101547
1.02668e-05;-0.008111986963439835
1.02670e-05;-0.008086384905863829
1.02673e-05;-0.00806078284828765
1.02675e-05;-0.00803471553653389
1.02678e-05;-0.008006681174833863
1.02680e-05;-0.007978646813133646
1.02683e-05;-0.007949838947806506
1.02685e-05;-0.007917760783487526
1.02688e-05;-0.00788568261916833
1.02690e-05;-0.007853604454849132
1.02692e-05;-0.007821526290530153
1.02695e-05;-0.007786885349783042
1.02698e-05;-0.007751099900735159
1.02700e-05;-0.007715314451687518
1.02703e-05;-0.007679529002639634
1.02705e-05;-0.007643268189711146
1.02707e-05;-0.007604997583983375
1.02710e-05;-0.007566658659821241
1.02713e-05;-0.007528030891885845
1.02715e-05;-0.007489361393590376
1.02718e-05;-0.0074504641577120955
1.02720e-05;-0.007411327293132256
1.02723e-05;-0.007372116666422486
1.02725e-05;-0.007333063250136265
1.02728e-05;-0.007294385572406811
1.02730e-05;-0.007256324736409024
1.02733e-05;-0.007219103221339931
1.02735e-05;-0.007182833457042088
1.02738e-05;-0.00714752857442196
1.02740e-05;-0.00711325485607145
1.02743e-05;-0.007080204043831459
1.02745e-05;-0.007048609843323407
1.02748e-05;-0.007018697294066652
1.02750e-05;-0.00699070681482976
1.02753e-05;-0.006964941329500378
1.02755e-05;-0.0069420353215194994
1.02758e-05;-0.00692294046664276
1.02760e-05;-0.0069082904465424845
1.02763e-05;-0.006898193032367833
1.02765e-05;-0.006892580031253745
1.02768e-05;-0.006891378431323028
1.02770e-05;-0.006894524307307165
1.02773e-05;-0.006901993464726659
1.02775e-05;-0.006914456382411047
1.02777e-05;-0.006932892378436785
1.02780e-05;-0.006953652270089072
1.02783e-05;-0.006984237369100732
1.02785e-05;-0.007014822468112184
1.02788e-05;-0.007048390409535677
1.02790e-05;-0.007094569521996555
1.02792e-05;-0.00714074863445712
1.02795e-05;-0.007186927746917998
1.02798e-05;-0.007233106859378877
1.02800e-05;-0.0072900657136747
1.02803e-05;-0.0073518386843643676
1.02805e-05;-0.007413611655054035
1.02808e-05;-0.007475384625743703
1.02810e-05;-0.007538773387275375
1.02813e-05;-0.007608993557197091
1.02815e-05;-0.007679213727118808
1.02818e-05;-0.0077501240883997334
1.02820e-05;-0.007823952512416368
1.02823e-05;-0.007897780936433002
1.02825e-05;-0.007971674353518322
1.02828e-05;-0.008045842555054262
1.02830e-05;-0.00811966702668524
1.02833e-05;-0.008192038241312968
1.02835e-05;-0.008263777577230192
1.02838e-05;-0.008332845390686251
1.02840e-05;-0.008400963871846728
1.02843e-05;-0.00846506866730266
1.02845e-05;-0.008527848067323117
1.02848e-05;-0.008585023822823522
1.02850e-05;-0.008640501237278124
1.02853e-05;-0.008688798229013821
1.02855e-05;-0.008735135274434664
1.02858e-05;-0.008773185855204441
1.02860e-05;-0.008808654082300554
1.02862e-05;-0.00883320436624897
1.02865e-05;-0.00885775465019755
1.02868e-05;-0.008879061753272648
1.02870e-05;-0.008886656999309479
1.02873e-05;-0.00889425224534636
1.02875e-05;-0.008898570106756456
1.02877e-05;-0.008889031500947287
1.02880e-05;-0.008879492895138053
1.02883e-05;-0.008866192074418383
1.02885e-05;-0.008836984970636352
1.02888e-05;-0.008807777866854122
1.02890e-05;-0.008778570763071892
1.02893e-05;-0.008749363659289662
1.02895e-05;-0.008706220591333873
1.02898e-05;-0.008656853872140869
1.02900e-05;-0.008607487152947867
1.02903e-05;-0.008558120433755197
1.02905e-05;-0.008506596938316393
1.02908e-05;-0.008445954800192881
1.02910e-05;-0.008384325384986163
1.02913e-05;-0.008318521857154131
1.02915e-05;-0.008252139359541921
1.02918e-05;-0.008183023467632826
1.02920e-05;-0.008112492871092615
1.02923e-05;-0.00804095642053201
1.02925e-05;-0.007968822253983567
1.02928e-05;-0.007896496209344453
1.02930e-05;-0.007824386602791767
1.02933e-05;-0.007752901806847645
1.02935e-05;-0.007682464260816264
1.02938e-05;-0.007613519201106421
1.02940e-05;-0.007546532803139586
1.02943e-05;-0.0074819750285259464
1.02945e-05;-0.007420314332520989
1.02947e-05;-0.007362019081307846
1.02950e-05;-0.0073075571754072114
1.02953e-05;-0.007257378858730812
1.02955e-05;-0.007211820699964773
1.02958e-05;-0.007171023493690259
1.02960e-05;-0.007135032501442617
1.02962e-05;-0.007103925026313609
1.02965e-05;-0.007077804157591877
1.02968e-05;-0.007056773381455613
1.02970e-05;-0.007040934944943622
1.02973e-05;-0.0070303811798995385
1.02975e-05;-0.0070256171113820985
1.02978e-05;-0.007027135865670658
1.02980e-05;-0.007030990763021662
1.02983e-05;-0.007044722648723143
1.02985e-05;-0.007058454534424622
1.02988e-05;-0.007075384144448143
1.02990e-05;-0.007105833425584338
1.02993e-05;-0.0071362827067205335
1.02995e-05;-0.007166731987856521
1.02998e-05;-0.0071971812689927165
1.03000e-05;-0.007238755658025866
1.03003e-05;-0.007285298400211673
1.03005e-05;-0.007331841142397795
1.03008e-05;-0.007378383884583918
1.03010e-05;-0.007426708923381693
1.03013e-05;-0.007482569340966271
1.03015e-05;-0.00753842975855085
1.03018e-05;-0.007595067212961291
1.03020e-05;-0.007654989904395912
1.03023e-05;-0.007714912595830534
1.03025e-05;-0.007775021403780937
1.03028e-05;-0.007835917094475389
1.03030e-05;-0.007896640207639275
1.03032e-05;-0.007956633679589162
1.03035e-05;-0.008016156849933601
1.03038e-05;-0.008073691630286909
1.03040e-05;-0.008130435448848193
1.03043e-05;-0.008183835156970208
1.03045e-05;-0.008234037912730576
1.03047e-05;-0.008270724261148723
1.03050e-05;-0.008307410609567117
1.03053e-05;-0.00834409695798551
1.03055e-05;-0.008380783306403657
1.03058e-05;-0.008417469654822053
1.03060e-05;-0.008454156003240447
1.03063e-05;-0.008490842351658841
1.03065e-05;-0.008527528700076987
1.03068e-05;-0.008559749677264077
1.03070e-05;-0.00857309149402717
1.03073e-05;-0.008586433310790172
1.03075e-05;-0.008599775127553265
1.03078e-05;-0.008613116944316358
1.03080e-05;-0.008626458761079363
1.03083e-05;-0.008639800577842456
1.03085e-05;-0.008653142394605549
1.03088e-05;-0.008666484211368551
1.03090e-05;-0.00867660596762831
1.03093e-05;-0.00867311361754086
1.03095e-05;-0.008669621267453435
1.03098e-05;-0.008666128917365986
1.03100e-05;-0.008662636567278536
1.03103e-05;-0.008659144217191111
1.03105e-05;-0.008655651867103662
1.03108e-05;-0.008652159517016212
1.03110e-05;-0.008648667166928787
1.03113e-05;-0.0086392562719299
1.03115e-05;-0.008627202218630323
1.03117e-05;-0.008615148165330827
1.03120e-05;-0.008603094112031251
1.03123e-05;-0.008591040058731673
1.03125e-05;-0.00857898600543218
1.03128e-05;-0.008566931952132602
1.03130e-05;-0.008554877898833024
1.03132e-05;-0.008542734940925183
1.03135e-05;-0.008530216102877202
1.03138e-05;-0.00851769726482922
1.03140e-05;-0.008505178426781324
1.03143e-05;-0.008492659588733343
1.03145e-05;-0.008480140750685362
1.03148e-05;-0.00846762191263738
1.03150e-05;-0.008455103074589484
1.03153e-05;-0.0084436820968522
1.03155e-05;-0.008436902767000931
1.03158e-05;-0.008430123437149706
1.03160e-05;-0.008423344107298437
1.03163e-05;-0.008416564777447167
1.03165e-05;-0.008409785447595944
1.03168e-05;-0.008403006117744674
1.03170e-05;-0.008396226787893405
1.03173e-05;-0.008390951790766968
1.03175e-05;-0.008392036967830911
1.03178e-05;-0.008393122144894856
1.03180e-05;-0.008394207321958792
1.03183e-05;-0.008395292499022735
1.03185e-05;-0.008396377676086678
1.03188e-05;-0.008397462853150614
1.03190e-05;-0.008398548030214557
1.03193e-05;-0.008399633207278502
1.03195e-05;-0.008400718384342438
1.03198e-05;-0.008402989932835385
1.03200e-05;-0.008410277345717245
1.03202e-05;-0.008417564758599057
1.03205e-05;-0.008424852171480918
1.03208e-05;-0.00843213958436278
1.03210e-05;-0.00843942699724459
1.03213e-05;-0.008446714410126453
1.03215e-05;-0.008454001823008313
1.03217e-05;-0.008461289235890125
1.03220e-05;-0.008468576648771986
1.03223e-05;-0.00847616242462009
1.03225e-05;-0.008485009650416122
1.03228e-05;-0.008493856876212215
1.03230e-05;-0.008502704102008308
1.03232e-05;-0.00851155132780434
1.03235e-05;-0.008520398553600433
1.03238e-05;-0.008528307578711727
1.03240e-05;-0.008535797613519538
1.03243e-05;-0.0085432876483273
1.03245e-05;-0.008550777683135112
1.03248e-05;-0.008558267717942923
1.03250e-05;-0.008565196710790651
1.03253e-05;-0.008569753672148255
1.03255e-05;-0.008574310633505859
1.03258e-05;-0.008577713040050826
1.03260e-05;-0.00857623409980233
1.03263e-05;-0.008574755159553834
1.03265e-05;-0.008572012758792637
1.03268e-05;-0.008563928568404098
1.03270e-05;-0.00855584437801556
1.03273e-05;-0.008545847395636885
1.03275e-05;-0.008527763312545757
1.03278e-05;-0.008509679229454628
1.03280e-05;-0.008491595146363622
1.03283e-05;-0.008473511063272493
1.03285e-05;-0.008455426980181363
1.03287e-05;-0.00842872456101836
1.03290e-05;-0.008398173285949297
1.03293e-05;-0.008367622010880234
1.03295e-05;-0.008337070735811377
1.03298e-05;-0.008306519460742314
1.03300e-05;-0.008274202698710452
1.03302e-05;-0.00823442162746505
1.03305e-05;-0.008194640556219381
1.03308e-05;-0.008154859484973711
1.03310e-05;-0.00811507841372831
1.03313e-05;-0.00807443590670868
1.03315e-05;-0.0080301513320212
1.03317e-05;-0.007985866757334018
1.03320e-05;-0.007941582182646538
1.03323e-05;-0.007897297607959057
1.03325e-05;-0.007852902040311251
1.03328e-05;-0.00780803720509396
1.03330e-05;-0.00776331724592962
1.03333e-05;-0.007719364794552158
1.03335e-05;-0.007676252878387972
1.03338e-05;-0.007634144721249224
1.03340e-05;-0.007593237887402576
1.03343e-05;-0.007554187582815117
1.03345e-05;-0.007518173338854736
1.03348e-05;-0.007482159094894356
1.03350e-05;-0.007447255983013004
1.03353e-05;-0.007417050630781144
1.03355e-05;-0.007387273048143926
1.03358e-05;-0.0073593040342445504
1.03360e-05;-0.007331335020344986
1.03363e-05;-0.007303498902277839
1.03365e-05;-0.007276224655019122
1.03368e-05;-0.00724895040776022
1.03370e-05;-0.0072220519564242065
1.03373e-05;-0.007196742334136627
1.03375e-05;-0.007171432711848877
1.03378e-05;-0.007145971559809054
1.03380e-05;-0.007119869754539513
1.03383e-05;-0.007093767949269795
1.03385e-05;-0.007067666144000077
1.03387e-05;-0.007041564338730535
1.03390e-05;-0.00701538651918242
1.03393e-05;-0.006988887318570113
1.03395e-05;-0.006962388117957986
1.03398e-05;-0.00693588891734568
1.03400e-05;-0.006909389716733373
1.03402e-05;-0.006882733624218317
1.03405e-05;-0.006855414207814547
1.03408e-05;-0.006828094791410776
1.03410e-05;-0.006800861864184787
1.03413e-05;-0.006773994604891175
1.03415e-05;-0.006747175667305871
1.03418e-05;-0.006720561029260441
1.03420e-05;-0.006693953739677772
1.03423e-05;-0.006667417779356263
1.03425e-05;-0.006641122760654227
1.03428e-05;-0.006615228117876643
1.03430e-05;-0.0065898936822169005
1.03433e-05;-0.006565261478286771
1.03435e-05;-0.006541378249515502
1.03438e-05;-0.006518184702392533
1.03440e-05;-0.006495670435369267
1.03443e-05;-0.0064739445213224224
1.03445e-05;-0.006453157923581069
1.03448e-05;-0.006433461982063732
1.03450e-05;-0.006415007591327534
1.03453e-05;-0.006398011992345822
1.03455e-05;-0.006382526891897691
1.03458e-05;-0.006367363297821574
1.03460e-05;-0.0063535590017899796
1.03463e-05;-0.006340075054190737
1.03465e-05;-0.006327945508979027
1.03468e-05;-0.006316297488478824
1.03470e-05;-0.006306685308186217
1.03472e-05;-0.006297073127893676
1.03475e-05;-0.0062879484104642214
1.03478e-05;-0.006280884639176621
1.03480e-05;-0.006273820867889069
1.03483e-05;-0.006267316297733998
1.03485e-05;-0.006263175976230007
1.03487e-05;-0.006259035654726044
1.03490e-05;-0.006254895333222053
1.03493e-05;-0.006250755011718062
1.03495e-05;-0.00624661469021407
1.03498e-05;-0.0062446325229235525
1.03500e-05;-0.0062436141640210534
1.03503e-05;-0.006242595805118554
1.03505e-05;-0.006241577446216062
1.03508e-05;-0.006240559087313563
1.03510e-05;-0.0062399614086621966
1.03513e-05;-0.006241142325686803
1.03515e-05;-0.006242323242711416
1.03518e-05;-0.0062435041597360295
1.03520e-05;-0.006244685076760636
1.03523e-05;-0.006245865993785249
1.03525e-05;-0.0062470469108098624
1.03528e-05;-0.006248802597874247
1.03530e-05;-0.006250814971037398
1.03533e-05;-0.006252827344200551
1.03535e-05;-0.006254839717363689
1.03538e-05;-0.0062568520905268415
1.03540e-05;-0.006258864463689993
1.03543e-05;-0.006260801730655187
1.03545e-05;-0.006262421455832873
1.03548e-05;-0.006264041181010559
1.03550e-05;-0.006265569963396814
1.03553e-05;-0.006266714248400158
1.03555e-05;-0.006267858533403502
1.03557e-05;-0.006269074580968658
1.03560e-05;-0.006270594033749143
1.03563e-05;-0.006272113486529628
1.03565e-05;-0.006273790444539165
1.03568e-05;-0.006276133319521692
1.03570e-05;-0.006278476194504219
1.03572e-05;-0.006280819069486731
1.03575e-05;-0.006283161944469258
1.03578e-05;-0.006285504819451785
1.03580e-05;-0.006287847694434313
1.03583e-05;-0.006290469810994746
1.03585e-05;-0.006294272534112983
1.03588e-05;-0.00629807525723122
1.03590e-05;-0.006301877980349431
1.03593e-05;-0.006305680703467668
1.03595e-05;-0.006309483426585906
1.03598e-05;-0.006313286149704117
1.03600e-05;-0.0063173166823728335
1.03603e-05;-0.00632231037192975
1.03605e-05;-0.006327304061486633
1.03608e-05;-0.006332297751043549
1.03610e-05;-0.006337291440600466
1.03613e-05;-0.006342285130157349
1.03615e-05;-0.006347278819714265
1.03618e-05;-0.006352272509271182
1.03620e-05;-0.006357323926751233
1.03623e-05;-0.006362401124899007
1.03625e-05;-0.0063674783230467805
1.03628e-05;-0.00637255552119452
1.03630e-05;-0.0063776327193422935
1.03633e-05;-0.006382709917490068
1.03635e-05;-0.006387787115637806
1.03638e-05;-0.0063927186924944875
1.03640e-05;-0.006397034596525684
1.03642e-05;-0.006401350500556852
1.03645e-05;-0.006405501086448185
1.03648e-05;-0.006408952723130139
1.03650e-05;-0.00641240435981207
1.03653e-05;-0.006415771570824001
1.03655e-05;-0.006418781838215802
1.03657e-05;-0.006422001247306059
1.03660e-05;-0.006426104887400459
1.03663e-05;-0.0064304884074239755
1.03665e-05;-0.00643605523289331
1.03668e-05;-0.006441622058362607
1.03670e-05;-0.00644746037612195
1.03673e-05;-0.0064544465371949985
1.03675e-05;-0.006461432698268
1.03678e-05;-0.00646906105558848
1.03680e-05;-0.006479404556932803
1.03683e-05;-0.006489748058277056
1.03685e-05;-0.006500091559621379
1.03688e-05;-0.006510435060965702
1.03690e-05;-0.006520778562309956
1.03693e-05;-0.006531822008425724
1.03695e-05;-0.006545824753775927
1.03698e-05;-0.006559827499126034
1.03700e-05;-0.006573830244476235
1.03703e-05;-0.006587832989826437
1.03705e-05;-0.006601835735176544
1.03708e-05;-0.0066162607255190195
1.03710e-05;-0.006632470927114531
1.03713e-05;-0.006648681128709932
1.03715e-05;-0.006664891330305442
1.03718e-05;-0.006681101531900953
1.03720e-05;-0.006697311733496354
1.03723e-05;-0.006713521935091865
1.03725e-05;-0.006729582380746229
1.03727e-05;-0.006745009672671588
1.03730e-05;-0.006760436964597053
1.03733e-05;-0.006775864256522517
1.03735e-05;-0.006791291548447877
1.03738e-05;-0.006806718840373342
1.03740e-05;-0.006822146132298806
1.03742e-05;-0.006837024900197233
1.03745e-05;-0.006849584561218068
1.03748e-05;-0.006862144222238904
1.03750e-05;-0.0068741250916259326
1.03753e-05;-0.006883658885601777
1.03755e-05;-0.006893192679577687
1.03758e-05;-0.006902047297467474
1.03760e-05;-0.006908030424127622
1.03763e-05;-0.0069140135507878096
1.03765e-05;-0.006918844557279913
1.03768e-05;-0.006918804510409205
1.03770e-05;-0.006918764463538496
1.03773e-05;-0.006918724416667787
1.03775e-05;-0.00691868436979708
1.03778e-05;-0.00691864432292637
1.03780e-05;-0.006918604276055662
1.03783e-05;-0.006913173296268206
1.03785e-05;-0.00690533478399884
1.03788e-05;-0.0068974962717294735
1.03790e-05;-0.00688965775946016
1.03793e-05;-0.006881819247190794
1.03795e-05;-0.006873980734921427
1.03798e-05;-0.006865069564502982
1.03800e-05;-0.006851623298502061
1.03803e-05;-0.00683817703250114
1.03805e-05;-0.00682473076650031
1.03808e-05;-0.006811284500499389
1.03810e-05;-0.006797838234498468
1.03812e-05;-0.006782369832899396
1.03815e-05;-0.006765998367357296
1.03818e-05;-0.006749626901815196
1.03820e-05;-0.006733255436273207
1.03823e-05;-0.006716883970731108
1.03825e-05;-0.006700390472125472
1.03827e-05;-0.006683381029453454
1.03830e-05;-0.0066664165682794735
1.03833e-05;-0.0066496422845574304
1.03835e-05;-0.006632987001392879
1.03838e-05;-0.006616834841150788
1.03840e-05;-0.006600821589119217
1.03843e-05;-0.006585514806356607
1.03845e-05;-0.006570851030585789
1.03848e-05;-0.006556934480862651
1.03850e-05;-0.006543869979449371
1.03853e-05;-0.006531846210772093
1.03855e-05;-0.006521508441415136
1.03858e-05;-0.006513957974379968
1.03860e-05;-0.0065099460355840045
1.03863e-05;-0.006509573274949304
1.03865e-05;-0.006512717976735358
1.03868e-05;-0.006519258028312669
1.03870e-05;-0.00652939072235221
1.03873e-05;-0.006543436929422608
1.03875e-05;-0.006558942496622983
1.03878e-05;-0.006580618098224584
1.03880e-05;-0.006604213355775289
1.03883e-05;-0.006635924734220301
1.03885e-05;-0.00666763611266553
1.03888e-05;-0.006701885510535463
1.03890e-05;-0.006746865410656847
1.03893e-05;-0.006791845310778536
1.03895e-05;-0.006836825210900226
1.03897e-05;-0.006881805111021609
1.03900e-05;-0.00692936805363303
1.03903e-05;-0.006987851851689871
1.03905e-05;-0.007046335649746316
1.03908e-05;-0.007104819447803157
1.03910e-05;-0.0071633032458599975
1.03912e-05;-0.007222984620634305
1.03915e-05;-0.007287729234698999
1.03918e-05;-0.007352473848763692
1.03920e-05;-0.007417587281422393
1.03923e-05;-0.0074842600436569465
1.03925e-05;-0.007550932805891953
1.03928e-05;-0.007617306790030728
1.03930e-05;-0.0076824175690872335
1.03933e-05;-0.00774752834814418
1.03935e-05;-0.007811952840178861
1.03938e-05;-0.0078734757766269
1.03940e-05;-0.00793415034420603
1.03943e-05;-0.007991238089723521
1.03945e-05;-0.008047143846170803
1.03948e-05;-0.008098052266405722
1.03950e-05;-0.008147439154064096
1.03953e-05;-0.008190393148188932
1.03955e-05;-0.00823150869058834
1.03958e-05;-0.008264851435743436
1.03960e-05;-0.008295704759306946
1.03963e-05;-0.008316033047583982
1.03965e-05;-0.008336361335861018
1.03968e-05;-0.008353600657073412
