Time(s);Current(A)
9.75000e-06;0.007307720887733733
9.75025e-06;0.007284537082747976
9.75050e-06;0.0072613532777622185
9.75075e-06;0.007238169472776619
9.75100e-06;0.007214985667790862
9.75125e-06;0.0071918018628051045
9.75150e-06;0.0071822697911059896
9.75175e-06;0.007183981709049056
9.75200e-06;0.007185693626992134
9.75225e-06;0.007187405544935213
9.75250e-06;0.00718911746287828
9.75275e-06;0.007190829380821359
9.75300e-06;0.007192541298764437
9.75325e-06;0.007194253216707504
9.75350e-06;0.007195965134650583
9.75375e-06;0.007199245531352533
9.75400e-06;0.007233393138780989
9.75425e-06;0.007267540746209676
9.75450e-06;0.007301688353638363
9.75475e-06;0.007335835961066819
9.75500e-06;0.007369983568495505
9.75525e-06;0.007404131175924192
9.75550e-06;0.007438278783352648
9.75575e-06;0.007472426390781335
9.75600e-06;0.007506573998210022
9.75625e-06;0.007540721605638477
9.75650e-06;0.007584386219184129
9.75675e-06;0.007635889333231634
9.75700e-06;0.00768739244727879
9.75725e-06;0.0077388955613262944
9.75750e-06;0.007790398675373799
9.75775e-06;0.007841901789420954
9.75800e-06;0.00789340490346846
9.75825e-06;0.007944908017515963
9.75850e-06;0.00799641113156312
9.75875e-06;0.008047914245610624
9.75900e-06;0.0080989099038529
9.75925e-06;0.008139918977831628
9.75950e-06;0.008180928051810634
9.75975e-06;0.00822193712578964
9.76000e-06;0.008262946199768645
9.76025e-06;0.008303955273747372
9.76050e-06;0.008344964347726377
9.76075e-06;0.008385973421705384
9.76100e-06;0.008426982495684111
9.76125e-06;0.008467991569663116
9.76150e-06;0.008492738658097347
9.76175e-06;0.00850409187241766
9.76200e-06;0.008515445086738052
9.76225e-06;0.008526798301058444
9.76250e-06;0.00853815151537876
9.76275e-06;0.008549504729699151
9.76300e-06;0.008560857944019543
9.76325e-06;0.008572211158339858
9.76350e-06;0.00858356437266025
9.76375e-06;0.008593388872892795
9.76400e-06;0.008573128719635592
9.76425e-06;0.008552868566378252
9.76450e-06;0.00853260841312091
9.76475e-06;0.008512348259863706
9.76500e-06;0.008492088106606366
9.76525e-06;0.008471827953349026
9.76550e-06;0.008451567800091823
9.76575e-06;0.008431307646834483
9.76600e-06;0.008411047493577142
9.76625e-06;0.00839078734031994
9.76650e-06;0.008370527187062599
9.76675e-06;0.008341468926029723
9.76700e-06;0.008305164271395452
9.76725e-06;0.008268859616760934
9.76750e-06;0.008232554962126416
9.76775e-06;0.008196250307492145
9.76800e-06;0.008159945652857629
9.76825e-06;0.008123640998223111
9.76850e-06;0.008087336343588594
9.76875e-06;0.008051031688954323
9.76900e-06;0.008014727034319807
9.76925e-06;0.007978422379685289
9.76950e-06;0.007942627240618496
9.76975e-06;0.007916859221359521
9.77000e-06;0.007891091202100544
9.77025e-06;0.007865323182841744
9.77050e-06;0.007839555163582767
9.77075e-06;0.007813787144323792
9.77100e-06;0.00778801912506499
9.77125e-06;0.007762251105806014
9.77150e-06;0.007736483086547038
9.77175e-06;0.0077107150672882365
9.77200e-06;0.00768494704802926
9.77225e-06;0.007659179028770285
9.77250e-06;0.007633411009511483
9.77275e-06;0.007607642990252507
9.77300e-06;0.007581874970993531
9.77325e-06;0.007556424348901192
9.77350e-06;0.007537220011751333
9.77375e-06;0.007518015674601475
9.77400e-06;0.007498811337451746
9.77425e-06;0.007479607000301888
9.77450e-06;0.0074604026631520295
9.77475e-06;0.007441198326002301
9.77500e-06;0.007421993988852443
9.77525e-06;0.007402789651702584
9.77550e-06;0.007383585314552856
9.77575e-06;0.007364380977402997
9.77600e-06;0.007345176640253139
9.77625e-06;0.0073259723031034105
9.77650e-06;0.007306767965953552
9.77675e-06;0.0072875636288036935
9.77700e-06;0.007268611853509667
9.77725e-06;0.007254630422896782
9.77750e-06;0.007240648992283802
9.77775e-06;0.007226667561670822
9.77800e-06;0.0072126861310579365
9.77825e-06;0.007198704700444956
9.77850e-06;0.007184723269831976
9.77875e-06;0.0071707418392190905
9.77900e-06;0.007156760408606111
9.77925e-06;0.007142778977993131
9.77950e-06;0.007128797547380245
9.77975e-06;0.0071148161167672655
9.78000e-06;0.007100834686154286
9.78025e-06;0.0070868532555414
9.78050e-06;0.0070728718249284195
9.78075e-06;0.00705889039431544
9.78100e-06;0.007044908963702554
9.78125e-06;0.007030927533089574
9.78150e-06;0.0070169461024765945
9.78175e-06;0.007002964671863709
9.78200e-06;0.006988983241250729
9.78225e-06;0.006975001810637749
9.78250e-06;0.006961020380024864
9.78275e-06;0.006947038949411883
9.78300e-06;0.006935992080717082
9.78325e-06;0.006927362207956266
9.78350e-06;0.006918732335195392
9.78375e-06;0.006910102462434518
9.78400e-06;0.006901472589673703
9.78425e-06;0.006892842716912828
9.78450e-06;0.006884212844151954
9.78475e-06;0.006875582971391138
9.78500e-06;0.006866953098630264
9.78525e-06;0.00685832322586939
9.78550e-06;0.006849693353108516
9.78575e-06;0.0068410634803477005
9.78600e-06;0.006832433607586826
9.78625e-06;0.006823803734825952
9.78650e-06;0.006815173862065136
9.78675e-06;0.006806543989304262
9.78700e-06;0.006797914116543388
9.78725e-06;0.006789284243782572
9.78750e-06;0.006780654371021698
9.78775e-06;0.006772024498260824
9.78800e-06;0.006763394625500008
9.78825e-06;0.006754764752739134
9.78850e-06;0.0067461348799782595
9.78875e-06;0.006737741630989458
9.78900e-06;0.006734005069787183
9.78925e-06;0.006730268508584908
9.78950e-06;0.0067265319473826584
9.78975e-06;0.006722795386180383
9.79000e-06;0.0067190588249781075
9.79025e-06;0.006715322263775858
9.79050e-06;0.006711585702573583
9.79075e-06;0.006707849141371308
9.79100e-06;0.006704112580169058
9.79125e-06;0.006700376018966783
9.79150e-06;0.006696639457764508
9.79175e-06;0.006692902896562257
9.79200e-06;0.006689166335359983
9.79225e-06;0.006685429774157707
9.79250e-06;0.006681693212955458
9.79275e-06;0.006677956651753182
9.79300e-06;0.006674220090550908
9.79325e-06;0.006670483529348657
9.79350e-06;0.006666746968146382
9.79375e-06;0.006663010406944107
9.79400e-06;0.006659273845741832
9.79425e-06;0.006655537284539582
9.79450e-06;0.006651800723337307
9.79475e-06;0.006648064162135032
9.79500e-06;0.006647651612111018
9.79525e-06;0.006649976820474504
9.79550e-06;0.00665230202883799
9.79575e-06;0.00665462723720146
9.79600e-06;0.006656952445564945
9.79625e-06;0.00665927765392843
9.79650e-06;0.0066616028622919
9.79675e-06;0.0066639280706553864
9.79700e-06;0.006666253279018872
9.79725e-06;0.006668578487382342
9.79750e-06;0.006670903695745827
9.79775e-06;0.006673228904109313
9.79800e-06;0.006675554112472783
9.79825e-06;0.006677879320836268
9.79850e-06;0.006680204529199754
9.79875e-06;0.0066825297375632245
9.79900e-06;0.00668485494592671
9.79925e-06;0.006687180154290195
9.79950e-06;0.006689505362653665
9.79975e-06;0.006691830571017151
9.80000e-06;0.006694155779380637
9.80025e-06;0.0066964809877441064
9.80050e-06;0.006698806196107592
9.80075e-06;0.006701131404471078
9.80100e-06;0.006703581242512283
9.80125e-06;0.006708483756775519
9.80150e-06;0.006713386271038756
9.80175e-06;0.006718288785301958
9.80200e-06;0.006723191299565195
9.80225e-06;0.006728093813828431
9.80250e-06;0.006732996328091667
9.80275e-06;0.00673789884235487
9.80300e-06;0.006742801356618106
9.80325e-06;0.006747703870881343
9.80350e-06;0.006752606385144545
9.80375e-06;0.0067575088994077815
9.80400e-06;0.006762411413671018
9.80425e-06;0.00676731392793422
9.80450e-06;0.006772216442197457
9.80475e-06;0.006777118956460693
9.80500e-06;0.006782021470723896
9.80525e-06;0.006786923984987132
9.80550e-06;0.006791826499250368
9.80575e-06;0.006796729013513571
9.80600e-06;0.006801631527776807
9.80625e-06;0.006806534042040044
9.80650e-06;0.006813135195121685
9.80675e-06;0.006819747136808826
9.80700e-06;0.006826359078495966
9.80725e-06;0.006832971020183062
9.80750e-06;0.006839582961870203
9.80775e-06;0.006846194903557343
9.80800e-06;0.006852806845244439
9.80825e-06;0.00685941878693158
9.80850e-06;0.0068660307286187204
9.80875e-06;0.006872642670305816
9.80900e-06;0.006879254611992957
9.80925e-06;0.0068858665536800975
9.80950e-06;0.006892478495367193
9.80975e-06;0.006899090437054334
9.81000e-06;0.0069057023787414745
9.81025e-06;0.006912314320428571
9.81050e-06;0.006918926262115712
9.81075e-06;0.0069255382038028515
9.81100e-06;0.006932150145489992
9.81125e-06;0.006938762087177089
9.81150e-06;0.006945374028864229
9.81175e-06;0.006958178041771408
9.81200e-06;0.006971384161385937
9.81225e-06;0.006984590281000557
9.81250e-06;0.006997796400615175
9.81275e-06;0.0070110025202297045
9.81300e-06;0.007024208639844323
9.81325e-06;0.007037414759458942
9.81350e-06;0.007050620879073472
9.81375e-06;0.00706382699868809
9.81400e-06;0.007077033118302709
9.81425e-06;0.007090239237917239
9.81450e-06;0.007103445357531857
9.81475e-06;0.007116651477146476
9.81500e-06;0.007134827337367083
9.81525e-06;0.00715935351040901
9.81550e-06;0.007183879683450936
9.81575e-06;0.007208405856492696
9.81600e-06;0.007232932029534623
9.81625e-06;0.007257458202576549
9.81650e-06;0.00728198437561831
9.81675e-06;0.007306510548660236
9.81700e-06;0.007331036721702162
9.81725e-06;0.007355562894743923
9.81750e-06;0.007380089067785849
9.81775e-06;0.007404615240827776
9.81800e-06;0.007429141413869536
9.81825e-06;0.007453667586911463
9.81850e-06;0.0074747689865758095
9.81875e-06;0.0074956479849950805
9.81900e-06;0.007516526983414494
9.81925e-06;0.007537405981833907
9.81950e-06;0.0075582849802533205
9.81975e-06;0.0075791639786725925
9.82000e-06;0.007600042977092005
9.82025e-06;0.007620921975511418
9.82050e-06;0.00764180097393069
9.82075e-06;0.007662679972350104
9.82100e-06;0.007683558970769517
9.82125e-06;0.007704437969188788
9.82150e-06;0.007725316967608201
9.82175e-06;0.007733790771634961
9.82200e-06;0.007741458995153501
9.82225e-06;0.007749127218672092
9.82250e-06;0.007756795442190684
9.82275e-06;0.007764463665709224
9.82300e-06;0.007772131889227815
9.82325e-06;0.007779800112746407
9.82350e-06;0.007787468336264947
9.82375e-06;0.007795136559783538
9.82400e-06;0.00780280478330213
9.82425e-06;0.00781047300682067
9.82450e-06;0.007818141230339262
9.82475e-06;0.007825809453857854
9.82500e-06;0.007825052492241687
9.82525e-06;0.00782374840780658
9.82550e-06;0.007822444323371475
9.82575e-06;0.007821140238936378
9.82600e-06;0.007819836154501273
9.82625e-06;0.007818532070066166
9.82650e-06;0.00781722798563107
9.82675e-06;0.007815923901195964
9.82700e-06;0.007814619816760859
9.82725e-06;0.007813315732325762
9.82750e-06;0.007812011647890656
9.82775e-06;0.00781070756345555
9.82800e-06;0.0078094034790204435
9.82825e-06;0.007808099394585347
9.82850e-06;0.0078067953101502415
9.82875e-06;0.007805491225715135
9.82900e-06;0.007804187141280039
9.82925e-06;0.0078028830568449324
9.82950e-06;0.007801578972409827
9.82975e-06;0.00780027488797473
9.83000e-06;0.007795346242527819
9.83025e-06;0.007790182221833023
9.83050e-06;0.007785018201138263
9.83075e-06;0.007779854180443467
9.83100e-06;0.007774690159748671
9.83125e-06;0.0077695261390539104
9.83150e-06;0.0077643621183591145
9.83175e-06;0.007759198097664319
9.83200e-06;0.007754034076969558
9.83225e-06;0.007748870056274762
9.83250e-06;0.007743706035579966
9.83275e-06;0.007738542014885205
9.83300e-06;0.00773337799419041
9.83325e-06;0.007728213973495614
9.83350e-06;0.007723049952800853
9.83375e-06;0.007717885932106058
9.83400e-06;0.007712721911411262
9.83425e-06;0.007707557890716501
9.83450e-06;0.007702393870021705
9.83475e-06;0.007697229849326909
9.83500e-06;0.007687439922679934
9.83525e-06;0.007677349594478835
9.83550e-06;0.007667259266277735
9.83575e-06;0.007657168938076704
9.83600e-06;0.007647078609875604
9.83625e-06;0.007636988281674504
9.83650e-06;0.007626897953473405
9.83675e-06;0.0076168076252723736
9.83700e-06;0.007606717297071274
9.83725e-06;0.007596626968870174
9.83750e-06;0.007586536640669142
9.83775e-06;0.007576446312468043
9.83800e-06;0.007566355984266943
9.83825e-06;0.007556602004742113
9.83850e-06;0.007547277810085635
9.83875e-06;0.0075379536154291564
9.83900e-06;0.007528629420772742
9.83925e-06;0.007519305226116264
9.83950e-06;0.007509981031459786
9.83975e-06;0.007500656836803371
9.84000e-06;0.007491332642146893
9.84025e-06;0.007482008447490415
9.84050e-06;0.0074726842528340005
9.84075e-06;0.007463360058177522
9.84100e-06;0.007454035863521044
9.84125e-06;0.007444711668864629
9.84150e-06;0.007435387474208151
9.84175e-06;0.007420868489271213
9.84200e-06;0.007406012160019334
9.84225e-06;0.007391155830767353
9.84250e-06;0.007376299501515374
9.84275e-06;0.007361443172263495
9.84300e-06;0.007346586843011514
9.84325e-06;0.007331730513759535
9.84350e-06;0.007316874184507655
9.84375e-06;0.007302017855255675
9.84400e-06;0.007287161526003695
9.84425e-06;0.007272305196751816
9.84450e-06;0.007257448867499836
9.84475e-06;0.007242592538247856
9.84500e-06;0.007227736208995876
9.84525e-06;0.007208833997105555
9.84550e-06;0.007184761974061182
9.84575e-06;0.00716068995101681
9.84600e-06;0.0071366179279726
9.84625e-06;0.007112545904928228
9.84650e-06;0.0070884738818838555
9.84675e-06;0.007064401858839647
9.84700e-06;0.007040329835795274
9.84725e-06;0.007016257812750901
9.84750e-06;0.006992185789706692
9.84775e-06;0.006968113766662319
9.84800e-06;0.006944041743617947
9.84825e-06;0.006919969720573738
9.84850e-06;0.006895897697529366
9.84875e-06;0.006871825674484993
9.84900e-06;0.006855657360332562
9.84925e-06;0.006840002304872155
9.84950e-06;0.006824347249411749
9.84975e-06;0.006808692193951448
9.85000e-06;0.006793037138491042
9.85025e-06;0.006777382083030635
9.85050e-06;0.006761727027570334
9.85075e-06;0.006746071972109928
9.85100e-06;0.006730416916649521
9.85125e-06;0.006714761861189221
9.85150e-06;0.006699106805728814
9.85175e-06;0.006683451750268408
9.85200e-06;0.006667796694808108
9.85225e-06;0.006652141639347701
9.85250e-06;0.006636486583887295
9.85275e-06;0.006620831528426994
9.85300e-06;0.006605176472966588
9.85325e-06;0.006589521417506181
9.85350e-06;0.006573866362045775
9.85375e-06;0.0065582113065854744
9.85400e-06;0.006547826088360969
9.85425e-06;0.006544174645128119
9.85450e-06;0.006540523201895293
9.85475e-06;0.006536871758662443
9.85500e-06;0.006533220315429592
9.85525e-06;0.006529568872196767
9.85550e-06;0.0065259174289639165
9.85575e-06;0.006522265985731066
9.85600e-06;0.006518614542498241
9.85625e-06;0.0065149630992653905
9.85650e-06;0.0065113116560325405
9.85675e-06;0.006507660212799715
9.85700e-06;0.006504008769566865
9.85725e-06;0.006500357326334014
9.85750e-06;0.006496705883101189
9.85775e-06;0.006493054439868338
9.85800e-06;0.006489402996635488
9.85825e-06;0.006485751553402662
9.85850e-06;0.006482100110169812
9.85875e-06;0.006478448666936962
9.85900e-06;0.006474797223704136
9.85925e-06;0.006474914822151572
9.85950e-06;0.006475277178273295
9.85975e-06;0.006475639534395017
9.86000e-06;0.0064760018905167405
9.86025e-06;0.006476364246638464
9.86050e-06;0.006476726602760186
9.86075e-06;0.006477088958881909
9.86100e-06;0.006477451315003634
9.86125e-06;0.006477813671125355
9.86150e-06;0.006478176027247079
9.86175e-06;0.006478538383368803
9.86200e-06;0.006478900739490524
9.86225e-06;0.006479263095612248
9.86250e-06;0.006492299127264635
9.86275e-06;0.006506158174317601
9.86300e-06;0.0065200172213704735
9.86325e-06;0.00653387626842344
9.86350e-06;0.006547735315476406
9.86375e-06;0.006561594362529279
9.86400e-06;0.006575453409582245
9.86425e-06;0.006589312456635211
9.86450e-06;0.006603171503688084
9.86475e-06;0.00661703055074105
9.86500e-06;0.006630889597794017
9.86525e-06;0.006644748644846889
9.86550e-06;0.0066586076918998555
9.86575e-06;0.006684151428777132
9.86600e-06;0.0067104539573445655
9.86625e-06;0.006736756485912178
9.86650e-06;0.00676305901447979
9.86675e-06;0.006789361543047224
9.86700e-06;0.006815664071614836
9.86725e-06;0.0068419666001824486
9.86750e-06;0.006868269128749882
9.86775e-06;0.006894571657317494
9.86800e-06;0.006920874185885106
9.86825e-06;0.006947176714452541
9.86850e-06;0.006973479243020153
9.86875e-06;0.006995114579656875
9.86900e-06;0.007016446833669156
9.86925e-06;0.007037779087681582
9.86950e-06;0.007059111341694007
9.86975e-06;0.007080443595706289
9.87000e-06;0.007101775849718714
9.87025e-06;0.00712310810373114
9.87050e-06;0.007144440357743421
9.87075e-06;0.007165772611755847
9.87100e-06;0.007187104865768273
9.87125e-06;0.007208437119780698
9.87150e-06;0.00722976937379298
9.87175e-06;0.0072270118504191745
9.87200e-06;0.0072226899617780956
9.87225e-06;0.007218368073137045
9.87250e-06;0.007214046184495966
9.87275e-06;0.007209724295854887
9.87300e-06;0.007205402407213837
9.87325e-06;0.007201080518572758
9.87350e-06;0.007196758629931679
9.87375e-06;0.007192436741290629
9.87400e-06;0.00718811485264955
9.87425e-06;0.007183792964008471
9.87450e-06;0.00717947107536742
9.87475e-06;0.0071751491867263414
9.87500e-06;0.007160391736280373
9.87525e-06;0.007132299770554407
9.87550e-06;0.0071042078048282505
9.87575e-06;0.007076115839102093
9.87600e-06;0.007048023873376127
9.87625e-06;0.007019931907649971
9.87650e-06;0.006991839941923815
9.87675e-06;0.006963747976197848
9.87700e-06;0.006935656010471691
9.87725e-06;0.006907564044745535
9.87750e-06;0.006879472079019569
9.87775e-06;0.006851380113293413
9.87800e-06;0.0068232881475672556
9.87825e-06;0.006795196181841289
9.87850e-06;0.006765798349792144
9.87875e-06;0.00673631571613243
9.87900e-06;0.006706833082472915
9.87925e-06;0.006677350448813201
9.87950e-06;0.006647867815153487
9.87975e-06;0.006618385181493773
9.88000e-06;0.006588902547834259
9.88025e-06;0.006559419914174545
9.88050e-06;0.0065299372805148305
9.88075e-06;0.006505353298251925
9.88100e-06;0.006487028791341701
9.88125e-06;0.006468704284431478
9.88150e-06;0.006450379777521378
9.88175e-06;0.006432055270611155
9.88200e-06;0.006413730763700931
9.88225e-06;0.006395406256790831
9.88250e-06;0.006377081749880608
9.88275e-06;0.006358757242970384
9.88300e-06;0.006340432736060284
9.88325e-06;0.006333169602402006
9.88350e-06;0.006326624782901174
9.88375e-06;0.006320079963400386
9.88400e-06;0.006313535143899553
9.88425e-06;0.006306990324398721
9.88450e-06;0.0063004455048979325
9.88475e-06;0.006293900685397099
9.88500e-06;0.006287355865896267
9.88525e-06;0.0062808110463954785
9.88550e-06;0.006274266226894646
9.88575e-06;0.0062677214073938135
9.88600e-06;0.006261176587893025
9.88625e-06;0.006254631768392192
9.88650e-06;0.0062480869488913595
9.88675e-06;0.006241542129390571
9.88700e-06;0.006234997309889739
9.88725e-06;0.006228452490388906
9.88750e-06;0.006221907670888117
9.88775e-06;0.006215362851387285
9.88800e-06;0.006208818031886452
9.88825e-06;0.00620227321238562
9.88850e-06;0.006195728392884832
9.88875e-06;0.006189183573383998
9.88900e-06;0.006182638753883166
9.88925e-06;0.006176093934382378
9.88950e-06;0.006169549114881545
9.88975e-06;0.006163004295380713
9.89000e-06;0.006156459475879924
9.89025e-06;0.006155999505365872
9.89050e-06;0.006155934678662375
9.89075e-06;0.006155869851958878
9.89100e-06;0.0061558050252553806
9.89125e-06;0.006155740198551883
9.89150e-06;0.0061556753718483865
9.89175e-06;0.006155610545144889
9.89200e-06;0.0061555457184413916
9.89225e-06;0.006155480891737895
9.89250e-06;0.0061554160650343975
9.89275e-06;0.0061553512383309
9.89300e-06;0.006155286411627403
9.89325e-06;0.006155221584923905
9.89350e-06;0.0061551567582204085
9.89375e-06;0.006155091931516911
9.89400e-06;0.006155027104813414
9.89425e-06;0.006154962278109916
9.89450e-06;0.0061548974514064195
9.89475e-06;0.006154832624702922
9.89500e-06;0.006154767797999425
9.89525e-06;0.006154702971295928
9.89550e-06;0.0061546381445924305
9.89575e-06;0.006154573317888933
9.89600e-06;0.0061545084911854364
9.89625e-06;0.006154443664481939
9.89650e-06;0.0061543788377784415
9.89675e-06;0.006154314011074944
9.89700e-06;0.0061542491843714475
9.89725e-06;0.006155872432688138
9.89750e-06;0.006157605302853782
9.89775e-06;0.006159338173019414
9.89800e-06;0.0061610710431850586
9.89825e-06;0.006162803913350702
9.89850e-06;0.006164536783516334
9.89875e-06;0.006166269653681979
9.89900e-06;0.006168002523847623
9.89925e-06;0.006169735394013255
9.89950e-06;0.006171468264178899
9.89975e-06;0.006173201134344543
9.90000e-06;0.006174934004510175
9.90025e-06;0.0061766668746758195
9.90050e-06;0.006178399744841463
9.90075e-06;0.0061825247166969145
