Time(s);Current(A)
1.20000e-05;-0.0018188434894298906
1.20003e-05;-0.0018813652693396206
1.20005e-05;-0.0019391069479017457
1.20008e-05;-0.001996700867238151
1.20010e-05;-0.0020458470424610004
1.20013e-05;-0.0020947320867923526
1.20015e-05;-0.002143617131123373
1.20018e-05;-0.0021839519333806097
1.20020e-05;-0.002224022436399406
1.20023e-05;-0.0022586311118281657
1.20025e-05;-0.002293070954976159
1.20028e-05;-0.002327510798124152
1.20030e-05;-0.0023540606697525735
1.20033e-05;-0.002380366651974733
1.20035e-05;-0.002406672634196893
1.20038e-05;-0.002426379787952733
1.20040e-05;-0.002445882963233721
1.20043e-05;-0.0024609830173625198
1.20045e-05;-0.0024759469652198382
1.20048e-05;-0.0024909109130772577
1.20050e-05;-0.002500067370925362
1.20052e-05;-0.002509044311611805
1.20055e-05;-0.0025180212522983095
1.20058e-05;-0.00252240449262864
1.20060e-05;-0.00252664573563341
1.20063e-05;-0.0025285074299590013
1.20065e-05;-0.002530295569302269
1.20068e-05;-0.002529148194166624
1.20070e-05;-0.002527910078413893
1.20073e-05;-0.0025266719626611533
1.20075e-05;-0.0025225108294264845
1.20078e-05;-0.002518259341873379
1.20080e-05;-0.0025125879394999936
1.20083e-05;-0.002506872645690222
1.20085e-05;-0.0025002436783628586
1.20088e-05;-0.0024935864681841853
1.20090e-05;-0.0024861088602665935
1.20093e-05;-0.0024786058927748988
1.20095e-05;-0.0024704781130753892
1.20098e-05;-0.002462331019607975
1.20100e-05;-0.002454280476734802
1.20103e-05;-0.0024462329183675495
1.20105e-05;-0.0024387546132696473
1.20108e-05;-0.0024312939045397753
1.20110e-05;-0.0024243947702015326
1.20113e-05;-0.0024179572405249815
1.20115e-05;-0.0024118503096950167
1.20118e-05;-0.002405120569619565
1.20120e-05;-0.002396303850034376
1.20123e-05;-0.002384750070799002
1.20125e-05;-0.0023705701455882322
1.20128e-05;-0.0023539575692675114
1.20130e-05;-0.0023351085901443668
1.20133e-05;-0.002314218581053782
1.20135e-05;-0.0022913704139330233
1.20137e-05;-0.00226612899922812
1.20140e-05;-0.0022377386732181236
1.20143e-05;-0.0022059547112946885
1.20145e-05;-0.0021710080771792295
1.20148e-05;-0.0021331823359273896
1.20150e-05;-0.002092761787717887
1.20153e-05;-0.002050031170465309
1.20155e-05;-0.0020052040935040665
1.20158e-05;-0.001958169680045377
1.20160e-05;-0.0019086169258385698
1.20163e-05;-0.0018565541714320722
1.20165e-05;-0.001802287994207856
1.20168e-05;-0.001746158045568122
1.20170e-05;-0.0016885042722155966
1.20173e-05;-0.001629666719813912
1.20175e-05;-0.0015699411710472554
1.20178e-05;-0.0015094201309521953
1.20180e-05;-0.0014480703889788841
1.20183e-05;-0.0013860590963522077
1.20185e-05;-0.001323740052602585
1.20188e-05;-0.0012614877637336383
1.20190e-05;-0.0011996770905727213
1.20193e-05;-0.001138682664607187
1.20195e-05;-0.0010788513308726373
1.20198e-05;-0.0010204029388478353
1.20200e-05;-0.0009634783440485722
1.20203e-05;-0.0009083437420482305
1.20205e-05;-0.0008553825380470731
1.20208e-05;-0.0008049908981905998
1.20210e-05;-0.0007575652183942547
1.20213e-05;-0.0007135017234422094
1.20215e-05;-0.0006731088339504433
1.20218e-05;-0.0006362589645887579
1.20220e-05;-0.0006024679018635387
1.20222e-05;-0.000571529570834726
1.20225e-05;-0.0005435614302893098
1.20228e-05;-0.0005187184998981518
1.20230e-05;-0.0004971565468526518
1.20233e-05;-0.0004790313066219324
1.20235e-05;-0.0004644433783320511
1.20238e-05;-0.00045322032704433346
1.20240e-05;-0.00044496632208552273
1.20243e-05;-0.0004394597354457147
1.20245e-05;-0.00043668175233027806
1.20248e-05;-0.00043663693184010184
1.20250e-05;-0.00043933033891431316
1.20253e-05;-0.0004447670376194119
1.20255e-05;-0.000452917508841232
1.20258e-05;-0.00046463011363498315
1.20260e-05;-0.0004764503142328505
1.20263e-05;-0.0004920857595524516
1.20265e-05;-0.0005078391391097333
1.20268e-05;-0.0005269780285512461
1.20270e-05;-0.0005462215685605994
1.20273e-05;-0.0005684934941805167
1.20275e-05;-0.0005908590311869247
1.20278e-05;-0.0006137375285136889
1.20280e-05;-0.0006366318821194957
1.20283e-05;-0.0006566736758893448
1.20285e-05;-0.0006750654560346398
1.20288e-05;-0.0007089231914634357
1.20290e-05;-0.0007320020747197312
1.20293e-05;-0.000768049312371784
1.20295e-05;-0.0007923028182057672
1.20298e-05;-0.0008216150553433965
1.20300e-05;-0.000845463083903246
1.20303e-05;-0.0008716910741966871
1.20305e-05;-0.0008940893701295153
1.20307e-05;-0.0009176658933489664
1.20310e-05;-0.0009402146313198031
1.20313e-05;-0.0009622512635856929
1.20315e-05;-0.0009816051109528422
1.20318e-05;-0.000999091302289477
1.20320e-05;-0.0010164155319918305
1.20323e-05;-0.001033789291914839
1.20325e-05;-0.0010513745829762704
1.20328e-05;-0.0010690513034016533
1.20330e-05;-0.0010870355477531621
1.20333e-05;-0.0011046655422981746
1.20335e-05;-0.0011220137170660917
1.20338e-05;-0.0011383153639975367
1.20340e-05;-0.001155287747792107
1.20343e-05;-0.0011722601315867923
1.20345e-05;-0.0011894580757486344
1.20348e-05;-0.0012076193316148006
1.20350e-05;-0.0012258196079447737
1.20353e-05;-0.0012441865308796239
1.20355e-05;-0.0012625534538143494
1.20358e-05;-0.0012810236576585687
1.20360e-05;-0.0012999349483395583
1.20363e-05;-0.0013188462390204198
1.20365e-05;-0.0013377575297014094
1.20368e-05;-0.0013567815527106798
1.20370e-05;-0.0013762870271941418
1.20373e-05;-0.0013957925016777361
1.20375e-05;-0.0014152979761613304
1.20378e-05;-0.0014347185049359524
1.20380e-05;-0.0014537762519125665
1.20383e-05;-0.0014728339988891804
1.20385e-05;-0.0014918917458656652
1.20388e-05;-0.0015109494928422793
1.20390e-05;-0.0015296745160062943
1.20392e-05;-0.0015469785592917256
1.20395e-05;-0.0015642826025772743
1.20398e-05;-0.0015815866458628231
1.20400e-05;-0.0015988906891482545
1.20403e-05;-0.0016157194720210716
1.20405e-05;-0.001630518536977677
1.20408e-05;-0.0016453176019342825
1.20410e-05;-0.001659693037177629
1.20413e-05;-0.001672259256261594
1.20415e-05;-0.0016845576035436198
1.20418e-05;-0.001695746901412312
1.20420e-05;-0.0017070855209276117
1.20423e-05;-0.001718571313852118
1.20425e-05;-0.0017306856474617759
1.20428e-05;-0.0017427999810715159
1.20430e-05;-0.0017549446254829407
1.20433e-05;-0.0017672187197192513
1.20435e-05;-0.001779492813955645
1.20438e-05;-0.0017920566240912518
1.20440e-05;-0.0018058577381039561
1.20443e-05;-0.0018196588521167537
1.20445e-05;-0.0018334599661295513
1.20448e-05;-0.0018472610801422555
1.20450e-05;-0.0018622839050211404
1.20453e-05;-0.0018778563169606422
1.20455e-05;-0.0018934287289000386
1.20458e-05;-0.0019090011408395403
1.20460e-05;-0.0019249570282262936
1.20463e-05;-0.0019425506429832354
1.20465e-05;-0.0019601442577402966
1.20468e-05;-0.0019777378724973576
1.20470e-05;-0.0019953314872542993
1.20473e-05;-0.0020129251020113603
1.20475e-05;-0.0020305187167684213
1.20477e-05;-0.002048112331525363
1.20480e-05;-0.002065705946282424
1.20483e-05;-0.0020828985219965165
1.20485e-05;-0.002099910690156657
1.20488e-05;-0.0021169228583169135
1.20490e-05;-0.0021339350264771694
1.20493e-05;-0.002150947194637426
1.20495e-05;-0.002167959362797567
1.20498e-05;-0.002184971530957823
1.20500e-05;-0.002201983699118079
1.20503e-05;-0.002218522952251092
1.20505e-05;-0.002233042504019991
1.20508e-05;-0.0022473380488780966
1.20510e-05;-0.0022604989831386704
1.20513e-05;-0.002272690181859423
1.20515e-05;-0.002283684966445953
1.20518e-05;-0.002292692289297029
1.20520e-05;-0.0022986888425243547
1.20523e-05;-0.002303642842586336
1.20525e-05;-0.0023041443597927647
1.20528e-05;-0.0023034052176761103
1.20530e-05;-0.0022973675310350656
1.20533e-05;-0.0022913298443940616
1.20535e-05;-0.0022837125210359984
1.20538e-05;-0.0022693489657983476
1.20540e-05;-0.0022549854105607943
1.20543e-05;-0.0022391832370893547
1.20545e-05;-0.0022172370862798283
1.20548e-05;-0.002194512145914741
1.20550e-05;-0.0021679866725701643
1.20553e-05;-0.0021389895524085824
1.20555e-05;-0.002107652924275909
1.20558e-05;-0.0020739902524447235
1.20560e-05;-0.0020379513793375883
1.20562e-05;-0.0019996235957675853
1.20565e-05;-0.0019592298431449708
1.20568e-05;-0.0019170168980320859
1.20570e-05;-0.0018732329376414496
1.20573e-05;-0.0018281215460385452
1.20575e-05;-0.0017819012414557486
1.20578e-05;-0.0017347163860457818
1.20580e-05;-0.001686671392180237
1.20583e-05;-0.0016379568228429393
1.20585e-05;-0.0015888481862218866
1.20588e-05;-0.001539635926585275
1.20590e-05;-0.0014906111885253654
1.20593e-05;-0.0014420624666694765
1.20595e-05;-0.0013942624023371398
1.20598e-05;-0.0013474371673602365
1.20600e-05;-0.001301787882939336
1.20603e-05;-0.0012575696456046128
1.20605e-05;-0.0012150906256137778
1.20608e-05;-0.0011746686087286183
1.20610e-05;-0.0011366216034145462
1.20613e-05;-0.0011012680621910998
1.20615e-05;-0.0010689411373407426
1.20618e-05;-0.0010400137462053722
1.20620e-05;-0.001014813589565732
1.20623e-05;-0.0009935024953604105
1.20625e-05;-0.0009765109725478542
1.20628e-05;-0.0009643564853533196
1.20630e-05;-0.000953734629941209
1.20633e-05;-0.0009496582601359613
1.20635e-05;-0.0009471549690323794
1.20638e-05;-0.0009513699021744597
1.20640e-05;-0.00095715661640373
1.20643e-05;-0.0009696560130930084
1.20645e-05;-0.00098363184105358
1.20647e-05;-0.001003913136345522
1.20650e-05;-0.0010255632437338933
1.20653e-05;-0.0010530592039732143
1.20655e-05;-0.0010818248385627168
1.20658e-05;-0.0011160129335772591
1.20660e-05;-0.001151345458297414
1.20663e-05;-0.001191565555004758
1.20665e-05;-0.0012327459085102052
1.20668e-05;-0.001278027277749297
1.20670e-05;-0.0013240770556279943
1.20673e-05;-0.0013734085139131109
1.20675e-05;-0.0014233219219207693
1.20678e-05;-0.0014757206911057163
1.20680e-05;-0.0015284985735439318
1.20683e-05;-0.0015828955535203773
1.20685e-05;-0.0016374319249002204
1.20688e-05;-0.001692563601972342
1.20690e-05;-0.0017475902330117941
1.20693e-05;-0.0018021682388136805
1.20695e-05;-0.0018564000852474907
1.20698e-05;-0.0019091535719180444
1.20700e-05;-0.0019613096147974504
1.20703e-05;-0.00201091412521991
1.20705e-05;-0.0020596468485428463
1.20708e-05;-0.0021046563880054723
1.20710e-05;-0.002148195172570072
1.20713e-05;-0.002185452732167564
1.20715e-05;-0.0022227102917650563
1.20718e-05;-0.0022581361130019554
1.20720e-05;-0.0022857390395194816
1.20723e-05;-0.0023133419660370078
1.20725e-05;-0.0023391066753246396
1.20728e-05;-0.0023570208202677973
1.20730e-05;-0.0023749349652109554
1.20732e-05;-0.002390872583786679
1.20735e-05;-0.0023983689544102055
1.20738e-05;-0.0024058653250337314
1.20740e-05;-0.0024115913298601585
1.20743e-05;-0.002409756546777943
1.20745e-05;-0.002407921763695728
1.20748e-05;-0.002404701120992462
1.20750e-05;-0.0023955618197371476
1.20753e-05;-0.002385355802079101
1.20755e-05;-0.002370594106440802
1.20758e-05;-0.0023551189547557664
1.20760e-05;-0.0023361834300726202
1.20763e-05;-0.0023150967733929846
1.20765e-05;-0.0022920014797759257
1.20768e-05;-0.002267025140413845
1.20770e-05;-0.002240295390673727
1.20773e-05;-0.0022119411589318835
1.20775e-05;-0.0021821086354245527
1.20778e-05;-0.002151012828912048
1.20780e-05;-0.0021189291963773812
1.20783e-05;-0.0020861026073840635
1.20785e-05;-0.0020527297789447226
1.20788e-05;-0.002018998372558373
1.20790e-05;-0.0019850960055492316
1.20793e-05;-0.0019512107912843682
1.20795e-05;-0.001917541762820994
1.20798e-05;-0.0018843314649595404
1.20800e-05;-0.0018518595884562314
1.20803e-05;-0.0018203870075173129
1.20805e-05;-0.001790144745794428
1.20808e-05;-0.0017613576012742399
1.20810e-05;-0.0017342503719433694
1.20813e-05;-0.0017090335875504525
1.20815e-05;-0.0016857191069100058
1.20817e-05;-0.0016635926020190472
1.20820e-05;-0.0016414588854359066
1.20823e-05;-0.001618736585605219
1.20825e-05;-0.0015955185122197878
1.20828e-05;-0.0015720283429848639
1.20830e-05;-0.0015484924245404688
1.20833e-05;-0.0015250179081086293
1.20835e-05;-0.0015018024437231684
1.20838e-05;-0.0014784291234246636
1.20840e-05;-0.0014541241483510647
1.20843e-05;-0.001428471741148369
1.20845e-05;-0.0014025058523756653
1.20848e-05;-0.001375201162510106
1.20850e-05;-0.0013477371255873453
1.20853e-05;-0.0013195925573824656
1.20855e-05;-0.001291290828738632
1.20858e-05;-0.001262317907311489
1.20860e-05;-0.0012330314380531735
1.20863e-05;-0.001202405884717179
1.20865e-05;-0.00117160232076265
1.20868e-05;-0.0011399710642748119
1.20870e-05;-0.0011080227289566467
1.20873e-05;-0.001075956415780783
1.20875e-05;-0.0010439221292589415
1.20878e-05;-0.0010118915095234506
1.20880e-05;-0.0009797179284531951
1.20883e-05;-0.000947405954217471
1.20885e-05;-0.0009151256059840534
1.20888e-05;-0.0008830766885660187
1.20890e-05;-0.0008514589345345815
1.20893e-05;-0.0008204699289538063
1.20895e-05;-0.0007902765010830235
1.20898e-05;-0.0007609337826696888
1.20900e-05;-0.0007324228956031432
1.20902e-05;-0.0007048194954906948
1.20905e-05;-0.0006784400748330064
1.20908e-05;-0.0006536568535267271
1.20910e-05;-0.000629493124413773
1.20913e-05;-0.0006079750909502651
1.20915e-05;-0.0005869197260685922
1.20918e-05;-0.0005680016816254427
1.20920e-05;-0.0005498601788798991
1.20923e-05;-0.000532249191542393
1.20925e-05;-0.0005153110241510481
1.20928e-05;-0.0004987593710170303
1.20930e-05;-0.0004838584232512727
1.20933e-05;-0.0004689574754855151
1.20935e-05;-0.0004544461028747437
1.20938e-05;-0.0004415985079579232
1.20940e-05;-0.00042888113831658696
1.20943e-05;-0.00041671992813734044
1.20945e-05;-0.0004045587179580115
1.20948e-05;-0.00039263638111762734
1.20950e-05;-0.00038173421234520745
1.20953e-05;-0.00037083204357271366
1.20955e-05;-0.00036025941034572445
1.20958e-05;-0.00035109414071265234
1.20960e-05;-0.0003419288710795181
1.20963e-05;-0.00033276360144638393
1.20965e-05;-0.0003235983318133118
1.20968e-05;-0.0003144330621801776
1.20970e-05;-0.0003052677925470434
1.20973e-05;-0.0002961025229139713
1.20975e-05;-0.00028816157773925075
1.20978e-05;-0.0002807713953515461
1.20980e-05;-0.00027338121296389153
1.20983e-05;-0.0002659910305761869
1.20985e-05;-0.00025860084818848223
1.20987e-05;-0.00025121066580082764
1.20990e-05;-0.00024382048341312301
1.20993e-05;-0.00023668503323781865
1.20995e-05;-0.0002306374803983172
1.20998e-05;-0.00022458992755877477
1.21000e-05;-0.00021867120390875352
1.21003e-05;-0.00021330267738823555
1.21005e-05;-0.00020793415086775398
1.21008e-05;-0.0002026642991851078
1.21010e-05;-0.0001978784687224849
1.21013e-05;-0.00019343677529176697
1.21015e-05;-0.000189475966477729
1.21018e-05;-0.00018645501071239208
1.21020e-05;-0.00018501633665630847
1.21023e-05;-0.0001854736486477251
1.21025e-05;-0.00018780924047087945
1.21028e-05;-0.00019194774223497748
1.21030e-05;-0.0001978137632282053
1.21033e-05;-0.00020533608241766566
1.21035e-05;-0.00021450016174007485
1.21038e-05;-0.00022549332580954138
1.21040e-05;-0.00023861773592129173
1.21043e-05;-0.0002539696605881838
1.21045e-05;-0.0002714377667104062
1.21048e-05;-0.000290874609508506
1.21050e-05;-0.0003121326947963269
1.21053e-05;-0.00033521551066082237
1.21055e-05;-0.0003602020949824181
1.21058e-05;-0.00038581269658203335
1.21060e-05;-0.0004140883193354598
1.21063e-05;-0.00044293044743711304
1.21065e-05;-0.00047419197767603627
1.21068e-05;-0.0005059523587737698
1.21070e-05;-0.0005398432066665807
1.21072e-05;-0.0005737340545591619
1.21075e-05;-0.0006080050942895263
1.21078e-05;-0.0006438998379220515
1.21080e-05;-0.0006797945815543334
1.21083e-05;-0.0007158466586409296
1.21085e-05;-0.0007525706674159354
1.21088e-05;-0.0007892946761909411
1.21090e-05;-0.0008258798494200715
1.21093e-05;-0.0008618720908846267
1.21095e-05;-0.0008975850470623369
1.21098e-05;-0.0009321052458859872
1.21100e-05;-0.0009660929681509203
1.21103e-05;-0.0009978066166949238
1.21105e-05;-0.0010295202652387126
1.21108e-05;-0.001060447544687686
1.21110e-05;-0.0010880164391261315
1.21113e-05;-0.001114990882570156
1.21115e-05;-0.001139112894683971
1.21118e-05;-0.0011618019610304937
1.21120e-05;-0.0011841327611299259
1.21123e-05;-0.0012066351443471414
1.21125e-05;-0.0012290761785608076
1.21128e-05;-0.0012512552065799664
1.21130e-05;-0.0012734342345992755
1.21133e-05;-0.0012947652540664795
1.21135e-05;-0.001315714796588768
1.21138e-05;-0.0013368064925005508
1.21140e-05;-0.0013585052898550255
1.21143e-05;-0.0013802040872093531
1.21145e-05;-0.0014019028845638278
1.21148e-05;-0.0014237645849913257
1.21150e-05;-0.001446322003551782
1.21153e-05;-0.0014688794221123912
1.21155e-05;-0.0014914368406730005
1.21158e-05;-0.0015142132579040119
1.21160e-05;-0.0015379249634843656
1.21163e-05;-0.0015616366690647194
1.21165e-05;-0.0015853483746449124
1.21168e-05;-0.0016090600802252661
1.21170e-05;-0.0016327717858056199
1.21173e-05;-0.0016564834913859736
1.21175e-05;-0.0016801951969661667
1.21178e-05;-0.0017035486168188497
1.21180e-05;-0.0017267408617111688
1.21183e-05;-0.0017499331066033307
1.21185e-05;-0.0017731253514956496
1.21188e-05;-0.0017963175963879687
1.21190e-05;-0.0018195098412801306
1.21193e-05;-0.0018427020861724497
1.21195e-05;-0.0018653973384640027
1.21198e-05;-0.0018859700601115829
1.21200e-05;-0.0019065427817593023
1.21203e-05;-0.001926664581457732
1.21205e-05;-0.001944860606700017
1.21208e-05;-0.001963056631942425
1.21210e-05;-0.001980588617243403
1.21213e-05;-0.0019952846546400916
1.21215e-05;-0.0020099806920368802
1.21218e-05;-0.0020240912801416165
1.21220e-05;-0.0020357015612778384
1.21223e-05;-0.0020473118424141393
1.21225e-05;-0.00205892212355044
1.21228e-05;-0.0020705324046866626
1.21230e-05;-0.0020798223469704414
1.21233e-05;-0.0020880684840066588
1.21235e-05;-0.0020963146210428206
1.21238e-05;-0.002104560758079038
1.21240e-05;-0.002111941314888724
1.21243e-05;-0.002115625195826021
1.21245e-05;-0.0021193090767633433
1.21248e-05;-0.0021229929577006655
1.21250e-05;-0.0021266768386379625
1.21253e-05;-0.0021303607195752848
1.21255e-05;-0.0021340446005126065
1.21258e-05;-0.0021377284814499287
1.21260e-05;-0.002141412362387226
1.21263e-05;-0.002145096243324548
1.21265e-05;-0.0021487801242618698
1.21268e-05;-0.0021524640051991673
1.21270e-05;-0.002156147886136489
1.21273e-05;-0.0021598317670738112
1.21275e-05;-0.0021609920267294525
1.21278e-05;-0.0021610170344652526
1.21280e-05;-0.0021610420422010523
1.21283e-05;-0.002161067049936852
1.21285e-05;-0.002161092057672652
1.21288e-05;-0.002161117065408452
1.21290e-05;-0.0021611420731442515
1.21293e-05;-0.0021611670808800517
1.21295e-05;-0.0021611920886158513
1.21298e-05;-0.002161217096351651
1.21300e-05;-0.002161242104087451
1.21303e-05;-0.002161267111823251
1.21305e-05;-0.0021612921195590506
1.21308e-05;-0.0021612227533997458
1.21310e-05;-0.002160750958461307
1.21313e-05;-0.0021602716446691254
1.21315e-05;-0.0021596261358492568
1.21318e-05;-0.002158124723520089
1.21320e-05;-0.002154760646704302
1.21323e-05;-0.002149043070863341
1.21325e-05;-0.002140815514444881
1.21328e-05;-0.002129961764745064
1.21330e-05;-0.0021183691588869892
1.21333e-05;-0.002103621083841344
1.21335e-05;-0.002088053954541555
1.21338e-05;-0.0020689888501166016
1.21340e-05;-0.0020488667917698353
1.21343e-05;-0.0020242307485341757
1.21345e-05;-0.001998637617995316
1.21348e-05;-0.001968957007826591
1.21350e-05;-0.001938661460920851
1.21353e-05;-0.0019053803171876532
1.21355e-05;-0.0018702019818933775
1.21358e-05;-0.0018330723820493876
1.21360e-05;-0.0017938131248734991
1.21363e-05;-0.0017524484563290186
1.21365e-05;-0.0017092107406161427
1.21368e-05;-0.0016643690857851372
1.21370e-05;-0.001618192477489972
1.21373e-05;-0.0015709474234884807
1.21375e-05;-0.0015228636600461425
1.21378e-05;-0.0014740406050088094
1.21380e-05;-0.0014244996492534764
1.21383e-05;-0.0013743891790694606
1.21385e-05;-0.001323987688062415
1.21388e-05;-0.0012735971134033883
1.21390e-05;-0.0012235191152586726
1.21393e-05;-0.0011740533862125307
1.21395e-05;-0.0011254771012319841
1.21398e-05;-0.0010779855414923564
1.21400e-05;-0.0010317252952772317
1.21403e-05;-0.0009869220967917746
1.21405e-05;-0.0009438836129198545
1.21408e-05;-0.0009029318153104853
1.21410e-05;-0.0008643885672517343
1.21413e-05;-0.0008285774196178385
1.21415e-05;-0.0007958393710049414
1.21418e-05;-0.0007665596479623272
1.21420e-05;-0.0007410804053876709
1.21423e-05;-0.0007195710726981076
1.21425e-05;-0.0007020824918069767
1.21427e-05;-0.000688648681065386
1.21430e-05;-0.0006793035062882928
