Time(s);Current(A)
1.47500e-05;-0.002795144143919331
1.47503e-05;-0.002771777260522229
1.47505e-05;-0.0027484103771252847
1.47508e-05;-0.0027250434937281824
1.47510e-05;-0.00270167661033108
1.47513e-05;-0.0026765070754603566
1.47515e-05;-0.0026497653894937056
1.47518e-05;-0.002623023703527055
1.47520e-05;-0.002596282017560586
1.47523e-05;-0.002569540331593935
1.47525e-05;-0.0025427986456272845
1.47528e-05;-0.0025156936228279215
1.47530e-05;-0.002488271722135836
1.47533e-05;-0.0024608498214437505
1.47535e-05;-0.0024334279207518512
1.47538e-05;-0.0024060060200597655
1.47540e-05;-0.0023785841193676802
1.47543e-05;-0.002352033737899664
1.47545e-05;-0.0023262434367480904
1.47548e-05;-0.0023012285609441234
1.47550e-05;-0.0022768899588558964
1.47553e-05;-0.0022536142553614483
1.47555e-05;-0.0022312655403690443
1.47558e-05;-0.002210345548134303
1.47560e-05;-0.0021906715915761947
1.47563e-05;-0.0021727475965362735
1.47565e-05;-0.00215634979996513
1.47568e-05;-0.002142294488541708
1.47570e-05;-0.002130282134753888
1.47573e-05;-0.0021182697809660686
1.47575e-05;-0.0021092060333636436
1.47578e-05;-0.002102713861306199
1.47580e-05;-0.0020962216892487545
1.47583e-05;-0.002094008340300839
1.47585e-05;-0.002095526692427374
1.47588e-05;-0.0020970450445539092
1.47590e-05;-0.002098563396680434
1.47593e-05;-0.0021000817488069693
1.47595e-05;-0.0021019155819531356
1.47598e-05;-0.002112671976694299
1.47600e-05;-0.0021234283714355357
1.47603e-05;-0.0021341847661767725
1.47605e-05;-0.002144941160917936
1.47608e-05;-0.0021556975556591726
1.47610e-05;-0.002168720228364799
1.47613e-05;-0.002183719395937819
1.47615e-05;-0.002192283183854201
1.47618e-05;-0.002209923544826981
1.47620e-05;-0.0022285274272820796
1.47623e-05;-0.0022541882314319737
1.47625e-05;-0.002275869053787843
1.47628e-05;-0.0022993156708453833
1.47630e-05;-0.0023214657183674727
1.47633e-05;-0.0023433263039154563
1.47635e-05;-0.0023653088007399505
1.47638e-05;-0.002387411514098798
1.47640e-05;-0.002409501205000137
1.47643e-05;-0.0024313094891569038
1.47645e-05;-0.002452878572930443
1.47648e-05;-0.002474389241024796
1.47650e-05;-0.002494880114406735
1.47653e-05;-0.002514417865038306
1.47655e-05;-0.002533254416407538
1.47658e-05;-0.0025507603828216503
1.47660e-05;-0.0025670525159675263
1.47663e-05;-0.0025820578493709165
1.47665e-05;-0.0025964162254294098
1.47668e-05;-0.002611234933212717
1.47670e-05;-0.002626709725876504
1.47673e-05;-0.002642874620751666
1.47675e-05;-0.0026595369129339985
1.47678e-05;-0.0026765546074822718
1.47680e-05;-0.002693957766772824
1.47683e-05;-0.0027117001890067482
1.47685e-05;-0.002729810571377399
1.47688e-05;-0.002748787959048081
1.47690e-05;-0.002769685670546303
1.47693e-05;-0.002791646256855736
1.47695e-05;-0.002813606843165169
1.47698e-05;-0.0028365286465581057
1.47700e-05;-0.002860492973386824
1.47703e-05;-0.00288502033708734
1.47705e-05;-0.002910158363190547
1.47708e-05;-0.002936014565664805
1.47710e-05;-0.0029632044645073693
1.47713e-05;-0.002990996061456281
1.47715e-05;-0.0030192442532738293
1.47718e-05;-0.003048172399641842
1.47720e-05;-0.0030774083573734744
1.47723e-05;-0.0031067867633865634
1.47725e-05;-0.0031363172512495117
1.47728e-05;-0.003166124051767356
1.47730e-05;-0.003196107707442564
1.47733e-05;-0.003226097553607861
1.47735e-05;-0.0032559584842555907
1.47738e-05;-0.0032855011814100846
1.47740e-05;-0.0033145427373887253
1.47743e-05;-0.0033429064543083753
1.47745e-05;-0.003370525264744232
1.47748e-05;-0.0033974039955861745
1.47750e-05;-0.003423407023105916
1.47753e-05;-0.0034483545356937487
1.47755e-05;-0.0034720887948988415
1.47758e-05;-0.0034944182188918365
1.47760e-05;-0.003515155171156474
1.47763e-05;-0.0035339935911126077
1.47765e-05;-0.0035503311316406176
1.47768e-05;-0.003563398831432666
1.47770e-05;-0.0035726791396223207
1.47773e-05;-0.0035771883470937875
1.47775e-05;-0.003578735157474897
1.47778e-05;-0.003575858928451301
1.47780e-05;-0.003568185528928383
1.47783e-05;-0.003560512129405517
1.47785e-05;-0.0035460790483681785
1.47788e-05;-0.003524314505460702
1.47790e-05;-0.003502549962553373
1.47793e-05;-0.0034807854196458967
1.47795e-05;-0.003451702681858273
1.47798e-05;-0.0034146827259328807
1.47800e-05;-0.0033776627700072373
1.47803e-05;-0.003340642814081594
1.47805e-05;-0.0032981299630652806
1.47808e-05;-0.0032496595901102764
1.47810e-05;-0.0032011892171552717
1.47813e-05;-0.00314934784568764
1.47815e-05;-0.0030938503334663036
1.47818e-05;-0.003036368956750783
1.47820e-05;-0.002976735906637271
1.47823e-05;-0.002915661142589644
1.47825e-05;-0.0028530227145274435
1.47828e-05;-0.002789534425811261
1.47830e-05;-0.002724734139266943
1.47833e-05;-0.0026593101063185653
1.47835e-05;-0.0025936527684209485
1.47838e-05;-0.0025281473297030068
1.47840e-05;-0.002463179469401245
1.47843e-05;-0.0023991165587944822
1.47845e-05;-0.0023362805155405578
1.47848e-05;-0.002274967312944757
1.47850e-05;-0.0022155119346715766
1.47853e-05;-0.002158316062913909
1.47855e-05;-0.0021038070647213455
1.47858e-05;-0.0020524089341440116
1.47860e-05;-0.002004546093102691
1.47863e-05;-0.0019604947497314654
1.47865e-05;-0.0019206849620070844
1.47868e-05;-0.0018832910218603254
1.47870e-05;-0.0018483980499479288
1.47873e-05;-0.001816217595365953
1.47875e-05;-0.0017868427196730463
1.47878e-05;-0.0017605107380290119
1.47880e-05;-0.0017380461119413065
1.47883e-05;-0.0017197759689441257
1.47885e-05;-0.0017015058259468212
1.47888e-05;-0.001686954526035981
1.47890e-05;-0.0016764366345396325
1.47893e-05;-0.0016659187430432126
1.47895e-05;-0.0016588307859428718
1.47898e-05;-0.0016554628906824262
1.47900e-05;-0.0016520949954219578
1.47903e-05;-0.0016515807343199054
1.47905e-05;-0.0016541614873818171
1.47908e-05;-0.0016584454521110241
1.47910e-05;-0.001664576697865704
1.47913e-05;-0.0016721744251449527
1.47915e-05;-0.001681362679043064
1.47918e-05;-0.0016919511255581755
1.47920e-05;-0.001704058202612855
1.47923e-05;-0.0017173867379551074
1.47925e-05;-0.0017320400509287855
1.47928e-05;-0.0017472952694174758
1.47930e-05;-0.0017634751638504092
1.47933e-05;-0.0017801788785325714
1.47935e-05;-0.0017973164480391721
1.47938e-05;-0.001814797357095462
1.47940e-05;-0.0018325311509966196
1.47943e-05;-0.0018504044224333977
1.47945e-05;-0.001868230004970351
1.47948e-05;-0.0018857582958667065
1.47950e-05;-0.0019023998544957595
1.47953e-05;-0.0019183237242917487
1.47955e-05;-0.001934247594087846
1.47958e-05;-0.0019493095963934387
1.47960e-05;-0.001962905735426241
1.47963e-05;-0.0019755419741508164
1.47965e-05;-0.0019879497227620474
1.47968e-05;-0.0020013211763992137
1.47970e-05;-0.002016405701731482
1.47973e-05;-0.002033246145100491
1.47975e-05;-0.0020519391284348166
1.47978e-05;-0.002071709826125363
1.47980e-05;-0.0020922799557556524
1.47983e-05;-0.0021142501306349953
1.47985e-05;-0.0021376303715021517
1.47988e-05;-0.0021636195681557957
1.47990e-05;-0.0021914597102939094
1.47993e-05;-0.0022213629620479354
1.47995e-05;-0.00225350383542049
1.47998e-05;-0.002286891185977436
1.48000e-05;-0.0023223008217397967
1.48003e-05;-0.002359068926690716
1.48005e-05;-0.0023972807749677518
1.48008e-05;-0.0024372023708571825
1.48010e-05;-0.002478925824422053
1.48013e-05;-0.0025222660512738346
1.48015e-05;-0.0025669419131338256
1.48018e-05;-0.0026126719272020925
1.48020e-05;-0.0026591748151655304
1.48023e-05;-0.0027062204912103767
1.48025e-05;-0.0027537381865579517
1.48028e-05;-0.0028017702763850827
1.48030e-05;-0.002850250460035221
1.48033e-05;-0.0028989388344094146
1.48035e-05;-0.0029475352713600293
1.48038e-05;-0.0029957395499432033
1.48040e-05;-0.0030432511974901382
1.48043e-05;-0.0030898021413148387
1.48045e-05;-0.003135224322398014
1.48048e-05;-0.0031794202963920915
1.48050e-05;-0.003222224608270294
1.48053e-05;-0.0032633629486899306
1.48055e-05;-0.0033025232034499252
1.48058e-05;-0.0033393936028705043
1.48060e-05;-0.0033729789558544767
1.48063e-05;-0.00340438501571566
1.48065e-05;-0.0034339395655156404
1.48068e-05;-0.003460113470750351
1.48070e-05;-0.0034847987576671433
1.48073e-05;-0.0035075685352909895
1.48075e-05;-0.003528260776668978
1.48078e-05;-0.003546174710501344
1.48080e-05;-0.0035610753284236896
1.48083e-05;-0.0035759759463460357
1.48085e-05;-0.00358826564505649
1.48088e-05;-0.003597723575047676
1.48090e-05;-0.003605139318965235
1.48093e-05;-0.0036103401346627225
1.48095e-05;-0.0036155409503602453
1.48098e-05;-0.0036181893173482947
1.48100e-05;-0.0036180693319565987
1.48103e-05;-0.0036179493465649023
1.48105e-05;-0.0036156504833139737
1.48108e-05;-0.003610988437725899
1.48110e-05;-0.0036063263921377923
1.48113e-05;-0.0036000431443697295
1.48115e-05;-0.003592001561989052
1.48118e-05;-0.0035839599796083205
1.48120e-05;-0.003574471843329338
1.48123e-05;-0.0035634147936725053
1.48125e-05;-0.0035523577440155973
1.48128e-05;-0.0035404567905853025
1.48130e-05;-0.0035276405501952477
1.48133e-05;-0.0035148243098051058
1.48135e-05;-0.003501597714829437
1.48138e-05;-0.0034879260546546035
1.48140e-05;-0.0034742543944796776
1.48143e-05;-0.0034605608055394755
1.48145e-05;-0.0034468434329482716
1.48148e-05;-0.0034331260603569745
1.48150e-05;-0.0034200065351558256
1.48153e-05;-0.0034075354273898776
1.48155e-05;-0.0033950643196238453
1.48158e-05;-0.003383216673832858
1.48160e-05;-0.0033724294454933576
1.48163e-05;-0.0033622440086164117
1.48165e-05;-0.003351751996483029
1.48168e-05;-0.0033395191389450182
1.48170e-05;-0.0033246467100336973
1.48173e-05;-0.003306508583698407
1.48175e-05;-0.0032864144842438252
1.48178e-05;-0.0032642805628528403
1.48180e-05;-0.003239934277353208
1.48183e-05;-0.003213527562834559
1.48185e-05;-0.003184886134036316
1.48188e-05;-0.0031523257109780296
1.48190e-05;-0.0031155147981652797
1.48193e-05;-0.0030787038853527797
1.48195e-05;-0.0030377978407785207
1.48198e-05;-0.0029924502700264164
1.48200e-05;-0.0029471026992746196
1.48203e-05;-0.0028984429169731808
1.48205e-05;-0.002846190753483521
1.48208e-05;-0.0027939385899942155
1.48210e-05;-0.0027387271973382137
1.48213e-05;-0.0026803062635551594
1.48215e-05;-0.0026201758913047503
1.48218e-05;-0.0025581914845205734
1.48220e-05;-0.0024951746573197583
1.48223e-05;-0.0024310380804814014
1.48225e-05;-0.0023663208753594038
1.48228e-05;-0.002300583454921821
1.48230e-05;-0.002234159498560466
1.48233e-05;-0.002167380117260151
1.48235e-05;-0.0021006472978514104
1.48238e-05;-0.0020343630177171415
1.48240e-05;-0.0019689293753780346
1.48243e-05;-0.001904710996856561
1.48245e-05;-0.0018419559716168635
1.48248e-05;-0.0017808314712201717
1.48250e-05;-0.0017215871578085923
1.48253e-05;-0.0016646015660277964
1.48255e-05;-0.0016102977491576605
1.48258e-05;-0.0015590987046312137
1.48260e-05;-0.0015114273693130308
1.48263e-05;-0.001467627714174314
1.48265e-05;-0.0014277720426138125
1.48268e-05;-0.0013916679626315015
1.48270e-05;-0.001359172431475653
1.48273e-05;-0.0013303429563058405
1.48275e-05;-0.0013053160970186166
1.48278e-05;-0.0012842282923712916
1.48280e-05;-0.0012672160369665124
1.48283e-05;-0.0012543664624864173
1.48285e-05;-0.0012464786301116836
1.48288e-05;-0.0012416134009818759
1.48290e-05;-0.001240167886473522
1.48293e-05;-0.0012424313495757954
1.48295e-05;-0.0012480093139028397
1.48298e-05;-0.0012571821427709022
1.48300e-05;-0.0012687893438126983
1.48303e-05;-0.0012846012400242219
1.48305e-05;-0.0013035497426192061
1.48308e-05;-0.0013253505057617006
1.48310e-05;-0.0013497385357336324
1.48313e-05;-0.0013765274670300232
1.48315e-05;-0.001405562052733285
1.48318e-05;-0.0014366870600978836
1.48320e-05;-0.0014697471863604947
1.48323e-05;-0.0015045678155751984
1.48325e-05;-0.0015409074600698696
1.48328e-05;-0.0015784596075425997
1.48330e-05;-0.0016169300171592492
1.48333e-05;-0.0016560736937642833
1.48335e-05;-0.001695665080309495
1.48338e-05;-0.001735478680316506
1.48340e-05;-0.0017752889973066677
1.48343e-05;-0.0018148584162739673
1.48345e-05;-0.001853907473898413
1.48348e-05;-0.001892115912786026
1.48350e-05;-0.0019291713144146579
1.48353e-05;-0.0019647921286934313
1.48355e-05;-0.001998708849428276
1.48358e-05;-0.002030652091564945
1.48360e-05;-0.0020603526934315024
1.48363e-05;-0.0020870430889151346
1.48365e-05;-0.002111813126186217
1.48368e-05;-0.002134010591662922
1.48370e-05;-0.0021534178795237007
1.48373e-05;-0.0021728251673846107
1.48375e-05;-0.002188382653873461
1.48378e-05;-0.0021997646963037446
1.48380e-05;-0.002211146738734105
1.48383e-05;-0.0022225287811644657
1.48385e-05;-0.0022295955385725572
1.48388e-05;-0.002231981994462353
1.48390e-05;-0.002234368450352148
1.48393e-05;-0.002236754906241927
1.48395e-05;-0.002235813020468575
1.48398e-05;-0.0022312612589953356
1.48400e-05;-0.0022267094975221276
1.48403e-05;-0.002219517199974427
1.48405e-05;-0.0022094610116443728
1.48408e-05;-0.002199404823314387
1.48410e-05;-0.0021873135040915916
1.48413e-05;-0.00217301490860352
1.48415e-05;-0.0021587163131155454
1.48418e-05;-0.0021427510942366563
1.48420e-05;-0.0021249782774941965
1.48423e-05;-0.0021072054607517367
1.48425e-05;-0.002088297225411183
1.48428e-05;-0.0020681575299555527
1.48430e-05;-0.002048017834499922
1.48433e-05;-0.002027388744104817
1.48435e-05;-0.0020062288623789097
1.48438e-05;-0.0019850689806530024
1.48440e-05;-0.001963878327917913
1.48443e-05;-0.001942654301349679
1.48445e-05;-0.0019217471435780192
1.48448e-05;-0.0019011836575459707
1.48450e-05;-0.0018812711654442751
1.48453e-05;-0.0018620647328186238
1.48455e-05;-0.001843519178821681
1.48458e-05;-0.001826221274832568
1.48460e-05;-0.0018100976440983535
1.48463e-05;-0.001795413354834697
1.48465e-05;-0.0017828079183458518
1.48468e-05;-0.0017731451392662236
1.48470e-05;-0.0017669555177620786
1.48473e-05;-0.0017651251271394433
1.48475e-05;-0.0017660008031902285
1.48478e-05;-0.00177006415476229
1.48480e-05;-0.001777584817382979
1.48483e-05;-0.0017883569592965986
1.48485e-05;-0.0018026556129922826
1.48488e-05;-0.0018207385144545644
1.48490e-05;-0.0018429257613955944
1.48493e-05;-0.0018678792159677834
1.48495e-05;-0.0018975300712923608
1.48498e-05;-0.0019306086651482328
1.48500e-05;-0.0019668853053813598
1.48503e-05;-0.0020061788950902844
1.48505e-05;-0.0020484552352345157
1.48508e-05;-0.0020937682998020788
1.48510e-05;-0.002142041026281446
1.48513e-05;-0.0021930151179528506
1.48515e-05;-0.002246371494590301
1.48518e-05;-0.002301790712550322
1.48520e-05;-0.0023589537749565894
1.48523e-05;-0.0024175723261942676
1.48525e-05;-0.002477449579638766
1.48528e-05;-0.0025384438770560676
1.48530e-05;-0.002600331958646525
1.48533e-05;-0.0026627767908279434
1.48535e-05;-0.0027254033762304786
1.48538e-05;-0.002787836876412697
1.48540e-05;-0.0028497019683766116
1.48543e-05;-0.0029106427634471707
1.48545e-05;-0.0029703613093546616
1.48548e-05;-0.003028593933478828
1.48550e-05;-0.0030850255500453924
1.48553e-05;-0.0031392701203925167
1.48555e-05;-0.0031909177508955273
1.48558e-05;-0.003239558650174659
1.48560e-05;-0.0032847829340528537
1.48563e-05;-0.003326327452646343
1.48565e-05;-0.003364409374318421
1.48568e-05;-0.0033996476143458134
1.48570e-05;-0.0034324505239293414
1.48573e-05;-0.003462785419681228
1.48575e-05;-0.003490457990257659
1.48578e-05;-0.0035145184713255484
1.48580e-05;-0.0035362206156205256
1.48583e-05;-0.003555653970397159
1.48585e-05;-0.0035713135805078688
1.48588e-05;-0.0035839626686161525
1.48590e-05;-0.003594891156952656
1.48593e-05;-0.0036037341415287257
1.48595e-05;-0.0036103152160869016
1.48598e-05;-0.003614697810928496
1.48600e-05;-0.0036166959635123403
1.48603e-05;-0.0036165606408348028
1.48605e-05;-0.0036141113788788776
1.48608e-05;-0.0036100760417220787
1.48610e-05;-0.0036043204682109746
1.48613e-05;-0.003597197679000828
1.48615e-05;-0.0035885920255807374
1.48618e-05;-0.0035786682448776673
1.48620e-05;-0.0035673148406164955
1.48623e-05;-0.0035548042565293763
1.48625e-05;-0.0035410386103847218
1.48628e-05;-0.003526578634006115
1.48630e-05;-0.003511365596165093
1.48633e-05;-0.0034957151743949927
1.48635e-05;-0.003479590371753422
1.48638e-05;-0.003463178968712904
1.48640e-05;-0.003446456722639831
1.48643e-05;-0.003429668466887854
1.48645e-05;-0.0034128086179042684
1.48648e-05;-0.0033962926670612235
1.48650e-05;-0.003380149703629448
1.48653e-05;-0.003364832084565546
1.48655e-05;-0.003350409623175148
1.48658e-05;-0.003335987161784653
1.48660e-05;-0.0033226493365882586
1.48663e-05;-0.0033104878935783684
1.48665e-05;-0.0032986169043242104
1.48668e-05;-0.0032870609374030598
1.48670e-05;-0.0032751196534088907
1.48673e-05;-0.0032627604595722413
1.48675e-05;-0.0032504012657355924
1.48678e-05;-0.003237915860499657
1.48680e-05;-0.0032252935680356786
1.48683e-05;-0.0032126712755717007
1.48685e-05;-0.0031993420577953458
1.48688e-05;-0.003185246118099606
1.48690e-05;-0.003171150178403771
1.48693e-05;-0.0031570542387079356
1.48695e-05;-0.003142958299012196
1.48698e-05;-0.0031278972553697723
1.48700e-05;-0.003111789472648253
1.48703e-05;-0.0030956816899268425
1.48705e-05;-0.003079573907205323
1.48708e-05;-0.003063466124483804
1.48710e-05;-0.0030466005968158
1.48713e-05;-0.003028913228919561
1.48715e-05;-0.003011225861023322
1.48718e-05;-0.0029932342827011914
1.48720e-05;-0.0029749127617418538
1.48723e-05;-0.002956591240782516
1.48725e-05;-0.002938269719823303
1.48728e-05;-0.002919948198863965
1.48730e-05;-0.0029016266779046274
1.48733e-05;-0.002883618749457741
1.48735e-05;-0.002865950939335569
1.48738e-05;-0.002848283129213397
1.48740e-05;-0.002830615319091345
1.48743e-05;-0.002812947508969173
1.48745e-05;-0.0027952796988470006
1.48748e-05;-0.0027785748184101667
1.48750e-05;-0.002762914318877149
1.48753e-05;-0.0027472538193441315
1.48755e-05;-0.002732251778456926
1.48758e-05;-0.002718381731094371
1.48760e-05;-0.0027054357566340544
1.48763e-05;-0.0026936028570674914
1.48765e-05;-0.0026833069640602673
1.48768e-05;-0.0026757111853924465
1.48770e-05;-0.002670004389901149
1.48773e-05;-0.002666659087875796
1.48775e-05;-0.002665875030683289
1.48778e-05;-0.0026679151490114302
1.48780e-05;-0.002673018331059024
1.48783e-05;-0.002678121513106653
1.48785e-05;-0.002686612075083125
1.48788e-05;-0.002698776544891383
1.48790e-05;-0.002710941014699723
1.48793e-05;-0.0027296773333985876
1.48795e-05;-0.0027485497471827253
1.48798e-05;-0.002769439264849918
1.48800e-05;-0.0027935574717421956
1.48803e-05;-0.0028198031057701757
1.48805e-05;-0.0028481460964985025
1.48808e-05;-0.0028786096959213378
1.48810e-05;-0.0029111320714563763
1.48813e-05;-0.002945535231747193
1.48815e-05;-0.002981602402016696
1.48818e-05;-0.0030191168263830202
1.48820e-05;-0.003057861841761303
1.48823e-05;-0.0030976400243474893
1.48825e-05;-0.003138311616122904
1.48828e-05;-0.0031797704969130287
1.48830e-05;-0.003221857149603043
1.48833e-05;-0.0032643392415465863
1.48835e-05;-0.003306960062788154
1.48838e-05;-0.003349463266788795
1.48840e-05;-0.003391592507009564
1.48843e-05;-0.0034331034995947842
1.48845e-05;-0.003473787828781805
1.48848e-05;-0.003513458217064394
1.48850e-05;-0.003551894247310646
1.48853e-05;-0.0035888296908037263
1.48855e-05;-0.003623983278678466
1.48858e-05;-0.0036570737609647502
1.48860e-05;-0.003687819980489363
1.48863e-05;-0.003715948961901095
1.48865e-05;-0.003741231615795311
1.48868e-05;-0.003763523382466285
1.48870e-05;-0.0037827495020686924
1.48873e-05;-0.003798090340977232
1.48875e-05;-0.0038109628487729237
1.48878e-05;-0.0038195150175088155
1.48880e-05;-0.0038233814031773204
1.48883e-05;-0.0038272477888458513
1.48885e-05;-0.0038311141745143826
1.48888e-05;-0.003823776474293404
1.48890e-05;-0.0038162067509299414
1.48893e-05;-0.0038086370275664783
1.48895e-05;-0.0037963652461322473
1.48898e-05;-0.0037789936741990174
1.48900e-05;-0.0037616221022657875
1.48903e-05;-0.0037409625930733084
1.48905e-05;-0.0037167370302624105
1.48908e-05;-0.0036901906855390963
1.48910e-05;-0.0036611272511992334
1.48913e-05;-0.003630087491544609
1.48915e-05;-0.003596904235380416
1.48918e-05;-0.003562093410622623
1.48920e-05;-0.0035255173463191055
1.48923e-05;-0.003487670958696767
1.48925e-05;-0.003448446795067918
1.48928e-05;-0.0034083645056148825
1.48930e-05;-0.0033673515041505752
1.48933e-05;-0.003325934402825697
1.48935e-05;-0.00328407902009265
1.48938e-05;-0.0032422763557494096
1.48940e-05;-0.0032005308690801672
