Time(s);Current(A)
8.50000e-06;0.0021621322509479167
8.50025e-06;0.0021356715915681565
8.50050e-06;0.0021092109321883957
8.50075e-06;0.0020806738991279725
8.50100e-06;0.0020446474703639077
8.50125e-06;0.0020086210415998424
8.50150e-06;0.0019707269732173573
8.50175e-06;0.0019260964044323851
8.50200e-06;0.001881465835647413
8.50225e-06;0.001834814267731085
8.50250e-06;0.0017808730378647756
8.50275e-06;0.001726931807998466
8.50300e-06;0.001672990578132522
8.50325e-06;0.0016190493482662123
8.50350e-06;0.0015651081183999027
8.50375e-06;0.0015072340087439943
8.50400e-06;0.0014478080720708192
8.50425e-06;0.001388382135397644
8.50450e-06;0.0013289561987244688
8.50475e-06;0.0012695302620516961
8.50500e-06;0.001210587215911648
8.50525e-06;0.001153385936351544
8.50550e-06;0.0010961846567918278
8.50575e-06;0.0010389833772317238
8.50600e-06;0.0009834414822945268
8.50625e-06;0.0009338849204327442
8.50650e-06;0.0008843283585706256
8.50675e-06;0.0008347717967085071
8.50700e-06;0.0007871899253219505
8.50725e-06;0.0007467306824397434
8.50750e-06;0.0007068200961257687
8.50775e-06;0.0006688884918151556
8.50800e-06;0.0006304421842296203
8.50825e-06;0.000590139362794586
8.50850e-06;0.0005498365413598249
8.50875e-06;0.0005088550844217178
8.50900e-06;0.00046760585298635923
8.50925e-06;0.00042632521668154377
8.50950e-06;0.00038493130428421873
8.50975e-06;0.0003430120337495922
8.51000e-06;0.0002987167253258638
8.51025e-06;0.0002522857196680436
8.51050e-06;0.00020409168854514562
8.51075e-06;0.00015451089011203894
8.51100e-06;0.0001039194834799957
8.51125e-06;5.263911597973295e-05
8.51150e-06;6.619363330891044e-07
8.51175e-06;-5.252436118482932e-05
8.51200e-06;-0.00010738941927070832
8.51225e-06;-0.00016394826796796197
8.51250e-06;-0.00022189075660618046
8.51275e-06;-0.0002800786089503551
8.51300e-06;-0.0003391514782369171
8.51325e-06;-0.0003982243475230788
8.51350e-06;-0.0004574134699571595
8.51375e-06;-0.0005170219127824247
8.51400e-06;-0.0005766303556072861
8.51425e-06;-0.0006362387984325513
8.51450e-06;-0.0006953943464208718
8.51475e-06;-0.0007529163210883888
8.51500e-06;-0.0008104382957562956
8.51525e-06;-0.0008679602704242023
8.51550e-06;-0.0009243590855221044
8.51575e-06;-0.000976706709575662
8.51600e-06;-0.00102905433362922
8.51625e-06;-0.0010799947863658534
8.51650e-06;-0.001125859629197942
8.51675e-06;-0.0011717244720300304
8.51700e-06;-0.0012158927999448158
8.51725e-06;-0.0012539418673154093
8.51750e-06;-0.0012903495450693877
8.51775e-06;-0.0013208367970028452
8.51800e-06;-0.001349603540678884
8.51825e-06;-0.0013721644808029785
8.51850e-06;-0.00139294192857072
8.51875e-06;-0.00140728639169564
8.51900e-06;-0.001419784732137915
8.51925e-06;-0.0014256241828883953
8.51950e-06;-0.0014296093868288028
8.51975e-06;-0.001426906397678955
8.52000e-06;-0.0014224363918528184
8.52025e-06;-0.001411592828493551
8.52050e-06;-0.001399079535831968
8.52075e-06;-0.0013805435972525045
8.52100e-06;-0.0013604354568044275
8.52125e-06;-0.001334656447939071
8.52150e-06;-0.0013071163438713482
8.52175e-06;-0.0012732240407872441
8.52200e-06;-0.0012393317377029102
8.52225e-06;-0.0012037139524913633
8.52250e-06;-0.0011618724231818973
8.52275e-06;-0.0011200308938721477
8.52300e-06;-0.0010769118086669108
8.52325e-06;-0.001029184631126773
8.52350e-06;-0.0009814574535863118
8.52375e-06;-0.0009329188825002223
8.52400e-06;-0.0008814536477813543
8.52425e-06;-0.0008299884130621375
8.52450e-06;-0.0007785231783429207
8.52475e-06;-0.0007270847924123357
8.52500e-06;-0.00067574324897256
8.52525e-06;-0.0006244017055327843
8.52550e-06;-0.0005730601620933566
8.52575e-06;-0.0005224201111590974
8.52600e-06;-0.00047431031526089836
8.52625e-06;-0.00042681074494044886
8.52650e-06;-0.0003820188101651511
8.52675e-06;-0.000339635463546713
8.52700e-06;-0.00030000532737620796
8.52725e-06;-0.00026340718169489617
8.52750e-06;-0.0002297176260104689
8.52775e-06;-0.00019817633271114563
8.52800e-06;-0.00016802174577409476
8.52825e-06;-0.00013912301365940095
8.52850e-06;-0.0001116835663049753
8.52875e-06;-8.59094338435306e-05
8.52900e-06;-6.200662711839835e-05
8.52925e-06;-4.013992389130271e-05
8.52950e-06;-2.0222124591206432e-05
8.52975e-06;-1.7671129404344817e-06
8.53000e-06;1.5552697001012753e-05
8.53025e-06;2.911428243409337e-05
8.53050e-06;4.305973643028898e-05
8.53075e-06;5.8027154764202e-05
8.53100e-06;7.129274979713324e-05
8.53125e-06;8.380867400135674e-05
8.53150e-06;9.373245752532091e-05
8.53175e-06;0.000104316010729223
8.53200e-06;0.00011264598796575928
8.53225e-06;0.00012276656952308704
8.53250e-06;0.0001284277693000726
8.53275e-06;0.00013668701426696576
8.53300e-06;0.00014296378644986622
8.53325e-06;0.00014869502702790458
8.53350e-06;0.00015356965669493337
8.53375e-06;0.0001580969430496169
8.53400e-06;0.0001620788199933295
8.53425e-06;0.00016575041520341922
8.53450e-06;0.0001689347962609347
8.53475e-06;0.0001721191773184286
8.53500e-06;0.00017482617021511245
8.53525e-06;0.00017678355318312733
8.53550e-06;0.00017874093615112896
8.53575e-06;0.0001804963072825988
8.53600e-06;0.00018193447306462154
8.53625e-06;0.00018337263884663453
8.53650e-06;0.0001847308914252448
8.53675e-06;0.00018596366177445987
8.53700e-06;0.0001871964321236666
8.53725e-06;0.0001884801673335042
8.53750e-06;0.00018984392917296568
8.53775e-06;0.00019171920987144552
8.53800e-06;0.00019489685293379755
8.53825e-06;0.00019934536895305325
8.53850e-06;0.0002050145109322141
8.53875e-06;0.00021181916089876585
8.53900e-06;0.00021965867242117952
8.53925e-06;0.00022846824093755385
8.53950e-06;0.00023834712875805392
8.53975e-06;0.0002495514244448116
8.54000e-06;0.00026227939751710113
8.54025e-06;0.0002767931828772606
8.54050e-06;0.0002926137922828974
8.54075e-06;0.0003093744726521554
8.54100e-06;0.0003276112820621866
8.54125e-06;0.00034665353820460083
8.54150e-06;0.0003669605321789736
8.54175e-06;0.0003881579665334027
8.54200e-06;0.00041075359842340163
8.54225e-06;0.0004342793970522703
8.54250e-06;0.00045926577279624506
8.54275e-06;0.0004842521485403892
8.54300e-06;0.0005100849333447245
8.54325e-06;0.0005372467763186126
8.54350e-06;0.0005644086192926847
8.54375e-06;0.0005915704622667569
8.54400e-06;0.0006187323052406449
8.54425e-06;0.0006458941482147171
8.54450e-06;0.0006730925365821497
8.54475e-06;0.0007002954847478536
8.54500e-06;0.0007274984329137417
8.54525e-06;0.0007547013810796299
8.54550e-06;0.0007819043292453336
8.54575e-06;0.0008076976067463593
8.54600e-06;0.0008312773749619758
8.54625e-06;0.0008548571431774326
8.54650e-06;0.0008784369113930492
8.54675e-06;0.0009020166796086656
8.54700e-06;0.0009215684274483546
8.54725e-06;0.0009406175959091245
8.54750e-06;0.0009596667643700234
8.54775e-06;0.0009787159328309223
8.54800e-06;0.000999326853596277
8.54825e-06;0.0010223900870289476
8.54850e-06;0.001045453320461618
8.54875e-06;0.0010700822819799535
8.54900e-06;0.0010971697990626447
8.54925e-06;0.0011242573161453359
8.54950e-06;0.00115336832974873
8.54975e-06;0.0011856567013340394
8.55000e-06;0.001217945072919349
8.55025e-06;0.0012530328373856945
8.55050e-06;0.0012925162967416248
8.55075e-06;0.0013319997560975554
8.55100e-06;0.0013746623659019535
8.55125e-06;0.0014223169778918093
8.55150e-06;0.001469971589881665
8.55175e-06;0.001517626201871198
8.55200e-06;0.0015652808138610537
8.55225e-06;0.0016129354258509095
8.55250e-06;0.0016605900378404421
8.55275e-06;0.0017151915344995137
8.55300e-06;0.001770659799609997
8.55325e-06;0.001826128064720105
8.55350e-06;0.0018815963298305883
8.55375e-06;0.001937064594941072
8.55400e-06;0.0019925328600511796
8.55425e-06;0.00204796962628939
8.55450e-06;0.0021033569320060633
8.55475e-06;0.0021587442377223615
8.55500e-06;0.002214131543439035
8.55525e-06;0.0022695188491557083
8.55550e-06;0.002324906154872382
8.55575e-06;0.0023765618023605982
8.55600e-06;0.002422357882542594
8.55625e-06;0.00246815396272459
8.55650e-06;0.002513950042906276
8.55675e-06;0.0025597461230882717
8.55700e-06;0.002605542203270268
8.55725e-06;0.0026455222388585328
8.55750e-06;0.0026763697380055903
8.55775e-06;0.002707217237152648
8.55800e-06;0.0027315993912670135
8.55825e-06;0.0027458294569356685
8.55850e-06;0.002760059522604323
8.55875e-06;0.002767635157096569
8.55900e-06;0.0027647617941232235
8.55925e-06;0.0027618884311498785
8.55950e-06;0.002752020511429417
8.55975e-06;0.0027311695183573764
8.56000e-06;0.0027103185252853363
8.56025e-06;0.002682486654166931
8.56050e-06;0.002643693188423469
8.56075e-06;0.0026048997226800065
8.56100e-06;0.002560026935101746
8.56125e-06;0.0025056082048626727
8.56150e-06;0.002451189474623599
8.56175e-06;0.002391300713544752
8.56200e-06;0.0023228227377192837
8.56225e-06;0.0022543447618938147
8.56250e-06;0.0021816006922519456
8.56275e-06;0.002102157867704456
8.56300e-06;0.0020227150431569663
8.56325e-06;0.0019399911019541485
8.56350e-06;0.0018521150480132298
8.56375e-06;0.001764238994072311
8.56400e-06;0.0016763629401313923
8.56425e-06;0.0015884868861910692
8.56450e-06;0.001498565507147524
8.56475e-06;0.001408388931226876
8.56500e-06;0.0013182123553068389
8.56525e-06;0.001228035779386191
8.56550e-06;0.0011395578484609252
8.56575e-06;0.0010537471834202985
8.56600e-06;0.0009700744154888823
8.56625e-06;0.0008897586409493967
8.56650e-06;0.0008116131032295657
8.56675e-06;0.0007386297689641268
8.56700e-06;0.0006703864727905536
8.56725e-06;0.0006073617221253807
8.56750e-06;0.0005494282934482167
8.56775e-06;0.0004955514457056551
8.56800e-06;0.00044467899938562444
8.56825e-06;0.0003966203201391801
8.56850e-06;0.0003516709110452003
8.56875e-06;0.00031014995540309324
8.56900e-06;0.00027237651363914403
8.56925e-06;0.0002385979268657152
8.56950e-06;0.0002086821787766457
8.56975e-06;0.00018192873280614225
8.57000e-06;0.0001576262468683786
8.57025e-06;0.00013560304652976396
8.57050e-06;0.00011599198709322235
8.57075e-06;9.8940742189908e-05
8.57100e-06;8.459691269132917e-05
8.57125e-06;7.306313498024531e-05
8.57150e-06;6.420440792915057e-05
8.57175e-06;5.7529668921309644e-05
8.57200e-06;5.254110749607598e-05
8.57225e-06;4.907899236070197e-05
8.57250e-06;4.717435358215386e-05
8.57275e-06;4.6867496924072024e-05
8.57300e-06;4.819867499585137e-05
8.57325e-06;5.117997623521164e-05
8.57350e-06;5.567463424216802e-05
8.57375e-06;6.13228563278617e-05
8.57400e-06;6.776066665524249e-05
8.57425e-06;7.483587560148995e-05
8.57450e-06;8.251579179823062e-05
8.57475e-06;9.077354431496652e-05
8.57500e-06;9.967214175301515e-05
8.57525e-06;0.00010903846379985943
8.57550e-06;0.00011851156246672145
8.57575e-06;0.0001281523251460902
8.57600e-06;0.00013779308782552426
8.57625e-06;0.00014710302996100814
8.57650e-06;0.00015589350725635472
8.57675e-06;0.0001643939915698049
8.57700e-06;0.00017221003550255376
8.57725e-06;0.00017951818007008516
8.57750e-06;0.00018690724938655366
8.57775e-06;0.000195729602466895
8.57800e-06;0.00020720160568679814
8.57825e-06;0.00022161542405482526
8.57850e-06;0.00023877313173073267
8.57875e-06;0.0002584536818935707
8.57900e-06;0.0002804360455032074
8.57925e-06;0.0003045666528392961
8.57950e-06;0.000331036434228202
8.57975e-06;0.00036051457863693517
8.58000e-06;0.0003935850359935485
8.58025e-06;0.00043025276593192926
8.58050e-06;0.000470215795751916
8.58075e-06;0.0005131576342110026
8.58100e-06;0.0005592017133732255
8.58125e-06;0.0006074449794375722
8.58150e-06;0.0006576174518399899
8.58175e-06;0.0007108192248110686
8.58200e-06;0.0007660816917612804
8.58225e-06;0.0008245799253180278
8.58250e-06;0.0008848888428953532
8.58275e-06;0.0009480409535646871
8.58300e-06;0.001011193064234449
8.58325e-06;0.0010758455517136517
8.58350e-06;0.0011428539781261377
8.58375e-06;0.0012098624045390777
8.58400e-06;0.0012768708309520177
8.58425e-06;0.0013438792573645037
8.58450e-06;0.001410552138910821
8.58475e-06;0.0014766981373366026
8.58500e-06;0.0015428441357619362
8.58525e-06;0.001608990134187718
8.58550e-06;0.0016751361326134996
8.58575e-06;0.001738796632632392
8.58600e-06;0.0017985543247508776
8.58625e-06;0.0018583120168693635
8.58650e-06;0.0019147007627956438
8.58675e-06;0.001965799483276642
8.58700e-06;0.0020168982037576406
8.58725e-06;0.0020639591862142677
8.58750e-06;0.0021046799852207894
8.58775e-06;0.0021410571626779454
8.58800e-06;0.0021706138487363855
8.58825e-06;0.0021955091778661584
8.58850e-06;0.002213085097494361
8.58875e-06;0.0022259739786596494
8.58900e-06;0.0022315031243698383
8.58925e-06;0.002232260124735
8.58950e-06;0.0022255237521374618
8.58975e-06;0.0022138033955106337
8.59000e-06;0.0021942570301451813
8.59025e-06;0.002169929958923364
8.59050e-06;0.0021380960727546824
8.59075e-06;0.0021018676096120348
8.59100e-06;0.002058738643258201
8.59125e-06;0.002011564201205151
8.59150e-06;0.001958037425759362
8.59175e-06;0.0018998961950219702
8.59200e-06;0.0018345092012118788
8.59225e-06;0.0017691222074013445
8.59250e-06;0.001699348502624947
8.59275e-06;0.001622686646090886
8.59300e-06;0.0015460247895563055
8.59325e-06;0.0014663770357403781
8.59350e-06;0.001382040731945572
8.59375e-06;0.0012977044281501948
8.59400e-06;0.0012117710832183495
8.59425e-06;0.001123330013981061
8.59450e-06;0.001034888944743173
8.59475e-06;0.0009464478755052852
8.59500e-06;0.000859300336836841
8.59525e-06;0.0007723141930296257
8.59550e-06;0.0006853280492224103
8.59575e-06;0.0005998674784690161
8.59600e-06;0.0005178456832675813
8.59625e-06;0.00043873119746914643
8.59650e-06;0.00036310522812901173
8.59675e-06;0.00029155003939222197
8.59700e-06;0.00022464778465175944
8.59725e-06;0.00016296931656713688
8.59750e-06;0.00010700466168233168
8.59775e-06;5.7057750463075356e-05
8.59800e-06;1.3267671647280975e-05
8.59825e-06;-2.426349723050469e-05
8.59850e-06;-5.5420837841954745e-05
8.59875e-06;-8.00879633723557e-05
8.59900e-06;-9.814854703385751e-05
8.59925e-06;-0.00010949336928495341
8.59950e-06;-0.00011406387384574428
8.59975e-06;-0.00011191806008540244
8.60000e-06;-0.00010321721071392887
8.60025e-06;-8.814577550772896e-05
8.60050e-06;-6.68801486738328e-05
8.60075e-06;-3.959581539559549e-05
8.60100e-06;-6.468282088471805e-06
8.60125e-06;3.232248969546295e-05
8.60150e-06;7.656481525159145e-05
8.60175e-06;0.00012597400484487556
8.60200e-06;0.00018020069677160015
8.60225e-06;0.0002388810367413136
8.60250e-06;0.0003016562426070213
8.60275e-06;0.0003681681076514841
8.60300e-06;0.0004380584243635759
8.60325e-06;0.0005114310303959346
8.60350e-06;0.0005872406006576295
8.60375e-06;0.0006649288917547506
8.60400e-06;0.000745567209495273
8.60425e-06;0.0008262055272352489
8.60450e-06;0.0009068438449757713
8.60475e-06;0.0009875290586918572
8.60500e-06;0.0010682879099456687
8.60525e-06;0.0011490467612000276
8.60550e-06;0.0012298056124543867
8.60575e-06;0.0013081265939038664
8.60600e-06;0.0013826195553825965
8.60625e-06;0.0014571125168613265
8.60650e-06;0.00152829103558095
8.60675e-06;0.0015942651118590109
8.60700e-06;0.0016566680508228768
8.60725e-06;0.0017134634774672616
8.60750e-06;0.0017671215144668094
8.60775e-06;0.0018158531234039935
8.60800e-06;0.0018645847323411776
8.60825e-06;0.001909140617475946
8.60850e-06;0.0019471396495412182
8.60875e-06;0.0019851386816064904
8.60900e-06;0.0020231377136715055
8.60925e-06;0.0020611367457367778
8.60950e-06;0.00209913577780205
8.60975e-06;0.002137134809867065
8.61000e-06;0.0021751338419323373
8.61025e-06;0.002202327951825332
8.61050e-06;0.002228173922783628
8.61075e-06;0.0022540198937420998
8.61100e-06;0.002279865864700571
8.61125e-06;0.002305711835658867
8.61150e-06;0.002331557806617338
8.61175e-06;0.00235740377757581
8.61200e-06;0.002379702227025072
8.61225e-06;0.0023964302464358936
8.61250e-06;0.002413158265846715
8.61275e-06;0.0024298862852574236
8.61300e-06;0.0024466143046682452
8.61325e-06;0.002463342324079067
8.61350e-06;0.0024800703434897753
8.61375e-06;0.002496798362900597
8.61400e-06;0.002513526382311419
8.61425e-06;0.002530254401722127
8.61450e-06;0.002546982421132949
8.61475e-06;0.0025637104405437706
8.61500e-06;0.002580438459954592
8.61525e-06;0.0025971664793653006
8.61550e-06;0.0026053622597187664
8.61575e-06;0.0026124934656594585
8.61600e-06;0.0026196246716001016
8.61625e-06;0.0026267558775407932
8.61650e-06;0.002633887083481485
8.61675e-06;0.0026410182894221284
8.61700e-06;0.00264814949536282
8.61725e-06;0.0026552807013035117
8.61750e-06;0.002662411907244155
8.61775e-06;0.002669543113184847
8.61800e-06;0.0026766743191255385
8.61825e-06;0.002683805525066182
8.61850e-06;0.0026909367310068736
8.61875e-06;0.002691812736525385
8.61900e-06;0.0026828666292684597
8.61925e-06;0.0026739205220114737
8.61950e-06;0.0026649744147544878
8.61975e-06;0.0026560283074975625
8.62000e-06;0.0026470822002405765
8.62025e-06;0.0026381360929835906
8.62050e-06;0.0026291899857266653
8.62075e-06;0.0026202438784696793
8.62100e-06;0.0026112977712126934
8.62125e-06;0.002602351663955768
8.62150e-06;0.0025813062463761276
8.62175e-06;0.002558751187997579
8.62200e-06;0.002536196129619183
8.62225e-06;0.002513641071240634
8.62250e-06;0.002491086012862085
8.62275e-06;0.002468530954483689
8.62300e-06;0.0024459758961051406
8.62325e-06;0.0024234208377265916
8.62350e-06;0.0024008657793480426
8.62375e-06;0.0023783107209696466
8.62400e-06;0.0023545814566332964
8.62425e-06;0.002329008417107863
8.62450e-06;0.0023034353775826027
8.62475e-06;0.002277862338057169
8.62500e-06;0.0022522892985317356
8.62525e-06;0.0022267162590064752
8.62550e-06;0.0022011432194810414
8.62575e-06;0.0021755701799556076
8.62600e-06;0.0021499971404303478
8.62625e-06;0.002124424100904914
8.62650e-06;0.0021045188400594206
8.62675e-06;0.0020853207525743374
8.62700e-06;0.0020661226650891245
8.62725e-06;0.002046924577603911
8.62750e-06;0.0020277264901188284
8.62775e-06;0.0020085284026336156
8.62800e-06;0.0019893303151484023
8.62825e-06;0.0019701322276633195
8.62850e-06;0.0019509341401781064
8.62875e-06;0.0019311541375208812
8.62900e-06;0.0019104603933269204
8.62925e-06;0.001889766649132819
8.62950e-06;0.001869072904938718
8.62975e-06;0.001848379160744757
8.63000e-06;0.0018276854165506558
8.63025e-06;0.0018069916723565545
8.63050e-06;0.0017862979281625935
8.63075e-06;0.0017656041839684924
8.63100e-06;0.001744910439774391
8.63125e-06;0.0017242166955804303
8.63150e-06;0.0017015036465955374
8.63175e-06;0.0016756198216076924
8.63200e-06;0.0016497359966198475
8.63225e-06;0.0016238521716321777
8.63250e-06;0.0015979683466443328
8.63275e-06;0.0015720845216564878
8.63300e-06;0.0015462006966688183
8.63325e-06;0.0015203168716809734
8.63350e-06;0.0014944330466931282
8.63375e-06;0.0014685492217054587
8.63400e-06;0.0014426653967176137
8.63425e-06;0.0014167804332105905
8.63450e-06;0.0013908936819650587
8.63475e-06;0.0013650069307193514
8.63500e-06;0.0013391201794736441
8.63525e-06;0.0013132334282281123
8.63550e-06;0.001287346676982405
8.63575e-06;0.0012632547267609562
8.63600e-06;0.0012419810296555537
8.63625e-06;0.0012207073325500068
8.63650e-06;0.00119943363544446
8.63675e-06;0.0011781599383390573
8.63700e-06;0.0011568862412335106
8.63725e-06;0.0011368456352011203
8.63750e-06;0.0011187412676222199
8.63775e-06;0.001100636900043197
8.63800e-06;0.0010800380870425385
8.63825e-06;0.001055522417249814
8.63850e-06;0.0010289490994816878
8.63875e-06;0.0009991447980335214
8.63900e-06;0.0009677165585354386
8.63925e-06;0.0009337383603461502
8.63950e-06;0.0008975835162806989
8.63975e-06;0.0008580108342821332
8.64000e-06;0.0008153672613569715
8.64025e-06;0.0007679016787459323
8.64050e-06;0.0007184066321710993
8.64075e-06;0.0006645781564699604
8.64100e-06;0.000607957026793481
8.64125e-06;0.0005488840679125874
8.64150e-06;0.00048740982674717675
8.64175e-06;0.000423178305226378
8.64200e-06;0.00035589626756407004
8.64225e-06;0.0002857497429921562
8.64250e-06;0.00021318049242487373
8.64275e-06;0.0001386423262292891
8.64300e-06;6.258901757375036e-05
8.64325e-06;-1.4561195279003703e-05
8.64350e-06;-9.257195659946355e-05
8.64375e-06;-0.0001716020580753079
8.64400e-06;-0.00025142965951462743
8.64425e-06;-0.00033133511140613257
8.64450e-06;-0.0004113628065299383
8.64475e-06;-0.0004913905016542863
8.64500e-06;-0.000570400065881317
8.64525e-06;-0.0006478109288947305
8.64550e-06;-0.0007237756543193968
8.64575e-06;-0.0007974696089380445
8.64600e-06;-0.0008692943600639031
8.64625e-06;-0.000938184028973736
