Time(s);Current(A)
2.55000e-06;-0.007879132334493548
2.55025e-06;-0.007863607420005352
2.55050e-06;-0.007848082505517181
2.55075e-06;-0.007832557591028985
2.55100e-06;-0.007817317484850038
2.55125e-06;-0.007804737645173419
2.55150e-06;-0.007792157805496821
2.55175e-06;-0.007779577965820203
2.55200e-06;-0.007767031945582314
2.55225e-06;-0.007754806496176541
2.55250e-06;-0.007742624747883594
2.55275e-06;-0.007730442999590647
2.55300e-06;-0.007718261251297721
2.55325e-06;-0.0077060795030047735
2.55350e-06;-0.007693897754711827
2.55375e-06;-0.00768171600641888
2.55400e-06;-0.007669534258125953
2.55425e-06;-0.007657352509833007
2.55450e-06;-0.007645170761540059
2.55475e-06;-0.007632256536642099
2.55500e-06;-0.00761884725617883
2.55525e-06;-0.007605437975715559
2.55550e-06;-0.007592028695252289
2.55575e-06;-0.007578619414789042
2.55600e-06;-0.007565210134325772
2.55625e-06;-0.0075518008538625015
2.55650e-06;-0.0075383915733992545
2.55675e-06;-0.007524982292935984
2.55700e-06;-0.007511528130138363
2.55725e-06;-0.007497654741613288
2.55750e-06;-0.007483781353088189
2.55775e-06;-0.0074699079645630904
2.55800e-06;-0.007456034576037992
2.55825e-06;-0.007442161187512918
2.55850e-06;-0.007428287798987819
2.55875e-06;-0.0074144144104627205
2.55900e-06;-0.007400724951724645
2.55925e-06;-0.007388753498519894
2.55950e-06;-0.007376782045315143
2.55975e-06;-0.007364810592110392
2.56000e-06;-0.007352839138905662
2.56025e-06;-0.007340867685700911
2.56050e-06;-0.00732889623249616
2.56075e-06;-0.007316924779291429
2.56100e-06;-0.007305150344957152
2.56125e-06;-0.007295216175406414
2.56150e-06;-0.007285282005855693
2.56175e-06;-0.0072753478363049556
2.56200e-06;-0.007265413666754217
2.56225e-06;-0.007255479497203479
2.56250e-06;-0.007245545327652758
2.56275e-06;-0.0072356111581020205
2.56300e-06;-0.007223649958090838
2.56325e-06;-0.00721031875840513
2.56350e-06;-0.007196987558719399
2.56375e-06;-0.0071836563590336674
2.56400e-06;-0.007170325159347937
2.56425e-06;-0.0071569939596622285
2.56450e-06;-0.007143662759976497
2.56475e-06;-0.007129917272059223
2.56500e-06;-0.007112302103836893
2.56525e-06;-0.007094686935614534
2.56550e-06;-0.007077071767392175
2.56575e-06;-0.007059456599169845
2.56600e-06;-0.007041841430947486
2.56625e-06;-0.007024226262725127
2.56650e-06;-0.007006356203884262
2.56675e-06;-0.006986105326252733
2.56700e-06;-0.006965854448621172
2.56725e-06;-0.00694560357098961
2.56750e-06;-0.006925352693358082
2.56775e-06;-0.00690510181572652
2.56800e-06;-0.006884850938094957
2.56825e-06;-0.006864569607743262
2.56850e-06;-0.006844003832209779
2.56875e-06;-0.006823438056676262
2.56900e-06;-0.006802969881671169
2.56925e-06;-0.0067834133493677095
2.56950e-06;-0.006763856817064218
2.56975e-06;-0.00674445410091187
2.57000e-06;-0.006726488112345423
2.57025e-06;-0.006708522123778944
2.57050e-06;-0.006690746247592111
2.57075e-06;-0.006674746125760217
2.57100e-06;-0.006658955315181546
2.57125e-06;-0.0066451195870130585
2.57150e-06;-0.006631574476351562
2.57175e-06;-0.006620743893300733
2.57200e-06;-0.0066103501934518735
2.57225e-06;-0.006604037223379838
2.57250e-06;-0.006597724253307804
2.57275e-06;-0.006591937788700905
2.57300e-06;-0.006591069175179647
2.57325e-06;-0.006590200561658387
2.57350e-06;-0.006590155593322345
2.57375e-06;-0.0065978039247459475
2.57400e-06;-0.0066054522561695495
2.57425e-06;-0.006613100587593139
2.57450e-06;-0.006620748919016742
2.57475e-06;-0.006628397250440345
2.57500e-06;-0.006637003964413523
2.57525e-06;-0.006654562499353581
2.57550e-06;-0.00667212103429367
2.57575e-06;-0.006689679569233759
2.57600e-06;-0.006707238104173818
2.57625e-06;-0.006724796639113907
2.57650e-06;-0.006743018314023617
2.57675e-06;-0.006767434081560327
2.57700e-06;-0.006791849849096996
2.57725e-06;-0.006816265616633706
2.57750e-06;-0.006840681384170417
2.57775e-06;-0.006865097151707086
2.57800e-06;-0.006889512919243796
2.57825e-06;-0.006914988157731646
2.57850e-06;-0.006941179455936724
2.57875e-06;-0.006967370754141847
2.57900e-06;-0.006993562052346969
2.57925e-06;-0.007019753350552091
2.57950e-06;-0.007045944648757169
2.57975e-06;-0.007071861829428044
2.58000e-06;-0.0070952186013229016
2.58025e-06;-0.00711857537321772
2.58050e-06;-0.007141932145112578
2.58075e-06;-0.007162570700550724
2.58100e-06;-0.007181372107640984
2.58125e-06;-0.0072001735147312115
2.58150e-06;-0.007218822994892691
2.58175e-06;-0.007236053393845652
2.58200e-06;-0.007253283792798585
2.58225e-06;-0.007270817518085041
2.58250e-06;-0.007291184478423225
2.58275e-06;-0.007311551438761374
2.58300e-06;-0.007331918399099558
2.58325e-06;-0.007352285359437741
2.58350e-06;-0.007372652319775925
2.58375e-06;-0.007393019280114074
2.58400e-06;-0.0074139595690384755
2.58425e-06;-0.007440255062794497
2.58450e-06;-0.007466550556550475
2.58475e-06;-0.007492846050306496
2.58500e-06;-0.007519141544062518
2.58525e-06;-0.007545437037818539
2.58550e-06;-0.007571732531574517
2.58575e-06;-0.007598600405016753
2.58600e-06;-0.007630814620042059
2.58625e-06;-0.00766302883506731
2.58650e-06;-0.007695243050092616
2.58675e-06;-0.007727457265117922
2.58700e-06;-0.007759671480143173
2.58725e-06;-0.0077918856951684785
2.58750e-06;-0.007824099910193784
2.58775e-06;-0.007856360891513493
2.58800e-06;-0.007889058695785612
2.58825e-06;-0.007921756500057787
2.58850e-06;-0.007954454304329962
2.58875e-06;-0.007987152108602081
2.58900e-06;-0.008019849912874256
2.58925e-06;-0.008052547717146431
2.58950e-06;-0.008085245521418606
2.58975e-06;-0.008117539173641152
2.59000e-06;-0.00814605782308017
2.59025e-06;-0.008174576472519186
2.59050e-06;-0.0082026605279105
2.59075e-06;-0.00822668523548614
2.59100e-06;-0.008250709943061778
2.59125e-06;-0.008273632464172108
2.59150e-06;-0.008286259956520464
2.59175e-06;-0.008298887448868822
2.59200e-06;-0.00831151494121718
2.59225e-06;-0.008324142433565515
2.59250e-06;-0.008336769925913872
2.59275e-06;-0.00834939741826223
2.59300e-06;-0.008362024910610567
2.59325e-06;-0.00836415132336688
2.59350e-06;-0.008359180420168954
2.59375e-06;-0.008354209516971026
2.59400e-06;-0.008349238613773107
2.59425e-06;-0.008344267710575181
2.59450e-06;-0.008339296807377253
2.59475e-06;-0.008334325904179336
2.59500e-06;-0.008327928476427696
2.59525e-06;-0.008308206523495475
2.59550e-06;-0.008288484570563286
2.59575e-06;-0.008268762617631065
2.59600e-06;-0.008249040664698842
2.59625e-06;-0.00822931871176662
2.59650e-06;-0.008209596758834432
2.59675e-06;-0.008189043646716082
2.59700e-06;-0.008160727049927064
2.59725e-06;-0.008132410453138091
2.59750e-06;-0.008104093856349073
2.59775e-06;-0.008075777259560053
2.59800e-06;-0.008047460662771034
2.59825e-06;-0.008019144065982062
2.59850e-06;-0.007990640558412745
2.59875e-06;-0.007960391201189234
2.59900e-06;-0.007930141843965774
2.59925e-06;-0.0078999924289628
2.59950e-06;-0.007870776529356254
2.59975e-06;-0.007841560629749758
2.60000e-06;-0.007812647224446802
2.60025e-06;-0.00778655928257883
2.60050e-06;-0.007760471340710859
2.60075e-06;-0.007734383398842933
2.60100e-06;-0.007711097985060878
2.60125e-06;-0.007689706702936704
2.60150e-06;-0.007668315420812566
2.60175e-06;-0.007646840157287229
2.60200e-06;-0.007624580461210915
2.60225e-06;-0.007602320765134601
2.60250e-06;-0.007579837767695664
2.60275e-06;-0.00755526901251602
2.60300e-06;-0.007530700257336377
2.60325e-06;-0.00750575689281916
2.60350e-06;-0.007477314470721785
2.60375e-06;-0.00744887204862441
2.60400e-06;-0.007420429626527083
2.60425e-06;-0.007391987204429708
2.60450e-06;-0.007363544782332332
2.60475e-06;-0.007331168979505921
2.60500e-06;-0.007296134740891156
2.60525e-06;-0.007261100502276331
2.60550e-06;-0.007226066263661506
2.60575e-06;-0.007191032025046741
2.60600e-06;-0.0071554966577594805
2.60625e-06;-0.00711528047260695
2.60650e-06;-0.0070750642874544195
2.60675e-06;-0.007034848102301957
2.60700e-06;-0.006994631917149426
2.60725e-06;-0.0069542362142733065
2.60750e-06;-0.006912163716965123
2.60775e-06;-0.006870091219656869
2.60800e-06;-0.006828018722348615
2.60825e-06;-0.006785946225040433
2.60850e-06;-0.0067439017604892845
2.60875e-06;-0.006702119137332379
2.60900e-06;-0.006660437859910203
2.60925e-06;-0.006619797460589888
2.60950e-06;-0.006580136779021032
2.60975e-06;-0.006541506318399719
2.61000e-06;-0.006503950502263599
2.61025e-06;-0.00646764982121141
2.61050e-06;-0.006432861230208726
2.61075e-06;-0.0063999498667466235
2.61100e-06;-0.006369863025312434
2.61125e-06;-0.006340227770204702
2.61150e-06;-0.006314810580159583
2.61175e-06;-0.006289796881686649
2.61200e-06;-0.006268552016775808
2.61225e-06;-0.006247711183827608
2.61250e-06;-0.006230644231986521
2.61275e-06;-0.006214132456328269
2.61300e-06;-0.0062028063320575125
2.61325e-06;-0.006191480207786755
2.61350e-06;-0.0061810785190340115
2.61375e-06;-0.0061793115672793214
2.61400e-06;-0.006177544615524631
2.61425e-06;-0.006175777663769944
2.61450e-06;-0.006174010712015254
2.61475e-06;-0.006172243760260564
2.61500e-06;-0.006171510042644228
2.61525e-06;-0.0061804273010757325
2.61550e-06;-0.0061893445595072516
2.61575e-06;-0.006198261817938771
2.61600e-06;-0.006207179076370275
2.61625e-06;-0.006216096334801794
2.61650e-06;-0.00622573597870693
2.61675e-06;-0.006242123100888646
2.61700e-06;-0.0062585102230703895
2.61725e-06;-0.006274897345252133
2.61750e-06;-0.006291284467433877
2.61775e-06;-0.006307671589615592
2.61800e-06;-0.006324058711797336
2.61825e-06;-0.006342098008478191
2.61850e-06;-0.006361253952674239
2.61875e-06;-0.0063804098968703185
2.61900e-06;-0.006399565841066398
2.61925e-06;-0.006418721785262446
2.61950e-06;-0.006437877729458526
2.61975e-06;-0.006456889806231224
2.62000e-06;-0.006474558082014683
2.62025e-06;-0.0064922263577981126
2.62050e-06;-0.006509621376119574
2.62075e-06;-0.00652446401921165
2.62100e-06;-0.006539306662303701
2.62125e-06;-0.006553515046065709
2.62150e-06;-0.006561799098278745
2.62175e-06;-0.0065700831504917805
2.62200e-06;-0.0065783672027048025
2.62225e-06;-0.006586651254917838
2.62250e-06;-0.006594935307130874
2.62275e-06;-0.006603219359343895
2.62300e-06;-0.006611503411556931
2.62325e-06;-0.006614134503985356
2.62350e-06;-0.006612944956704887
2.62375e-06;-0.006611755409424416
2.62400e-06;-0.0066105658621439444
2.62425e-06;-0.006609376314863473
2.62450e-06;-0.006608186767583004
2.62475e-06;-0.006606997220302533
2.62500e-06;-0.006605054637147102
2.62525e-06;-0.00659607828408081
2.62550e-06;-0.006587101931014501
2.62575e-06;-0.006578125577948193
2.62600e-06;-0.0065691492248818855
2.62625e-06;-0.006560172871815592
2.62650e-06;-0.006551196518749284
2.62675e-06;-0.006541780120553619
2.62700e-06;-0.006528253458433844
2.62725e-06;-0.006514726796314047
2.62750e-06;-0.00650120013419425
2.62775e-06;-0.006487673472074475
2.62800e-06;-0.006474146809954678
2.62825e-06;-0.006460620147834881
2.62850e-06;-0.006446984895102213
2.62875e-06;-0.006432335346223965
2.62900e-06;-0.006417685797345693
2.62925e-06;-0.006403074075802301
2.62950e-06;-0.006388815682405391
2.62975e-06;-0.006374557289008457
2.63000e-06;-0.00636042195453666
2.63025e-06;-0.006347436058217509
2.63050e-06;-0.006334450161898379
2.63075e-06;-0.006321667557482509
2.63100e-06;-0.006310783811434694
2.63125e-06;-0.006299900065386898
2.63150e-06;-0.0062893171066947555
2.63175e-06;-0.006281543667605298
2.63200e-06;-0.0062737702285158535
2.63225e-06;-0.006266351420690875
2.63250e-06;-0.006262245064238964
2.63275e-06;-0.006258138707787053
2.63300e-06;-0.006254643116973766
2.63325e-06;-0.006256852413689878
2.63350e-06;-0.00625906171040599
2.63375e-06;-0.006261271007122098
2.63400e-06;-0.00626348030383821
2.63425e-06;-0.006265689600554322
2.63450e-06;-0.006267898897270434
2.63475e-06;-0.006270881936681737
2.63500e-06;-0.006281092159113331
2.63525e-06;-0.006291302381544925
2.63550e-06;-0.006301512603976502
2.63575e-06;-0.006311722826408096
2.63600e-06;-0.00632193304883969
2.63625e-06;-0.006332143271271267
2.63650e-06;-0.006342866317423593
2.63675e-06;-0.006358379419637136
2.63700e-06;-0.006373892521850679
2.63725e-06;-0.006389405624064196
2.63750e-06;-0.00640491872627774
2.63775e-06;-0.006420431828491283
2.63800e-06;-0.0064359449307048
2.63825e-06;-0.006451458032918344
2.63850e-06;-0.006467383410001832
2.63875e-06;-0.006483587429389394
2.63900e-06;-0.0064997914487769275
2.63925e-06;-0.006515995468164488
2.63950e-06;-0.00653219948755205
2.63975e-06;-0.006548403506939584
2.64000e-06;-0.006564607526327145
2.64025e-06;-0.006580239614740441
2.64050e-06;-0.006590529552782464
2.64075e-06;-0.006600819490824505
2.64100e-06;-0.006611109428866546
2.64125e-06;-0.006621399366908588
2.64150e-06;-0.006631689304950611
2.64175e-06;-0.006641979242992652
2.64200e-06;-0.006652269181034693
2.64225e-06;-0.006662559119076717
2.64250e-06;-0.006672849057118758
2.64275e-06;-0.006677904608478569
2.64300e-06;-0.006679422419190305
2.64325e-06;-0.006680940229902038
2.64350e-06;-0.006682458040613773
2.64375e-06;-0.006683975851325509
2.64400e-06;-0.006685493662037242
2.64425e-06;-0.006687011472748978
2.64450e-06;-0.006688529283460713
2.64475e-06;-0.006690047094172446
2.64500e-06;-0.006690902464874527
2.64525e-06;-0.006685570280953852
2.64550e-06;-0.006680238097033177
2.64575e-06;-0.006674905913112512
2.64600e-06;-0.006669573729191837
2.64625e-06;-0.006664241545271162
2.64650e-06;-0.006658909361350497
2.64675e-06;-0.006653577177429822
2.64700e-06;-0.006648244993509147
2.64725e-06;-0.00664260176982424
2.64750e-06;-0.006634053263392143
2.64775e-06;-0.006625504756960033
2.64800e-06;-0.0066169562505279216
2.64825e-06;-0.006608407744095825
2.64850e-06;-0.006599859237663714
2.64875e-06;-0.006591310731231603
2.64900e-06;-0.006582762224799506
2.64925e-06;-0.006574213718367396
2.64950e-06;-0.00656570603893778
2.64975e-06;-0.006557579706202759
2.65000e-06;-0.00654945337346775
2.65025e-06;-0.006541327040732728
2.65050e-06;-0.006533200707997707
2.65075e-06;-0.006525074375262698
2.65100e-06;-0.006517084746312854
2.65125e-06;-0.006510372006025669
2.65150e-06;-0.006503564562303689
2.65175e-06;-0.006495872536329309
2.65200e-06;-0.006487846466467424
2.65225e-06;-0.006476700242673997
2.65250e-06;-0.006465554018880589
2.65275e-06;-0.006454077661525363
2.65300e-06;-0.006439517674834683
2.65325e-06;-0.006424957688144027
2.65350e-06;-0.006409988340640196
2.65375e-06;-0.006391195337627459
2.65400e-06;-0.006372402334614722
2.65425e-06;-0.006353038404037178
2.65450e-06;-0.0063283416954838054
2.65475e-06;-0.006303644986930434
2.65500e-06;-0.006278948278377104
2.65525e-06;-0.006254251569823732
2.65550e-06;-0.006226147455904433
2.65575e-06;-0.006195740394724959
2.65600e-06;-0.006165333333545538
2.65625e-06;-0.006134926272366064
2.65650e-06;-0.006104177917059945
2.65675e-06;-0.006070241686594233
2.65700e-06;-0.0060361941807184055
2.65725e-06;-0.006001107301211698
2.65750e-06;-0.005965959380095043
2.65775e-06;-0.005930199281352167
2.65800e-06;-0.005894017554902561
2.65825e-06;-0.005857554704842789
2.65850e-06;-0.005821024094107582
2.65875e-06;-0.00578464001695406
2.65900e-06;-0.005748617428766856
2.65925e-06;-0.0057131661349099205
2.65950e-06;-0.005678455356411044
2.65975e-06;-0.005644576814183088
2.66000e-06;-0.005611622132248247
2.66025e-06;-0.005579769535217559
2.66050e-06;-0.005549243982525225
2.66075e-06;-0.005520270809201817
2.66100e-06;-0.00549307497468169
2.66125e-06;-0.005467915993694267
2.66150e-06;-0.005445447917260693
2.66175e-06;-0.00542703065744517
2.66200e-06;-0.00541392013739781
2.66225e-06;-0.005406456475394623
2.66250e-06;-0.005404507198467292
2.66275e-06;-0.005407937640438685
2.66300e-06;-0.005416612474004398
2.66325e-06;-0.005430419219669442
2.66350e-06;-0.005449797904843888
2.66375e-06;-0.0054772728521176196
2.66400e-06;-0.0055059549867313776
2.66425e-06;-0.005545912916133967
2.66450e-06;-0.005587550804511629
2.66475e-06;-0.005644880435197796
2.66500e-06;-0.005702210065883962
2.66525e-06;-0.005759539696570031
2.66550e-06;-0.0058168693272561975
2.66575e-06;-0.005886562017260464
2.66600e-06;-0.005964610470823135
2.66625e-06;-0.0060426589243859396
2.66650e-06;-0.006120707377948744
2.66675e-06;-0.006199950704953217
2.66700e-06;-0.006290354808152705
2.66725e-06;-0.006380758911352346
2.66750e-06;-0.006471643249079948
2.66775e-06;-0.006567013241857491
2.66800e-06;-0.0066626091628958885
2.66825e-06;-0.006760315378352017
2.66850e-06;-0.0068580256467368796
2.66875e-06;-0.0069557737717087
2.66900e-06;-0.007053300314060251
2.66925e-06;-0.007148757152668039
2.66950e-06;-0.007243805838835818
2.66975e-06;-0.007335042156366093
2.67000e-06;-0.0074256767490769
2.67025e-06;-0.007510690900486025
2.67050e-06;-0.007594857742110794
2.67075e-06;-0.007671110243568723
2.67100e-06;-0.007746272664810953
2.67125e-06;-0.007811253136317558
2.67150e-06;-0.007874733671437607
2.67175e-06;-0.007924203974396889
2.67200e-06;-0.00797367427735609
2.67225e-06;-0.008021303559954037
2.67250e-06;-0.008051736698165605
2.67275e-06;-0.008082169836377174
2.67300e-06;-0.008110637934608117
2.67325e-06;-0.008120751476886737
2.67350e-06;-0.008130865019165356
2.67375e-06;-0.008138517250847412
2.67400e-06;-0.00812317948563058
2.67425e-06;-0.008107841720413747
2.67450e-06;-0.008092503955196942
2.67475e-06;-0.008077166189980108
2.67500e-06;-0.00805913726207061
2.67525e-06;-0.008015971392059743
2.67550e-06;-0.007972805522048949
2.67575e-06;-0.00792963965203808
2.67600e-06;-0.007886473782027214
2.67625e-06;-0.007841637790150081
2.67650e-06;-0.007781201939976847
2.67675e-06;-0.007720766089803612
2.67700e-06;-0.007659552054797113
2.67725e-06;-0.007591069344748673
2.67750e-06;-0.007522139461563103
2.67775e-06;-0.00744903273493158
2.67800e-06;-0.007375706902469557
2.67825e-06;-0.007300245066217238
2.67850e-06;-0.00722389994665158
2.67875e-06;-0.007147100928512153
2.67900e-06;-0.007070277727101799
2.67925e-06;-0.006993861332995707
2.67950e-06;-0.006918308630745634
2.67975e-06;-0.006844137177918586
2.68000e-06;-0.006771894488737383
2.68025e-06;-0.006702103201910954
2.68050e-06;-0.006635265811000956
2.68075e-06;-0.00657188505006729
2.68100e-06;-0.006512462150785382
2.68125e-06;-0.006457483455370254
2.68150e-06;-0.006407236607930596
2.68175e-06;-0.0063615796404572185
2.68200e-06;-0.006320215967577091
2.68225e-06;-0.006283346842112721
2.68250e-06;-0.006252537294360579
2.68275e-06;-0.006222645127027342
2.68300e-06;-0.006201321798189626
2.68325e-06;-0.006180944220271898
2.68350e-06;-0.006169400476959529
2.68375e-06;-0.006158913272124686
2.68400e-06;-0.006158294718714713
2.68425e-06;-0.006157676165304739
2.68450e-06;-0.006158620364173316
2.68475e-06;-0.006174161530240418
2.68500e-06;-0.006189702696307546
2.68525e-06;-0.006205243862374675
2.68550e-06;-0.006220785028441804
2.68575e-06;-0.006237907368099067
2.68600e-06;-0.006269798740153893
2.68625e-06;-0.006301690112208719
2.68650e-06;-0.006333581484263491
2.68675e-06;-0.006365472856318317
2.68700e-06;-0.006398256854403976
2.68725e-06;-0.006439378471363479
2.68750e-06;-0.00648050008832305
2.68775e-06;-0.0065219964060494766
2.68800e-06;-0.006566992635360307
2.68825e-06;-0.006611988864671061
2.68850e-06;-0.006657103769739551
2.68875e-06;-0.006703327171762866
2.68900e-06;-0.006749550573786104
2.68925e-06;-0.006795641760267622
2.68950e-06;-0.006840497980751402
2.68975e-06;-0.006885354201235182
2.69000e-06;-0.006929773095697696
2.69025e-06;-0.006970107124200001
2.69050e-06;-0.007010441152702306
2.69075e-06;-0.007049392001689296
2.69100e-06;-0.007075423192011806
2.69125e-06;-0.007101454382334316
2.69150e-06;-0.007127485572656782
2.69175e-06;-0.007153516762979292
2.69200e-06;-0.007179547953301802
2.69225e-06;-0.007205579143624311
2.69250e-06;-0.007231610333946778
2.69275e-06;-0.007257641524269288
2.69300e-06;-0.007281871798210943
2.69325e-06;-0.0072892805210321415
2.69350e-06;-0.007296689243853352
2.69375e-06;-0.007304097966674562
2.69400e-06;-0.007311506689495761
2.69425e-06;-0.007318915412316971
2.69450e-06;-0.007326324135138181
2.69475e-06;-0.007333732857959392
2.69500e-06;-0.00734114158078059
2.69525e-06;-0.007347244460854185
2.69550e-06;-0.0073411500502769435
2.69575e-06;-0.007335055639699712
2.69600e-06;-0.00732896122912247
2.69625e-06;-0.007322866818545228
2.69650e-06;-0.007316772407967987
