Time(s);Current(A)
1.37500e-05;0.004842308407536017
1.37503e-05;0.004861247962593654
1.37505e-05;0.00488018751765129
1.37508e-05;0.004899127072708799
1.37510e-05;0.004918066627766436
1.37513e-05;0.004937006182824072
1.37515e-05;0.00495594573788158
1.37518e-05;0.00497026030350742
1.37520e-05;0.00498353149281967
1.37523e-05;0.00499680268213183
1.37525e-05;0.0050100738714440795
1.37528e-05;0.005023345060756329
1.37530e-05;0.005036616250068489
1.37533e-05;0.005049887439380739
1.37535e-05;0.005063158628692988
1.37538e-05;0.005076429818005148
1.37540e-05;0.005089701007317398
1.37543e-05;0.005102972196629648
1.37545e-05;0.0051162433859418075
1.37548e-05;0.005129514575254058
1.37550e-05;0.005142785764566307
1.37553e-05;0.0051560569538784675
1.37555e-05;0.005169328143190717
1.37558e-05;0.0051825993325029665
1.37560e-05;0.005195453207086372
1.37563e-05;0.005207179804785845
1.37565e-05;0.005218906402485318
1.37568e-05;0.005230633000184711
1.37570e-05;0.005242359597884184
1.37573e-05;0.005254086195583657
1.37575e-05;0.00526581279328313
1.37578e-05;0.005277539390982523
1.37580e-05;0.005289265988681996
1.37583e-05;0.005300992586381469
1.37585e-05;0.005312719184080862
1.37588e-05;0.005324445781780335
1.37590e-05;0.005336172379479808
1.37593e-05;0.005347898977179201
1.37595e-05;0.005359625574878674
1.37598e-05;0.0053713521725781465
1.37600e-05;0.00538307877027754
1.37603e-05;0.0053948053679770125
1.37605e-05;0.005402922476743181
1.37608e-05;0.005409666524990873
1.37610e-05;0.005416410573238611
1.37613e-05;0.005423154621486349
1.37615e-05;0.005429898669734041
1.37618e-05;0.005436642717981778
1.37620e-05;0.005443386766229516
1.37623e-05;0.005450130814477208
1.37625e-05;0.005456874862724946
1.37628e-05;0.0054636189109726835
1.37630e-05;0.005470362959220375
1.37633e-05;0.005477107007468113
1.37635e-05;0.005483851055715851
1.37638e-05;0.0054905951039635435
1.37640e-05;0.005497339152211281
1.37643e-05;0.005491330100280377
1.37645e-05;0.005480469730429249
1.37648e-05;0.005469609360578047
1.37650e-05;0.005458748990726845
1.37653e-05;0.005447888620875718
1.37655e-05;0.005437028251024516
1.37658e-05;0.005426167881173314
1.37660e-05;0.0054153075113221125
1.37663e-05;0.005404447141470985
1.37665e-05;0.0053935867716197825
1.37668e-05;0.005382726401768581
1.37670e-05;0.005371866031917453
1.37673e-05;0.005361005662066252
1.37675e-05;0.00535014529221505
1.37678e-05;0.005339284922363922
1.37680e-05;0.005319975058507037
1.37683e-05;0.005297450981547676
1.37685e-05;0.005274926904588468
1.37688e-05;0.0052524028276291065
1.37690e-05;0.005229878750669745
1.37693e-05;0.005207354673710537
1.37695e-05;0.005184830596751176
1.37698e-05;0.005162306519791814
1.37700e-05;0.0051397824428326055
1.37703e-05;0.005117258365873244
1.37705e-05;0.005094734288913883
1.37708e-05;0.0050731220543463055
1.37710e-05;0.005054660973349419
1.37713e-05;0.005036199892352533
1.37715e-05;0.0050177388113557715
1.37718e-05;0.004999277730358884
1.37720e-05;0.004980816649361998
1.37723e-05;0.004962355568365237
1.37725e-05;0.00494389448736835
1.37728e-05;0.004925433406371463
1.37730e-05;0.004906972325374702
1.37733e-05;0.004888511244377816
1.37735e-05;0.004870050163380929
1.37738e-05;0.004852816424439254
1.37740e-05;0.004836049570131386
1.37743e-05;0.004819282715823518
1.37745e-05;0.00480251586151565
1.37748e-05;0.004785749007207895
1.37750e-05;0.004768982152900027
1.37753e-05;0.0047522152985921585
1.37755e-05;0.004735448444284403
1.37758e-05;0.004718681589976535
1.37760e-05;0.004701914735668667
1.37763e-05;0.004685147881360913
1.37765e-05;0.004668381027053044
1.37768e-05;0.004651614172745176
1.37770e-05;0.0046348473184374215
1.37773e-05;0.004618080464129553
1.37775e-05;0.004601313609821685
1.37778e-05;0.004584236345717401
1.37780e-05;0.0045660863644986435
1.37783e-05;0.004547936383279887
1.37785e-05;0.004529786402061252
1.37788e-05;0.004511636420842496
1.37790e-05;0.004493486439623738
1.37793e-05;0.004475336458405105
1.37795e-05;0.004457186477186347
1.37798e-05;0.00443903649596759
1.37800e-05;0.004420886514748956
1.37803e-05;0.004402736533530199
1.37805e-05;0.0043845865523114425
1.37808e-05;0.004366436571092808
1.37810e-05;0.004348286589874051
1.37813e-05;0.004330136608655294
1.37815e-05;0.00431198662743666
1.37818e-05;0.004293836646217903
1.37820e-05;0.004277365605003393
1.37823e-05;0.004261533237650359
1.37825e-05;0.004245700870297218
1.37828e-05;0.0042298685029440765
1.37830e-05;0.004214036135590935
1.37833e-05;0.0041982037682379006
1.37835e-05;0.004182371400884759
1.37838e-05;0.004166539033531618
1.37840e-05;0.004137933688408519
1.37843e-05;0.004104469463865097
1.37845e-05;0.004071005239321674
1.37848e-05;0.004037541014778479
1.37850e-05;0.004004076790235057
1.37853e-05;0.003970612565691634
1.37855e-05;0.003937148341148438
1.37858e-05;0.0039036841166050157
1.37860e-05;0.003853365555887402
1.37863e-05;0.0037966355546542687
1.37865e-05;0.0037399055534207506
1.37868e-05;0.0036831755521872325
1.37870e-05;0.0036264455509540986
1.37873e-05;0.0035697155497205805
1.37875e-05;0.0035129855484870623
1.37878e-05;0.0034562555472539285
1.37880e-05;0.0033892958377084695
1.37883e-05;0.003318444716145005
1.37885e-05;0.0032475935945820208
1.37888e-05;0.0031767424730185564
1.37890e-05;0.003105891351455092
1.37893e-05;0.0030350402298921077
1.37895e-05;0.0029641891083286433
1.37898e-05;0.002893337986765179
1.37900e-05;0.0028233036288331
1.37903e-05;0.0027535799702589755
1.37905e-05;0.002683856311684851
1.37908e-05;0.0026141326531111996
1.37910e-05;0.0025444089945370753
1.37913e-05;0.0024746853359629514
1.37915e-05;0.0024156992609051767
1.37918e-05;0.0023607977951319663
1.37920e-05;0.002305896329358384
1.37923e-05;0.0022509948635848014
1.37925e-05;0.002196093397811591
1.37928e-05;0.0021411919320380086
1.37930e-05;0.0020985178713967055
1.37933e-05;0.00206049515269421
1.37935e-05;0.0020224724339914565
1.37938e-05;0.0019922114225045437
1.37940e-05;0.0019649029879463173
1.37943e-05;0.001937594553387906
1.37945e-05;0.0019189003052517896
1.37948e-05;0.0019034829197159585
1.37950e-05;0.001888065534180023
1.37953e-05;0.0018801078266233327
1.37955e-05;0.0018749878031591811
1.37958e-05;0.0018698677796949949
1.37960e-05;0.0018716770839146875
1.37963e-05;0.0018761223253684143
1.37965e-05;0.0018805675668221713
1.37968e-05;0.001891455695722708
1.37970e-05;0.001904794718518007
1.37973e-05;0.0019181337413133966
1.37975e-05;0.0019389823920886648
1.37978e-05;0.001962687728087678
1.37980e-05;0.0019863930640868516
1.37983e-05;0.0020100984000860256
1.37985e-05;0.0020338037360850387
1.37988e-05;0.0020575090720842126
1.37990e-05;0.002081214408083386
1.37993e-05;0.00211010756849012
1.37995e-05;0.002140974193011478
1.37998e-05;0.0021718408175328357
1.38000e-05;0.002202707442054193
1.38003e-05;0.0022335740665753415
1.38005e-05;0.0022644406910966993
1.38008e-05;0.002295307315618057
1.38010e-05;0.0023238113468779602
1.38013e-05;0.00235141664050703
1.38015e-05;0.0023790219341361003
1.38018e-05;0.0024066272277649832
1.38020e-05;0.0024342325213940535
1.38023e-05;0.0024618378150231238
1.38025e-05;0.002485457891349273
1.38028e-05;0.002507561978945411
1.38030e-05;0.0025296660665415495
1.38033e-05;0.002551770154137538
1.38035e-05;0.0025738742417336763
1.38038e-05;0.002595978329329815
1.38040e-05;0.0026199873038503813
1.38043e-05;0.002644720903125732
1.38045e-05;0.0026694545024010825
1.38048e-05;0.002694188101676265
1.38050e-05;0.0027189217009516158
1.38053e-05;0.002744886605930672
1.38055e-05;0.002775106668825722
1.38058e-05;0.0028053267317209767
1.38060e-05;0.0028355467946162313
1.38063e-05;0.0028657668575112812
1.38065e-05;0.002895986920406536
1.38068e-05;0.002928224060399926
1.38070e-05;0.0029644316524676333
1.38073e-05;0.0030018577324341534
1.38075e-05;0.0030392838124006735
1.38078e-05;0.00307670989236694
1.38080e-05;0.00311413597233346
1.38083e-05;0.0031515620522999796
1.38085e-05;0.003188988132266246
1.38088e-05;0.003226414212232766
1.38090e-05;0.003263840292199286
1.38093e-05;0.0033011741148812257
1.38095e-05;0.003338189113964757
1.38098e-05;0.00337520411304854
1.38100e-05;0.0034122191121323223
1.38103e-05;0.003449234111215854
1.38105e-05;0.0034862491102996365
1.38108e-05;0.003523264109383419
1.38110e-05;0.0035602791084669507
1.38113e-05;0.003597294107550733
1.38115e-05;0.0036343091066345155
1.38118e-05;0.003663030297901683
1.38120e-05;0.00368859649955874
1.38123e-05;0.003714162701215797
1.38125e-05;0.00373972890287268
1.38128e-05;0.003765295104529737
1.38130e-05;0.0037908613061867938
1.38133e-05;0.0038164275078436775
1.38135e-05;0.0038419937095007343
1.38138e-05;0.003867559911157791
1.38140e-05;0.0038923362907925824
1.38143e-05;0.0039143831959995885
1.38145e-05;0.0039364301012065955
1.38148e-05;0.003958477006413452
1.38150e-05;0.003980523911620459
1.38153e-05;0.0040025708168274655
1.38155e-05;0.004024617722034323
1.38158e-05;0.004046664627241329
1.38160e-05;0.004068711532448336
1.38163e-05;0.004090758437655193
1.38165e-05;0.0041142079790877665
1.38168e-05;0.004138191087588406
1.38170e-05;0.004162174196088883
1.38173e-05;0.004186157304589523
1.38175e-05;0.004210140413090162
1.38178e-05;0.004234123521590802
1.38180e-05;0.004258106630091279
1.38183e-05;0.004282089738591919
1.38185e-05;0.004306072847092559
1.38188e-05;0.0043300559555930354
1.38190e-05;0.004354039064093675
1.38193e-05;0.004378022172594314
1.38195e-05;0.0043998878155140815
1.38198e-05;0.004420947968114291
1.38200e-05;0.0044420081207145
1.38203e-05;0.004463068273314566
1.38205e-05;0.004484128425914774
1.38208e-05;0.0045051885785149836
1.38210e-05;0.00452624873111505
1.38213e-05;0.004547308883715259
1.38215e-05;0.004568369036315468
1.38218e-05;0.004589429188915534
1.38220e-05;0.0046104893415157425
1.38223e-05;0.004631549494115952
1.38225e-05;0.0046384564397574275
1.38228e-05;0.004639979462607784
1.38230e-05;0.004641502485458141
1.38233e-05;0.004643025508308488
1.38235e-05;0.004644548531158844
1.38238e-05;0.004646071554009201
1.38240e-05;0.004647594576859548
1.38243e-05;0.0046491175997099045
1.38245e-05;0.004650640622560261
1.38248e-05;0.004625466254955749
1.38250e-05;0.004590136119166514
1.38253e-05;0.004554805983377278
1.38255e-05;0.004519475847588282
1.38258e-05;0.004484145711799046
1.38260e-05;0.00444881557600981
1.38263e-05;0.004413485440220575
1.38265e-05;0.004378155304431579
1.38268e-05;0.004342825168642343
1.38270e-05;0.004286700012579461
1.38273e-05;0.004222664367825127
1.38275e-05;0.00415862872307036
1.38278e-05;0.004094593078315592
1.38280e-05;0.004030557433561259
1.38283e-05;0.003966521788806491
1.38285e-05;0.0039024861440517243
1.38288e-05;0.0038301432816947815
1.38290e-05;0.0037546403286018147
1.38293e-05;0.003679137375508848
1.38295e-05;0.0036036344224163928
1.38298e-05;0.003528131469323426
1.38300e-05;0.003452628516230459
1.38303e-05;0.003377125563138004
1.38305e-05;0.003306468169722201
1.38308e-05;0.0032376540418831636
1.38310e-05;0.0031688399140445923
1.38313e-05;0.0031000257862055553
1.38315e-05;0.003031211658366518
1.38318e-05;0.0029623975305279465
1.38320e-05;0.0028935834026889095
1.38323e-05;0.0028403520365264698
1.38325e-05;0.0027930484001014826
1.38328e-05;0.0027457447636761744
1.38330e-05;0.0026984411272508667
1.38333e-05;0.0026511374908258795
1.38335e-05;0.002603833854400572
1.38338e-05;0.0025565302179752637
1.38340e-05;0.0025242754589224563
1.38343e-05;0.0024977453384006725
1.38345e-05;0.0024712152178788887
1.38348e-05;0.002444685097357105
1.38350e-05;0.002418154976835501
1.38353e-05;0.002391624856313717
1.38355e-05;0.0023650947357919333
1.38358e-05;0.002338564615270329
1.38360e-05;0.0023120344947485452
1.38363e-05;0.0022890533012430436
1.38365e-05;0.002278336523360038
1.38368e-05;0.0022676197454769603
1.38370e-05;0.0022569029675938825
1.38373e-05;0.002246186189710877
1.38375e-05;0.002235469411827799
1.38378e-05;0.0022247526339447214
1.38380e-05;0.002214035856061716
1.38383e-05;0.002203319078178638
1.38385e-05;0.00219260230029556
1.38388e-05;0.0021880849553772928
1.38390e-05;0.00218592589353562
1.38393e-05;0.002183766831693948
1.38395e-05;0.00218160776985229
1.38398e-05;0.002179448708010617
1.38400e-05;0.0021772896461689445
1.38403e-05;0.0021751305843272866
1.38405e-05;0.0021729715224856143
1.38408e-05;0.0021708124606439417
1.38410e-05;0.0021686533988022837
1.38413e-05;0.002168906297913181
1.38415e-05;0.002170076714275767
1.38418e-05;0.002171247130638345
1.38420e-05;0.0021724175470009314
1.38423e-05;0.0021735879633635173
1.38425e-05;0.0021747583797260953
1.38428e-05;0.0021759287960886812
1.38430e-05;0.002177099212451267
1.38433e-05;0.0021782696288138535
1.38435e-05;0.0021794400451764315
1.38438e-05;0.0021910268836835595
1.38440e-05;0.0022065761607236605
1.38443e-05;0.002222125437763656
1.38445e-05;0.002237674714803757
1.38448e-05;0.002253223991843858
1.38450e-05;0.0022687732688838535
1.38453e-05;0.0022843225459239546
1.38455e-05;0.0022998718229640556
1.38458e-05;0.0023154211000040513
1.38460e-05;0.0023309703770441523
1.38463e-05;0.0023465196540842534
1.38465e-05;0.0023749036454268142
1.38468e-05;0.0024081700009643695
1.38470e-05;0.002441436356501925
1.38473e-05;0.002474702712039255
1.38475e-05;0.0025079690675768106
1.38478e-05;0.002541235423114366
1.38480e-05;0.002574501778651696
1.38483e-05;0.002607768134189251
1.38485e-05;0.002641034489726807
1.38488e-05;0.0026743008452641366
1.38490e-05;0.0027075672008016922
1.38493e-05;0.0027444836023021823
1.38495e-05;0.0027827884923422312
1.38498e-05;0.0028210933823825395
1.38500e-05;0.0028593982724228477
1.38503e-05;0.002897703162462896
1.38505e-05;0.0029360080525032044
1.38508e-05;0.0029743129425435126
1.38510e-05;0.0030126178325835615
1.38513e-05;0.0030446652441370255
1.38515e-05;0.003074332291920758
1.38518e-05;0.0031039993397044903
1.38520e-05;0.0031336663874880215
1.38523e-05;0.003163333435271754
1.38525e-05;0.0031930004830554863
1.38528e-05;0.003222667530839018
1.38530e-05;0.0032523345786227504
1.38533e-05;0.003283244486638278
1.38535e-05;0.0033146271824503115
1.38538e-05;0.0033460098782625578
1.38540e-05;0.0033773925740748036
1.38543e-05;0.003408775269886837
1.38545e-05;0.0034401579656990833
1.38548e-05;0.003471540661511329
1.38550e-05;0.0035029233573233625
1.38553e-05;0.003534306053135609
1.38555e-05;0.0035656887489478547
1.38558e-05;0.003597071444759888
1.38560e-05;0.003631659810912446
1.38563e-05;0.003677326363020713
1.38565e-05;0.003722992915128671
1.38568e-05;0.0037686594672369377
1.38570e-05;0.003814326019345205
1.38573e-05;0.0038599925714531626
1.38575e-05;0.00390565912356143
1.38578e-05;0.003951325675669697
1.38580e-05;0.003996992227777654
1.38583e-05;0.004042658779885922
1.38585e-05;0.0040883253319941885
1.38588e-05;0.004133991884102146
1.38590e-05;0.004182530991177444
1.38593e-05;0.0042321628268632795
1.38595e-05;0.004281794662548779
1.38598e-05;0.004331426498234615
1.38600e-05;0.004381058333920451
1.38603e-05;0.0044306901696062875
1.38605e-05;0.004480322005291787
1.38608e-05;0.004529953840977622
1.38610e-05;0.0045795856766634585
1.38613e-05;0.004619264378378223
1.38615e-05;0.004655156877782045
1.38618e-05;0.004691049377185866
1.38620e-05;0.0047269418765894435
1.38623e-05;0.004762834375993265
1.38625e-05;0.004798726875397086
1.38628e-05;0.004834619374800664
1.38630e-05;0.004870511874204485
1.38633e-05;0.004906404373608306
1.38635e-05;0.004923745433710658
1.38638e-05;0.004934029470108603
1.38640e-05;0.004944313506506547
1.38643e-05;0.0049545975429044235
1.38645e-05;0.004964881579302368
1.38648e-05;0.004975165615700313
1.38650e-05;0.004985449652098189
1.38653e-05;0.004995733688496134
1.38655e-05;0.0050060177248940785
1.38658e-05;0.005016301761291955
1.38660e-05;0.0050265857976898995
1.38663e-05;0.005036869834087845
1.38665e-05;0.00504225093303797
1.38668e-05;0.005030688414262494
1.38670e-05;0.005019125895487018
1.38673e-05;0.005007563376711621
1.38675e-05;0.004996000857936145
1.38678e-05;0.00498443833916067
1.38680e-05;0.004972875820385273
1.38683e-05;0.004961313301609797
1.38685e-05;0.004949750782834321
1.38688e-05;0.004938188264058846
1.38690e-05;0.004926625745283448
1.38693e-05;0.004915063226507973
1.38695e-05;0.004903500707732497
1.38698e-05;0.004887615927944311
1.38700e-05;0.004870086946973928
1.38703e-05;0.004852557966003546
1.38705e-05;0.004835028985033281
1.38708e-05;0.004817500004062899
1.38710e-05;0.004799971023092517
1.38713e-05;0.004782442042122252
1.38715e-05;0.004765510504210694
1.38718e-05;0.004750643615687592
1.38720e-05;0.00473577672716459
1.38723e-05;0.004720909838641489
1.38725e-05;0.004706042950118387
1.38728e-05;0.004691176061595386
1.38730e-05;0.004676309173072284
1.38733e-05;0.004661442284549182
1.38735e-05;0.004635605743000911
1.38738e-05;0.004605596312212099
1.38740e-05;0.004575586881423286
1.38743e-05;0.0045455774506346774
1.38745e-05;0.004515568019845866
1.38748e-05;0.004485558589057054
1.38750e-05;0.004455549158268445
1.38753e-05;0.004425539727479632
1.38755e-05;0.00439553029669082
1.38758e-05;0.004365520865902211
1.38760e-05;0.004329866593309977
1.38763e-05;0.004274704822876789
1.38765e-05;0.0042195430524439755
1.38768e-05;0.004164381282010788
1.38770e-05;0.0041092195115776005
1.38773e-05;0.004054057741144413
1.38775e-05;0.003998895970711599
1.38778e-05;0.003943734200278412
1.38780e-05;0.003888572429845224
1.38783e-05;0.0038334106594124103
1.38785e-05;0.003778248888979223
1.38788e-05;0.0037155125732417442
1.38790e-05;0.003649894877525314
1.38793e-05;0.0035842771818084393
1.38795e-05;0.003518659486091564
1.38798e-05;0.003453041790375134
1.38800e-05;0.003387424094658259
1.38803e-05;0.003321806398941384
1.38805e-05;0.0032610024086302046
1.38808e-05;0.003202029566437129
1.38810e-05;0.003143056724244053
1.38813e-05;0.0030840838820513773
1.38815e-05;0.0030251110398583016
1.38818e-05;0.0029661381976652263
1.38820e-05;0.00290716535547255
1.38823e-05;0.002858357229956515
1.38825e-05;0.0028134157934571577
1.38828e-05;0.002768474356958105
1.38830e-05;0.002731317650931247
1.38833e-05;0.0026971222799590903
1.38835e-05;0.0026629269089871654
1.38838e-05;0.002636206480495762
1.38840e-05;0.0026123295427686283
1.38843e-05;0.0025884526050416567
1.38845e-05;0.0025727781899041163
1.38848e-05;0.0025602240392084857
1.38850e-05;0.00254766988851294
1.38853e-05;0.002542400534565191
1.38855e-05;0.0025399023393689935
1.38858e-05;0.0025374041441727966
1.38860e-05;0.0025465872262608177
1.38863e-05;0.0025602139016151462
1.38865e-05;0.0025738405769694743
1.38868e-05;0.0025874672523237105
1.38870e-05;0.0026010939276780386
1.38873e-05;0.002614720603032367
1.38875e-05;0.0026283472783866033
1.38878e-05;0.0026419739537409314
1.38880e-05;0.0026667723304333456
1.38883e-05;0.002695820456158413
1.38885e-05;0.002724868581883677
1.38888e-05;0.0027539167076089414
1.38890e-05;0.0027829648333340083
1.38893e-05;0.0028120129590592726
1.38895e-05;0.002841061084784537
1.38898e-05;0.002870109210509604
1.38900e-05;0.0029005567026994267
1.38903e-05;0.0029315365181316806
1.38905e-05;0.002962516333563725
1.38908e-05;0.0029934961489959788
1.38910e-05;0.003024475964428233
1.38913e-05;0.003055455779860277
1.38915e-05;0.0030864355952925308
1.38918e-05;0.003117415410724785
1.38920e-05;0.0031465327902978272
1.38923e-05;0.003169213946361608
1.38925e-05;0.003191895102425389
1.38928e-05;0.0032145762584890165
1.38930e-05;0.003237257414552798
1.38933e-05;0.0032599385706165787
1.38935e-05;0.003282619726680206
1.38938e-05;0.003305300882743987
1.38940e-05;0.0033279820388077684
1.38943e-05;0.0033507019943186203
1.38945e-05;0.003373436709256528
1.38948e-05;0.0033961714241945895
1.38950e-05;0.003418906139132651
1.38953e-05;0.003441640854070559
1.38955e-05;0.00346437556900862
1.38958e-05;0.003487110283946682
1.38960e-05;0.0035098449988845894
1.38963e-05;0.003532579713822651
1.38965e-05;0.0035553144287607127
1.38968e-05;0.00357804914369862
1.38970e-05;0.0036007838586366815
1.38973e-05;0.0036235185735747433
1.38975e-05;0.0036462532885126507
1.38978e-05;0.0036706745810007506
1.38980e-05;0.0036957374526985086
1.38983e-05;0.0037208003243960966
1.38985e-05;0.0037458631960938546
1.38988e-05;0.0037709260677916126
1.38990e-05;0.0037959889394892006
1.38993e-05;0.0038210518111869585
1.38995e-05;0.0038461146828847165
