Time(s);Current(A)
1.10500e-05;0.003565991791983473
1.10503e-05;0.003560825482981353
1.10505e-05;0.0035556591739792677
1.10508e-05;0.0035504928649771478
1.10510e-05;0.003545326555975028
1.10513e-05;0.0035401602469729426
1.10515e-05;0.0035349939379708227
1.10518e-05;0.0035298276289687028
1.10520e-05;0.0035246613199666176
1.10523e-05;0.0035194950109644976
1.10525e-05;0.0035143287019623777
1.10528e-05;0.0035091623929602925
1.10530e-05;0.0035039960839581726
1.10533e-05;0.0034988297749560526
1.10535e-05;0.0034936634659539674
1.10538e-05;0.0034884971569518475
1.10540e-05;0.0034833308479497276
1.10543e-05;0.0034781645389476423
1.10545e-05;0.003472937399362071
1.10548e-05;0.0034666016248219977
1.10550e-05;0.0034602658502819674
1.10553e-05;0.003453930075741894
1.10555e-05;0.003447594301201821
1.10557e-05;0.00344125852666179
1.10560e-05;0.003434922752121717
1.10563e-05;0.0034285869775816436
1.10565e-05;0.0034222512030416133
1.10568e-05;0.0034159154285015396
1.10570e-05;0.0034095796539614664
1.10572e-05;0.003403243879421436
1.10575e-05;0.003396908104881363
1.10578e-05;0.0033905723303412896
1.10580e-05;0.003384236555801216
1.10583e-05;0.0033779007812611856
1.10585e-05;0.0033715650067211124
1.10588e-05;0.003365229232181039
1.10590e-05;0.0033585560257592584
1.10593e-05;0.003345733136760737
1.10595e-05;0.003332910247762215
1.10598e-05;0.00332008735876378
1.10600e-05;0.0033072644697652587
1.10603e-05;0.0032944415807667367
1.10605e-05;0.003281618691768302
1.10608e-05;0.0032687958027697805
1.10610e-05;0.0032559729137712585
1.10613e-05;0.0032431500247728237
1.10615e-05;0.0032303271357743022
1.10618e-05;0.0032175042467757803
1.10620e-05;0.0032046813577773455
1.10623e-05;0.003191858468778824
1.10625e-05;0.003179035579780302
1.10628e-05;0.0031662126907818673
1.10630e-05;0.003153389801783346
1.10633e-05;0.003140566912784824
1.10635e-05;0.0031279501303001635
1.10638e-05;0.0031190896308055513
1.10640e-05;0.003110229131310939
1.10642e-05;0.0031013686318163867
1.10645e-05;0.0030925081323217745
1.10648e-05;0.0030836476328271623
1.10650e-05;0.00307478713333261
1.10653e-05;0.0030659266338379978
1.10655e-05;0.0030570661343433856
1.10657e-05;0.0030482056348488332
1.10660e-05;0.003039345135354221
1.10663e-05;0.003030484635859609
1.10665e-05;0.0030216241363649966
1.10668e-05;0.0030127636368704443
1.10670e-05;0.003003903137375832
1.10673e-05;0.00299504263788122
1.10675e-05;0.0029861821383866676
1.10678e-05;0.0029773216388920554
1.10680e-05;0.0029692616868893275
1.10683e-05;0.0029757916809912757
1.10685e-05;0.0029823216750932686
1.10688e-05;0.0029888516691952615
1.10690e-05;0.00299538166329721
1.10693e-05;0.003001911657399203
1.10695e-05;0.003008441651501196
1.10698e-05;0.0030149716456031447
1.10700e-05;0.0030215016397051376
1.10703e-05;0.00302803163380713
1.10705e-05;0.0030345616279090788
1.10708e-05;0.0030410916220110717
1.10710e-05;0.0030476216161130646
1.10713e-05;0.0030541516102150132
1.10715e-05;0.003060681604317006
1.10718e-05;0.003067211598418999
1.10720e-05;0.0030737415925209477
1.10723e-05;0.00308027158662294
1.10725e-05;0.0030870725563862745
1.10727e-05;0.0030988120467706146
1.10730e-05;0.0031105515371550345
1.10733e-05;0.003122291027539454
1.10735e-05;0.0031340305179237945
1.10738e-05;0.003145770008308214
1.10740e-05;0.003157509498692634
1.10742e-05;0.003169248989076974
1.10745e-05;0.003180988479461394
1.10748e-05;0.0031927279698458137
1.10750e-05;0.003204467460230154
1.10753e-05;0.003215822943027447
1.10755e-05;0.0032201799028621445
1.10758e-05;0.003224536862696842
1.10760e-05;0.00322889382253151
1.10763e-05;0.0032332507823662074
1.10765e-05;0.0032376077422009053
1.10768e-05;0.0032419647020355733
1.10770e-05;0.0032463216618702708
1.10773e-05;0.0032506786217049682
1.10775e-05;0.003255035581539636
1.10778e-05;0.0032593925413743337
1.10780e-05;0.0032630407978547897
1.10783e-05;0.0032537729639611386
1.10785e-05;0.0032445051300674247
1.10788e-05;0.003235237296173711
1.10790e-05;0.00322596946228006
1.10793e-05;0.003216701628386346
1.10795e-05;0.0032074337944926327
1.10798e-05;0.0031981659605989816
1.10800e-05;0.003188898126705268
1.10803e-05;0.003179630292811554
1.10805e-05;0.003170362458917903
1.10808e-05;0.0031610946250241897
1.10810e-05;0.0031469792085553608
1.10812e-05;0.003128929772136566
1.10815e-05;0.003110880335717649
1.10818e-05;0.0030928308992987314
1.10820e-05;0.0030747814628799366
1.10823e-05;0.0030567320264610195
1.10825e-05;0.0030386825900421024
1.10827e-05;0.0030206331536233076
1.10830e-05;0.0030025837172043906
1.10833e-05;0.0029845342807854735
1.10835e-05;0.0029664848443666787
1.10838e-05;0.0029486609731882727
1.10840e-05;0.002934948019528567
1.10843e-05;0.002921235065868861
1.10845e-05;0.002907522112209248
1.10848e-05;0.002893809158549542
1.10850e-05;0.0028800962048898364
1.10853e-05;0.0028663832512302234
1.10855e-05;0.0028526702975705176
1.10858e-05;0.0028389573439108117
1.10860e-05;0.0028252443902511987
1.10863e-05;0.002811531436591493
1.10865e-05;0.002797818482931787
1.10868e-05;0.0027841055292721745
1.10870e-05;0.0027703925756124687
1.10873e-05;0.002756679621952763
1.10875e-05;0.00274296666829315
1.10878e-05;0.0027297119271980502
1.10880e-05;0.002724808091837158
1.10883e-05;0.002719904256476299
1.10885e-05;0.002715000421115407
1.10888e-05;0.0027100965857545147
1.10890e-05;0.002705192750393656
1.10893e-05;0.002700288915032764
1.10895e-05;0.0026953850796718718
1.10897e-05;0.0026904812443110126
1.10900e-05;0.0026855774089501205
1.10903e-05;0.0026806735735892284
1.10905e-05;0.0026757697382283696
1.10908e-05;0.0026708659028674775
1.10910e-05;0.0026659620675065854
1.10912e-05;0.0026610582321457267
1.10915e-05;0.0026561543967848346
1.10918e-05;0.002651436431519889
1.10920e-05;0.002650105941350617
1.10923e-05;0.002648775451181336
1.10925e-05;0.0026474449610120556
1.10928e-05;0.0026461144708427747
1.10930e-05;0.002644783980673503
1.10933e-05;0.0026434534905042223
1.10935e-05;0.0026421230003349414
1.10938e-05;0.0026407925101656696
1.10940e-05;0.0026394620199963886
1.10943e-05;0.002638131529827108
1.10945e-05;0.0026368010396578363
1.10948e-05;0.0026354705494885554
1.10950e-05;0.002634140059319275
1.10953e-05;0.002632809569150003
1.10955e-05;0.002631479078980722
1.10958e-05;0.0026301485888114416
1.10960e-05;0.00262902479383747
1.10963e-05;0.0026316680105675128
1.10965e-05;0.0026343112272975556
1.10968e-05;0.0026369544440275803
1.10970e-05;0.002639597660757623
1.10973e-05;0.002642240877487666
1.10975e-05;0.0026448840942176906
1.10978e-05;0.0026475273109477335
1.10980e-05;0.0026501705276777763
1.10983e-05;0.002652813744407801
1.10985e-05;0.002655456961137844
1.10988e-05;0.0026581001778678867
1.10990e-05;0.0026607433945979118
1.10993e-05;0.002663386611327954
1.10995e-05;0.002666029828057997
1.10997e-05;0.002668673044788022
1.11000e-05;0.0026713162615180646
1.11003e-05;0.0026742122000386662
1.11005e-05;0.0026817139831310046
1.11008e-05;0.0026892157662233938
1.11010e-05;0.002696717549315783
1.11013e-05;0.002704219332408172
1.11015e-05;0.0027117211155005105
1.11018e-05;0.0027192228985928996
1.11020e-05;0.0027267246816852888
1.11023e-05;0.002734226464777627
1.11025e-05;0.0027417282478700163
1.11028e-05;0.0027492300309624055
1.11030e-05;0.002756731814054744
1.11033e-05;0.0027639507501556557
1.11035e-05;0.0027709401438628586
1.11038e-05;0.002777929537570014
1.11040e-05;0.0027849189312772167
1.11043e-05;0.0027919083249844196
1.11045e-05;0.0027988977186915753
1.11048e-05;0.002805887112398778
1.11050e-05;0.0028128765061059807
1.11053e-05;0.0028198658998131363
1.11055e-05;0.002826855293520339
1.11058e-05;0.002833844687227542
1.11060e-05;0.0028400897806744453
1.11063e-05;0.0028327700314966973
1.11065e-05;0.0028254502823189492
1.11068e-05;0.0028181305331412506
1.11070e-05;0.0028108107839635026
1.11073e-05;0.002803491034785754
1.11075e-05;0.002796171285608056
1.11078e-05;0.0027888515364303075
1.11080e-05;0.0027815317872525594
1.11082e-05;0.002774212038074861
1.11085e-05;0.002766892288897113
1.11088e-05;0.0027595725397193648
1.11090e-05;0.0027510597111724106
1.11093e-05;0.002720803058588698
1.11095e-05;0.002690546406004985
1.11098e-05;0.0026602897534212726
1.11100e-05;0.0026300331008377647
1.11103e-05;0.002599776448254052
1.11105e-05;0.0025695197956703392
1.11108e-05;0.0025392631430868314
1.11110e-05;0.002509006490503119
1.11113e-05;0.0024787498379194063
1.11115e-05;0.0024484931853358985
1.11118e-05;0.0024182365327521855
1.11120e-05;0.0023875050332782337
1.11123e-05;0.002348119468121053
1.11125e-05;0.0023087339029636052
1.11128e-05;0.002269348337806158
1.11130e-05;0.002229962772648977
1.11133e-05;0.0021905772074915296
1.11135e-05;0.002151191642334082
1.11138e-05;0.0021120265777250487
1.11140e-05;0.002076880126835087
1.11143e-05;0.002041733675945125
1.11145e-05;0.0020065872250554007
1.11148e-05;0.001971440774165439
1.11150e-05;0.0019362943232754768
1.11153e-05;0.0019011478723857528
1.11155e-05;0.0018667532584159578
1.11158e-05;0.0018460608424148465
1.11160e-05;0.0018253684264138755
1.11163e-05;0.0018046760104127643
1.11165e-05;0.001783983594411653
1.11167e-05;0.0017632911784106818
1.11170e-05;0.0017425987624095705
1.11173e-05;0.0017219063464084593
1.11175e-05;0.0017012139304074883
1.11178e-05;0.001680521514406377
1.11180e-05;0.0016605392109321241
1.11183e-05;0.0016534986800232666
1.11185e-05;0.0016464581491144568
1.11188e-05;0.0016394176182055991
1.11190e-05;0.0016323770872967416
1.11193e-05;0.0016253365563879316
1.11195e-05;0.0016182960254790741
1.11198e-05;0.0016112554945702166
1.11200e-05;0.0016042149636614066
1.11203e-05;0.001597174432752549
1.11205e-05;0.0015905708519097519
1.11208e-05;0.001591930668648394
1.11210e-05;0.0015932904853870453
1.11213e-05;0.0015946503021256966
1.11215e-05;0.0015960101188643389
1.11218e-05;0.0015973699356029902
1.11220e-05;0.0015987297523416416
1.11223e-05;0.0016000895690802836
1.11225e-05;0.001601449385818935
1.11228e-05;0.0016028092025575863
1.11230e-05;0.0016057997932093888
1.11233e-05;0.0016101138264259436
1.11235e-05;0.0016144278596424983
1.11238e-05;0.0016187418928590238
1.11240e-05;0.0016230559260755786
1.11243e-05;0.0016273699592921336
1.11245e-05;0.0016316839925086591
1.11248e-05;0.001635998025725214
1.11250e-05;0.0016403120589417687
1.11252e-05;0.001644442464695018
1.11255e-05;0.0016452262672290066
1.11258e-05;0.0016460100697629951
1.11260e-05;0.0016467938722969783
1.11263e-05;0.0016475776748309668
1.11265e-05;0.0016483614773649554
1.11268e-05;0.001649145279898944
1.11270e-05;0.0016499290824329273
1.11273e-05;0.0016507128849669159
1.11275e-05;0.0016514966875009044
1.11278e-05;0.0016522804900348878
1.11280e-05;0.0016530642925688763
1.11283e-05;0.001653848095102865
1.11285e-05;0.001654631897636848
1.11288e-05;0.0016554157001708366
1.11290e-05;0.0016561995027048252
1.11293e-05;0.0016566918250434583
1.11295e-05;0.001651871932405557
1.11298e-05;0.0016470520397676555
1.11300e-05;0.0016422321471297868
1.11303e-05;0.0016374122544918854
1.11305e-05;0.001632592361853984
1.11308e-05;0.0016277724692161154
1.11310e-05;0.001622952576578214
1.11313e-05;0.0016181326839403126
1.11315e-05;0.001613312791302444
1.11318e-05;0.0016084928986645425
1.11320e-05;0.0016036730060266411
1.11323e-05;0.0015988531133887725
1.11325e-05;0.001594033220750871
1.11328e-05;0.0015892133281129699
1.11330e-05;0.001584393435475101
1.11333e-05;0.0015795152153351686
1.11335e-05;0.001573573978788278
1.11337e-05;0.0015676327422414276
1.11340e-05;0.0015616915056945368
1.11343e-05;0.0015557502691476463
1.11345e-05;0.0015498090326007958
1.11348e-05;0.0015439515829632393
1.11350e-05;0.0015396211464193624
1.11353e-05;0.0015352907098754858
1.11355e-05;0.0015309602733316382
1.11358e-05;0.0015266298367877613
1.11360e-05;0.0015222994002438844
1.11363e-05;0.0015184007488695933
1.11365e-05;0.0015223713650562608
1.11368e-05;0.0015263419812429283
1.11370e-05;0.001530807279298426
1.11373e-05;0.0015442881347609084
1.11375e-05;0.0015577689902233907
1.11378e-05;0.0015717285291194808
1.11380e-05;0.001594412054577459
1.11383e-05;0.0016170955800354372
1.11385e-05;0.0016403766751030406
1.11388e-05;0.0016745484525699736
1.11390e-05;0.0017087202300369066
1.11393e-05;0.0017433984893788824
1.11395e-05;0.0017873073607787419
1.11398e-05;0.0018312162321786015
1.11400e-05;0.0018755767656829692
1.11403e-05;0.0019281688231072563
1.11405e-05;0.0019807608805315433
1.11408e-05;0.0020338821418069536
1.11410e-05;0.0020966481222567694
1.11413e-05;0.0021594141027065847
1.11415e-05;0.002222180083155975
1.11418e-05;0.0022849460636057907
1.11420e-05;0.0023477120440556064
1.11422e-05;0.0024107427576315612
1.11425e-05;0.002478598221926114
1.11428e-05;0.002546453686220667
1.11430e-05;0.00261430915051476
1.11433e-05;0.0026821646148093127
1.11435e-05;0.0027500200791038655
1.11438e-05;0.0028174958449064557
1.11440e-05;0.002878051620770812
1.11443e-05;0.002938607396635578
1.11445e-05;0.0029991631725003443
1.11448e-05;0.0030597189483647
1.11450e-05;0.003120274724229466
1.11453e-05;0.0031808305000942325
1.11455e-05;0.0032289528912078443
1.11458e-05;0.0032669850604467236
1.11460e-05;0.0033050172296856025
1.11463e-05;0.0033430493989242242
1.11465e-05;0.003381081568163103
1.11468e-05;0.0034191137374019825
1.11470e-05;0.003455954861822248
1.11473e-05;0.0034710892417108563
1.11475e-05;0.0034862236215994647
1.11478e-05;0.0035005562267711406
1.11480e-05;0.0035002765195578964
1.11483e-05;0.0034999968123446525
1.11485e-05;0.0034989461929016284
1.11488e-05;0.0034838457286767792
1.11490e-05;0.0034687452644519296
1.11493e-05;0.003452526283484529
1.11495e-05;0.0034159223792883347
1.11498e-05;0.00337931847509214
1.11500e-05;0.003342714570896194
1.11503e-05;0.0033061106667
1.11505e-05;0.0032695067625038055
1.11507e-05;0.0032329028583078594
1.11510e-05;0.003195223135042117
1.11513e-05;0.003137936651939506
1.11515e-05;0.003080650168837283
1.11518e-05;0.003023363685734672
1.11520e-05;0.0029660772026320606
1.11523e-05;0.0029087907195294496
1.11525e-05;0.0028515042364272267
1.11528e-05;0.0027939238056521195
1.11530e-05;0.0027309861902128237
1.11533e-05;0.0026680485747739542
1.11535e-05;0.0026051109593346585
1.11538e-05;0.0025421733438953627
1.11540e-05;0.0024792357284564932
1.11543e-05;0.0024167720550513907
1.11545e-05;0.002362945956410631
1.11548e-05;0.002309119857770236
1.11550e-05;0.002255293759129476
1.11553e-05;0.002201467660488716
1.11555e-05;0.0021476415618483214
1.11558e-05;0.0020945671958843715
1.11560e-05;0.002055193128125851
1.11563e-05;0.0020158190603675975
1.11565e-05;0.0019768306949774998
1.11568e-05;0.0019448717399478534
1.11570e-05;0.0019129127849184233
1.11573e-05;0.0018813858502095219
1.11575e-05;0.0018577324687054034
1.11578e-05;0.0018340790872014452
1.11580e-05;0.0018108366107480584
1.11583e-05;0.0017950828625422576
1.11585e-05;0.0017793291143365635
1.11588e-05;0.0017641500830662727
1.11590e-05;0.0017594452451461205
1.11592e-05;0.0017547404072260002
1.11595e-05;0.0017500355693058482
1.11598e-05;0.001745330731385696
1.11600e-05;0.0017406258934655756
1.11603e-05;0.0017359210555454234
1.11605e-05;0.0017312162176252714
1.11608e-05;0.0017271263914627412
1.11610e-05;0.0017342451301847611
1.11613e-05;0.0017413638689068294
1.11615e-05;0.0017484826076288977
1.11618e-05;0.0017556013463509176
1.11620e-05;0.0017627200850729857
1.11623e-05;0.001769838823795054
1.11625e-05;0.001776957562517074
1.11628e-05;0.0017842461311070898
1.11630e-05;0.0017946298423035718
1.11633e-05;0.0018050135534999838
1.11635e-05;0.001815397264696466
1.11638e-05;0.001825780975892948
1.11640e-05;0.00183616468708936
1.11643e-05;0.001846548398285842
1.11645e-05;0.0018569321094823242
1.11648e-05;0.0018673158206787362
1.11650e-05;0.0018776995318752182
1.11653e-05;0.0018880832430717004
1.11655e-05;0.0018984669542681121
1.11658e-05;0.0019088506654645944
1.11660e-05;0.0019192343766610766
1.11663e-05;0.0019296180878574883
1.11665e-05;0.0019398239729962986
1.11668e-05;0.0019467889852858823
1.11670e-05;0.001953753997575419
1.11673e-05;0.0019607190098650026
1.11675e-05;0.0019676840221545863
1.11677e-05;0.0019746490344441227
1.11680e-05;0.0019816140467337063
1.11683e-05;0.00198857905902329
1.11685e-05;0.0019955440713128264
1.11688e-05;0.00200250908360241
1.11690e-05;0.002009474095891994
1.11693e-05;0.0020164391081815775
1.11695e-05;0.002023404120471114
1.11698e-05;0.0020303691327606976
1.11700e-05;0.0020373341450502813
1.11703e-05;0.0020442842529990756
1.11705e-05;0.0020509627299287437
1.11708e-05;0.0020576412068584117
1.11710e-05;0.0020643196837880347
1.11713e-05;0.002070998160717703
1.11715e-05;0.002077676637647371
1.11718e-05;0.002084355114576994
1.11720e-05;0.0020910335915066626
1.11723e-05;0.0020977120684363307
1.11725e-05;0.0021043905453659536
1.11728e-05;0.002111069022295622
1.11730e-05;0.00211774749922529
1.11733e-05;0.002124425976154913
1.11735e-05;0.0021299960228000096
1.11738e-05;0.0021346665310059006
1.11740e-05;0.0021393370392117595
1.11743e-05;0.00214400754741765
1.11745e-05;0.0021486780556235407
1.11748e-05;0.0021533485638293996
1.11750e-05;0.0021580190720352902
1.11753e-05;0.0021626895802411812
1.11755e-05;0.00216736008844704
1.11758e-05;0.0021720305966529308
1.11760e-05;0.0021767011048588213
1.11762e-05;0.0021813716130646803
1.11765e-05;0.0021855081892889795
1.11768e-05;0.002179913876306258
1.11770e-05;0.002174319563323575
1.11773e-05;0.0021687252503408533
1.11775e-05;0.002163130937358132
1.11778e-05;0.002157536624375411
1.11780e-05;0.0021519423113927276
1.11783e-05;0.002146347998410006
1.11785e-05;0.002140753685427285
1.11788e-05;0.0021351593724446014
1.11790e-05;0.0021295650594618802
1.11793e-05;0.002123970746479159
1.11795e-05;0.0021116015394863417
1.11798e-05;0.0020937342171230477
1.11800e-05;0.002075866894759754
1.11803e-05;0.002057999572396581
1.11805e-05;0.0020401322500332875
1.11808e-05;0.0020222649276699935
1.11810e-05;0.002004397605306821
1.11813e-05;0.001986530282943527
1.11815e-05;0.001968662960580233
1.11818e-05;0.0019507956382170603
1.11820e-05;0.0019329283158537665
1.11823e-05;0.0019148416053371739
1.11825e-05;0.0018927565544180974
1.11828e-05;0.001870671503498871
1.11830e-05;0.001848586452579645
1.11833e-05;0.0018265014016605682
1.11835e-05;0.001804416350741342
1.11838e-05;0.0017823312998221158
1.11840e-05;0.0017604106087312876
1.11843e-05;0.0017414853690001291
1.11845e-05;0.0017225601292689707
1.11847e-05;0.0017036348895379404
1.11850e-05;0.001684709649806782
1.11853e-05;0.0016657844100756232
1.11855e-05;0.0016468591703445931
1.11858e-05;0.0016282704744567294
1.11860e-05;0.0016158152767846803
1.11863e-05;0.001603360079112631
1.11865e-05;0.0015912999313665401
1.11868e-05;0.0015864395528751363
1.11870e-05;0.0015815791743837326
1.11873e-05;0.001577123007677575
1.11875e-05;0.0015800335847487915
1.11878e-05;0.0015829441618200079
1.11880e-05;0.0015862831239363431
1.11883e-05;0.0015974293865349026
1.11885e-05;0.0016085756491334624
1.11888e-05;0.0016201594667102695
1.11890e-05;0.0016397177064384819
1.11893e-05;0.0016592759461666942
1.11895e-05;0.0016792096606474084
1.11898e-05;0.001705986387625929
1.11900e-05;0.0017327631146044494
1.11903e-05;0.0017600532981519076
1.11905e-05;0.0017967012073397523
1.11908e-05;0.0018333491165275972
1.11910e-05;0.0018699970257151936
1.11913e-05;0.0019066449349030385
1.11915e-05;0.0019432928440908832
1.11918e-05;0.00197994075327848
1.11920e-05;0.0020169278009152356
1.11923e-05;0.0020600956333557993
1.11925e-05;0.0021032634657960703
1.11928e-05;0.002146431298236634
1.11930e-05;0.0021895991306771973
1.11932e-05;0.0022327669631174683
1.11935e-05;0.002275934795558032
1.11938e-05;0.002318719078191687
1.11940e-05;0.0023545131807782504
1.11943e-05;0.002390307283365056
1.11945e-05;0.002426101385951862
1.11948e-05;0.002461895488538668
1.11950e-05;0.002497689591125231
1.11953e-05;0.002533483693712037
1.11955e-05;0.002569277796298843
1.11958e-05;0.002605071898885406
1.11960e-05;0.0026408660014722116
1.11963e-05;0.002675940902344747
1.11965e-05;0.0026979083804410833
1.11968e-05;0.0027198758585375684
1.11970e-05;0.002741843336634054
1.11973e-05;0.00276381081473039
1.11975e-05;0.002785778292826875
1.11978e-05;0.0028077457709233603
1.11980e-05;0.0028297132490196965
1.11983e-05;0.0028516807271161816
