Time(s);Current(A)
8.50000e-06;-0.005355818312975591
8.50025e-06;-0.005349481576872491
8.50050e-06;-0.005343144840769392
8.50075e-06;-0.005336808104666335
8.50100e-06;-0.005330471368563235
8.50125e-06;-0.005324134632460136
8.50150e-06;-0.005317797896357079
8.50175e-06;-0.005311461160253979
8.50200e-06;-0.00530512442415088
8.50225e-06;-0.005298787688047823
8.50250e-06;-0.005292450951944723
8.50275e-06;-0.005286114215841624
8.50300e-06;-0.005279777479738568
8.50325e-06;-0.005273440743635468
8.50350e-06;-0.005267104007532369
8.50375e-06;-0.005260767271429312
8.50400e-06;-0.005254430535326212
8.50425e-06;-0.005248093799223113
8.50450e-06;-0.0052464688240488454
8.50475e-06;-0.005247804050894342
8.50500e-06;-0.0052491392777398475
8.50525e-06;-0.005250474504585353
8.50550e-06;-0.00525180973143085
8.50575e-06;-0.005253144958276356
8.50600e-06;-0.005254480185121862
8.50625e-06;-0.005255815411967359
8.50650e-06;-0.005257150638812865
8.50675e-06;-0.005258485865658371
8.50700e-06;-0.005259821092503868
8.50725e-06;-0.005261156319349374
8.50750e-06;-0.0052624915461948795
8.50775e-06;-0.005263826773040376
8.50800e-06;-0.0052651619998858815
8.50825e-06;-0.005266497226731388
8.50850e-06;-0.0052678324535768845
8.50875e-06;-0.00526916768042239
8.50900e-06;-0.00527867832386851
8.50925e-06;-0.005292665688285189
8.50950e-06;-0.0053066530527019614
8.50975e-06;-0.005320640417118733
8.51000e-06;-0.005334627781535412
8.51025e-06;-0.0053486151459521845
8.51050e-06;-0.005362602510368957
8.51075e-06;-0.005376589874785635
8.51100e-06;-0.005390577239202408
8.51125e-06;-0.00540456460361918
8.51150e-06;-0.005418551968035858
8.51175e-06;-0.0054451141507678765
8.51200e-06;-0.005478562093041059
8.51225e-06;-0.005512010035314016
8.51250e-06;-0.0055454579775872
8.51275e-06;-0.005578905919860383
8.51300e-06;-0.005612353862133566
8.51325e-06;-0.005645801804406523
8.51350e-06;-0.005679249746679706
8.51375e-06;-0.00571269768895289
8.51400e-06;-0.005746145631225846
8.51425e-06;-0.005779593573499029
8.51450e-06;-0.005819027721723946
8.51475e-06;-0.005861739815897202
8.51500e-06;-0.005904451910070747
8.51525e-06;-0.005947164004244292
8.51550e-06;-0.005989876098417547
8.51575e-06;-0.006032588192591092
8.51600e-06;-0.006075300286764637
8.51625e-06;-0.006118012380937892
8.51650e-06;-0.006160724475111437
8.51675e-06;-0.0062034365692849825
8.51700e-06;-0.0062446644671366605
8.51725e-06;-0.006277222573022643
8.51750e-06;-0.006309780678908626
8.51775e-06;-0.006342338784794387
8.51800e-06;-0.006374896890680369
8.51825e-06;-0.006407454996566352
8.51850e-06;-0.006440013102452114
8.51875e-06;-0.006472571208338097
8.51900e-06;-0.006505129314224079
8.51925e-06;-0.0065376874201098405
8.51950e-06;-0.006570245525995823
8.51975e-06;-0.0065859634971110375
8.52000e-06;-0.0065924600929506616
8.52025e-06;-0.006598956688790329
8.52050e-06;-0.0066054532846299965
8.52075e-06;-0.006611949880469621
8.52100e-06;-0.006618446476309288
8.52125e-06;-0.006624943072148956
8.52150e-06;-0.006631439667988624
8.52175e-06;-0.006637936263828247
8.52200e-06;-0.0066444328596679154
8.52225e-06;-0.006647467726633716
8.52250e-06;-0.006630281232887938
8.52275e-06;-0.0066130947391420435
8.52300e-06;-0.00659590824539615
8.52325e-06;-0.006578721751650372
8.52350e-06;-0.006561535257904478
8.52375e-06;-0.006544348764158584
8.52400e-06;-0.006527162270412806
8.52425e-06;-0.006509975776666912
8.52450e-06;-0.006492789282921018
8.52475e-06;-0.00647560278917524
8.52500e-06;-0.006452597035193693
8.52525e-06;-0.0064264047519358505
8.52550e-06;-0.006400212468678185
8.52575e-06;-0.006374020185420343
8.52600e-06;-0.006347827902162501
8.52625e-06;-0.006321635618904837
8.52650e-06;-0.006295443335646995
8.52675e-06;-0.006269251052389153
8.52700e-06;-0.006243058769131489
8.52725e-06;-0.006216866485873647
8.52750e-06;-0.00619648257472195
8.52775e-06;-0.006179279230689899
8.52800e-06;-0.00616207588665773
8.52825e-06;-0.006144872542625562
8.52850e-06;-0.00612766919859351
8.52875e-06;-0.006110465854561342
8.52900e-06;-0.006093262510529173
8.52925e-06;-0.006076059166497122
8.52950e-06;-0.006058855822464953
8.52975e-06;-0.0060416524784327845
8.53000e-06;-0.006033572087876968
8.53025e-06;-0.006030487273591455
8.53050e-06;-0.006027402459305923
8.53075e-06;-0.006024317645020389
8.53100e-06;-0.006021232830734877
8.53125e-06;-0.006018148016449344
8.53150e-06;-0.00601506320216381
8.53175e-06;-0.006011978387878298
8.53200e-06;-0.006008893573592765
8.53225e-06;-0.006005808759307231
8.53250e-06;-0.0060027239450217195
8.53275e-06;-0.005999639130736186
8.53300e-06;-0.005996554316450653
8.53325e-06;-0.005993469502165141
8.53350e-06;-0.005990384687879607
8.53375e-06;-0.005987299873594074
8.53400e-06;-0.005984215059308562
8.53425e-06;-0.005986235101515814
8.53450e-06;-0.0059910504774960275
8.53475e-06;-0.005995865853476208
8.53500e-06;-0.00600068122945642
8.53525e-06;-0.006005496605436633
8.53550e-06;-0.006010311981416813
8.53575e-06;-0.0060151273573970255
8.53600e-06;-0.006019942733377239
8.53625e-06;-0.006024758109357419
8.53650e-06;-0.006029573485337631
8.53675e-06;-0.006034388861317844
8.53700e-06;-0.006039204237298024
8.53725e-06;-0.006044019613278237
8.53750e-06;-0.00604883498925845
8.53775e-06;-0.00605365036523863
8.53800e-06;-0.006058465741218842
8.53825e-06;-0.006063281117199055
8.53850e-06;-0.0060744179554526835
8.53875e-06;-0.00608901632039436
8.53900e-06;-0.006103614685336136
8.53925e-06;-0.006118213050277912
8.53950e-06;-0.006132811415219589
8.53975e-06;-0.006147409780161365
8.54000e-06;-0.0061620081451031405
8.54025e-06;-0.006176606510044817
8.54050e-06;-0.006209553275010705
8.54075e-06;-0.006252547316006541
8.54100e-06;-0.006295541357002086
8.54125e-06;-0.006338535397997922
8.54150e-06;-0.006381529438993758
8.54175e-06;-0.006424523479989303
8.54200e-06;-0.0064675175209851395
8.54225e-06;-0.006510511561980976
8.54250e-06;-0.006570970337238628
8.54275e-06;-0.006640992507980981
8.54300e-06;-0.006711014678723334
8.54325e-06;-0.006781036849465212
8.54350e-06;-0.006851059020207565
8.54375e-06;-0.006921081190949918
8.54400e-06;-0.0069911033616917966
8.54425e-06;-0.00706321442476123
8.54450e-06;-0.007147527554146542
8.54475e-06;-0.007231840683531283
8.54500e-06;-0.007316153812916595
8.54525e-06;-0.007400466942301907
8.54550e-06;-0.007484780071686649
8.54575e-06;-0.007569093201071961
8.54600e-06;-0.007653406330457273
8.54625e-06;-0.00773747019776387
8.54650e-06;-0.007821397573338777
8.54675e-06;-0.007905324948913684
8.54700e-06;-0.00798568670929543
8.54725e-06;-0.008064095998615208
8.54750e-06;-0.008142505287935519
8.54775e-06;-0.008203134100139611
8.54800e-06;-0.008254026621367375
8.54825e-06;-0.008304919142595485
8.54850e-06;-0.008355811663823593
8.54875e-06;-0.008406704185051357
8.54900e-06;-0.008457596706279467
8.54925e-06;-0.008508489227507576
8.54950e-06;-0.00855938174873534
8.54975e-06;-0.008610274269963449
8.55000e-06;-0.008661166791191558
8.55025e-06;-0.008712059312419322
8.55050e-06;-0.008762951833647432
8.55075e-06;-0.00881384435487554
8.55100e-06;-0.008864736876103304
8.55125e-06;-0.008895322455821877
8.55150e-06;-0.00891478829504608
8.55175e-06;-0.00893425413427015
8.55200e-06;-0.008953719973494352
8.55225e-06;-0.008973185812718554
8.55250e-06;-0.008992651651942624
8.55275e-06;-0.009012117491166828
8.55300e-06;-0.00903158333039103
8.55325e-06;-0.0090510491696151
8.55350e-06;-0.009070515008839302
8.55375e-06;-0.009089980848063504
8.55400e-06;-0.009109446687287574
8.55425e-06;-0.009128912526511776
8.55450e-06;-0.009148378365735978
8.55475e-06;-0.009159934686103427
8.55500e-06;-0.009167159886637294
8.55525e-06;-0.009174385087171161
8.55550e-06;-0.009181610287705028
8.55575e-06;-0.009188835488238846
8.55600e-06;-0.009196060688772713
8.55625e-06;-0.00920328588930658
8.55650e-06;-0.009210124007851848
8.55675e-06;-0.009214701023688881
8.55700e-06;-0.009219278039525915
8.55725e-06;-0.009223855055362917
8.55750e-06;-0.00922843207119995
8.55775e-06;-0.009233009087036984
8.55800e-06;-0.009237586102873986
8.55825e-06;-0.00924216311871102
8.55850e-06;-0.009242679676157824
8.55875e-06;-0.009240972794709207
8.55900e-06;-0.009239265913260577
8.55925e-06;-0.009237559031811947
8.55950e-06;-0.009235852150363329
8.55975e-06;-0.0092341452689147
8.56000e-06;-0.00923243838746607
8.56025e-06;-0.009230731506017453
8.56050e-06;-0.009215560590795485
8.56075e-06;-0.009193016996554323
8.56100e-06;-0.009170473402313315
8.56125e-06;-0.009147929808072153
8.56150e-06;-0.009125386213830992
8.56175e-06;-0.009102842619589983
8.56200e-06;-0.009080299025348822
8.56225e-06;-0.00905775543110766
8.56250e-06;-0.009021715775391008
8.56275e-06;-0.008978285902822092
8.56300e-06;-0.008934856030253175
8.56325e-06;-0.008891426157684554
8.56350e-06;-0.008847996285115638
8.56375e-06;-0.008804566412546722
8.56400e-06;-0.008761136539977806
8.56425e-06;-0.008717706667409184
8.56450e-06;-0.0086728279840128
8.56475e-06;-0.008619486209633294
8.56500e-06;-0.00856614443525415
8.56525e-06;-0.008512802660874643
8.56550e-06;-0.008459460886495138
8.56575e-06;-0.008406119112115994
8.56600e-06;-0.008352777337736487
8.56625e-06;-0.008299435563356982
8.56650e-06;-0.008246093788977837
8.56675e-06;-0.00819685209742471
8.56700e-06;-0.008149855542444033
8.56725e-06;-0.008102858987463678
8.56750e-06;-0.008055862432483001
8.56775e-06;-0.008008865877502326
8.56800e-06;-0.007961869322521969
8.56825e-06;-0.007924307154653143
8.56850e-06;-0.007891911098895144
8.56875e-06;-0.007859515043137364
8.56900e-06;-0.007827118987379365
8.56925e-06;-0.007794722931621366
8.56950e-06;-0.007762326875863586
8.56975e-06;-0.0077395629124721674
8.57000e-06;-0.00772207332127267
8.57025e-06;-0.007704583730073292
8.57050e-06;-0.007687094138873794
8.57075e-06;-0.0076696045476742965
8.57100e-06;-0.007652114956474918
8.57125e-06;-0.007634625365275421
8.57150e-06;-0.007617135774075924
8.57175e-06;-0.0075996461828765445
8.57200e-06;-0.007582156591677047
8.57225e-06;-0.00756466700047755
8.57250e-06;-0.007547177409278053
8.57275e-06;-0.0075296878180786736
8.57300e-06;-0.007512198226879176
8.57325e-06;-0.007494708635679679
8.57350e-06;-0.0074772190444803
8.57375e-06;-0.007459729453280803
8.57400e-06;-0.0074422398620813054
8.57425e-06;-0.007431710341706783
8.57450e-06;-0.007424992039354222
8.57475e-06;-0.0074182737370016615
8.57500e-06;-0.007411555434649146
8.57525e-06;-0.007404837132296585
8.57550e-06;-0.007398118829944024
8.57575e-06;-0.007391400527591509
8.57600e-06;-0.007384682225238947
8.57625e-06;-0.007377963922886387
8.57650e-06;-0.007371245620533871
8.57675e-06;-0.00736452731818131
8.57700e-06;-0.00735780901582875
8.57725e-06;-0.007351090713476234
8.57750e-06;-0.007344372411123673
8.57775e-06;-0.007337654108771113
8.57800e-06;-0.007330935806418597
8.57825e-06;-0.007324217504066036
8.57850e-06;-0.007317499201713476
8.57875e-06;-0.007317879362076884
8.57900e-06;-0.007322146521540917
8.57925e-06;-0.00732641368100495
8.57950e-06;-0.007330680840468953
8.57975e-06;-0.007334947999932985
8.58000e-06;-0.007339215159397018
8.58025e-06;-0.007343482318861021
8.58050e-06;-0.007347749478325054
8.58075e-06;-0.007352016637789087
8.58100e-06;-0.0073562837972531185
8.58125e-06;-0.007360550956717122
8.58150e-06;-0.0073648181161811545
8.58175e-06;-0.007369085275645187
8.58200e-06;-0.0073733524351091905
8.58225e-06;-0.007379157651102632
8.58250e-06;-0.00739394727838954
8.58275e-06;-0.007408736905676348
8.58300e-06;-0.007423526532963257
8.58325e-06;-0.007438316160250165
8.58350e-06;-0.007453105787536973
8.58375e-06;-0.007467895414823881
8.58400e-06;-0.00748268504211079
8.58425e-06;-0.007497474669397599
8.58450e-06;-0.007512264296684506
8.58475e-06;-0.007527053923971415
8.58500e-06;-0.007541843551258223
8.58525e-06;-0.007556633178545132
8.58550e-06;-0.00757142280583204
8.58575e-06;-0.007586212433118848
8.58600e-06;-0.007601185311133837
8.58625e-06;-0.00761625853417336
8.58650e-06;-0.00763133175721278
8.58675e-06;-0.007646404980252303
8.58700e-06;-0.007661478203291825
8.58725e-06;-0.007676551426331246
8.58750e-06;-0.007691624649370768
8.58775e-06;-0.007706697872410291
8.58800e-06;-0.007721771095449711
8.58825e-06;-0.007736844318489234
8.58850e-06;-0.0077519175415287555
8.58875e-06;-0.007766990764568176
8.58900e-06;-0.007782063987607698
8.58925e-06;-0.007797137210647221
8.58950e-06;-0.007802566873848925
8.58975e-06;-0.007802715885460863
8.59000e-06;-0.007802864897072801
8.59025e-06;-0.00780301390868474
8.59050e-06;-0.007803162920296677
8.59075e-06;-0.007803311931908616
8.59100e-06;-0.007803460943520554
8.59125e-06;-0.007803609955132492
8.59150e-06;-0.00780375896674443
8.59175e-06;-0.0078039079783563696
8.59200e-06;-0.007804056989968307
8.59225e-06;-0.007804206001580246
8.59250e-06;-0.007804355013192184
8.59275e-06;-0.007804504024804122
8.59300e-06;-0.007794846240608825
8.59325e-06;-0.007779818419544829
8.59350e-06;-0.0077647905984809355
8.59375e-06;-0.00774976277741694
8.59400e-06;-0.007734734956352945
8.59425e-06;-0.007719707135289052
8.59450e-06;-0.007704679314225056
8.59475e-06;-0.007689651493161061
8.59500e-06;-0.007674623672097167
8.59525e-06;-0.007659595851033172
8.59550e-06;-0.0076445680299691765
8.59575e-06;-0.007629540208905283
8.59600e-06;-0.007614512387841287
8.59625e-06;-0.007600527240150432
8.59650e-06;-0.007587113042907346
8.59675e-06;-0.007573698845664169
8.59700e-06;-0.007560284648420992
8.59725e-06;-0.007546870451177906
8.59750e-06;-0.007533456253934729
8.59775e-06;-0.007520042056691552
8.59800e-06;-0.0075066278594483745
8.59825e-06;-0.007493213662205289
8.59850e-06;-0.007479799464962112
8.59875e-06;-0.0074663852677189346
8.59900e-06;-0.007452971070475849
8.59925e-06;-0.007439556873232672
8.59950e-06;-0.007429645683948896
8.59975e-06;-0.007421652683058972
8.60000e-06;-0.0074136596821689936
8.60025e-06;-0.007405666681279016
8.60050e-06;-0.007397673680389092
8.60075e-06;-0.007389680679499113
8.60100e-06;-0.0073816876786091355
8.60125e-06;-0.0073736946777192116
8.60150e-06;-0.007365701676829234
8.60175e-06;-0.007357708675939255
8.60200e-06;-0.007349715675049331
8.60225e-06;-0.0073417226741593535
8.60250e-06;-0.007333729673269375
8.60275e-06;-0.007325736672379451
8.60300e-06;-0.007317743671489473
8.60325e-06;-0.007309756519811357
8.60350e-06;-0.007301803535749477
8.60375e-06;-0.007293850551687544
8.60400e-06;-0.00728589756762561
8.60425e-06;-0.007277944583563731
8.60450e-06;-0.007269991599501798
8.60475e-06;-0.007262038615439864
8.60500e-06;-0.007254085631377985
8.60525e-06;-0.007246132647316051
8.60550e-06;-0.007238179663254118
8.60575e-06;-0.007230226679192239
8.60600e-06;-0.007222273695130305
8.60625e-06;-0.007214320711068372
8.60650e-06;-0.0072063677270064385
8.60675e-06;-0.007198414742944559
8.60700e-06;-0.0071904617588826256
8.60725e-06;-0.007186549400131406
8.60750e-06;-0.00718484962001742
8.60775e-06;-0.0071831498399034235
8.60800e-06;-0.007181450059789426
8.60825e-06;-0.007179750279675441
8.60850e-06;-0.0071780504995614435
8.60875e-06;-0.007176350719447447
8.60900e-06;-0.007174650939333461
8.60925e-06;-0.007172951159219464
8.60950e-06;-0.0071712513791054675
8.60975e-06;-0.007169551598991482
8.61000e-06;-0.007167851818877485
8.61025e-06;-0.007176636326529539
8.61050e-06;-0.007191161854284876
8.61075e-06;-0.007205687382040311
8.61100e-06;-0.007220212909795748
8.61125e-06;-0.007234738437551085
8.61150e-06;-0.00724926396530652
8.61175e-06;-0.007263789493061956
8.61200e-06;-0.007278315020817294
8.61225e-06;-0.00729284054857273
8.61250e-06;-0.007307366076328165
8.61275e-06;-0.0073218916040835025
8.61300e-06;-0.007336417131838939
8.61325e-06;-0.007359672474119117
8.61350e-06;-0.007387708116387683
8.61375e-06;-0.0074157437586564404
8.61400e-06;-0.007443779400925198
8.61425e-06;-0.007471815043193764
8.61450e-06;-0.0074998506854625216
8.61475e-06;-0.007527886327731279
8.61500e-06;-0.007555921970000035
8.61525e-06;-0.007583957612268603
8.61550e-06;-0.00761199325453736
8.61575e-06;-0.0076400288968061164
8.61600e-06;-0.007668064539074684
8.61625e-06;-0.007695023250212565
8.61650e-06;-0.00772139225192894
8.61675e-06;-0.007747761253645137
8.61700e-06;-0.007774130255361512
8.61725e-06;-0.007800499257077887
8.61750e-06;-0.007826868258794084
8.61775e-06;-0.00785323726051046
8.61800e-06;-0.007879606262226835
8.61825e-06;-0.007905975263943031
8.61850e-06;-0.007932344265659407
8.61875e-06;-0.007958713267375782
8.61900e-06;-0.007985082269091979
8.61925e-06;-0.008008576115184787
8.61950e-06;-0.008030495574289325
8.61975e-06;-0.008052415033393713
8.62000e-06;-0.008074334492498253
8.62025e-06;-0.00809625395160279
8.62050e-06;-0.00811817341070718
8.62075e-06;-0.008140092869811717
8.62100e-06;-0.008162012328916255
8.62125e-06;-0.008183931788020645
8.62150e-06;-0.008205851247125183
8.62175e-06;-0.008227770706229721
8.62200e-06;-0.00824969016533411
8.62225e-06;-0.008272029156260739
8.62250e-06;-0.00829681880252863
8.62275e-06;-0.008321608448796354
8.62300e-06;-0.008346398095064244
8.62325e-06;-0.008371187741332135
8.62350e-06;-0.008395977387600026
8.62375e-06;-0.008420767033867748
8.62400e-06;-0.00844555668013564
8.62425e-06;-0.008470346326403531
8.62450e-06;-0.008495135972671253
8.62475e-06;-0.008519925618939144
8.62500e-06;-0.008544715265207035
8.62525e-06;-0.008569504911474759
8.62550e-06;-0.008594387125325521
8.62575e-06;-0.00861932002763184
8.62600e-06;-0.008644252929937988
8.62625e-06;-0.008669185832244306
8.62650e-06;-0.008694118734550624
8.62675e-06;-0.008719051636856774
8.62700e-06;-0.008741918989817962
8.62725e-06;-0.00876365528260734
8.62750e-06;-0.008785391575396574
8.62775e-06;-0.008807127868185953
8.62800e-06;-0.008828864160975333
8.62825e-06;-0.008850600453764566
8.62850e-06;-0.008870375407453081
8.62875e-06;-0.00888907636475136
8.62900e-06;-0.008907777322049512
8.62925e-06;-0.008934305438719654
8.62950e-06;-0.008965119576561629
8.62975e-06;-0.008995933714403393
8.63000e-06;-0.009026747852245368
8.63025e-06;-0.009057561990087342
8.63050e-06;-0.009088376127929107
8.63075e-06;-0.009119190265771081
8.63100e-06;-0.009163969665294827
8.63125e-06;-0.009216396207849054
8.63150e-06;-0.009268822750403636
8.63175e-06;-0.00932124929295822
8.63200e-06;-0.009373675835512803
8.63225e-06;-0.00942610237806703
8.63250e-06;-0.009478528920621614
8.63275e-06;-0.009543241296461575
8.63300e-06;-0.009614681188514695
8.63325e-06;-0.0096861210805683
8.63350e-06;-0.009757560972621903
8.63375e-06;-0.009829000864675023
8.63400e-06;-0.009900440756728628
8.63425e-06;-0.009978710481871645
8.63450e-06;-0.010060720109044434
8.63475e-06;-0.010142729736217777
8.63500e-06;-0.010224739363391123
8.63525e-06;-0.010306748990563911
8.63550e-06;-0.010388758617737255
8.63575e-06;-0.01047185778859
8.63600e-06;-0.010555553575284118
8.63625e-06;-0.010639249361978804
8.63650e-06;-0.010721134558366914
8.63675e-06;-0.010802028305874891
8.63700e-06;-0.01088051699328144
8.63725e-06;-0.010957688710120515
8.63750e-06;-0.01103163993924842
8.63775e-06;-0.01110382768332944
8.63800e-06;-0.011170135321753967
8.63825e-06;-0.01123322311295799
8.63850e-06;-0.011296310904162443
8.63875e-06;-0.01135097581963231
8.63900e-06;-0.011401028509641245
8.63925e-06;-0.011451081199650522
8.63950e-06;-0.01149373586500838
8.63975e-06;-0.011532339496166789
8.64000e-06;-0.01157094312732546
8.64025e-06;-0.011596268714146719
8.64050e-06;-0.011614323466624315
8.64075e-06;-0.011632378219101788
8.64100e-06;-0.011650432971579382
8.64125e-06;-0.011668487724056978
8.64150e-06;-0.01168654247653445
8.64175e-06;-0.011704597229012046
8.64200e-06;-0.0117068943265348
8.64225e-06;-0.011700562796534347
8.64250e-06;-0.011694231266533853
8.64275e-06;-0.011687899736533358
8.64300e-06;-0.011681568206532907
8.64325e-06;-0.011675236676532412
8.64350e-06;-0.011668905146531917
8.64375e-06;-0.011651649832488677
8.64400e-06;-0.011628412837546648
8.64425e-06;-0.011605175842604619
8.64450e-06;-0.011581938847662747
8.64475e-06;-0.011558701852720718
8.64500e-06;-0.011535464857778689
8.64525e-06;-0.011512227862836816
8.64550e-06;-0.011488133337721909
8.64575e-06;-0.011459029631441518
8.64600e-06;-0.011429925925161325
8.64625e-06;-0.011400822218880934
8.64650e-06;-0.011371718512600545
8.64675e-06;-0.011342614806320352
