Time(s);Current(A)
9.50000e-06;-0.008528862088845403
9.50025e-06;-0.008568057863766751
9.50050e-06;-0.008607253638687836
9.50075e-06;-0.008646449413609184
9.50100e-06;-0.008685645188530534
9.50125e-06;-0.008724840963451616
9.50150e-06;-0.008757291236813125
9.50175e-06;-0.008779968010182437
9.50200e-06;-0.008802644783551595
9.50225e-06;-0.008825321556920908
9.50250e-06;-0.00884799833029022
9.50275e-06;-0.008870675103659378
9.50300e-06;-0.00889335187702869
9.50325e-06;-0.008909202545707182
9.50350e-06;-0.008915162929200153
9.50375e-06;-0.008921123312693083
9.50400e-06;-0.008927083696186054
9.50425e-06;-0.008933044079679025
9.50450e-06;-0.008939004463171956
9.50475e-06;-0.008944964846664925
9.50500e-06;-0.008950925230157896
9.50525e-06;-0.008956885613650828
9.50550e-06;-0.008962845997143799
9.50575e-06;-0.00896880638063677
9.50600e-06;-0.008974766764129699
9.50625e-06;-0.008969742328675114
9.50650e-06;-0.00896360952902898
9.50675e-06;-0.008957476729382885
9.50700e-06;-0.008951343929736748
9.50725e-06;-0.008945211130090612
9.50750e-06;-0.008939078330444519
9.50775e-06;-0.008932945530798382
9.50800e-06;-0.008926812731152246
9.50825e-06;-0.00892067993150615
9.50850e-06;-0.008914547131860016
9.50875e-06;-0.00890841433221388
9.50900e-06;-0.008901745113407342
9.50925e-06;-0.00889429868142915
9.50950e-06;-0.008886852249450959
9.50975e-06;-0.008879405817472817
9.51000e-06;-0.008871959385494626
9.51025e-06;-0.008864512953516434
9.51050e-06;-0.008857066521538294
9.51075e-06;-0.008849620089560101
9.51100e-06;-0.00884217365758191
9.51125e-06;-0.008834727225603769
9.51150e-06;-0.008827280793625578
9.51175e-06;-0.008823003086885115
9.51200e-06;-0.008823316519264317
9.51225e-06;-0.008823629951643519
9.51250e-06;-0.00882394338402272
9.51275e-06;-0.008824256816401924
9.51300e-06;-0.008824570248781125
9.51325e-06;-0.008824883681160326
9.51350e-06;-0.00882519711353953
9.51375e-06;-0.00882551054591873
9.51400e-06;-0.008825823978297934
9.51425e-06;-0.008826137410677136
9.51450e-06;-0.00883011244192589
9.51475e-06;-0.008839392732719177
9.51500e-06;-0.008848673023512466
9.51525e-06;-0.008857953314305693
9.51550e-06;-0.008867233605098982
9.51575e-06;-0.00887651389589227
9.51600e-06;-0.008885794186685496
9.51625e-06;-0.008895074477478785
9.51650e-06;-0.008904354768272074
9.51675e-06;-0.0089136350590653
9.51700e-06;-0.008922915349858588
9.51725e-06;-0.008933436537144332
9.51750e-06;-0.008945755648832819
9.51775e-06;-0.008958074760521389
9.51800e-06;-0.00897039387220996
9.51825e-06;-0.008982712983898447
9.51850e-06;-0.008995032095587017
9.51875e-06;-0.009007351207275588
9.51900e-06;-0.009019670318964076
9.51925e-06;-0.009031989430652646
9.51950e-06;-0.009044308542341216
9.51975e-06;-0.009056627654029703
9.52000e-06;-0.009067119257373668
9.52025e-06;-0.009074962999377476
9.52050e-06;-0.009082806741381283
9.52075e-06;-0.009090650483385037
9.52100e-06;-0.009098494225388845
9.52125e-06;-0.009106337967392653
9.52150e-06;-0.009114181709396407
9.52175e-06;-0.009122025451400215
9.52200e-06;-0.009129869193404022
9.52225e-06;-0.009137712935407777
9.52250e-06;-0.009145556677411584
9.52275e-06;-0.009153400419415392
9.52300e-06;-0.009161244161419146
9.52325e-06;-0.009168617292186283
9.52350e-06;-0.009175308558324102
9.52375e-06;-0.009181999824461877
9.52400e-06;-0.009188691090599697
9.52425e-06;-0.009195382356737516
9.52450e-06;-0.009202073622875291
9.52475e-06;-0.009208764889013111
9.52500e-06;-0.009215456155150932
9.52525e-06;-0.009222147421288707
9.52550e-06;-0.009228838687426527
9.52575e-06;-0.009235529953564347
9.52600e-06;-0.009242221219702121
9.52625e-06;-0.009248912485839941
9.52650e-06;-0.009255702652887705
9.52675e-06;-0.009262636116625027
9.52700e-06;-0.009269569580362395
9.52725e-06;-0.009276503044099764
9.52750e-06;-0.009283436507837086
9.52775e-06;-0.009290369971574454
9.52800e-06;-0.009297303435311823
9.52825e-06;-0.009304236899049145
9.52850e-06;-0.009310660993480517
9.52875e-06;-0.00931634706704451
9.52900e-06;-0.009322033140608503
9.52925e-06;-0.009327719214172456
9.52950e-06;-0.009333405287736449
9.52975e-06;-0.009339091361300442
9.53000e-06;-0.009344777434864397
9.53025e-06;-0.00935046350842839
9.53050e-06;-0.009355304658030208
9.53075e-06;-0.00935892160446914
9.53100e-06;-0.009362538550908097
9.53125e-06;-0.009363075924523854
9.53150e-06;-0.009359151331194433
9.53175e-06;-0.009355226737864986
9.53200e-06;-0.009346228385729398
9.53225e-06;-0.009329878707491239
9.53250e-06;-0.009313529029252969
9.53275e-06;-0.009292520883879801
9.53300e-06;-0.009264763124984433
9.53325e-06;-0.009237005366088877
9.53350e-06;-0.009201166406504535
9.53375e-06;-0.009153618663780437
9.53400e-06;-0.009106070921056019
9.53425e-06;-0.0090585231783316
9.53450e-06;-0.009010975435607504
9.53475e-06;-0.008963427692883085
9.53500e-06;-0.008896229105719253
9.53525e-06;-0.00882704775557525
9.53550e-06;-0.008757866405430777
9.53575e-06;-0.008688685055286303
9.53600e-06;-0.0086195037051423
9.53625e-06;-0.00854509251032258
9.53650e-06;-0.008463103837907165
9.53675e-06;-0.008381115165492305
9.53700e-06;-0.008297426408643992
9.53725e-06;-0.008211274413879187
9.53750e-06;-0.008124134390028558
9.53775e-06;-0.008035562819215502
9.53800e-06;-0.007946691759215906
9.53825e-06;-0.00785738677187474
9.53850e-06;-0.007768394204046874
9.53875e-06;-0.007680348883199243
9.53900e-06;-0.007593698624212471
9.53925e-06;-0.00750883078128494
9.53950e-06;-0.0074260451278796435
9.53975e-06;-0.007345717028330061
9.54000e-06;-0.007268359534006641
9.54025e-06;-0.00719453749204984
9.54050e-06;-0.007124815939753559
9.54075e-06;-0.007059759809617283
9.54100e-06;-0.006999895452747534
9.54125e-06;-0.006945584400741949
9.54150e-06;-0.006896951253996543
9.54175e-06;-0.006855229760073248
9.54200e-06;-0.0068186492719875015
9.54225e-06;-0.006786976603513662
9.54250e-06;-0.006762414833253328
9.54275e-06;-0.006742961112517503
9.54300e-06;-0.006730908401418157
9.54325e-06;-0.0067251357091655
9.54350e-06;-0.006728462082961183
9.54375e-06;-0.006731788456756844
9.54400e-06;-0.006744811388611684
9.54425e-06;-0.006771883581204772
9.54450e-06;-0.006798955773797676
9.54475e-06;-0.0068260279663907636
9.54500e-06;-0.006853100158983851
9.54525e-06;-0.006880172351576756
9.54550e-06;-0.0069299873138333155
9.54575e-06;-0.006982097013190955
9.54600e-06;-0.007034206712548595
9.54625e-06;-0.007086316411905881
9.54650e-06;-0.007138426111263521
9.54675e-06;-0.007195940231993372
9.54700e-06;-0.007261284773016105
9.54725e-06;-0.007326629314039279
9.54750e-06;-0.007394024642916387
9.54775e-06;-0.007464391340922699
9.54800e-06;-0.007534758038929487
9.54825e-06;-0.007605610194645224
9.54850e-06;-0.007677165725918025
9.54875e-06;-0.00774872125719131
9.54900e-06;-0.007819518779750506
9.54925e-06;-0.007889218029911682
9.54950e-06;-0.007957402150020542
9.54975e-06;-0.008023391011044921
9.55000e-06;-0.008086315131091981
9.55025e-06;-0.008144798773928392
9.55050e-06;-0.008203282416764804
9.55075e-06;-0.008252801950253618
9.55100e-06;-0.008289333461728733
9.55125e-06;-0.00832586497320385
9.55150e-06;-0.008362396484678718
9.55175e-06;-0.008398927996153835
9.55200e-06;-0.008435459507628952
9.55225e-06;-0.00847199101910382
9.55250e-06;-0.008508522530578938
9.55275e-06;-0.008545054042054053
9.55300e-06;-0.008555417068894322
9.55325e-06;-0.0085631397052504
9.55350e-06;-0.008570862341606481
9.55375e-06;-0.008578584977962508
9.55400e-06;-0.008586307614318587
9.55425e-06;-0.008594030250674666
9.55450e-06;-0.008601752887030746
9.55475e-06;-0.008609475523386773
9.55500e-06;-0.008608362898790384
9.55525e-06;-0.008594448939525628
9.55550e-06;-0.008580534980260967
9.55575e-06;-0.008566621020996212
9.55600e-06;-0.008552707061731456
9.55625e-06;-0.008538793102466795
9.55650e-06;-0.00852487914320204
9.55675e-06;-0.008510965183937284
9.55700e-06;-0.008492697507593724
9.55725e-06;-0.00846812176749475
9.55750e-06;-0.008443546027395776
9.55775e-06;-0.008418970287296969
9.55800e-06;-0.008394394547197995
9.55825e-06;-0.00836981880709902
9.55850e-06;-0.008345243067000213
9.55875e-06;-0.008320667326901239
9.55900e-06;-0.008296522708615986
9.55925e-06;-0.008273002739070822
9.55950e-06;-0.008249482769525496
9.55975e-06;-0.008225962799980172
9.56000e-06;-0.008202442830435006
9.56025e-06;-0.008178922860889682
9.56050e-06;-0.008155402891344357
9.56075e-06;-0.00813188292179919
9.56100e-06;-0.008113124259853083
9.56125e-06;-0.00810126421611132
9.56150e-06;-0.008089404172369637
9.56175e-06;-0.008077544128627875
9.56200e-06;-0.008065684084886112
9.56225e-06;-0.008053824041144431
9.56250e-06;-0.008041963997402668
9.56275e-06;-0.008030103953660906
9.56300e-06;-0.00802461710845946
9.56325e-06;-0.008028364336578574
9.56350e-06;-0.008032111564697688
9.56375e-06;-0.008035858792816802
9.56400e-06;-0.00803960602093589
9.56425e-06;-0.008043353249055004
9.56450e-06;-0.008047100477174118
9.56475e-06;-0.008050847705293206
9.56500e-06;-0.008054594933412321
9.56525e-06;-0.00806350660164611
9.56550e-06;-0.008079900983367826
9.56575e-06;-0.008096295365089653
9.56600e-06;-0.008112689746811478
9.56625e-06;-0.008129084128533194
9.56650e-06;-0.008145478510255022
9.56675e-06;-0.008161872891976849
9.56700e-06;-0.008178267273698563
9.56725e-06;-0.00819466165542039
9.56750e-06;-0.008212927587848518
9.56775e-06;-0.00823390519422439
9.56800e-06;-0.008254882800600402
9.56825e-06;-0.008275860406976414
9.56850e-06;-0.008296838013352284
9.56875e-06;-0.008317815619728296
9.56900e-06;-0.008338793226104308
9.56925e-06;-0.008359770832480178
9.56950e-06;-0.00837721501218027
9.56975e-06;-0.008394302670426628
9.57000e-06;-0.00841139032867287
9.57025e-06;-0.008428477986919229
9.57050e-06;-0.008445565645165586
9.57075e-06;-0.00846265330341183
9.57100e-06;-0.008479740961658188
9.57125e-06;-0.008492323848926769
9.57150e-06;-0.008498379811724487
9.57175e-06;-0.008504435774522246
9.57200e-06;-0.008510491737320007
9.57225e-06;-0.008516547700117767
9.57250e-06;-0.008522603662915487
9.57275e-06;-0.008528659625713246
9.57300e-06;-0.008534715588511006
9.57325e-06;-0.008540771551308725
9.57350e-06;-0.008546827514106485
9.57375e-06;-0.008552883476904244
9.57400e-06;-0.008558939439701964
9.57425e-06;-0.008564995402499723
9.57450e-06;-0.008571051365297483
9.57475e-06;-0.008577107328095203
9.57500e-06;-0.008583163290892962
9.57525e-06;-0.008589219253690722
9.57550e-06;-0.008595275216488441
9.57575e-06;-0.0086013311792862
9.57600e-06;-0.00860040102580443
9.57625e-06;-0.008598765975755741
9.57650e-06;-0.008597130925707042
9.57675e-06;-0.008595495875658343
9.57700e-06;-0.008593860825609654
9.57725e-06;-0.008592225775560952
9.57750e-06;-0.008590590725512253
9.57775e-06;-0.008588955675463564
9.57800e-06;-0.008587320625414865
9.57825e-06;-0.008585685575366165
9.57850e-06;-0.008584050525317476
9.57875e-06;-0.008582415475268777
9.57900e-06;-0.008580780425220076
9.57925e-06;-0.008579145375171389
9.57950e-06;-0.008577510325122687
9.57975e-06;-0.008575875275073988
9.58000e-06;-0.008574240225025299
9.58025e-06;-0.0085726051749766
9.58050e-06;-0.008570608692487668
9.58075e-06;-0.008568088533600759
9.58100e-06;-0.008565568374713867
9.58125e-06;-0.008560808226869544
9.58150e-06;-0.008552802578018149
9.58175e-06;-0.00854479692916681
9.58200e-06;-0.008532702001097134
9.58225e-06;-0.008514682151041758
9.58250e-06;-0.008496662300986503
9.58275e-06;-0.008472955504227647
9.58300e-06;-0.008441008938610432
9.58325e-06;-0.008409062372993435
9.58350e-06;-0.008377115807376219
9.58375e-06;-0.008345169241759005
9.58400e-06;-0.008313222676142007
9.58425e-06;-0.008263386411442527
9.58450e-06;-0.00821174508267423
9.58475e-06;-0.008160103753906283
9.58500e-06;-0.008108462425137986
9.58525e-06;-0.008056821096369689
9.58550e-06;-0.007998890857719189
9.58575e-06;-0.007931848670862919
9.58600e-06;-0.00786480648400665
9.58625e-06;-0.007797764297150834
9.58650e-06;-0.007730722110294564
9.58675e-06;-0.00766031602287417
9.58700e-06;-0.007585036008449163
9.58725e-06;-0.007509755994023647
9.58750e-06;-0.007434475979598131
9.58775e-06;-0.007359195965173125
9.58800e-06;-0.007283101739481454
9.58825e-06;-0.0072058278099898145
9.58850e-06;-0.007128856887493864
9.58875e-06;-0.007052775268877325
9.58900e-06;-0.0069779528311731415
9.58925e-06;-0.0069047119650243105
9.58950e-06;-0.006833288229121873
9.58975e-06;-0.006763986994936809
9.59000e-06;-0.006697245647685616
9.59025e-06;-0.0066335507180563915
9.59050e-06;-0.006573388907451069
9.59075e-06;-0.006517246936709628
9.59100e-06;-0.00646562965701983
9.59125e-06;-0.006419076498519127
9.59150e-06;-0.006378071071235013
9.59175e-06;-0.0063428989811434066
9.59200e-06;-0.006314902340115318
9.59225e-06;-0.006292228127883086
9.59250e-06;-0.0062745310456128935
9.59275e-06;-0.006264045284745262
9.59300e-06;-0.00625995078155958
9.59325e-06;-0.006265116517440102
9.59350e-06;-0.00627028225332066
9.59375e-06;-0.006285263146698489
9.59400e-06;-0.00631446513855439
9.59425e-06;-0.006343667130410488
9.59450e-06;-0.006372869122266586
9.59475e-06;-0.006402071114122486
9.59500e-06;-0.006441703239957037
9.59525e-06;-0.006496447498480098
9.59550e-06;-0.006551191757002789
9.59575e-06;-0.00660593601552585
9.59600e-06;-0.006660680274048912
9.59625e-06;-0.006721717469062855
9.59650e-06;-0.0067918724464043475
9.59675e-06;-0.00686202742374584
9.59700e-06;-0.0069348474428434165
9.59725e-06;-0.0070115288183469566
9.59750e-06;-0.007089603246405452
9.59775e-06;-0.007169696056499809
9.59800e-06;-0.007250422452604138
9.59825e-06;-0.0073320668461078035
9.59850e-06;-0.0074135557904627305
9.59875e-06;-0.007494819505863472
9.59900e-06;-0.0075751452971960925
9.59925e-06;-0.007654112138297739
9.59950e-06;-0.007731339565223882
9.59975e-06;-0.007806046769699881
9.60000e-06;-0.007877295523767357
9.60025e-06;-0.007943533358359569
9.60050e-06;-0.008009771192952228
9.60075e-06;-0.008070278991278408
9.60100e-06;-0.008122484588638984
9.60125e-06;-0.008174690185999912
9.60150e-06;-0.008217256260992343
9.60175e-06;-0.008245855713751716
9.60200e-06;-0.008274455166511282
9.60225e-06;-0.008303054619270847
9.60250e-06;-0.00833165407203022
9.60275e-06;-0.008360253524789786
9.60300e-06;-0.008388852977549353
9.60325e-06;-0.00840416592195919
9.60350e-06;-0.008400228157067625
9.60375e-06;-0.008396290392176061
9.60400e-06;-0.008392352627284525
9.60425e-06;-0.008388414862392961
9.60450e-06;-0.008384477097501397
9.60475e-06;-0.00838053933260986
9.60500e-06;-0.008366936349536927
9.60525e-06;-0.008339329513784934
9.60550e-06;-0.008311722678033128
9.60575e-06;-0.008284115842281135
9.60600e-06;-0.008256509006529142
9.60625e-06;-0.008225295961364218
9.60650e-06;-0.008191713385094482
9.60675e-06;-0.008158130808824519
9.60700e-06;-0.008124548232554556
9.60725e-06;-0.00809096565628482
9.60750e-06;-0.008032287907273694
9.60775e-06;-0.00799735500382292
9.60800e-06;-0.007949716574610119
9.60825e-06;-0.007895518285228862
9.60850e-06;-0.007845024625677875
9.60875e-06;-0.007798083488909884
9.60900e-06;-0.007751241133597986
9.60925e-06;-0.007704635097415222
9.60950e-06;-0.007658029061232774
9.60975e-06;-0.007611423025050011
9.61000e-06;-0.00756838279410058
9.61025e-06;-0.007526052982966118
9.61050e-06;-0.00748372317183137
9.61075e-06;-0.007444875701993763
9.61100e-06;-0.007411883089089002
9.61125e-06;-0.007380436379045252
9.61150e-06;-0.007351334204273096
9.61175e-06;-0.0073222320295011365
9.61200e-06;-0.00729312985472898
9.61225e-06;-0.007264027679956824
9.61250e-06;-0.007240213733857117
9.61275e-06;-0.0072170046578962695
9.61300e-06;-0.007193795581935421
9.61325e-06;-0.0071705865059747305
9.61350e-06;-0.007149598116967287
9.61375e-06;-0.007131977649075991
9.61400e-06;-0.0071143571811848145
9.61425e-06;-0.007096736713293519
9.61450e-06;-0.007079116245402224
9.61475e-06;-0.007061495777510927
9.61500e-06;-0.0070438753096197515
9.61525e-06;-0.007026254841728455
9.61550e-06;-0.00700863437383716
9.61575e-06;-0.006993112079187456
9.61600e-06;-0.006980771899853372
9.61625e-06;-0.006968431720519287
9.61650e-06;-0.006956091541185287
9.61675e-06;-0.006943751361851202
9.61700e-06;-0.006931411182517119
9.61725e-06;-0.0069190710031831176
9.61750e-06;-0.006906730823849034
9.61775e-06;-0.0068943906445149495
9.61800e-06;-0.006883092778400182
9.61825e-06;-0.0068733756973193985
9.61850e-06;-0.006863658616238615
9.61875e-06;-0.006853941535157898
9.61900e-06;-0.006844224454077114
9.61925e-06;-0.00683450737299633
9.61950e-06;-0.0068265694117617395
9.61975e-06;-0.006818834947110935
9.62000e-06;-0.0068111004824601305
9.62025e-06;-0.006803366017809379
9.62050e-06;-0.006795631553158574
9.62075e-06;-0.006788352577326739
9.62100e-06;-0.006781764401433953
9.62125e-06;-0.006775176225541123
9.62150e-06;-0.006767053924684189
9.62175e-06;-0.006756604951058361
9.62200e-06;-0.006746155977432462
9.62225e-06;-0.006732959049417283
9.62250e-06;-0.006715594540013695
9.62275e-06;-0.00669823003060999
9.62300e-06;-0.006680865521206284
9.62325e-06;-0.0066635010118025785
9.62350e-06;-0.006646136502398991
9.62375e-06;-0.0066245672274217685
9.62400e-06;-0.006596620953315068
9.62425e-06;-0.006568674679208556
9.62450e-06;-0.006540728405101854
9.62475e-06;-0.006512782130995153
9.62500e-06;-0.006484835856888641
9.62525e-06;-0.006453380576743933
9.62550e-06;-0.006416603494929254
9.62575e-06;-0.0063798264131148235
9.62600e-06;-0.006343049331300144
9.62625e-06;-0.006306272249485465
9.62650e-06;-0.006269495167671035
9.62675e-06;-0.0062283162894469935
9.62700e-06;-0.006186633931631815
9.62725e-06;-0.0061449515738169185
9.62750e-06;-0.00610326921600174
9.62775e-06;-0.006061586858186561
9.62800e-06;-0.006019479971268084
9.62825e-06;-0.005976729238294866
9.62850e-06;-0.005934316286665459
9.62875e-06;-0.005892415618372506
9.62900e-06;-0.005851180335843347
9.62925e-06;-0.005810954185539268
9.62950e-06;-0.005771601955414463
9.62975e-06;-0.0057335751233703386
9.63000e-06;-0.0056964124046516304
9.63025e-06;-0.005661280551970608
9.63050e-06;-0.005628078830853916
9.63075e-06;-0.005597086187480299
9.63100e-06;-0.0055685681600461815
9.63125e-06;-0.005543460393373407
9.63150e-06;-0.005521107254598773
9.63175e-06;-0.0055013495088773595
9.63200e-06;-0.005485527968149256
9.63225e-06;-0.005472360569078234
9.63250e-06;-0.005463218473855134
9.63275e-06;-0.005457480682910283
9.63300e-06;-0.005456905901661315
9.63325e-06;-0.005456331120412347
9.63350e-06;-0.005461486765751607
9.63375e-06;-0.005475333246462564
9.63400e-06;-0.0054891797271735205
9.63425e-06;-0.005503026207884384
9.63450e-06;-0.00551687268859534
9.63475e-06;-0.005530719169306298
9.63500e-06;-0.0055588505760720015
9.63525e-06;-0.005588615899553814
9.63550e-06;-0.005618381223035628
9.63575e-06;-0.005648146546517239
9.63600e-06;-0.005677911869999052
9.63625e-06;-0.005712161846879119
9.63650e-06;-0.005753213304204459
9.63675e-06;-0.005794264761530076
9.63700e-06;-0.005835316218855694
9.63725e-06;-0.0058763676761810334
9.63750e-06;-0.00591741913350665
9.63775e-06;-0.005960023342649907
9.63800e-06;-0.006004982474277877
9.63825e-06;-0.006049941605906152
9.63850e-06;-0.006094900737534427
9.63875e-06;-0.0061398598691623976
9.63900e-06;-0.0061848190007906725
9.63925e-06;-0.006228614755863503
9.63950e-06;-0.0062706461197577605
9.63975e-06;-0.006312677483652302
9.64000e-06;-0.006351561834399382
9.64025e-06;-0.0063856733863398235
9.64050e-06;-0.006419784938280034
9.64075e-06;-0.006453896490220475
9.64100e-06;-0.006488008042160916
9.64125e-06;-0.0065196295414585975
9.64150e-06;-0.006547474596323481
9.64175e-06;-0.006575319651188364
9.64200e-06;-0.006603164706053059
9.64225e-06;-0.006631009760917943
9.64250e-06;-0.00665833272679559
9.64275e-06;-0.006684863886100066
9.64300e-06;-0.006711395045404721
9.64325e-06;-0.006737926204709376
9.64350e-06;-0.006764457364013853
9.64375e-06;-0.006790988523318508
9.64400e-06;-0.006817519682623163
9.64425e-06;-0.006845351496875594
9.64450e-06;-0.006873332080667143
9.64475e-06;-0.006901312664458693
9.64500e-06;-0.006929293248250053
9.64525e-06;-0.006957273832041602
9.64550e-06;-0.0069852544158331515
9.64575e-06;-0.007013912420569126
9.64600e-06;-0.007043597810233564
9.64625e-06;-0.007073283199898002
9.64650e-06;-0.007102968589562239
9.64675e-06;-0.007132653979226677
