Time(s);Current(A)
5.25000e-06;-0.008250503513296495
5.25025e-06;-0.008259227358903849
5.25050e-06;-0.008267951204511204
5.25075e-06;-0.008276675050118587
5.25100e-06;-0.008285398895725942
5.25125e-06;-0.008294122741333296
5.25150e-06;-0.008302846586940681
5.25175e-06;-0.00831107216885212
5.25200e-06;-0.008318791166418472
5.25225e-06;-0.008326510163984797
5.25250e-06;-0.008334229161551122
5.25275e-06;-0.008341948159117473
5.25300e-06;-0.008349667156683798
5.25325e-06;-0.008357386154250123
5.25350e-06;-0.008365105151816474
5.25375e-06;-0.008372824149382799
5.25400e-06;-0.008380543146949124
5.25425e-06;-0.008389860247105758
5.25450e-06;-0.008399183991318636
5.25475e-06;-0.008408507735531513
5.25500e-06;-0.008417831479744424
5.25525e-06;-0.008427155223957301
5.25550e-06;-0.00843647896817018
5.25575e-06;-0.008445802712383089
5.25600e-06;-0.008455126456595968
5.25625e-06;-0.008464763413514386
5.25650e-06;-0.00847471881356758
5.25675e-06;-0.008484674213620775
5.25700e-06;-0.008494629613674004
5.25725e-06;-0.008504585013727198
5.25750e-06;-0.008514540413780393
5.25775e-06;-0.00852449581383362
5.25800e-06;-0.008534451213886816
5.25825e-06;-0.00854440661394001
5.25850e-06;-0.008553069899179064
5.25875e-06;-0.00856172781249544
5.25900e-06;-0.008570385725811818
5.25925e-06;-0.008579043639128226
5.25950e-06;-0.008587701552444602
5.25975e-06;-0.008595133918255737
5.26000e-06;-0.008601320270790488
5.26025e-06;-0.008607506623325217
5.26050e-06;-0.008613692975859967
5.26075e-06;-0.008619879328394697
5.26100e-06;-0.008626065680929426
5.26125e-06;-0.008630874844446709
5.26150e-06;-0.00863567828234829
5.26175e-06;-0.00864048172024987
5.26200e-06;-0.008645285158151467
5.26225e-06;-0.008650088596053047
5.26250e-06;-0.008654892033954628
5.26275e-06;-0.008659695471856224
5.26300e-06;-0.008664498909757805
5.26325e-06;-0.008669302347659386
5.26350e-06;-0.008674105785560982
5.26375e-06;-0.008678909223462563
5.26400e-06;-0.008683792533615828
5.26425e-06;-0.008688757049830546
5.26450e-06;-0.008693721566045249
5.26475e-06;-0.008698686082259967
5.26500e-06;-0.008703650598474668
5.26525e-06;-0.00870861511468937
5.26550e-06;-0.008713579630904088
5.26575e-06;-0.008718544147118791
5.26600e-06;-0.008723508663333492
5.26625e-06;-0.00872847317954821
5.26650e-06;-0.008733437695762913
5.26675e-06;-0.008738402211977614
5.26700e-06;-0.008743297531114266
5.26725e-06;-0.008748192562566447
5.26750e-06;-0.008753087594018627
5.26775e-06;-0.008757982625470824
5.26800e-06;-0.008762877656923004
5.26825e-06;-0.008767772688375185
5.26850e-06;-0.008772183037322703
5.26875e-06;-0.008776100609912723
5.26900e-06;-0.008780018182502757
5.26925e-06;-0.008783935755092776
5.26950e-06;-0.008787853327682796
5.26975e-06;-0.00879177090027283
5.27000e-06;-0.008795688472862849
5.27025e-06;-0.008798462050994507
5.27050e-06;-0.008801230873008848
5.27075e-06;-0.00880194628382887
5.27100e-06;-0.008802653157663003
5.27125e-06;-0.00880336003149714
5.27150e-06;-0.008799309001344442
5.27175e-06;-0.008795238190370798
5.27200e-06;-0.00879116737939714
5.27225e-06;-0.00878252292114725
5.27250e-06;-0.00877385944811732
5.27275e-06;-0.008765195975087358
5.27300e-06;-0.008749519493792346
5.27325e-06;-0.008733813856158493
5.27350e-06;-0.008718108218524692
5.27375e-06;-0.00870240258089089
5.27400e-06;-0.008686696943257037
5.27425e-06;-0.008662957589378698
5.27450e-06;-0.008639184835603579
5.27475e-06;-0.008615412081828379
5.27500e-06;-0.008591639328053258
5.27525e-06;-0.008567866574278138
5.27550e-06;-0.008537972148922709
5.27575e-06;-0.00850805227293003
5.27600e-06;-0.008478132396937349
5.27625e-06;-0.008448212520944567
5.27650e-06;-0.008416696645569625
5.27675e-06;-0.008383558118759097
5.27700e-06;-0.008350419591948457
5.27725e-06;-0.008317281065137929
5.27750e-06;-0.008284142538327289
5.27775e-06;-0.00825011848695621
5.27800e-06;-0.008216142692180677
5.27825e-06;-0.00818241103706868
5.27850e-06;-0.008149116305393398
5.27875e-06;-0.0081164243843944
5.27900e-06;-0.008084449111356671
5.27925e-06;-0.008053318947101155
5.27950e-06;-0.008023217134676224
5.27975e-06;-0.00799435404116224
5.28000e-06;-0.00796776141719236
5.28025e-06;-0.007941178211283824
5.28050e-06;-0.007919006191407627
5.28075e-06;-0.00789685251088439
5.28100e-06;-0.007874698830361154
5.28125e-06;-0.007856265836938832
5.28150e-06;-0.007837848312144095
5.28175e-06;-0.007819430787349294
5.28200e-06;-0.007804717255255605
5.28225e-06;-0.0077900191223830234
5.28250e-06;-0.007775320989510392
5.28275e-06;-0.007766198572191914
5.28300e-06;-0.007757099335717329
5.28325e-06;-0.007748000099242713
5.28350e-06;-0.007738900862768128
5.28375e-06;-0.007729801626293543
5.28400e-06;-0.007720702389818927
5.28425e-06;-0.007714469401700977
5.28450e-06;-0.007711150526246037
5.28475e-06;-0.007707831650791085
5.28500e-06;-0.007704512775336145
5.28525e-06;-0.007701193899881205
5.28550e-06;-0.007697875024426253
5.28575e-06;-0.0076945561489713135
5.28600e-06;-0.007695331372965152
5.28625e-06;-0.007696123618035291
5.28650e-06;-0.007696915863105431
5.28675e-06;-0.007697708108175573
5.28700e-06;-0.007698500353245713
5.28725e-06;-0.007699292598315852
5.28750e-06;-0.007700084843385994
5.28775e-06;-0.007701765848297419
5.28800e-06;-0.007704350454706492
5.28825e-06;-0.007706935061115574
5.28850e-06;-0.007709519667524647
5.28875e-06;-0.007712104273933721
5.28900e-06;-0.007714688880342803
5.28925e-06;-0.007717273486751877
5.28950e-06;-0.00771985809316095
5.28975e-06;-0.007721793413788214
5.29000e-06;-0.007723726035032388
5.29025e-06;-0.007725658656276569
5.29050e-06;-0.007727591277520743
5.29075e-06;-0.0077317542468187585
5.29100e-06;-0.007737773322382484
5.29125e-06;-0.007743792397946189
5.29150e-06;-0.007749811473509895
5.29175e-06;-0.007756555992097429
5.29200e-06;-0.007770153767348103
5.29225e-06;-0.007784144236949364
5.29250e-06;-0.007801844488141279
5.29275e-06;-0.007820176571616877
5.29300e-06;-0.007844477571556319
5.29325e-06;-0.007868778571495844
5.29350e-06;-0.007894109206216384
5.29375e-06;-0.00792916679562812
5.29400e-06;-0.007964224385039975
5.29425e-06;-0.007999281974451709
5.29450e-06;-0.008034339563863565
5.29475e-06;-0.00807044258497791
5.29500e-06;-0.00811642179422216
5.29525e-06;-0.008162401003466569
5.29550e-06;-0.008208380212710819
5.29575e-06;-0.008254359421955071
5.29600e-06;-0.00830104762354016
5.29625e-06;-0.008354433672264414
5.29650e-06;-0.008407819720988667
5.29675e-06;-0.008461205769713102
5.29700e-06;-0.008514591818437356
5.29725e-06;-0.00856797786716161
5.29750e-06;-0.008621399604566725
5.29775e-06;-0.008675158492761684
5.29800e-06;-0.008728917380956642
5.29825e-06;-0.008782676269151782
5.29850e-06;-0.008836435157346742
5.29875e-06;-0.008890194045541882
5.29900e-06;-0.008943497910487085
5.29925e-06;-0.008992503173040777
5.29950e-06;-0.009041100942773468
5.29975e-06;-0.009085849129838593
5.30000e-06;-0.009130051957609584
5.30025e-06;-0.009169102778824632
5.30050e-06;-0.009207299523256933
5.30075e-06;-0.009237427808545744
5.30100e-06;-0.009267556093834657
5.30125e-06;-0.009296568283238448
5.30150e-06;-0.009315036720333932
5.30175e-06;-0.009333505157429476
5.30200e-06;-0.009350796908115404
5.30225e-06;-0.009356972508107679
5.30250e-06;-0.009363148108099975
5.30275e-06;-0.009367755997360044
5.30300e-06;-0.009357553731084127
5.30325e-06;-0.009347351464808243
5.30350e-06;-0.00933714919853236
5.30375e-06;-0.009326946932256443
5.30400e-06;-0.009315005275161792
5.30425e-06;-0.009286631601603557
5.30450e-06;-0.009258257928045225
5.30475e-06;-0.00922988425448699
5.30500e-06;-0.009201510580928754
5.30525e-06;-0.009171847340526243
5.30550e-06;-0.00913000156852475
5.30575e-06;-0.009088155796523256
5.30600e-06;-0.00904631002452162
5.30625e-06;-0.009004464252520125
5.30650e-06;-0.008957864509708546
5.30675e-06;-0.008908038545005896
5.30700e-06;-0.008858212580303414
5.30725e-06;-0.008808386615600764
5.30750e-06;-0.00875832585642499
5.30775e-06;-0.008706022390335749
5.30800e-06;-0.008653490228092826
5.30825e-06;-0.008601025351980481
5.30850e-06;-0.008548921970784704
5.30875e-06;-0.008497475768949046
5.30900e-06;-0.008447006288714864
5.30925e-06;-0.008397851600176573
5.30950e-06;-0.008350349595133776
5.30975e-06;-0.008305099287607524
5.31000e-06;-0.008264405147709701
5.31025e-06;-0.008223711007811739
5.31050e-06;-0.008183652979274007
5.31075e-06;-0.008149604291607352
5.31100e-06;-0.008115745978239443
5.31125e-06;-0.00808368612993088
5.31150e-06;-0.00805162628162221
5.31175e-06;-0.00801981215329762
5.31200e-06;-0.007990319340445556
5.31225e-06;-0.007960826527593392
5.31250e-06;-0.007931627217738279
5.31275e-06;-0.007905200629242708
5.31300e-06;-0.007878774040747046
5.31325e-06;-0.00785241127585549
5.31350e-06;-0.007826651452235172
5.31375e-06;-0.007800891628614764
5.31400e-06;-0.007775131804994445
5.31425e-06;-0.007749371981374126
5.31450e-06;-0.007723752484695368
5.31475e-06;-0.00769945865593975
5.31500e-06;-0.007675164827184133
5.31525e-06;-0.007650870998428433
5.31550e-06;-0.007626577169672816
5.31575e-06;-0.007602332458169699
5.31600e-06;-0.007578551757108609
5.31625e-06;-0.007554771056047519
5.31650e-06;-0.007531095244345842
5.31675e-06;-0.007508410321904002
5.31700e-06;-0.0074857519431041665
5.31725e-06;-0.007463355732827614
5.31750e-06;-0.007441091479920644
5.31775e-06;-0.007419092452658763
5.31800e-06;-0.007397492895213762
5.31825e-06;-0.007376428092151863
5.31850e-06;-0.007356025026856009
5.31875e-06;-0.007336337977096816
5.31900e-06;-0.0073172852198300975
5.31925e-06;-0.007298778925022939
5.31950e-06;-0.007280868069486191
5.31975e-06;-0.007263672749258393
5.32000e-06;-0.007247312817585092
5.32025e-06;-0.007231909633767562
5.32050e-06;-0.007217574804915771
5.32075e-06;-0.007204324287151634
5.32100e-06;-0.007191986341630842
5.32125e-06;-0.007180366580559403
5.32150e-06;-0.007169470344912572
5.32175e-06;-0.007159601352420016
5.32200e-06;-0.007149895789421054
5.32225e-06;-0.007141734144038384
5.32250e-06;-0.007133775115865999
5.32275e-06;-0.007127730211475028
5.32300e-06;-0.007121685307084037
5.32325e-06;-0.007115888443481481
5.32350e-06;-0.007112434819978034
5.32375e-06;-0.007108981196474576
5.32400e-06;-0.007105527572971129
5.32425e-06;-0.007102073949467671
5.32450e-06;-0.007098899330620532
5.32475e-06;-0.00709836046737886
5.32500e-06;-0.007097821604137185
5.32525e-06;-0.007097282740895513
5.32550e-06;-0.007096743877653841
5.32575e-06;-0.007096413457405856
5.32600e-06;-0.007098052197086106
5.32625e-06;-0.007099690936766356
5.32650e-06;-0.007101329676446612
5.32675e-06;-0.0071029684161268624
5.32700e-06;-0.0071046071558071135
5.32725e-06;-0.007106358629819203
5.32750e-06;-0.007109175104505269
5.32775e-06;-0.007111991579191335
5.32800e-06;-0.0071148080538774115
5.32825e-06;-0.007117624528563477
5.32850e-06;-0.007120441003249553
5.32875e-06;-0.007123260523805541
5.32900e-06;-0.007126108818679573
5.32925e-06;-0.007128957113553615
5.32950e-06;-0.007131755471018839
5.32975e-06;-0.007134082070030658
5.33000e-06;-0.007136408669042484
5.33025e-06;-0.007138677730828592
5.33050e-06;-0.0071404032387287104
5.33075e-06;-0.007142145558345012
5.33100e-06;-0.00714404669816066
5.33125e-06;-0.007145947837976309
5.33150e-06;-0.007147923534744485
5.33175e-06;-0.007150603570673371
5.33200e-06;-0.007153283606602255
5.33225e-06;-0.007156058524765237
5.33250e-06;-0.007159729794923034
5.33275e-06;-0.007163401065080843
5.33300e-06;-0.007167072335238641
5.33325e-06;-0.007170743605396437
5.33350e-06;-0.007174414875554247
5.33375e-06;-0.007178086145712044
5.33400e-06;-0.007183647962028088
5.33425e-06;-0.007189294558650544
5.33450e-06;-0.007194941155272981
5.33475e-06;-0.007200587751895418
5.33500e-06;-0.007206234348517874
5.33525e-06;-0.007211880945140311
5.33550e-06;-0.007218766395354676
5.33575e-06;-0.007225926669810928
5.33600e-06;-0.007233086944267155
5.33625e-06;-0.007240247218723381
5.33650e-06;-0.007247407493179633
5.33675e-06;-0.00725456776763586
5.33700e-06;-0.007261728042092111
5.33725e-06;-0.007269046868313142
5.33750e-06;-0.007276458512314714
5.33775e-06;-0.00728387015631631
5.33800e-06;-0.0072912818003178816
5.33825e-06;-0.007298693444319453
5.33850e-06;-0.0073061050883210495
5.33875e-06;-0.007313516732322621
5.33900e-06;-0.0073204362292356
5.33925e-06;-0.007326737092114182
5.33950e-06;-0.007333037954992743
5.33975e-06;-0.007339338817871304
5.34000e-06;-0.0073451952723459
5.34025e-06;-0.0073502865767575655
5.34050e-06;-0.007354952398814687
5.34075e-06;-0.007359635626578059
5.34100e-06;-0.007365407062065868
5.34125e-06;-0.00737318675865281
5.34150e-06;-0.007383181768934194
5.34175e-06;-0.007395717360494644
5.34200e-06;-0.007409927014676888
5.34225e-06;-0.007425674973900959
5.34250e-06;-0.007443356598641321
5.34275e-06;-0.007463535699579711
5.34300e-06;-0.007486854154202934
5.34325e-06;-0.007510172608826156
5.34350e-06;-0.007537879771809069
5.34375e-06;-0.007571103587071386
5.34400e-06;-0.007604327402333704
5.34425e-06;-0.007637551217596134
5.34450e-06;-0.007670775032858452
5.34475e-06;-0.007708425353889706
5.34500e-06;-0.007751639838939101
5.34525e-06;-0.007794854323988348
5.34550e-06;-0.007838068809037743
5.34575e-06;-0.00788128329408699
5.34600e-06;-0.00792760855543724
5.34625e-06;-0.00797784409511217
5.34650e-06;-0.008028079634786928
5.34675e-06;-0.008078315174461687
5.34700e-06;-0.008128550714136616
5.34725e-06;-0.008178786253811375
5.34750e-06;-0.00822929516448675
5.34775e-06;-0.008280147705367363
5.34800e-06;-0.008331000246247805
5.34825e-06;-0.008381852787128247
5.34850e-06;-0.008432705328008862
5.34875e-06;-0.008483557868889303
5.34900e-06;-0.00853215239969091
5.34925e-06;-0.008577908588222782
5.34950e-06;-0.008623664776754497
5.34975e-06;-0.008662523453884574
5.35000e-06;-0.008692711887089661
5.35025e-06;-0.00872290032029475
5.35050e-06;-0.00875308875349994
5.35075e-06;-0.008783277186705027
5.35100e-06;-0.008813465619910116
5.35125e-06;-0.008843654053115307
5.35150e-06;-0.008873842486320394
5.35175e-06;-0.008904030919525482
5.35200e-06;-0.008934219352730671
5.35225e-06;-0.00896440778593576
5.35250e-06;-0.008994596219140848
5.35275e-06;-0.009018528410854824
5.35300e-06;-0.009034596441624451
5.35325e-06;-0.009050664472394077
5.35350e-06;-0.009066732503163758
5.35375e-06;-0.009082800533933384
5.35400e-06;-0.009098868564703065
5.35425e-06;-0.00911493659547269
5.35450e-06;-0.009131004626242317
5.35475e-06;-0.009147072657011998
5.35500e-06;-0.009163140687781623
5.35525e-06;-0.009179208718551251
5.35550e-06;-0.00919527674932093
5.35575e-06;-0.009208819898019601
5.35600e-06;-0.009219189243565368
5.35625e-06;-0.00922955858911117
5.35650e-06;-0.009239927934656937
5.35675e-06;-0.009250297280202704
5.35700e-06;-0.009260666625748506
5.35725e-06;-0.009271035971294273
5.35750e-06;-0.00928140531684004
5.35775e-06;-0.009291774662385842
5.35800e-06;-0.009298840372165712
5.35825e-06;-0.00930570663002261
5.35850e-06;-0.009312572887879487
5.35875e-06;-0.009319439145736361
5.35900e-06;-0.00932630540359326
5.35925e-06;-0.009333171661450135
5.35950e-06;-0.009340037919307011
5.35975e-06;-0.00934690417716391
5.36000e-06;-0.009352862187936392
5.36025e-06;-0.009357678522631016
5.36050e-06;-0.009361751288203872
5.36075e-06;-0.009364889379619039
5.36100e-06;-0.00936504019652968
5.36125e-06;-0.009361435978165905
5.36150e-06;-0.009357831759802144
5.36175e-06;-0.009350162531851742
5.36200e-06;-0.00933738354436454
5.36225e-06;-0.009324604556877385
5.36250e-06;-0.009307901956225459
5.36275e-06;-0.009286267332817141
5.36300e-06;-0.009264632709408823
5.36325e-06;-0.00923713123484958
5.36350e-06;-0.009202255067075392
5.36375e-06;-0.009167378899301205
5.36400e-06;-0.009132502731526899
5.36425e-06;-0.009097626563752712
5.36450e-06;-0.009050281899996333
5.36475e-06;-0.009002184469992139
5.36500e-06;-0.008954087039988106
5.36525e-06;-0.008905989609984075
5.36550e-06;-0.008853713512244522
5.36575e-06;-0.00879618478548795
5.36600e-06;-0.008738656058731377
5.36625e-06;-0.008679328860266788
5.36650e-06;-0.008617740964068754
5.36675e-06;-0.008555193277760971
5.36700e-06;-0.008491439125254381
5.36725e-06;-0.00842710831467467
5.36750e-06;-0.00836186200128144
5.36775e-06;-0.008296355835309188
5.36800e-06;-0.008230972802439123
5.36825e-06;-0.00816609463887499
5.36850e-06;-0.008102094627579522
5.36875e-06;-0.008039290794986815
5.36900e-06;-0.007977919471444078
5.36925e-06;-0.007918228556487893
5.36950e-06;-0.007860568088553578
5.36975e-06;-0.007805345362189901
5.37000e-06;-0.00775297108486712
5.37025e-06;-0.007703857679193676
5.37050e-06;-0.0076583924442545125
5.37075e-06;-0.00761679549425454
5.37100e-06;-0.007578984246204765
5.37125e-06;-0.007544776424048837
5.37150e-06;-0.007514163462658985
5.37175e-06;-0.007487262367382549
5.37200e-06;-0.007464202385739847
5.37225e-06;-0.007446028453497978
5.37250e-06;-0.0074312569789725955
5.37275e-06;-0.007420021996766397
5.37300e-06;-0.007413232422366806
5.37325e-06;-0.007410396067727537
5.37350e-06;-0.007412528951643836
5.37375e-06;-0.007414661835560134
5.37400e-06;-0.0074226905513926755
5.37425e-06;-0.00743813038956368
5.37450e-06;-0.007453570227734686
5.37475e-06;-0.007469010065905743
5.37500e-06;-0.007484449904076749
5.37525e-06;-0.007505679430566023
5.37550e-06;-0.007534186655781459
5.37575e-06;-0.007562693880996894
5.37600e-06;-0.007591201106212426
5.37625e-06;-0.00761970833142786
5.37650e-06;-0.007651396260903437
5.37675e-06;-0.007687082368876816
5.37700e-06;-0.007722768476850073
5.37725e-06;-0.007759643937800985
5.37750e-06;-0.007798014427875273
5.37775e-06;-0.00783638491794943
5.37800e-06;-0.007874989509881802
5.37825e-06;-0.007913888370296758
5.37850e-06;-0.007952787230711581
5.37875e-06;-0.007991139624215302
5.37900e-06;-0.008028805103100604
5.37925e-06;-0.008065406188783767
5.37950e-06;-0.00810066932108784
5.37975e-06;-0.008133886950580677
5.38000e-06;-0.00816453336166183
5.38025e-06;-0.00819517977274309
5.38050e-06;-0.008222563750231317
5.38075e-06;-0.008245846814596704
5.38100e-06;-0.008269129878962169
5.38125e-06;-0.008288983117277812
5.38150e-06;-0.008304525028402995
5.38175e-06;-0.00832006693952823
5.38200e-06;-0.008330114196697838
5.38225e-06;-0.008333254616419442
5.38250e-06;-0.008336395036141055
5.38275e-06;-0.008339535455862659
5.38300e-06;-0.008342675875584262
5.38325e-06;-0.008345816295305876
5.38350e-06;-0.008342152356081186
5.38375e-06;-0.008329935266547338
5.38400e-06;-0.008317718177013532
5.38425e-06;-0.008305501087479726
5.38450e-06;-0.008293283997945879
5.38475e-06;-0.008281066908412073
5.38500e-06;-0.008263869473775816
5.38525e-06;-0.008240411693295351
5.38550e-06;-0.008216953912814967
5.38575e-06;-0.008193496132334582
5.38600e-06;-0.008170038351854118
5.38625e-06;-0.008143689152088716
5.38650e-06;-0.008113705408063486
5.38675e-06;-0.008083721664038155
5.38700e-06;-0.008053737920012924
5.38725e-06;-0.008023754175987692
5.38750e-06;-0.007992785388561673
5.38775e-06;-0.00796057839128632
5.38800e-06;-0.007928291136411508
5.38825e-06;-0.007895902996895283
5.38850e-06;-0.007863754185953397
5.38875e-06;-0.007831906213530452
5.38900e-06;-0.007800469844991746
5.38925e-06;-0.007769957106460073
5.38950e-06;-0.007740908162058673
5.38975e-06;-0.0077130573329938085
5.39000e-06;-0.007685206503928944
5.39025e-06;-0.007661160632088253
5.39050e-06;-0.007637344478681172
5.39075e-06;-0.007614756493495387
5.39100e-06;-0.007593712328599305
5.39125e-06;-0.007572668163703293
5.39150e-06;-0.007551682111636372
5.39175e-06;-0.007530769108002881
5.39200e-06;-0.0075098561043694615
5.39225e-06;-0.00748946783551232
5.39250e-06;-0.007469739163752886
5.39275e-06;-0.007450010491993519
5.39300e-06;-0.007429962976804227
5.39325e-06;-0.007409514672091454
5.39350e-06;-0.007389066367378682
5.39375e-06;-0.007368618062665841
5.39400e-06;-0.007348169757953068
5.39425e-06;-0.007327375540923417
5.39450e-06;-0.007306146508496272
5.39475e-06;-0.0072849174760692
5.39500e-06;-0.007263688443642127
5.39525e-06;-0.007242459411214983
5.39550e-06;-0.0072208068084750375
5.39575e-06;-0.007198621773425122
5.39600e-06;-0.0071764367383751314
5.39625e-06;-0.007154323295579755
5.39650e-06;-0.007132299844996535
5.39675e-06;-0.007110276394413241
5.39700e-06;-0.007088309371730934
