Time(s);Current(A)
9.05000e-06;0.007021021035749276
9.05025e-06;0.007093476483330409
9.05050e-06;0.007165931930911543
9.05075e-06;0.007238387378492677
9.05100e-06;0.00731084282607332
9.05125e-06;0.007383298273654453
9.05150e-06;0.007455753721235588
9.05175e-06;0.00752820916881623
9.05200e-06;0.007600664616397364
9.05225e-06;0.007680948492268278
9.05250e-06;0.0077654147931724565
9.05275e-06;0.007849881094077207
9.05300e-06;0.007934347394981958
9.05325e-06;0.008018813695886137
9.05350e-06;0.008103279996790887
9.05375e-06;0.008187746297695638
9.05400e-06;0.008269148977683782
9.05425e-06;0.008333430600252548
9.05450e-06;0.008397712222821315
9.05475e-06;0.008461993845389645
9.05500e-06;0.008526275467958411
9.05525e-06;0.008590557090527178
9.05550e-06;0.008654838713095508
9.05575e-06;0.008719120335664274
9.05600e-06;0.008754997577671078
9.05625e-06;0.008775699462894337
9.05650e-06;0.008796401348117737
9.05675e-06;0.008817103233341138
9.05700e-06;0.008837805118564397
9.05725e-06;0.008858507003787796
9.05750e-06;0.008879208889011198
9.05775e-06;0.008899910774234457
9.05800e-06;0.008920612659457856
9.05825e-06;0.008941314544681256
9.05850e-06;0.008962016429904516
9.05875e-06;0.008982718315127916
9.05900e-06;0.008997167574130709
9.05925e-06;0.008976674007140788
9.05950e-06;0.008956180440151007
9.05975e-06;0.008935686873161085
9.06000e-06;0.008915193306171165
9.06025e-06;0.008894699739181382
9.06050e-06;0.008874206172191462
9.06075e-06;0.008853712605201541
9.06100e-06;0.008833219038211758
9.06125e-06;0.008812725471221838
9.06150e-06;0.008792231904231916
9.06175e-06;0.008771738337242135
9.06200e-06;0.008751244770252214
9.06225e-06;0.008723183456272106
9.06250e-06;0.008691078989145848
9.06275e-06;0.008658974522019372
9.06300e-06;0.008626870054892896
9.06325e-06;0.008594765587766638
9.06350e-06;0.008562661120640162
9.06375e-06;0.008530556653513686
9.06400e-06;0.008498452186387428
9.06425e-06;0.008466347719260952
9.06450e-06;0.008434243252134476
9.06475e-06;0.008402138785008216
9.06500e-06;0.008382909920731164
9.06525e-06;0.008370559990731935
9.06550e-06;0.00835821006073279
9.06575e-06;0.00834586013073356
9.06600e-06;0.00833351020073433
9.06625e-06;0.008321160270735185
9.06650e-06;0.008308810340735957
9.06675e-06;0.008296460410736728
9.06700e-06;0.008284110480737582
9.06725e-06;0.008271760550738354
9.06750e-06;0.008259410620739123
9.06775e-06;0.00827012814478028
9.06800e-06;0.008293169713152698
9.06825e-06;0.008316211281525272
9.06850e-06;0.008339252849897847
9.06875e-06;0.008362294418270265
9.06900e-06;0.008385335986642838
9.06925e-06;0.008408377555015412
9.06950e-06;0.00843141912338783
9.06975e-06;0.008454460691760405
9.07000e-06;0.008477502260132979
9.07025e-06;0.008500543828505397
9.07050e-06;0.008526828194949687
9.07075e-06;0.008571234951060526
9.07100e-06;0.008615641707171065
9.07125e-06;0.008660048463281904
9.07150e-06;0.008704455219392743
9.07175e-06;0.008748861975503282
9.07200e-06;0.008793268731614122
9.07225e-06;0.00883767548772496
9.07250e-06;0.0088820822438355
9.07275e-06;0.008926488999946339
9.07300e-06;0.008970895756057178
9.07325e-06;0.009015302512167717
9.07350e-06;0.00905584836700989
9.07375e-06;0.009094331492331957
9.07400e-06;0.009132814617653763
9.07425e-06;0.00917129774297583
9.07450e-06;0.009209780868297896
9.07475e-06;0.009248263993619702
9.07500e-06;0.00928674711894177
9.07525e-06;0.009325230244263835
9.07550e-06;0.009359219788322676
9.07575e-06;0.009368096935969196
9.07600e-06;0.009376974083615715
9.07625e-06;0.009385851231262232
9.07650e-06;0.00939472837890869
9.07675e-06;0.00940360552655521
9.07700e-06;0.009412482674201727
9.07725e-06;0.009421359821848186
9.07750e-06;0.009430236969494705
9.07775e-06;0.009411411886463272
9.07800e-06;0.009377786578039265
9.07825e-06;0.00934416126961503
9.07850e-06;0.009310535961190795
9.07875e-06;0.00927691065276679
9.07900e-06;0.009243285344342555
9.07925e-06;0.00920966003591832
9.07950e-06;0.009176034727494314
9.07975e-06;0.00914240941907008
9.08000e-06;0.009108784110645845
9.08025e-06;0.009055031515093539
9.08050e-06;0.008990525692136934
9.08075e-06;0.008926019869180327
9.08100e-06;0.008861514046224159
9.08125e-06;0.008797008223267554
9.08150e-06;0.008732502400310947
9.08175e-06;0.00866799657735478
9.08200e-06;0.008603490754398172
9.08225e-06;0.008538984931441567
9.08250e-06;0.008474479108485398
9.08275e-06;0.00840750723855403
9.08300e-06;0.00833921785554992
9.08325e-06;0.008270928472546275
9.08350e-06;0.008202639089542165
9.08375e-06;0.008134349706538056
9.08400e-06;0.008066060323534411
9.08425e-06;0.00800708531267695
9.08450e-06;0.007953086608919028
9.08475e-06;0.007899087905161105
9.08500e-06;0.00784508920140355
9.08525e-06;0.0077910904976456275
9.08550e-06;0.007737091793887706
9.08575e-06;0.0076995166833490865
9.08600e-06;0.0076707160604785616
9.08625e-06;0.0076419154376080375
9.08650e-06;0.007613114814737708
9.08675e-06;0.007584314191867183
9.08700e-06;0.007555513568996658
9.08725e-06;0.007526712946126329
9.08750e-06;0.007497912323255804
9.08775e-06;0.007469111700385279
9.08800e-06;0.007440311077514949
9.08825e-06;0.007411510454644425
9.08850e-06;0.0073827098317739
9.08875e-06;0.00735390920890357
9.08900e-06;0.007325108586033046
9.08925e-06;0.007296307963162521
9.08950e-06;0.007280303359532467
9.08975e-06;0.007271135171755266
9.09000e-06;0.007261966983978065
9.09025e-06;0.007252798796200925
9.09050e-06;0.007243630608423724
9.09075e-06;0.0072344624206465225
9.09100e-06;0.007225294232869384
9.09125e-06;0.007216126045092182
9.09150e-06;0.007206957857314981
9.09175e-06;0.007197789669537841
9.09200e-06;0.00718862148176064
9.09225e-06;0.007179453293983439
9.09250e-06;0.0071702851062063
9.09275e-06;0.007161116918429099
9.09300e-06;0.0071519487306518975
9.09325e-06;0.007146895181501006
9.09350e-06;0.007144039923882027
9.09375e-06;0.007141184666263028
9.09400e-06;0.00713832940864403
9.09425e-06;0.00713547415102505
9.09450e-06;0.007132618893406052
9.09475e-06;0.007129763635787053
9.09500e-06;0.007126908378168074
9.09525e-06;0.007124053120549075
9.09550e-06;0.0071211978629300765
9.09575e-06;0.007120603401241287
9.09600e-06;0.00713264340643985
9.09625e-06;0.007144683411638412
9.09650e-06;0.0071567234168368925
9.09675e-06;0.007168763422035455
9.09700e-06;0.007180803427234018
9.09725e-06;0.007192843432432499
9.09750e-06;0.00720488343763106
9.09775e-06;0.007216923442829623
9.09800e-06;0.007228963448028104
9.09825e-06;0.0072410034532266665
9.09850e-06;0.00726978071413668
9.09875e-06;0.00730750004039955
9.09900e-06;0.007345219366662673
9.09925e-06;0.007382938692925798
9.09950e-06;0.007420658019188666
9.09975e-06;0.007458377345451791
9.10000e-06;0.007496096671714915
9.10025e-06;0.007533815997977784
9.10050e-06;0.007571535324240908
9.10075e-06;0.007609254650504033
9.10100e-06;0.007646973976766901
9.10125e-06;0.007691975740996954
9.10150e-06;0.007740868228853429
9.10175e-06;0.007789760716709903
9.10200e-06;0.007838653204566047
9.10225e-06;0.007887545692422521
9.10250e-06;0.007936438180278997
9.10275e-06;0.00798533066813514
9.10300e-06;0.008034223155991616
9.10325e-06;0.00808311564384809
9.10350e-06;0.008132008131704232
9.10375e-06;0.008180900619560708
9.10400e-06;0.008220275647429293
9.10425e-06;0.008254565866252945
9.10450e-06;0.008288856085076828
9.10475e-06;0.008323146303900712
9.10500e-06;0.008357436522724363
9.10525e-06;0.008391726741548247
9.10550e-06;0.008426016960372129
9.10575e-06;0.00846030717919578
9.10600e-06;0.008494597398019664
9.10625e-06;0.008524184504428229
9.10650e-06;0.008527488248719215
9.10675e-06;0.008530791993010224
9.10700e-06;0.008534095737301232
9.10725e-06;0.00853739948159222
9.10750e-06;0.008540703225883229
9.10775e-06;0.008544006970174238
9.10800e-06;0.008547310714465226
9.10825e-06;0.008550614458756234
9.10850e-06;0.008553918203047243
9.10875e-06;0.00853706798719239
9.10900e-06;0.008509450293567675
9.10925e-06;0.008481832599942963
9.10950e-06;0.008454214906318437
9.10975e-06;0.008426597212693723
9.11000e-06;0.00839897951906901
9.11025e-06;0.008371361825444484
9.11050e-06;0.00834374413181977
9.11075e-06;0.008316126438195057
9.11100e-06;0.008288508744570345
9.11125e-06;0.008260891050945818
9.11150e-06;0.008224372612069772
9.11175e-06;0.008183098850867784
9.11200e-06;0.008141825089666075
9.11225e-06;0.008100551328464087
9.11250e-06;0.008059277567262099
9.11275e-06;0.00801800380606039
9.11300e-06;0.007976730044858401
9.11325e-06;0.007935456283656411
9.11350e-06;0.007894182522454704
9.11375e-06;0.007852908761252714
9.11400e-06;0.007811635000050726
9.11425e-06;0.007780196879931561
9.11450e-06;0.00775401356065347
9.11475e-06;0.0077278302413753795
9.11500e-06;0.0077016469220974665
9.11525e-06;0.007675463602819376
9.11550e-06;0.007649280283541284
9.11575e-06;0.007623096964263371
9.11600e-06;0.00759691364498528
9.11625e-06;0.007570730325707189
9.11650e-06;0.007544547006429275
9.11675e-06;0.007518363687151184
9.11700e-06;0.007492180367873093
9.11725e-06;0.0074830099895421874
9.11750e-06;0.007482928964478196
9.11775e-06;0.007482847939414204
9.11800e-06;0.007482766914350213
9.11825e-06;0.007482685889286221
9.11850e-06;0.00748260486422223
9.11875e-06;0.007482523839158239
9.11900e-06;0.007482442814094247
9.11925e-06;0.007482361789030255
9.11950e-06;0.0074822807639662635
9.11975e-06;0.007482199738902273
9.12000e-06;0.007482118713838281
9.12025e-06;0.007492754463297326
9.12050e-06;0.007509115768956682
9.12075e-06;0.00752547707461615
9.12100e-06;0.007541838380275618
9.12125e-06;0.0075581996859349744
9.12150e-06;0.007574560991594442
9.12175e-06;0.00759092229725391
9.12200e-06;0.0076072836029132665
9.12225e-06;0.007623644908572733
9.12250e-06;0.007640006214232201
9.12275e-06;0.007656367519891558
9.12300e-06;0.007672906764302992
9.12325e-06;0.007689541074475354
9.12350e-06;0.007706175384647605
9.12375e-06;0.007722809694819967
9.12400e-06;0.00773944400499233
9.12425e-06;0.00775607831516458
9.12450e-06;0.007772712625336943
9.12475e-06;0.007789346935509305
9.12500e-06;0.007805981245681556
9.12525e-06;0.007822615555853918
9.12550e-06;0.007839249866026281
9.12575e-06;0.007855560226684414
9.12600e-06;0.007871697513705096
9.12625e-06;0.007887834800725779
9.12650e-06;0.007903972087746354
9.12675e-06;0.007920109374767037
9.12700e-06;0.00793624666178772
9.12725e-06;0.007952383948808294
9.12750e-06;0.007968521235828977
9.12775e-06;0.00798465852284966
9.12800e-06;0.008000795809870344
9.12825e-06;0.008016933096890918
9.12850e-06;0.0080330703839116
9.12875e-06;0.008050510495519449
9.12900e-06;0.008075231447434068
9.12925e-06;0.008099952399348855
9.12950e-06;0.008124673351263642
9.12975e-06;0.008149394303178263
9.13000e-06;0.00817411525509305
9.13025e-06;0.008198836207007837
9.13050e-06;0.008223557158922456
9.13075e-06;0.008248278110837243
9.13100e-06;0.00827299906275203
9.13125e-06;0.008297720014666651
9.13150e-06;0.008322440966581439
9.13175e-06;0.008347161918496226
9.13200e-06;0.00837170193452316
9.13225e-06;0.008396145283536148
9.13250e-06;0.008420588632549136
9.13275e-06;0.008445031981561957
9.13300e-06;0.008469475330574945
9.13325e-06;0.008493918679587932
9.13350e-06;0.008518362028600754
9.13375e-06;0.008542805377613741
9.13400e-06;0.008567248726626729
9.13425e-06;0.00859169207563955
9.13450e-06;0.008616135424652538
9.13475e-06;0.008640578773665523
9.13500e-06;0.008665022122678346
9.13525e-06;0.008677056830463594
9.13550e-06;0.008682462083406272
9.13575e-06;0.008687867336348912
9.13600e-06;0.008693272589291591
9.13625e-06;0.008698677842234269
9.13650e-06;0.008704083095176946
9.13675e-06;0.008709488348119587
9.13700e-06;0.008714893601062266
9.13725e-06;0.008720298854004943
9.13750e-06;0.008725704106947584
9.13775e-06;0.008731109359890262
9.13800e-06;0.00873651461283294
9.13825e-06;0.00874191986577558
9.13850e-06;0.008731710447238895
9.13875e-06;0.008713158716473149
9.13900e-06;0.008694606985707528
9.13925e-06;0.008676055254941781
9.13950e-06;0.008657503524176036
9.13975e-06;0.008638951793410416
9.14000e-06;0.00862040006264467
9.14025e-06;0.008601848331878922
9.14050e-06;0.008583296601113302
9.14075e-06;0.008564744870347557
9.14100e-06;0.00854619313958181
9.14125e-06;0.00852764140881619
9.14150e-06;0.008509089678050443
9.14175e-06;0.008485614899447736
9.14200e-06;0.00845950992768144
9.14225e-06;0.008433404955914969
9.14250e-06;0.008407299984148497
9.14275e-06;0.008381195012382202
9.14300e-06;0.00835509004061573
9.14325e-06;0.008328985068849258
9.14350e-06;0.008302880097082964
9.14375e-06;0.008276775125316492
9.14400e-06;0.00825067015355002
9.14425e-06;0.008224565181783725
9.14450e-06;0.008198460210017253
9.14475e-06;0.008172355238250781
9.14500e-06;0.00815697815861229
9.14525e-06;0.008147332574883398
9.14550e-06;0.00813768699115444
9.14575e-06;0.008128041407425481
9.14600e-06;0.008118395823696589
9.14625e-06;0.00810875023996763
9.14650e-06;0.008099104656238672
9.14675e-06;0.00808945907250978
9.14700e-06;0.008079813488780823
9.14725e-06;0.008070167905051865
9.14750e-06;0.008060522321322972
9.14775e-06;0.008050876737594014
9.14800e-06;0.008041231153865055
9.14825e-06;0.008031585570136163
9.14850e-06;0.008021939986407205
9.14875e-06;0.008025397916481984
9.14900e-06;0.00803585654481851
9.14925e-06;0.008046315173155108
9.14950e-06;0.008056773801491706
9.14975e-06;0.008067232429828234
9.15000e-06;0.008077691058164832
9.15025e-06;0.00808814968650143
9.15050e-06;0.008098608314837956
9.15075e-06;0.008109066943174554
9.15100e-06;0.008119525571511153
9.15125e-06;0.00812998419984768
9.15150e-06;0.008140442828184278
9.15175e-06;0.008150901456520875
9.15200e-06;0.008161360084857404
9.15225e-06;0.008171818713194001
9.15250e-06;0.0081850533111427
9.15275e-06;0.008199771001789266
9.15300e-06;0.008214488692435934
9.15325e-06;0.0082292063830826
9.15350e-06;0.008243924073729265
9.15375e-06;0.008258641764375832
9.15400e-06;0.0082733594550225
9.15425e-06;0.008288077145669166
9.15450e-06;0.008302794836315732
9.15475e-06;0.0083175125269624
9.15500e-06;0.008332230217609066
9.15525e-06;0.00833494938977922
9.15550e-06;0.00833125821975326
9.15575e-06;0.008327567049727301
9.15600e-06;0.008323875879701365
9.15625e-06;0.008320184709675405
9.15650e-06;0.008316493539649446
9.15675e-06;0.00831280236962351
9.15700e-06;0.00830911119959755
9.15725e-06;0.00830542002957159
9.15750e-06;0.008301728859545655
9.15775e-06;0.008298037689519694
9.15800e-06;0.008272058261634225
9.15825e-06;0.008234171083627857
9.15850e-06;0.00819628390562123
9.15875e-06;0.008158396727614602
9.15900e-06;0.008120509549608234
9.15925e-06;0.008082622371601607
9.15950e-06;0.008044735193594981
9.15975e-06;0.00800684801558861
9.16000e-06;0.007968960837581985
9.16025e-06;0.007931073659575358
9.16050e-06;0.007890117373373449
9.16075e-06;0.007832009363975465
9.16100e-06;0.007773901354577482
9.16125e-06;0.007715793345179892
9.16150e-06;0.007657685335781908
9.16175e-06;0.007599577326383925
9.16200e-06;0.007541469316985941
9.16225e-06;0.0074833613075883515
9.16250e-06;0.007425253298190368
9.16275e-06;0.007367145288792384
9.16300e-06;0.007309037279394795
9.16325e-06;0.007253210112974267
9.16350e-06;0.007198601512330302
9.16375e-06;0.007143992911686707
9.16400e-06;0.007089384311042743
9.16425e-06;0.007034775710398777
9.16450e-06;0.006980167109755182
9.16475e-06;0.006927946898487326
9.16500e-06;0.006889074210624857
9.16525e-06;0.006850201522762651
9.16550e-06;0.006811328834900181
9.16575e-06;0.0067724561470377115
9.16600e-06;0.006733583459175505
9.16625e-06;0.0066947107713130356
9.16650e-06;0.006668423051435396
9.16675e-06;0.006648858990941225
9.16700e-06;0.006629294930446921
9.16725e-06;0.006609730869952617
9.16750e-06;0.006590166809458445
9.16775e-06;0.006570602748964142
9.16800e-06;0.006551038688469838
9.16825e-06;0.006531474627975667
9.16850e-06;0.006511910567481363
9.16875e-06;0.0064923465069870595
9.16900e-06;0.0064727824464928885
9.16925e-06;0.006453218385998585
9.16950e-06;0.006433654325504281
9.16975e-06;0.00641409026501011
9.17000e-06;0.006394526204515806
9.17025e-06;0.006374962144021503
9.17050e-06;0.006364543648035534
9.17075e-06;0.006359011271800221
9.17100e-06;0.00635347889556487
9.17125e-06;0.006347946519329519
9.17150e-06;0.006342414143094205
9.17175e-06;0.006336881766858854
9.17200e-06;0.006331349390623503
9.17225e-06;0.00632581701438819
9.17250e-06;0.006320284638152839
9.17275e-06;0.006314752261917488
9.17300e-06;0.006309219885682175
9.17325e-06;0.006303687509446824
9.17350e-06;0.006298155133211473
9.17375e-06;0.006292622756976159
9.17400e-06;0.006287090380740808
9.17425e-06;0.006281558004505457
9.17450e-06;0.006276550123377172
9.17475e-06;0.006271822459604451
9.17500e-06;0.006267094795831729
9.17525e-06;0.0062623671320590395
9.17550e-06;0.006257639468286318
9.17575e-06;0.006252911804513596
9.17600e-06;0.006248184140740907
9.17625e-06;0.006243456476968186
9.17650e-06;0.006238728813195464
9.17675e-06;0.006234001149422775
9.17700e-06;0.006229273485650054
9.17725e-06;0.0062245458218773315
9.17750e-06;0.0062198181581046424
9.17775e-06;0.006215090494331921
9.17800e-06;0.0062103628305592
9.17825e-06;0.006204538894067239
9.17850e-06;0.006192588433173747
9.17875e-06;0.006180637972280255
9.17900e-06;0.006168687511386762
9.17925e-06;0.006156737050493351
9.17950e-06;0.006144786589599858
9.17975e-06;0.006132836128706365
9.18000e-06;0.006120885667812954
9.18025e-06;0.006108935206919461
9.18050e-06;0.006096984746025968
9.18075e-06;0.006085034285132557
9.18100e-06;0.006073083824239064
9.18125e-06;0.006061133363345572
9.18150e-06;0.00604918290245216
9.18175e-06;0.006037232441558668
9.18200e-06;0.006025281980665175
9.18225e-06;0.006012877092496738
9.18250e-06;0.006000229421492589
9.18275e-06;0.00598758175048844
9.18300e-06;0.005974934079484377
9.18325e-06;0.005962286408480228
9.18350e-06;0.005949638737476079
9.18375e-06;0.005936991066472015
9.18400e-06;0.005924343395467866
9.18425e-06;0.005911695724463717
9.18450e-06;0.005899048053459654
9.18475e-06;0.005886400382455505
9.18500e-06;0.005873752711451356
9.18525e-06;0.0058611050404472915
9.18550e-06;0.005850527513174741
9.18575e-06;0.005851518992288991
9.18600e-06;0.005852510471403236
9.18625e-06;0.0058535019505174864
9.18650e-06;0.005854493429631738
9.18675e-06;0.0058554849087459815
9.18700e-06;0.005856476387860233
9.18725e-06;0.005857467866974483
9.18750e-06;0.005858459346088735
9.18775e-06;0.005859450825202978
9.18800e-06;0.00586044230431723
9.18825e-06;0.00586143378343148
9.18850e-06;0.005862425262545725
9.18875e-06;0.005863416741659975
9.18900e-06;0.005875601557784311
9.18925e-06;0.005893766538940776
9.18950e-06;0.005911931520097363
9.18975e-06;0.005930096501253951
9.19000e-06;0.005948261482410415
9.19025e-06;0.005966426463567003
9.19050e-06;0.0059845914447235905
9.19075e-06;0.006002756425880055
9.19100e-06;0.0060209214070366425
9.19125e-06;0.00603908638819323
9.19150e-06;0.006057251369349695
9.19175e-06;0.006075416350506283
9.19200e-06;0.006095926693541073
9.19225e-06;0.006117690072295184
9.19250e-06;0.006139453451049442
9.19275e-06;0.0061612168298037
9.19300e-06;0.00618298020855781
9.19325e-06;0.006204743587312069
9.19350e-06;0.006226506966066327
9.19375e-06;0.006248270344820437
9.19400e-06;0.006270033723574695
9.19425e-06;0.0062917971023289535
9.19450e-06;0.006313560481083064
9.19475e-06;0.006335323859837322
9.19500e-06;0.006347293565844247
9.19525e-06;0.0063540308930473645
9.19550e-06;0.006360768220250528
9.19575e-06;0.006367505547453692
9.19600e-06;0.006374242874656856
9.19625e-06;0.006380980201859974
9.19650e-06;0.006387717529063137
9.19675e-06;0.006394454856266301
9.19700e-06;0.006401192183469419
9.19725e-06;0.006407929510672583
9.19750e-06;0.006397708907857735
9.19775e-06;0.006378428341955249
9.19800e-06;0.006359147776052632
9.19825e-06;0.006339867210150015
9.19850e-06;0.006320586644247529
9.19875e-06;0.006301306078344912
9.19900e-06;0.006282025512442295
9.19925e-06;0.006262744946539809
9.19950e-06;0.0062434643806371926
9.19975e-06;0.006224183814734575
9.20000e-06;0.006192199873710373
9.20025e-06;0.006153429012963086
9.20050e-06;0.006114658152215798
9.20075e-06;0.006075887291468774
9.20100e-06;0.006037116430721487
9.20125e-06;0.005998345569974199
9.20150e-06;0.005959574709227175
