Time(s);Current(A)
9.25000e-06;-0.0071786113580966865
9.25025e-06;-0.007211583603356068
9.25050e-06;-0.007242033194933121
9.25075e-06;-0.007272482786510174
9.25100e-06;-0.00729824565277778
9.25125e-06;-0.007320767826599706
9.25150e-06;-0.007343290000421632
9.25175e-06;-0.007357591723808727
9.25200e-06;-0.0073662093181147015
9.25225e-06;-0.0073748269124206765
9.25250e-06;-0.007383444506726592
9.25275e-06;-0.007392062101032567
9.25300e-06;-0.007400679695338542
9.25325e-06;-0.007409297289644458
9.25350e-06;-0.007406688617844319
9.25375e-06;-0.007396317409653391
9.25400e-06;-0.007385946201462533
9.25425e-06;-0.007375574993271606
9.25450e-06;-0.007365203785080677
9.25475e-06;-0.00735483257688982
9.25500e-06;-0.007344461368698892
9.25525e-06;-0.007325878572145713
9.25550e-06;-0.007301617774297573
9.25575e-06;-0.007277356976449269
9.25600e-06;-0.007253096178600965
9.25625e-06;-0.007228835380752661
9.25650e-06;-0.007204574582904522
9.25675e-06;-0.007176000092688552
9.25700e-06;-0.0071444428481294234
9.25725e-06;-0.007112885603570508
9.25750e-06;-0.007081328359011379
9.25775e-06;-0.00704977111445225
9.25800e-06;-0.007018213869893334
9.25825e-06;-0.006985783920962186
9.25850e-06;-0.00695275053012229
9.25875e-06;-0.00691971713928262
9.25900e-06;-0.006887230817539859
9.25925e-06;-0.006855122773288059
9.25950e-06;-0.006824068443857875
9.25975e-06;-0.006793742718183246
9.26000e-06;-0.006764980840201091
9.26025e-06;-0.006737300303469202
9.26050e-06;-0.006711688791881506
9.26075e-06;-0.00668750793255419
9.26100e-06;-0.006666161710629591
9.26125e-06;-0.006646775532747039
9.26150e-06;-0.006631063109909247
9.26175e-06;-0.0066178909490752615
9.26200e-06;-0.006609437999075342
9.26225e-06;-0.0066042482040282735
9.26250e-06;-0.006599058408981241
9.26275e-06;-0.006599600565614805
9.26300e-06;-0.006604106149010375
9.26325e-06;-0.006608611732405916
9.26350e-06;-0.006621899144432962
9.26375e-06;-0.006641258857232352
9.26400e-06;-0.0066606185700316105
9.26425e-06;-0.006679978282831001
9.26450e-06;-0.006699337995630391
9.26475e-06;-0.006718697708429781
9.26500e-06;-0.006747683552339232
9.26525e-06;-0.0067833255001004495
9.26550e-06;-0.006818967447861668
9.26575e-06;-0.006854609395622645
9.26600e-06;-0.006890251343383863
9.26625e-06;-0.006925893291145081
9.26650e-06;-0.0069675397986410335
9.26675e-06;-0.007013338231009532
9.26700e-06;-0.00705913666337803
9.26725e-06;-0.007104935095746219
9.26750e-06;-0.007150733528114717
9.26775e-06;-0.0071965319604832155
9.26800e-06;-0.007242390628974852
9.26825e-06;-0.007288849512329149
9.26850e-06;-0.007335308395683446
9.26875e-06;-0.007381767279037428
9.26900e-06;-0.007428226162391725
9.26925e-06;-0.0074746850457460216
9.26950e-06;-0.0075211439291000045
9.26975e-06;-0.007563736385489759
9.27000e-06;-0.007603655354564644
9.27025e-06;-0.007643574323639259
9.27050e-06;-0.007678720581706977
9.27075e-06;-0.007710566691484666
9.27100e-06;-0.007742412801262139
9.27125e-06;-0.007767516879757136
9.27150e-06;-0.007787959099829088
9.27175e-06;-0.007808401319900901
9.27200e-06;-0.007821311486404506
9.27225e-06;-0.00782901352409661
9.27250e-06;-0.007836715561788664
9.27275e-06;-0.007833381881041752
9.27300e-06;-0.00782241742037079
9.27325e-06;-0.007811452959699829
9.27350e-06;-0.007800488499028942
9.27375e-06;-0.007789524038357981
9.27400e-06;-0.007776503152227082
9.27425e-06;-0.0077429912873591905
9.27450e-06;-0.007709479422491072
9.27475e-06;-0.007675967557622953
9.27500e-06;-0.007642455692755062
9.27525e-06;-0.007608943827886943
9.27550e-06;-0.007565408521585683
9.27575e-06;-0.007514942386441791
9.27600e-06;-0.007464476251297557
9.27625e-06;-0.0074140101161533235
9.27650e-06;-0.007363543981009432
9.27675e-06;-0.007307425694787032
9.27700e-06;-0.0072473991608853405
9.27725e-06;-0.007187372626984056
9.27750e-06;-0.007127346093082364
9.27775e-06;-0.007067319559180673
9.27800e-06;-0.0070057867155095075
9.27825e-06;-0.006943212315874312
9.27850e-06;-0.0068808183760863525
9.27875e-06;-0.00681894922987092
9.27900e-06;-0.006757957659282002
9.27925e-06;-0.006698180018145926
9.27950e-06;-0.006639969731981605
9.27975e-06;-0.006583711636451779
9.28000e-06;-0.0065306687624801536
9.28025e-06;-0.006479251374458556
9.28050e-06;-0.006432777659403819
9.28075e-06;-0.006389722306338487
9.28100e-06;-0.006346666953273447
9.28125e-06;-0.00631127238455316
9.28150e-06;-0.006281174957085654
9.28175e-06;-0.0062510775296181495
9.28200e-06;-0.006220980102150848
9.28225e-06;-0.006190882674683343
9.28250e-06;-0.006160785247215837
9.28275e-06;-0.0061306878197485365
9.28300e-06;-0.006102008723101878
9.28325e-06;-0.006087462395808959
9.28350e-06;-0.006072916068516138
9.28375e-06;-0.006058369741223219
9.28400e-06;-0.0060438234139303
9.28425e-06;-0.00602927708663748
9.28450e-06;-0.006014730759344561
9.28475e-06;-0.006000184432051641
9.28500e-06;-0.005992480506219881
9.28525e-06;-0.005989507840977025
9.28550e-06;-0.005986535175734169
9.28575e-06;-0.005983562510491334
9.28600e-06;-0.005980589845248478
9.28625e-06;-0.005977617180005622
9.28650e-06;-0.005974644514762786
9.28675e-06;-0.0059716718495199305
9.28700e-06;-0.005972502055519721
9.28725e-06;-0.005975961802469078
9.28750e-06;-0.005979421549418459
9.28775e-06;-0.00598288129636784
9.28800e-06;-0.005986341043317196
9.28825e-06;-0.005989800790266577
9.28850e-06;-0.005993260537215958
9.28875e-06;-0.005996720284165315
9.28900e-06;-0.006000702005979903
9.28925e-06;-0.00600504465357798
9.28950e-06;-0.006009387301176028
9.28975e-06;-0.006013729948774105
9.29000e-06;-0.006018072596372183
9.29025e-06;-0.0060224152439702595
9.29050e-06;-0.006026757891568308
9.29075e-06;-0.0060311005391663845
9.29100e-06;-0.0060349664338157725
9.29125e-06;-0.006034081786937254
9.29150e-06;-0.006033197140058731
9.29175e-06;-0.006032312493180207
9.29200e-06;-0.006031427846301689
9.29225e-06;-0.006030543199423166
9.29250e-06;-0.006029658552544642
9.29275e-06;-0.006028773905666124
9.29300e-06;-0.0060278892587876005
9.29325e-06;-0.006022728964299225
9.29350e-06;-0.006014612221969342
9.29375e-06;-0.006006495479639404
9.29400e-06;-0.0059983787373094665
9.29425e-06;-0.005990261994979583
9.29450e-06;-0.005982145252649645
9.29475e-06;-0.005974028510319707
9.29500e-06;-0.005962669626020964
9.29525e-06;-0.005949068923756484
9.29550e-06;-0.005935468221492005
9.29575e-06;-0.005921867519227617
9.29600e-06;-0.005908266816963138
9.29625e-06;-0.005894666114698659
9.29650e-06;-0.005881065412434272
9.29675e-06;-0.005865762675764504
9.29700e-06;-0.005849283046983027
9.29725e-06;-0.005832803418201661
9.29750e-06;-0.005816323789420184
9.29775e-06;-0.005799844160638706
9.29800e-06;-0.00578336453185734
9.29825e-06;-0.005766884903075862
9.29850e-06;-0.005750513913628638
9.29875e-06;-0.005735225446420094
9.29900e-06;-0.005719936979211653
9.29925e-06;-0.005704648512003108
9.29950e-06;-0.005689360044794564
9.29975e-06;-0.005674071577586123
9.30000e-06;-0.005658783110377578
9.30025e-06;-0.005643494643169034
9.30050e-06;-0.005630272053495271
9.30075e-06;-0.005618477939630769
9.30100e-06;-0.005606683825766268
9.30125e-06;-0.00559514005233568
9.30150e-06;-0.0055837693798017705
9.30175e-06;-0.005572398707267861
9.30200e-06;-0.005560514372362369
9.30225e-06;-0.005548274859446574
9.30250e-06;-0.00553603534653078
9.30275e-06;-0.005523795833615068
9.30300e-06;-0.0055115563206992735
9.30325e-06;-0.005499316807783479
9.30350e-06;-0.0054868889287544844
9.30375e-06;-0.005472584100569183
9.30400e-06;-0.005458279272383882
9.30425e-06;-0.005443974444198677
9.30450e-06;-0.0054296696160133755
9.30475e-06;-0.005415364787828074
9.30500e-06;-0.005401059959642869
9.30525e-06;-0.005385559204385538
9.30550e-06;-0.005369231511004445
9.30575e-06;-0.005352903817623463
9.30600e-06;-0.00533657612424237
9.30625e-06;-0.005320248430861278
9.30650e-06;-0.0053038463756359564
9.30675e-06;-0.005286703351673632
9.30700e-06;-0.005269560327711308
9.30725e-06;-0.005252417303748984
9.30750e-06;-0.005235274279786775
9.30775e-06;-0.005218131255824451
9.30800e-06;-0.005201039813270493
9.30825e-06;-0.005183984037300388
9.30850e-06;-0.005167262339170811
9.30875e-06;-0.005150771643172738
9.30900e-06;-0.00513476492644453
9.30925e-06;-0.005119092862989544
9.30950e-06;-0.005103958600162238
9.30975e-06;-0.005089196206032108
9.31000e-06;-0.005076833060670844
9.31025e-06;-0.005066128904659501
9.31050e-06;-0.00505542474864823
9.31075e-06;-0.005044720592636887
9.31100e-06;-0.005034016436625544
9.31125e-06;-0.005023312280614274
9.31150e-06;-0.005012608124602931
9.31175e-06;-0.005001903968591588
9.31200e-06;-0.004991199812580318
9.31225e-06;-0.004980495656568975
9.31250e-06;-0.004972778902518695
9.31275e-06;-0.0049671278234004815
9.31300e-06;-0.00496147674428223
9.31325e-06;-0.004955825665163978
9.31350e-06;-0.004950174586045764
9.31375e-06;-0.004944523506927512
9.31400e-06;-0.004938872427809261
9.31425e-06;-0.004933221348691047
9.31450e-06;-0.0049275702695727955
9.31475e-06;-0.004921919190454544
9.31500e-06;-0.0049181882381037255
9.31525e-06;-0.004915784980446074
9.31550e-06;-0.004913381722788421
9.31575e-06;-0.004910978465130769
9.31600e-06;-0.0049085752074731325
9.31625e-06;-0.004906171949815481
9.31650e-06;-0.004903768692157828
9.31675e-06;-0.004901365434500192
9.31700e-06;-0.0048989621768425395
9.31725e-06;-0.004896558919184888
9.31750e-06;-0.004894155661527251
9.31775e-06;-0.004891883847972585
9.31800e-06;-0.004890921791753007
9.31825e-06;-0.004889959735533436
9.31850e-06;-0.004888997679313859
9.31875e-06;-0.004888035623094281
9.31900e-06;-0.004887073566874709
9.31925e-06;-0.004886111510655131
9.31950e-06;-0.0048851494544355535
9.31975e-06;-0.004884187398215983
9.32000e-06;-0.004883225341996405
9.32025e-06;-0.004882263285776827
9.32050e-06;-0.004881301229557255
9.32075e-06;-0.004880712870240137
9.32100e-06;-0.004880382908130317
9.32125e-06;-0.004880052946020502
9.32150e-06;-0.0048797229839106825
9.32175e-06;-0.004879393021800864
9.32200e-06;-0.004879063059691048
9.32225e-06;-0.004878733097581228
9.32250e-06;-0.00487840313547141
9.32275e-06;-0.00487821746286569
9.32300e-06;-0.0048794695438917415
9.32325e-06;-0.004880721624917792
9.32350e-06;-0.004881973705943835
9.32375e-06;-0.0048832257869698865
9.32400e-06;-0.004884477867995937
9.32425e-06;-0.004885729949021989
9.32450e-06;-0.0048869820300480316
9.32475e-06;-0.004888234111074083
9.32500e-06;-0.004890353836689845
9.32525e-06;-0.004893073505568276
9.32550e-06;-0.004895793174446725
9.32575e-06;-0.004898512843325174
9.32600e-06;-0.004901232512203605
9.32625e-06;-0.004903952181082054
9.32650e-06;-0.0049066718499605035
9.32675e-06;-0.004909391518838934
9.32700e-06;-0.004912111187717384
9.32725e-06;-0.0049150975927373655
9.32750e-06;-0.004918268435663052
9.32775e-06;-0.004921439278588759
9.32800e-06;-0.004924610121514466
9.32825e-06;-0.004927780964440152
9.32850e-06;-0.00493095180736586
9.32875e-06;-0.004934122650291568
9.32900e-06;-0.004937293493217253
9.32925e-06;-0.004940464336142961
9.32950e-06;-0.004943341708134979
9.32975e-06;-0.0049460161561283985
9.33000e-06;-0.004948690604121836
9.33025e-06;-0.004951152427927234
9.33050e-06;-0.004953334535073822
9.33075e-06;-0.004955308711543753
9.33100e-06;-0.0049574684968265665
9.33125e-06;-0.004960825828601337
9.33150e-06;-0.004966330773808858
9.33175e-06;-0.004974276712457785
9.33200e-06;-0.004985189411170326
9.33225e-06;-0.0049974647083650455
9.33250e-06;-0.005012061757078672
9.33275e-06;-0.005028264208739901
9.33300e-06;-0.005047924762942937
9.33325e-06;-0.005069976463644253
9.33350e-06;-0.0050920281643455695
9.33375e-06;-0.005120379671049358
9.33400e-06;-0.005153087254208566
9.33425e-06;-0.005185794837367775
9.33450e-06;-0.005218502420526762
9.33475e-06;-0.00525121000368597
9.33500e-06;-0.005290257990577888
9.33525e-06;-0.005333690125712529
9.33550e-06;-0.005377122260847465
9.33575e-06;-0.005420554395982401
9.33600e-06;-0.0054639865311170415
9.33625e-06;-0.005512006521767896
9.33650e-06;-0.005563198840167643
9.33675e-06;-0.005614391158567044
9.33700e-06;-0.005665583476966791
9.33725e-06;-0.005716775795366538
9.33750e-06;-0.0057679681137659386
9.33775e-06;-0.005819853915544551
9.33800e-06;-0.005872219234727026
9.33825e-06;-0.005924584553909147
9.33850e-06;-0.005976949873091622
9.33875e-06;-0.006029315192274097
9.33900e-06;-0.006081680511456218
9.33925e-06;-0.006131678883862108
9.33950e-06;-0.006180040602516741
9.33975e-06;-0.006226222349700083
9.34000e-06;-0.006270896729451169
9.34025e-06;-0.006312571153513795
9.34050e-06;-0.00635217122221682
9.34075e-06;-0.006387949974508881
9.34100e-06;-0.0064210864317137
9.34125e-06;-0.006448576555874158
9.34150e-06;-0.006472162455296564
9.34175e-06;-0.006495748354719131
9.34200e-06;-0.006512144124500621
9.34225e-06;-0.0065235681928620904
9.34250e-06;-0.006534992261223637
9.34275e-06;-0.00653893997860511
9.34300e-06;-0.006537718083387217
9.34325e-06;-0.006536496188169315
9.34350e-06;-0.006525627193085951
9.34375e-06;-0.006508087595038313
9.34400e-06;-0.006490547996990555
9.34425e-06;-0.006473008398942799
9.34450e-06;-0.006455468800895161
9.34475e-06;-0.006427522216986746
9.34500e-06;-0.0063923795978239484
9.34525e-06;-0.0063572369786613885
9.34550e-06;-0.006322094359498591
9.34575e-06;-0.0062869517403357925
9.34600e-06;-0.006245389797803135
9.34625e-06;-0.006199389137095582
9.34650e-06;-0.006153388476388029
9.34675e-06;-0.00610455377476673
9.34700e-06;-0.006053759441547202
9.34725e-06;-0.006001404839550637
9.34750e-06;-0.0059479713709856535
9.34775e-06;-0.0058938073910484836
9.34800e-06;-0.005838896851224635
9.34825e-06;-0.005783762653465756
9.34850e-06;-0.005728716981193819
9.34875e-06;-0.005674072102772754
9.34900e-06;-0.005620141302829901
9.34925e-06;-0.0055672472467062
9.34950e-06;-0.005515729703313396
9.34975e-06;-0.005465940736089898
9.35000e-06;-0.00541823647050143
9.35025e-06;-0.005372973878394482
9.35050e-06;-0.005330509846675688
9.35075e-06;-0.0052911873068382095
9.35100e-06;-0.005255173665821978
9.35125e-06;-0.005222315893458362
9.35150e-06;-0.005192380703230672
9.35175e-06;-0.005165330156461128
9.35200e-06;-0.005141265636067402
9.35225e-06;-0.005121283063775828
9.35250e-06;-0.005103264533094099
9.35275e-06;-0.00508920992477397
9.35300e-06;-0.0050778962181376175
9.35325e-06;-0.005071029816646577
9.35350e-06;-0.0050672385576657295
9.35375e-06;-0.005063447298684907
9.35400e-06;-0.005066123540759683
9.35425e-06;-0.005073271814048896
9.35450e-06;-0.005080420087338061
9.35475e-06;-0.005087568360627274
9.35500e-06;-0.005094716633916488
9.35525e-06;-0.005108567166654669
9.35550e-06;-0.005127052057115662
9.35575e-06;-0.005145536947576655
9.35600e-06;-0.005164021838037523
9.35625e-06;-0.005182506728498516
9.35650e-06;-0.005204845283245153
9.35675e-06;-0.005229848500405685
9.35700e-06;-0.005254851717566387
9.35725e-06;-0.005281618421572272
9.35750e-06;-0.005309604509718849
9.35775e-06;-0.005337590597865614
9.35800e-06;-0.005366268242283659
9.35825e-06;-0.005395424071584142
9.35850e-06;-0.0054245799008844275
9.35875e-06;-0.0054534765801172265
9.35900e-06;-0.005482194066925923
9.35925e-06;-0.005510911553734427
9.35950e-06;-0.005538501728572009
9.35975e-06;-0.005565312410019395
9.36000e-06;-0.005590139684955354
9.36025e-06;-0.005613595509658332
9.36050e-06;-0.00563705133436131
9.36075e-06;-0.005657290266138367
9.36100e-06;-0.005675304838699154
9.36125e-06;-0.0056933194112599415
9.36150e-06;-0.00570794401829303
9.36175e-06;-0.005720224592982338
9.36200e-06;-0.005732505167671647
9.36225e-06;-0.005739065318036749
9.36250e-06;-0.005741670012357356
9.36275e-06;-0.005744274706677965
9.36300e-06;-0.005746879400998555
9.36325e-06;-0.005749484095319163
9.36350e-06;-0.005752088789639771
9.36375e-06;-0.005753580798166873
9.36400e-06;-0.005743985596601184
9.36425e-06;-0.005734390395035495
9.36450e-06;-0.005724795193469871
9.36475e-06;-0.005715199991904182
9.36500e-06;-0.005705604790338492
9.36525e-06;-0.005696009588772868
9.36550e-06;-0.005681325345015862
9.36575e-06;-0.00566312222196656
9.36600e-06;-0.005644919098917381
9.36625e-06;-0.005626715975868078
9.36650e-06;-0.005608512852818776
9.36675e-06;-0.005589901426876105
9.36700e-06;-0.0055672215208764685
9.36725e-06;-0.005544541614876677
9.36750e-06;-0.005521861708876887
9.36775e-06;-0.0054991818028772505
9.36800e-06;-0.005476501896877459
9.36825e-06;-0.005453254657954476
9.36850e-06;-0.005429615129873815
9.36875e-06;-0.005406166798381506
9.36900e-06;-0.0053828506720647205
9.36925e-06;-0.00536009079154663
9.36950e-06;-0.0053377155338608494
9.36975e-06;-0.0053159956303564185
9.37000e-06;-0.005295284987513217
9.37025e-06;-0.005275603627412638
9.37050e-06;-0.005257102318892526
9.37075e-06;-0.005239955802461757
9.37100e-06;-0.005224612405742134
9.37125e-06;-0.005211938230391399
9.37150e-06;-0.0052027028199088604
9.37175e-06;-0.005197159813708338
9.37200e-06;-0.005195266867781797
9.37225e-06;-0.00519795262674178
9.37250e-06;-0.005202782698444396
9.37275e-06;-0.005211685161126865
9.37300e-06;-0.0052234035274219244
9.37325e-06;-0.005241048024407054
9.37350e-06;-0.00526279021557274
9.37375e-06;-0.005284532406738278
9.37400e-06;-0.005314995750169806
9.37425e-06;-0.005351489438991599
9.37450e-06;-0.0053879831278131445
9.37475e-06;-0.005424476816634937
9.37500e-06;-0.005460970505456729
9.37525e-06;-0.005506436200873198
9.37550e-06;-0.005558105697915742
9.37575e-06;-0.005609775194958637
9.37600e-06;-0.005661444692001531
9.37625e-06;-0.005713114189044075
9.37650e-06;-0.005769719356964384
9.37675e-06;-0.005829737353742474
9.37700e-06;-0.005889755350520159
9.37725e-06;-0.005951805344446837
9.37750e-06;-0.0060152603871865456
9.37775e-06;-0.006078715429925825
9.37800e-06;-0.006142562134311655
9.37825e-06;-0.006206679657842775
9.37850e-06;-0.0062707971813734595
9.37875e-06;-0.006333317958737184
9.37900e-06;-0.0063947346468019185
9.37925e-06;-0.0064561513348662366
9.37950e-06;-0.006514238807171992
9.37975e-06;-0.006570024253289314
9.38000e-06;-0.006625809699406258
9.38025e-06;-0.0066705612624390715
9.38050e-06;-0.006707683314601985
9.38075e-06;-0.006744805366764647
9.38100e-06;-0.006781927418927561
9.38125e-06;-0.0068190494710904746
9.38150e-06;-0.0068561715232531364
9.38175e-06;-0.00689329357541605
9.38200e-06;-0.006930415627578963
9.38225e-06;-0.006967537679741626
9.38250e-06;-0.006990105727068471
9.38275e-06;-0.007002610233096832
9.38300e-06;-0.007015114739125108
9.38325e-06;-0.007027619245153468
9.38350e-06;-0.007040123751181829
9.38375e-06;-0.00705262825721019
9.38400e-06;-0.007065132763238466
9.38425e-06;-0.007077637269266827
9.38450e-06;-0.007090141775295188
9.38475e-06;-0.0070920578011723105
9.38500e-06;-0.007086652295381876
9.38525e-06;-0.007081246789591442
9.38550e-06;-0.007075841283801044
9.38575e-06;-0.00707043577801061
9.38600e-06;-0.007065030272220175
9.38625e-06;-0.007059624766429778
9.38650e-06;-0.007054219260639344
9.38675e-06;-0.007048002734718471
9.38700e-06;-0.007033704906202006
9.38725e-06;-0.007019407077685443
9.38750e-06;-0.0070051092491688815
9.38775e-06;-0.006990811420652416
9.38800e-06;-0.0069765135921358535
9.38825e-06;-0.006962215763619292
9.38850e-06;-0.006947917935102826
9.38875e-06;-0.006933620106586264
9.38900e-06;-0.006918586298848938
9.38925e-06;-0.006903043589447367
9.38950e-06;-0.006887500880045692
9.38975e-06;-0.006872136303718469
9.39000e-06;-0.0068585467108019365
9.39025e-06;-0.006844957117885311
9.39050e-06;-0.006831367524968686
9.39075e-06;-0.006818652222681341
9.39100e-06;-0.006806541459141471
9.39125e-06;-0.0067944306956015995
9.39150e-06;-0.006779276111738915
9.39175e-06;-0.006762016841786141
9.39200e-06;-0.006744757571833367
9.39225e-06;-0.006724361613332341
9.39250e-06;-0.006701796753892565
9.39275e-06;-0.006679231894452636
9.39300e-06;-0.006651676010269127
9.39325e-06;-0.006620669022131377
9.39350e-06;-0.006589662033993416
9.39375e-06;-0.006558655045855456
9.39400e-06;-0.006527648057717705
9.39425e-06;-0.0064900799294587
9.39450e-06;-0.00644797502212485
9.39475e-06;-0.006405870114791284
9.39500e-06;-0.006363765207457434
9.39525e-06;-0.006321660300123583
9.39550e-06;-0.00627435980100324
9.39575e-06;-0.006223466747590802
9.39600e-06;-0.006172573694178365
9.39625e-06;-0.006121680640766272
