Time(s);Current(A)
1.25000e-06;0.005320986612192036
1.25025e-06;0.005354475065025617
1.25050e-06;0.005388632051040381
1.25075e-06;0.00542327666202944
1.25100e-06;0.005458230086465103
1.25125e-06;0.005493314674165105
1.25150e-06;0.005528352309285984
1.25175e-06;0.005563164177091254
1.25200e-06;0.005597565633655229
1.25225e-06;0.005631359458988817
1.25250e-06;0.005664339361932919
1.25275e-06;0.005696298358050834
1.25300e-06;0.005727030625053595
1.25325e-06;0.005756330807115642
1.25350e-06;0.005783993546807129
1.25375e-06;0.005809830747451229
1.25400e-06;0.005833768301725265
1.25425e-06;0.005855509151305854
1.25450e-06;0.005876000343423188
1.25475e-06;0.005894811800551917
1.25500e-06;0.00591194930007806
1.25525e-06;0.005926776833583228
1.25550e-06;0.005939302346109661
1.25575e-06;0.005951827858636094
1.25600e-06;0.0059616289134683115
1.25625e-06;0.005968714881277273
1.25650e-06;0.005975800849086241
1.25675e-06;0.005980888603966144
1.25700e-06;0.005983985018696097
1.25725e-06;0.005985527410345066
1.25750e-06;0.0059855211239176875
1.25775e-06;0.005984013408166601
1.25800e-06;0.005981009427202179
1.25825e-06;0.00597673993081866
1.25850e-06;0.005971209271709302
1.25875e-06;0.00596461321001343
1.25900e-06;0.005956955410143647
1.25925e-06;0.005948357919595
1.25950e-06;0.005938823970398653
1.25975e-06;0.005928494584354387
1.26000e-06;0.0059173724973376855
1.26025e-06;0.005905714443783358
1.26050e-06;0.0058935222671284235
1.26075e-06;0.005881030970767432
1.26100e-06;0.005868241583511525
1.26125e-06;0.005855343160417352
1.26150e-06;0.005842336076509617
1.26175e-06;0.005829421818834258
1.26200e-06;0.005816600068118872
1.26225e-06;0.005804145074314031
1.26250e-06;0.005792055575972947
1.26275e-06;0.005780592421468571
1.26300e-06;0.005769753456514553
1.26325e-06;0.005759771384971846
1.26350e-06;0.0057506432595873964
1.26375e-06;0.005742631731156317
1.26400e-06;0.0057357329591848525
1.26425e-06;0.005730302964093576
1.26450e-06;0.005726336694078929
1.26475e-06;0.005724369025712955
1.26500e-06;0.005724393084879466
1.26525e-06;0.005724417144045976
1.26550e-06;0.00572686829043878
1.26575e-06;0.005731738176181449
1.26600e-06;0.005736608061924113
1.26625e-06;0.005744008045578077
1.26650e-06;0.005753929424965456
1.26675e-06;0.005763850804352834
1.26700e-06;0.005775405738844456
1.26725e-06;0.005789347545968832
1.26750e-06;0.005804770329856399
1.26775e-06;0.005821609136773989
1.26800e-06;0.005839814394250428
1.26825e-06;0.005859350716038807
1.26850e-06;0.005880163349635961
1.26875e-06;0.005902159833600754
1.26900e-06;0.005925229802999293
1.26925e-06;0.005949261499924851
1.26950e-06;0.005974143631329723
1.26975e-06;0.005999765837093221
1.27000e-06;0.006026027549618954
1.27025e-06;0.006052837966560237
1.27050e-06;0.006080093221384289
1.27075e-06;0.00610766593928405
1.27100e-06;0.0061354180496823755
1.27125e-06;0.006163210086622645
1.27150e-06;0.006190903051413839
1.27175e-06;0.006218359109117152
1.27200e-06;0.006245445787519312
1.27225e-06;0.00627203666158632
1.27250e-06;0.006297997838857547
1.27275e-06;0.006323180529722061
1.27300e-06;0.006347428502812534
1.27325e-06;0.006370585764004252
1.27350e-06;0.006392496314359431
1.27375e-06;0.006412995530178995
1.27400e-06;0.006431880329394837
1.27425e-06;0.00644891461852554
1.27450e-06;0.006463925283076872
1.27475e-06;0.006476849537389882
1.27500e-06;0.006487675283095188
1.27525e-06;0.006495329666223447
1.27550e-06;0.006500869172897265
1.27575e-06;0.006506408679571078
1.27600e-06;0.006508378474513599
1.27625e-06;0.0065067908356160435
1.27650e-06;0.006505203196718489
1.27675e-06;0.006503609216837544
1.27700e-06;0.006494659872125901
1.27725e-06;0.00648571052741425
1.27750e-06;0.006476761182702607
1.27775e-06;0.006465239541794118
1.27800e-06;0.006451154452006277
1.27825e-06;0.006435363505274869
1.27850e-06;0.006417872568831645
1.27875e-06;0.006398906674867089
1.27900e-06;0.0063784708964429275
1.27925e-06;0.006356844819835639
1.27950e-06;0.00633403253903172
1.27975e-06;0.006310307505814782
1.28000e-06;0.006285672859562984
1.28025e-06;0.006260383415202184
1.28050e-06;0.00623444142488627
1.28075e-06;0.006208168595347704
1.28100e-06;0.006181566064495722
1.28125e-06;0.006154990238677948
1.28150e-06;0.006128441026043362
1.28175e-06;0.006102271747912641
1.28200e-06;0.006076481097515079
1.28225e-06;0.006051411133192968
1.28250e-06;0.00602705937617321
1.28275e-06;0.00600348428084637
1.28300e-06;0.005981335291857328
1.28325e-06;0.005961015978638474
1.28350e-06;0.005941872410286609
1.28375e-06;0.005924626998447655
1.28400e-06;0.005909273214482531
1.28425e-06;0.005896076824108924
1.28450e-06;0.005885030407051401
1.28475e-06;0.005876816200752035
1.28500e-06;0.005871424463926727
1.28525e-06;0.005866032727101416
1.28550e-06;0.005863881574261558
1.28575e-06;0.0058649598595384485
1.28600e-06;0.00586604326713174
1.28625e-06;0.0058730684195765865
1.28650e-06;0.005880093572021428
1.28675e-06;0.005889123024743897
1.28700e-06;0.005901243974117929
1.28725e-06;0.0059155159884519476
1.28750e-06;0.00593187201171841
1.28775e-06;0.00595024428979889
1.28800e-06;0.005970558538888484
1.28825e-06;0.00599272043891187
1.28850e-06;0.006016611927485551
1.28875e-06;0.006042103548365119
1.28900e-06;0.006069063984265318
1.28925e-06;0.006097361453041862
1.28950e-06;0.006126863939318728
1.28975e-06;0.006157439428522009
1.29000e-06;0.006188951707104398
1.29025e-06;0.0062212517490144465
1.29050e-06;0.006254176329943609
1.29075e-06;0.006287554548990619
1.29100e-06;0.006321214345513132
1.29125e-06;0.00635498365646223
1.29150e-06;0.006388690187963742
1.29175e-06;0.006422161644539228
1.29200e-06;0.006455222933533647
1.29225e-06;0.00648769127366655
1.29250e-06;0.006519374806070056
1.29275e-06;0.006550076786844746
1.29300e-06;0.0065795995431753036
1.29325e-06;0.006607746101139341
1.29350e-06;0.0066343192519784195
1.29375e-06;0.006659106862509338
1.29400e-06;0.006681818715849762
1.29425e-06;0.006702082950577427
1.29450e-06;0.00671961686156331
1.29475e-06;0.006734325360254489
1.29500e-06;0.0067462014745667005
1.29525e-06;0.006755245670161246
1.29550e-06;0.006761458179467677
1.29575e-06;0.006764092077839821
1.29600e-06;0.006764568216506093
1.29625e-06;0.006762005462220858
1.29650e-06;0.006756414267144154
1.29675e-06;0.006747882019830707
1.29700e-06;0.006736418835921052
1.29725e-06;0.006722260892491695
1.29750e-06;0.006705417458068487
1.29775e-06;0.0066861046826019385
1.29800e-06;0.006664331059299341
1.29825e-06;0.006640233048479599
1.29850e-06;0.006613818644787689
1.29875e-06;0.006585389468712994
1.29900e-06;0.006554952449990673
1.29925e-06;0.0065229037999475215
1.29950e-06;0.006489249061729929
1.29975e-06;0.006454371606117286
1.30000e-06;0.006418275638600983
1.30025e-06;0.006381296422486661
1.30050e-06;0.0063434369956753235
1.30075e-06;0.00630513652764434
1.30100e-06;0.006266396535338671
1.30125e-06;0.006227638234341474
1.30150e-06;0.006189016786731607
1.30175e-06;0.0061508281502363595
1.30200e-06;0.006113308165050592
1.30225e-06;0.006076679878117742
1.30250e-06;0.006041180339912025
1.30275e-06;0.006007075463885421
1.30300e-06;0.005974644649216951
1.30325e-06;0.0059449443873393374
1.30350e-06;0.00591706285568973
1.30375e-06;0.005889181324040121
1.30400e-06;0.0058684824262378345
1.30425e-06;0.005847573503890309
1.30450e-06;0.005827283119193898
1.30475e-06;0.0058097870737579905
1.30500e-06;0.005794850660795262
1.30525e-06;0.005779914247832521
1.30550e-06;0.0057672615384617015
1.30575e-06;0.0057560043681181726
1.30600e-06;0.0057484430724117535
1.30625e-06;0.005742004892383026
1.30650e-06;0.005737430367562544
1.30675e-06;0.005734023964358589
1.30700e-06;0.005732635883887541
1.30725e-06;0.005731862329539574
1.30750e-06;0.0057331048250611446
1.30775e-06;0.005735306698359536
1.30800e-06;0.005739113393943433
1.30825e-06;0.005744791699744659
1.30850e-06;0.005751596220329908
1.30875e-06;0.005759958824144915
1.30900e-06;0.005768774740665944
1.30925e-06;0.005778070478611555
1.30950e-06;0.005788263576979343
1.30975e-06;0.005799332241294012
1.31000e-06;0.005811243262212534
1.31025e-06;0.005823856721721719
1.31050e-06;0.0058372779062790545
1.31075e-06;0.005851342898363379
1.31100e-06;0.005865398499093874
1.31125e-06;0.005879420610404512
1.31150e-06;0.005893629366742757
1.31175e-06;0.005907969511201617
1.31200e-06;0.005922379359221301
1.31225e-06;0.005936729913811471
1.31250e-06;0.0059510459495804345
1.31275e-06;0.00596518379736433
1.31300e-06;0.005978549307701954
1.31325e-06;0.00599138642523981
1.31350e-06;0.006003753578633205
1.31375e-06;0.0060153332195254615
1.31400e-06;0.006026066146664629
1.31425e-06;0.006036326061807889
1.31450e-06;0.006046197772189861
1.31475e-06;0.006055359120684908
1.31500e-06;0.006063520963899845
1.31525e-06;0.0060710684020445285
1.31550e-06;0.006078036335529879
1.31575e-06;0.00608407823491242
1.31600e-06;0.00608919828377358
1.31625e-06;0.006093809029009862
1.31650e-06;0.006097968574550273
1.31675e-06;0.0061013723207083235
1.31700e-06;0.006103883087925614
1.31725e-06;0.006105866572178903
1.31750e-06;0.006107356210262233
1.31775e-06;0.006108077036290602
1.31800e-06;0.0061082124374135125
1.31825e-06;0.006107810219957372
1.31850e-06;0.00610696165941031
1.31875e-06;0.006105695320237212
1.31900e-06;0.006103951527915068
1.31925e-06;0.006101766053812145
1.31950e-06;0.006099212758381405
1.31975e-06;0.006096324747028219
1.32000e-06;0.0060931462481803485
1.32025e-06;0.00608973178766238
1.32050e-06;0.006086163341828506
1.32075e-06;0.006082483233588172
1.32100e-06;0.0060786787984813935
1.32125e-06;0.006074797282049354
1.32150e-06;0.00607090935793214
1.32175e-06;0.006067060217001612
1.32200e-06;0.006063302073805643
1.32225e-06;0.006059693623393415
1.32250e-06;0.006056311063338061
1.32275e-06;0.006053205431992186
1.32300e-06;0.006050393379829927
1.32325e-06;0.006047929090919885
1.32350e-06;0.0060458811666223
1.32375e-06;0.006044328301935368
1.32400e-06;0.006043512579083175
1.32425e-06;0.006043887829332324
1.32450e-06;0.006045845513503604
1.32475e-06;0.006049486364747704
1.32500e-06;0.006055155764017194
1.32525e-06;0.006061952090505456
1.32550e-06;0.006070329748252985
1.32575e-06;0.00608014775083459
1.32600e-06;0.006091696834723053
1.32625e-06;0.0061048226622590395
1.32650e-06;0.006119944466629544
1.32675e-06;0.0061368842929392245
1.32700e-06;0.0061556202668905475
1.32725e-06;0.00617599224971833
1.32750e-06;0.0061982901067003555
1.32775e-06;0.006222342133071537
1.32800e-06;0.006246394159442698
1.32825e-06;0.006272662259070394
1.32850e-06;0.006300948853967902
1.32875e-06;0.006329235448865411
1.32900e-06;0.006359043426264366
1.32925e-06;0.006390237144578537
1.32950e-06;0.006422266368243709
1.32975e-06;0.006455056606281415
1.33000e-06;0.006488451083933482
1.33025e-06;0.006522395929133067
1.33050e-06;0.0065567591971670185
1.33075e-06;0.00659150358279694
1.33100e-06;0.006626298169419191
1.33125e-06;0.006661138481274299
1.33150e-06;0.006695647003560947
1.33175e-06;0.006729853317573356
1.33200e-06;0.0067634049472849594
1.33225e-06;0.0067963602622490155
1.33250e-06;0.0068283663885468976
1.33275e-06;0.00685950795279689
1.33300e-06;0.0068892916533118175
1.33325e-06;0.006917838552868955
1.33350e-06;0.006944149071324721
1.33375e-06;0.006968422597248232
1.33400e-06;0.0069926961231717225
1.33425e-06;0.00701434537655361
1.33450e-06;0.007033604329120164
1.33475e-06;0.007052863281686717
1.33500e-06;0.007071996444304197
1.33525e-06;0.007085863438301978
1.33550e-06;0.007099730432299769
1.33575e-06;0.007113597426297549
1.33600e-06;0.00712513479137286
1.33625e-06;0.007134550229771587
1.33650e-06;0.007142591598775073
1.33675e-06;0.0071493814060053125
1.33700e-06;0.007154819076312702
1.33725e-06;0.007159025161890309
1.33750e-06;0.007161861442720092
1.33775e-06;0.007163450046201742
1.33800e-06;0.007163797149899045
1.33825e-06;0.007163013441952506
1.33850e-06;0.007161488416439181
1.33875e-06;0.0071588370890078275
1.33900e-06;0.007155342099593993
1.33925e-06;0.007151038372794222
1.33950e-06;0.007145961564287481
1.33975e-06;0.007140152382148651
1.34000e-06;0.007133686966405081
1.34025e-06;0.007126696897201557
1.34050e-06;0.007119317700761754
1.34075e-06;0.00711164115757262
1.34100e-06;0.007103732773786737
1.34125e-06;0.007095656410181441
1.34150e-06;0.007087476040866264
1.34175e-06;0.00707925891660946
1.34200e-06;0.007071094804342467
1.34225e-06;0.0070631076427838365
1.34250e-06;0.00705542421453048
1.34275e-06;0.007048143697801401
1.34300e-06;0.0070413488933977995
1.34325e-06;0.0070351213137719365
1.34350e-06;0.007029542915310374
1.34375e-06;0.007024695898093825
1.34400e-06;0.007020901626272123
1.34425e-06;0.007017731637058776
1.34450e-06;0.007015797136507734
1.34475e-06;0.0070149879724108214
1.34500e-06;0.007014178808313909
1.34525e-06;0.0070154422791041775
1.34550e-06;0.007018593595299904
1.34575e-06;0.00702174491149563
1.34600e-06;0.007024896227691359
1.34625e-06;0.0070280475438870855
1.34650e-06;0.007033751751130252
1.34675e-06;0.007041781241839557
1.34700e-06;0.007049810732548862
1.34725e-06;0.007057840223258173
1.34750e-06;0.007065869713967478
1.34775e-06;0.00707570460457261
1.34800e-06;0.007087183931406891
1.34825e-06;0.007098663258241183
1.34850e-06;0.007111263253183249
1.34875e-06;0.00712488400105743
1.34900e-06;0.007138504748931622
1.34925e-06;0.007152977126585597
1.34950e-06;0.007168225205438502
1.34975e-06;0.0071834732842913935
1.35000e-06;0.007199292094814721
1.35025e-06;0.007215630752402501
1.35050e-06;0.007231969409990268
1.35075e-06;0.007248552086641241
1.35100e-06;0.007265357026398031
1.35125e-06;0.0072821619661548225
1.35150e-06;0.007298855293996572
1.35175e-06;0.007315446960883776
1.35200e-06;0.007332038627770994
1.35225e-06;0.007348153060305247
1.35250e-06;0.007363832807171487
1.35275e-06;0.007379512554037713
1.35300e-06;0.007394316870330023
1.35325e-06;0.007408323806631823
1.35350e-06;0.00742233074293361
1.35375e-06;0.007435420252038432
1.35400e-06;0.007447674128813935
1.35425e-06;0.0074596997454138125
1.35450e-06;0.007471517452783548
1.35475e-06;0.007483335160153272
1.35500e-06;0.007494907305063606
1.35525e-06;0.007506255781076152
1.35550e-06;0.0075176042570887
1.35575e-06;0.007528952733101256
1.35600e-06;0.007540296255360527
1.35625e-06;0.007551432389826073
1.35650e-06;0.00756256852429161
1.35675e-06;0.007573704658757155
1.35700e-06;0.007584840793222692
1.35725e-06;0.0075960493319242465
1.35750e-06;0.007607323819532266
1.35775e-06;0.007618598307140276
1.35800e-06;0.007629872794748295
1.35825e-06;0.007641152103333543
1.35850e-06;0.00765263324107283
1.35875e-06;0.007664114378812125
1.35900e-06;0.007675595516551412
1.35925e-06;0.007687076654290709
1.35950e-06;0.007698480308125063
1.35975e-06;0.007709813386271045
1.36000e-06;0.007721146464417036
1.36025e-06;0.0077324795425630175
1.36050e-06;0.007743812620709009
1.36075e-06;0.00775514569885499
1.36100e-06;0.007766478777000981
1.36125e-06;0.007777787222536368
1.36150e-06;0.0077880644292354214
1.36175e-06;0.0077983416359344825
1.36200e-06;0.007808618842633536
1.36225e-06;0.007818896049332598
1.36250e-06;0.007829173256031649
1.36275e-06;0.007839450462730702
1.36300e-06;0.007849727669429764
1.36325e-06;0.0078593047103787
1.36350e-06;0.007868244010111155
1.36375e-06;0.007876644745799318
1.36400e-06;0.007884554934086815
1.36425e-06;0.007891368498754736
1.36450e-06;0.007897183211249348
1.36475e-06;0.00790137938851284
1.36500e-06;0.007904101333957584
1.36525e-06;0.007906823279402328
1.36550e-06;0.007907705659033063
1.36575e-06;0.007906912482640348
1.36600e-06;0.007906119306247635
1.36625e-06;0.00790303788831998
1.36650e-06;0.007897872241136831
1.36675e-06;0.007892706593953686
1.36700e-06;0.00788743891062688
1.36725e-06;0.007877899506541166
1.36750e-06;0.00786836010245546
1.36775e-06;0.007858820698369746
1.36800e-06;0.007847732304718006
1.36825e-06;0.007835233024444091
1.36850e-06;0.00782189348678342
1.36875e-06;0.007807291470349987
1.36900e-06;0.007791799453648303
1.36925e-06;0.007775532720437486
1.36950e-06;0.007758607220378048
1.36975e-06;0.00774113451663608
1.37000e-06;0.007723198294943441
1.37025e-06;0.007704847572462031
1.37050e-06;0.007686144702591047
1.37075e-06;0.007667198295983253
1.37100e-06;0.00764814144016163
1.37125e-06;0.007629109133445506
1.37150e-06;0.007610236704756296
1.37175e-06;0.007591656937439151
1.37200e-06;0.007573484907377785
1.37225e-06;0.007555814065099331
1.37250e-06;0.007538746176093727
1.37275e-06;0.0075224120336369075
1.37300e-06;0.007506957964008057
1.37325e-06;0.007492531294687112
1.37350e-06;0.007479279218094863
1.37375e-06;0.007467715355727186
1.37400e-06;0.007457148569795599
1.37425e-06;0.007448397792578085
1.37450e-06;0.0074413011145595094
1.37475e-06;0.0074342044365409395
1.37500e-06;0.007429973601581619
1.37525e-06;0.007428353100301788
1.37550e-06;0.007426732599021957
1.37575e-06;0.007425112097742125
1.37600e-06;0.007423645218338542
1.37625e-06;0.007428609685062678
1.37650e-06;0.007433574151786809
1.37675e-06;0.00743853861851094
1.37700e-06;0.007443503085235076
1.37725e-06;0.007451064898232992
1.37750e-06;0.007460992486437543
1.37775e-06;0.007470920074642086
1.37800e-06;0.007482680080299335
1.37825e-06;0.0074961091309435745
1.37850e-06;0.007509538181587813
1.37875e-06;0.007524422979779269
1.37900e-06;0.007540633735733455
1.37925e-06;0.007556844491687655
1.37950e-06;0.007574181358252128
1.37975e-06;0.007592543935014962
1.38000e-06;0.0076109065117778135
1.38025e-06;0.007629968003327558
1.38050e-06;0.007649666096662408
1.38075e-06;0.0076693641899972425
1.38100e-06;0.0076892920056725435
1.38125e-06;0.007709429062380896
1.38150e-06;0.007729566119089232
1.38175e-06;0.007749475890398494
1.38200e-06;0.0077691786403462
1.38225e-06;0.007788881390293924
1.38250e-06;0.007808000167856331
1.38275e-06;0.007826587038139219
1.38300e-06;0.007844431372384561
1.38325e-06;0.007861599372725023
1.38350e-06;0.007877782361360927
1.38375e-06;0.007893068158778091
1.38400e-06;0.007906760196534714
1.38425e-06;0.007919000569132896
1.38450e-06;0.007928926091117077
1.38475e-06;0.007936743147147117
1.38500e-06;0.00794166714760578
1.38525e-06;0.007943956028053327
1.38550e-06;0.007946244908500875
1.38575e-06;0.007945053999124846
1.38600e-06;0.007940693546830493
1.38625e-06;0.007936333094536143
1.38650e-06;0.007928109440308232
1.38675e-06;0.00791636701484661
1.38700e-06;0.007904624589385002
1.38725e-06;0.0078905155689208
1.38750e-06;0.007873183571154591
1.38775e-06;0.00785387192570783
1.38800e-06;0.007832645959041415
1.38825e-06;0.007809496185873031
1.38850e-06;0.007784446498801249
1.38875e-06;0.007757629672955247
1.38900e-06;0.007729232677508059
1.38925e-06;0.0076994473649101055
1.38950e-06;0.007668465831305869
1.38975e-06;0.007636474058759402
1.39000e-06;0.007603620821645183
1.39025e-06;0.007570008470903228
1.39050e-06;0.007535760682768955
1.39075e-06;0.007501069189903871
1.39100e-06;0.007466159502732934
1.39125e-06;0.0074312602826752585
1.39150e-06;0.007396599904001728
1.39175e-06;0.007362403150752243
1.39200e-06;0.007328871916747362
1.39225e-06;0.007296178462604006
1.39250e-06;0.007264508476781489
1.39275e-06;0.007234090379942615
1.39300e-06;0.007205173853445387
1.39325e-06;0.007179152630039698
1.39350e-06;0.007155064592528985
1.39375e-06;0.007130976555018272
1.39400e-06;0.007109129203872348
1.39425e-06;0.007090376134588226
1.39450e-06;0.007072582518308251
1.39475e-06;0.007056111673807751
1.39500e-06;0.007040845666995298
1.39525e-06;0.007027622832449038
1.39550e-06;0.007016261007479588
1.39575e-06;0.007004899182510128
1.39600e-06;0.006995554495149842
1.39625e-06;0.006988047103875861
1.39650e-06;0.006981879867896508
1.39675e-06;0.006976933303261866
1.39700e-06;0.006971986738627221
1.39725e-06;0.00696879720872544
1.39750e-06;0.0069672080619722875
1.39775e-06;0.006965618915219135
1.39800e-06;0.006965619141632104
1.39825e-06;0.006967067037794774
1.39850e-06;0.006968514933957443
1.39875e-06;0.0069710321599963715
1.39900e-06;0.006974523377887747
1.39925e-06;0.0069780145957791225
1.39950e-06;0.006982582616833651
1.39975e-06;0.00698813143673321
1.40000e-06;0.006993680256632774
1.40025e-06;0.006999913207208258
1.40050e-06;0.007006769293561725
1.40075e-06;0.007013625379915186
1.40100e-06;0.007020876575697252
