Time(s);Current(A)
1.35000e-05;0.006091223696831488
1.35003e-05;0.006121246548643661
1.35005e-05;0.006154204157978858
1.35008e-05;0.00618945256068104
1.35010e-05;0.00622470096338322
1.35013e-05;0.006259949366085162
1.35015e-05;0.0062951977687873435
1.35018e-05;0.006330446171489524
1.35020e-05;0.006365694574191466
1.35023e-05;0.006400942976893647
1.35025e-05;0.006436191379595828
1.35028e-05;0.006470629243814678
1.35030e-05;0.006492723156303214
1.35033e-05;0.006514817068791749
1.35035e-05;0.006536910981280136
1.35038e-05;0.006559004893768671
1.35040e-05;0.006581098806257207
1.35043e-05;0.006603192718745593
1.35045e-05;0.006625286631234129
1.35048e-05;0.0066473805437226655
1.35050e-05;0.0066694744562110515
1.35053e-05;0.006680801531500952
1.35055e-05;0.00668372430113687
1.35058e-05;0.006686647070772769
1.35060e-05;0.006689569840408687
1.35063e-05;0.0066924926100446055
1.35065e-05;0.006695415379680505
1.35068e-05;0.006698338149316423
1.35070e-05;0.006701260918952341
1.35073e-05;0.00670418368858824
1.35075e-05;0.006707106458224158
1.35078e-05;0.0067100292278600765
1.35080e-05;0.0067129519974959756
1.35083e-05;0.006715874767131894
1.35085e-05;0.006718797536767812
1.35088e-05;0.00672172030640371
1.35090e-05;0.006718044775117232
1.35093e-05;0.006709218786298026
1.35095e-05;0.00670039279747888
1.35098e-05;0.006691566808659674
1.35100e-05;0.0066827408198404685
1.35103e-05;0.006673914831021263
1.35105e-05;0.006665088842202117
1.35108e-05;0.006656262853382911
1.35110e-05;0.006647436864563706
1.35113e-05;0.00663861087574456
1.35115e-05;0.006629784886925354
1.35118e-05;0.006620958898106148
1.35120e-05;0.006612132909287002
1.35123e-05;0.006603306920467796
1.35125e-05;0.0065944809316485905
1.35128e-05;0.006585273249670075
1.35130e-05;0.006575767628202048
1.35133e-05;0.006566262006734021
1.35135e-05;0.006556756385266058
1.35138e-05;0.00654725076379803
1.35140e-05;0.006537745142330003
1.35143e-05;0.00652823952086204
1.35145e-05;0.006518733899394013
1.35148e-05;0.006509228277925985
1.35150e-05;0.006499722656458022
1.35153e-05;0.006490217034989995
1.35155e-05;0.006480711413521968
1.35158e-05;0.006466214860871514
1.35160e-05;0.006447822520591399
1.35163e-05;0.006429430180311283
1.35165e-05;0.0064110378400312916
1.35168e-05;0.006392645499751176
1.35170e-05;0.00637425315947106
1.35173e-05;0.00635586081919107
1.35175e-05;0.006337468478910954
1.35178e-05;0.0063190761386308384
1.35180e-05;0.006300683798350848
1.35183e-05;0.006282291458070732
1.35185e-05;0.0062638991177906165
1.35188e-05;0.006241560091164799
1.35190e-05;0.006216140386548901
1.35193e-05;0.006190720681932832
1.35195e-05;0.006165300977316762
1.35198e-05;0.0061398812727008634
1.35200e-05;0.006114461568084794
1.35203e-05;0.006089041863468724
1.35205e-05;0.006063622158852827
1.35208e-05;0.006038202454236757
1.35210e-05;0.006012782749620687
1.35213e-05;0.0059891274638043685
1.35215e-05;0.005966849436195378
1.35218e-05;0.005944571408586387
1.35220e-05;0.005922293380977548
1.35223e-05;0.005900015353368556
1.35225e-05;0.005877737325759566
1.35228e-05;0.005855459298150727
1.35230e-05;0.0058331812705417355
1.35233e-05;0.005810903242932745
1.35235e-05;0.005788625215323905
1.35238e-05;0.005778659688472355
1.35240e-05;0.005778304970986747
1.35243e-05;0.005777950253501142
1.35245e-05;0.005777595536015536
1.35248e-05;0.005777240818529928
1.35250e-05;0.005776886101044323
1.35253e-05;0.005776531383558716
1.35255e-05;0.005776176666073109
1.35258e-05;0.005796055183903778
1.35260e-05;0.005831727225025709
1.35263e-05;0.00586739926614764
1.35265e-05;0.005903071307269329
1.35268e-05;0.005938743348391259
1.35270e-05;0.00597441538951319
1.35273e-05;0.006010087430635121
1.35275e-05;0.00604575947175681
1.35278e-05;0.00609921258328784
1.35280e-05;0.006166545123652666
1.35283e-05;0.006233877664017036
1.35285e-05;0.006301210204381863
1.35288e-05;0.006368542744746689
1.35290e-05;0.006435875285111059
1.35293e-05;0.006503207825475885
1.35295e-05;0.006570540365840712
1.35298e-05;0.006638638897085912
1.35300e-05;0.006718402950311429
1.35303e-05;0.006798167003536947
1.35305e-05;0.006877931056761924
1.35308e-05;0.006957695109987441
1.35310e-05;0.007037459163212958
1.35313e-05;0.007117223216437935
1.35315e-05;0.007196987269663452
1.35318e-05;0.00727675132288897
1.35320e-05;0.007347534275991187
1.35323e-05;0.007411306822118679
1.35325e-05;0.007475079368246171
1.35328e-05;0.007538851914373233
1.35330e-05;0.007602624460500725
1.35333e-05;0.007666397006628217
1.35335e-05;0.007730169552755278
1.35338e-05;0.00779394209888277
1.35340e-05;0.007836684646474489
1.35343e-05;0.007863011738674828
1.35345e-05;0.007889338830875345
1.35348e-05;0.007915665923075863
1.35350e-05;0.007941993015276202
1.35353e-05;0.00796832010747672
1.35355e-05;0.007994647199677237
1.35358e-05;0.008020974291877755
1.35360e-05;0.008022225281141049
1.35363e-05;0.008003902533940297
1.35365e-05;0.007985579786739543
1.35368e-05;0.007967257039538916
1.35370e-05;0.007948934292338164
1.35373e-05;0.007930611545137412
1.35375e-05;0.007912288797936783
1.35378e-05;0.00789396605073603
1.35380e-05;0.007875643303535278
1.35383e-05;0.00785732055633465
1.35385e-05;0.007820702611356218
1.35388e-05;0.0077698039234421696
1.35390e-05;0.0077189052355284655
1.35393e-05;0.007668006547614417
1.35395e-05;0.00761710785970037
1.35398e-05;0.007566209171786666
1.35400e-05;0.007515310483872617
1.35403e-05;0.007464411795958569
1.35405e-05;0.007413513108044866
1.35408e-05;0.007362614420130817
1.35410e-05;0.007308471388309159
1.35413e-05;0.0072517959082517465
1.35415e-05;0.007195120428193951
1.35418e-05;0.007138444948136155
1.35420e-05;0.007081769468078743
1.35423e-05;0.007025093988020948
1.35425e-05;0.006974840951943219
1.35428e-05;0.006929601104169219
1.35430e-05;0.006884361256394912
1.35433e-05;0.006839121408620605
1.35435e-05;0.006793881560846605
1.35438e-05;0.006748641713072298
1.35440e-05;0.006709096433266329
1.35443e-05;0.006673996181182219
1.35445e-05;0.006638895929098347
1.35448e-05;0.006603795677014237
1.35450e-05;0.006568695424930127
1.35453e-05;0.006533595172846254
1.35455e-05;0.006498494920762145
1.35458e-05;0.006463394668678035
1.35460e-05;0.006428294416594162
1.35463e-05;0.006393194164510052
1.35465e-05;0.0063580939124259425
1.35468e-05;0.006323008495658493
1.35470e-05;0.006288149010706064
1.35473e-05;0.006253289525753635
1.35475e-05;0.006218430040801442
1.35478e-05;0.006183570555849013
1.35480e-05;0.006148711070896584
1.35483e-05;0.006113851585944391
1.35485e-05;0.006078992100991962
1.35488e-05;0.0060441326160395326
1.35490e-05;0.00600927313108734
1.35493e-05;0.005974413646134911
1.35495e-05;0.005939554161182482
1.35498e-05;0.005905292098894011
1.35500e-05;0.005871496368786652
1.35503e-05;0.005837700638679291
1.35505e-05;0.00580390490857216
1.35508e-05;0.005770109178464799
1.35510e-05;0.005736313448357439
1.35513e-05;0.005702517718250307
1.35515e-05;0.005668721988142947
1.35518e-05;0.005634926258035586
1.35520e-05;0.005606307322217679
1.35523e-05;0.0055817292538122894
1.35525e-05;0.0055571511854069
1.35528e-05;0.00553257311700151
1.35530e-05;0.005507995048596287
1.35533e-05;0.005483416980190897
1.35535e-05;0.005458838911785507
1.35538e-05;0.005434260843380284
1.35540e-05;0.005409682774974894
1.35543e-05;0.005392111698562289
1.35545e-05;0.00539178926463309
1.35548e-05;0.005400661337580755
1.35550e-05;0.0054095334105284205
1.35553e-05;0.005418405483476026
1.35555e-05;0.005427277556423691
1.35558e-05;0.005436149629371357
1.35560e-05;0.005445021702318962
1.35563e-05;0.005453893775266627
1.35565e-05;0.005462765848214293
1.35568e-05;0.005473841647967043
1.35570e-05;0.005518478713543986
1.35573e-05;0.00556311577912093
1.35575e-05;0.00560775284469757
1.35578e-05;0.005652389910274514
1.35580e-05;0.005697026975851457
1.35583e-05;0.0057416640414280976
1.35585e-05;0.005786301107005041
1.35588e-05;0.005830938172581984
1.35590e-05;0.005875575238158625
1.35593e-05;0.0059309627967775065
1.35595e-05;0.005994741903250728
1.35598e-05;0.006058521009723517
1.35600e-05;0.006122300116196739
1.35603e-05;0.00618607922266996
1.35605e-05;0.00624985832914275
1.35608e-05;0.006313637435615971
1.35610e-05;0.0063774165420891924
1.35613e-05;0.006440840265521474
1.35615e-05;0.0064988517460733905
1.35618e-05;0.006556863226625699
1.35620e-05;0.006614874707178008
1.35623e-05;0.006672886187729923
1.35625e-05;0.006730897668282232
1.35628e-05;0.006788909148834541
1.35630e-05;0.006846920629386456
1.35633e-05;0.006904932109938765
1.35635e-05;0.006943486395698652
1.35638e-05;0.006966852914665051
1.35640e-05;0.006990219433631609
1.35643e-05;0.007013585952598165
1.35645e-05;0.007036952471564564
1.35648e-05;0.007060318990531122
1.35650e-05;0.0070836855094976794
1.35653e-05;0.007107052028464078
1.35655e-05;0.007130418547430635
1.35658e-05;0.007153785066397193
1.35660e-05;0.0071771515853635915
1.35663e-05;0.007197993443360179
1.35665e-05;0.00718038642565648
1.35668e-05;0.0071627794079529
1.35670e-05;0.007145172390249201
1.35673e-05;0.007127565372545502
1.35675e-05;0.007109958354841922
1.35678e-05;0.007092351337138223
1.35680e-05;0.007074744319434524
1.35683e-05;0.007057137301730945
1.35685e-05;0.007039530284027246
1.35688e-05;0.007021923266323546
1.35690e-05;0.007004316248619967
1.35693e-05;0.006974918951191371
1.35695e-05;0.006936318476181427
1.35698e-05;0.006897718001171482
1.35700e-05;0.006859117526161799
1.35703e-05;0.006820517051151854
1.35705e-05;0.006781916576141909
1.35708e-05;0.006743316101132227
1.35710e-05;0.006704715626122282
1.35713e-05;0.006666115151112337
1.35715e-05;0.006628970430652105
1.35718e-05;0.006592962033327887
1.35720e-05;0.00655695363600367
1.35723e-05;0.006520945238679696
1.35725e-05;0.0064849368413554785
1.35728e-05;0.006448928444031261
1.35730e-05;0.006412920046707287
1.35733e-05;0.006376911649383069
1.35735e-05;0.006340903252058851
1.35738e-05;0.00631978270407258
1.35740e-05;0.006310283213811487
1.35743e-05;0.006300783723550392
1.35745e-05;0.006291284233289363
1.35748e-05;0.006281784743028269
1.35750e-05;0.006272285252767175
1.35753e-05;0.006262785762506145
1.35755e-05;0.006253286272245051
1.35758e-05;0.006265368823364541
1.35760e-05;0.006294297739800082
1.35763e-05;0.00632322665623582
1.35765e-05;0.006352155572671558
1.35768e-05;0.0063810844891071
1.35770e-05;0.006410013405542838
1.35773e-05;0.006438942321978575
1.35775e-05;0.006467871238414117
1.35778e-05;0.0065153755289970834
1.35780e-05;0.0065773792607246835
1.35783e-05;0.006639382992452284
1.35785e-05;0.006701386724179464
1.35788e-05;0.006763390455907064
1.35790e-05;0.006825394187634664
1.35793e-05;0.0068873979193618436
1.35795e-05;0.006949401651089444
1.35798e-05;0.007012235921893839
1.35800e-05;0.007087718740027019
1.35803e-05;0.007163201558160709
1.35805e-05;0.0072386843762944
1.35808e-05;0.007314167194427579
1.35810e-05;0.00738965001256127
1.35813e-05;0.007465132830694961
1.35815e-05;0.00754061564882814
1.35818e-05;0.00761609846696183
1.35820e-05;0.007682721124089658
1.35823e-05;0.007742427776078453
1.35825e-05;0.007802134428067651
1.35828e-05;0.007861841080056851
1.35830e-05;0.007921547732045646
1.35833e-05;0.007981254384034844
1.35835e-05;0.008040961036024042
1.35838e-05;0.008100667688012838
1.35840e-05;0.008158039883901267
1.35843e-05;0.008179859895285631
1.35845e-05;0.008201679906669848
1.35848e-05;0.008223499918054211
1.35850e-05;0.008245319929438576
1.35853e-05;0.008267139940822793
1.35855e-05;0.008288959952207157
1.35858e-05;0.008310779963591522
1.35860e-05;0.008332599974975739
1.35863e-05;0.008330390129915039
1.35865e-05;0.008309423220444014
1.35868e-05;0.008288456310972987
1.35870e-05;0.008267489401502104
1.35873e-05;0.008246522492031078
1.35875e-05;0.008225555582560051
1.35878e-05;0.008204588673089168
1.35880e-05;0.008183621763618143
1.35883e-05;0.008162654854147116
1.35885e-05;0.008141687944676233
1.35888e-05;0.008118999151910139
1.35890e-05;0.008070087243357347
1.35893e-05;0.008021175334804885
1.35895e-05;0.007972263426252095
1.35898e-05;0.007923351517699302
1.35900e-05;0.007874439609146843
1.35903e-05;0.00782552770059405
1.35905e-05;0.007776615792041259
1.35908e-05;0.0077277038834887984
1.35910e-05;0.007678791974936007
1.35913e-05;0.007629880066383215
1.35915e-05;0.00758059483964197
1.35918e-05;0.007531018210688752
1.35920e-05;0.007481441581735533
1.35923e-05;0.007431864952782651
1.35925e-05;0.007382288323829433
1.35928e-05;0.007332711694876214
1.35930e-05;0.007290115121020128
1.35933e-05;0.007252966991825153
1.35935e-05;0.007215818862630178
1.35938e-05;0.007178670733435455
1.35940e-05;0.00714152260424048
1.35943e-05;0.007104374475045505
1.35945e-05;0.0070718680469976005
1.35948e-05;0.007042984806944968
1.35950e-05;0.007014101566892336
1.35953e-05;0.006985218326839704
1.35955e-05;0.0069563350867872685
1.35958e-05;0.006927451846734636
1.35960e-05;0.006898568606682004
1.35963e-05;0.006869685366629568
1.35965e-05;0.006840802126576936
1.35968e-05;0.006811918886524305
1.35970e-05;0.006783035646471868
1.35973e-05;0.006754152406419236
1.35975e-05;0.006725269166366604
1.35978e-05;0.006696385926314168
1.35980e-05;0.006669396207871651
1.35983e-05;0.00664388452184673
1.35985e-05;0.006618372835821981
1.35988e-05;0.0065928611497970595
1.35990e-05;0.006567349463772139
1.35993e-05;0.00654183777774739
1.35995e-05;0.006516326091722469
1.35998e-05;0.006490814405697548
1.36000e-05;0.0064653027196728
1.36003e-05;0.006439791033647878
1.36005e-05;0.006414279347622957
1.36008e-05;0.006388767661598209
1.36010e-05;0.006363255975573287
1.36013e-05;0.0063377442895483655
1.36015e-05;0.006317002522478645
1.36018e-05;0.006299984026803249
1.36020e-05;0.006282965531127853
1.36023e-05;0.006265947035452573
1.36025e-05;0.006248928539777178
1.36028e-05;0.006231910044101782
1.36030e-05;0.006214891548426502
1.36033e-05;0.006197873052751107
1.36035e-05;0.0061808545570757115
1.36038e-05;0.006163836061400315
1.36040e-05;0.006146817565725035
1.36043e-05;0.00612979907004964
1.36045e-05;0.006112780574374244
1.36048e-05;0.006095762078698964
1.36050e-05;0.006078743583023569
1.36053e-05;0.006061725087348173
1.36055e-05;0.0060447065916728925
1.36058e-05;0.006030612618012617
1.36060e-05;0.006018801448162142
1.36063e-05;0.006006990278311745
1.36065e-05;0.00599517910846127
1.36068e-05;0.005983367938610795
1.36070e-05;0.0059715567687603985
1.36073e-05;0.005959745598909923
1.36075e-05;0.005947934429059448
1.36078e-05;0.0059361232592090515
1.36080e-05;0.005924312089358576
1.36083e-05;0.005912500919508101
1.36085e-05;0.005900689749657705
1.36088e-05;0.005888878579807229
1.36090e-05;0.005877067409956754
1.36093e-05;0.0058652562401063585
1.36095e-05;0.005853445070255882
1.36098e-05;0.005841633900405407
1.36100e-05;0.005831725164832592
1.36103e-05;0.0058233014186682315
1.36105e-05;0.00581487767250387
1.36108e-05;0.005806453926339565
1.36110e-05;0.005798030180175204
1.36113e-05;0.005789606434010843
1.36115e-05;0.005781182687846539
1.36118e-05;0.005772758941682177
1.36120e-05;0.005764335195517815
1.36123e-05;0.0057559114493534545
1.36125e-05;0.00574748770318915
1.36128e-05;0.005739063957024788
1.36130e-05;0.005730640210860427
1.36133e-05;0.005722216464696122
1.36135e-05;0.0057137927185317615
1.36138e-05;0.0057053689723674
1.36140e-05;0.0056969452262030955
1.36143e-05;0.005688521480038734
1.36145e-05;0.005680097733874373
1.36148e-05;0.005671673987710069
1.36150e-05;0.005663250241545707
1.36153e-05;0.005660374399436901
1.36155e-05;0.0056618291031240945
1.36158e-05;0.005663283806811297
1.36160e-05;0.005664738510498501
1.36163e-05;0.005666193214185694
1.36165e-05;0.005667647917872898
1.36168e-05;0.005669102621560101
1.36170e-05;0.005670557325247294
1.36173e-05;0.005672012028934498
1.36175e-05;0.005673466732621701
1.36178e-05;0.005674921436308895
1.36180e-05;0.0056763761399960975
1.36183e-05;0.005677830843683301
1.36185e-05;0.0056792855473704945
1.36188e-05;0.005680740251057698
1.36190e-05;0.005682194954744901
1.36193e-05;0.005683649658432094
1.36195e-05;0.005685104362119298
1.36198e-05;0.005686559065806501
1.36200e-05;0.005688013769493695
1.36203e-05;0.005689468473180898
1.36205e-05;0.005692694623823878
1.36208e-05;0.005697303518669251
1.36210e-05;0.005701912413514592
1.36213e-05;0.005706521308359965
1.36215e-05;0.005711130203205338
1.36218e-05;0.00571573909805068
1.36220e-05;0.0057203479928960525
1.36223e-05;0.005724956887741425
1.36225e-05;0.005729565782586766
1.36228e-05;0.005734174677432139
1.36230e-05;0.005738783572277512
1.36233e-05;0.005743392467122853
1.36235e-05;0.005748001361968226
1.36238e-05;0.005752610256813599
1.36240e-05;0.005757219151658941
1.36243e-05;0.0057618280465043135
1.36245e-05;0.005766436941349686
1.36248e-05;0.005771045836195027
1.36250e-05;0.0057756547310404
1.36253e-05;0.005782668153077951
1.36255e-05;0.005791558484849703
1.36258e-05;0.005800448816621516
1.36260e-05;0.005809339148393329
1.36263e-05;0.005818229480165082
1.36265e-05;0.005827119811936895
1.36268e-05;0.005836010143708708
1.36270e-05;0.005844900475480461
1.36273e-05;0.005853790807252273
1.36275e-05;0.005862681139024086
1.36278e-05;0.005871571470795839
1.36280e-05;0.005880461802567652
1.36283e-05;0.0058893521343394645
1.36285e-05;0.005898242466111218
1.36288e-05;0.00590713279788303
1.36290e-05;0.005916023129654844
1.36293e-05;0.005924913461426656
1.36295e-05;0.005933803793198409
1.36298e-05;0.005942694124970222
1.36300e-05;0.005953257810855378
1.36303e-05;0.005965127672289201
1.36305e-05;0.005976997533723104
1.36308e-05;0.005988867395157008
1.36310e-05;0.006000737256590831
1.36313e-05;0.006012607118024734
1.36315e-05;0.006024476979458637
1.36318e-05;0.00603634684089246
1.36320e-05;0.006048216702326363
1.36323e-05;0.0060585631618689986
1.36325e-05;0.00606772049456413
1.36328e-05;0.006076877827259322
1.36330e-05;0.006086035159954515
1.36333e-05;0.006095192492649646
1.36335e-05;0.006104349825344839
1.36338e-05;0.006113507158040031
1.36340e-05;0.006122664490735162
1.36343e-05;0.006131821823430355
1.36345e-05;0.006146477427843746
1.36348e-05;0.006165424836378203
1.36350e-05;0.006184372244912789
1.36353e-05;0.006203319653447376
1.36355e-05;0.006222267061981834
1.36358e-05;0.00624121447051642
1.36360e-05;0.006260161879051007
1.36363e-05;0.006279109287585465
1.36365e-05;0.006298056696120051
1.36368e-05;0.006317004104654638
1.36370e-05;0.006335951513189096
1.36373e-05;0.006354898921723682
1.36375e-05;0.006382599730807274
1.36378e-05;0.006417133210679123
1.36380e-05;0.006451666690550738
1.36383e-05;0.006486200170422588
1.36385e-05;0.006520733650294436
1.36388e-05;0.006555267130166052
1.36390e-05;0.006589800610037901
1.36393e-05;0.006624334089909751
1.36395e-05;0.006658867569781365
1.36398e-05;0.0066934010496532146
1.36400e-05;0.006727934529525064
1.36403e-05;0.006762468009396679
1.36405e-05;0.006797724919194708
1.36408e-05;0.006833546519080529
1.36410e-05;0.006869368118966108
1.36413e-05;0.006905189718851929
1.36415e-05;0.00694101131873775
1.36418e-05;0.006976832918623329
1.36420e-05;0.007012654518509151
1.36423e-05;0.0070484761183949715
1.36425e-05;0.00708429771828055
1.36428e-05;0.007120119318166372
1.36430e-05;0.0071479951099652165
1.36433e-05;0.007169668616090878
1.36435e-05;0.007191342122216685
1.36438e-05;0.007213015628342493
1.36440e-05;0.0072346891344681535
1.36443e-05;0.007256362640593961
1.36445e-05;0.007278036146719769
1.36448e-05;0.00729970965284543
1.36450e-05;0.007321383158971238
1.36453e-05;0.007343056665097046
1.36455e-05;0.007355251718457851
1.36458e-05;0.007360048144624564
1.36460e-05;0.0073648445707912786
1.36463e-05;0.007369640996957992
1.36465e-05;0.0073744374231246735
1.36468e-05;0.007379233849291387
1.36470e-05;0.007384030275458101
1.36473e-05;0.007388826701624783
1.36475e-05;0.007393623127791496
1.36478e-05;0.007398419553958211
1.36480e-05;0.007403215980124892
1.36483e-05;0.007408012406291606
1.36485e-05;0.00741280883245832
1.36488e-05;0.0074176052586250015
1.36490e-05;0.007422401684791715
1.36493e-05;0.0074271981109584285
1.36495e-05;0.00743199453712511
1.36498e-05;0.007430231050766236
1.36500e-05;0.007427225973975474
1.36503e-05;0.007424220897184732
1.36505e-05;0.007421215820393972
1.36508e-05;0.00741821074360321
1.36510e-05;0.007415205666812469
