Time(s);Current(A)
1.10000e-05;0.0011064911721227198
1.10003e-05;0.0011128846804309895
1.10005e-05;0.0011192781887393026
1.10008e-05;0.0011254024007688733
1.10010e-05;0.0011297392842521293
1.10013e-05;0.0011340761677354145
1.10015e-05;0.0011384130512186996
1.10018e-05;0.0011427499347019556
1.10020e-05;0.0011470868181852408
1.10023e-05;0.0011514237016685262
1.10025e-05;0.0011557605851517819
1.10028e-05;0.0011600974686350673
1.10030e-05;0.0011644343521183525
1.10033e-05;0.0011687712356016084
1.10035e-05;0.0011729841264668218
1.10038e-05;0.001176374074115381
1.10040e-05;0.0011797640217639173
1.10043e-05;0.0011831539694124767
1.10045e-05;0.001186543917061036
1.10047e-05;0.0011899338647095722
1.10050e-05;0.0011933238123581315
1.10053e-05;0.0011966191042463278
1.10055e-05;0.0011992861626386046
1.10058e-05;0.0012019532210308995
1.10060e-05;0.0012046202794231942
1.10062e-05;0.001207287337815471
1.10065e-05;0.0012099543962077657
1.10068e-05;0.0012126214546000606
1.10070e-05;0.0012152263063424772
1.10073e-05;0.0012173981080093941
1.10075e-05;0.001219413230121472
1.10078e-05;0.001221224046041326
1.10080e-05;0.0012225394004617173
1.10083e-05;0.001222696964726778
1.10085e-05;0.0012211214974469941
1.10088e-05;0.0012176903841692296
1.10090e-05;0.0012123867996190973
1.10093e-05;0.0012049171269093684
1.10095e-05;0.0011970419687998978
1.10098e-05;0.001186475590321937
1.10100e-05;0.0011752761253650892
1.10103e-05;0.0011598748439487774
1.10105e-05;0.0011444735625323612
1.10108e-05;0.001128286111532366
1.10110e-05;0.0011068808263081924
1.10113e-05;0.001085475541083874
1.10115e-05;0.0010634387623291478
1.10118e-05;0.0010372107395676825
1.10120e-05;0.0010109827168060396
1.10123e-05;0.000984138342416006
1.10125e-05;0.0009532032213369297
1.10128e-05;0.0009222681002576437
1.10130e-05;0.0008907793201053862
1.10132e-05;0.0008556158858832839
1.10135e-05;0.0008204524516609433
1.10138e-05;0.0007852890174386027
1.10140e-05;0.0007501255832165004
1.10143e-05;0.0007146819074485816
1.10145e-05;0.000677378259025178
1.10147e-05;0.0006400746106020273
1.10150e-05;0.0006027709621786239
1.10153e-05;0.0005654673137552203
1.10155e-05;0.0005283460678334112
1.10158e-05;0.0004924354335097
1.10160e-05;0.0004565247991857454
1.10163e-05;0.0004209212628316253
1.10165e-05;0.00038735594613333886
1.10168e-05;0.00035405177960795683
1.10170e-05;0.000322697009788007
1.10173e-05;0.00029302438351241797
1.10175e-05;0.00026527461475162165
1.10178e-05;0.0002396348883619763
1.10180e-05;0.00021570208825776255
1.10183e-05;0.0001916309426797201
1.10185e-05;0.00016643859355995591
1.10188e-05;0.00013973224951075653
1.10190e-05;0.00011178933785556389
1.10193e-05;8.288748505799635e-05
1.10195e-05;5.330425196752203e-05
1.10198e-05;2.327083425660614e-05
1.10200e-05;-7.385179424007861e-06
1.10203e-05;-3.9475809345160644e-05
1.10205e-05;-7.373250324345229e-05
1.10208e-05;-0.00011018919773095068
1.10210e-05;-0.00014854516635000556
1.10213e-05;-0.00018849959225535133
1.10215e-05;-0.00022975171204499305
1.10217e-05;-0.0002721173923510765
1.10220e-05;-0.0003158962908947547
1.10223e-05;-0.0003600976656524784
1.10225e-05;-0.0004071030293921868
1.10228e-05;-0.00045451278353840626
1.10230e-05;-0.0005046064905460727
1.10232e-05;-0.0005547001975533997
1.10235e-05;-0.0006050376978208227
1.10238e-05;-0.0006569932622340425
1.10240e-05;-0.0007089488266472622
1.10243e-05;-0.0007609043910601298
1.10245e-05;-0.0008128599554733495
1.10248e-05;-0.0008647036598479287
1.10250e-05;-0.0009158049453461717
1.10253e-05;-0.0009669062308447609
1.10255e-05;-0.0010180075163433503
1.10258e-05;-0.0010691088018415932
1.10260e-05;-0.001119595650807283
1.10263e-05;-0.0011660044636331614
1.10265e-05;-0.0012124132764587253
1.10268e-05;-0.0012580582921160976
1.10270e-05;-0.0012986339600214085
1.10273e-05;-0.0013392096279264444
1.10275e-05;-0.0013786904804264925
1.10278e-05;-0.0014109050058926566
1.10280e-05;-0.0014431195313586022
1.10283e-05;-0.0014743483748995826
1.10285e-05;-0.0014990352140206661
1.10288e-05;-0.0015237220531415822
1.10290e-05;-0.0015474047199411376
1.10293e-05;-0.0015644226609317644
1.10295e-05;-0.001581440601922276
1.10298e-05;-0.00159739927032803
1.10300e-05;-0.001606327510604903
1.10302e-05;-0.0016152557508817156
1.10305e-05;-0.0016233113196502092
1.10308e-05;-0.0016255749379729297
1.10310e-05;-0.0016278385562956347
1.10313e-05;-0.0016292474244147034
1.10315e-05;-0.0016249832863966022
1.10317e-05;-0.00162071914837853
1.10320e-05;-0.0016157174472994122
1.10323e-05;-0.0016058205151295946
1.10325e-05;-0.0015959235829597772
1.10328e-05;-0.0015854643120542862
1.10330e-05;-0.0015712727798571882
1.10333e-05;-0.0015570812476600904
1.10335e-05;-0.0015424174558005437
1.10338e-05;-0.0015246192605179254
1.10340e-05;-0.0015068210652353074
1.10343e-05;-0.0014887464845113763
1.10345e-05;-0.0014688375242236068
1.10348e-05;-0.001448928563935837
1.10350e-05;-0.0014289076450348217
1.10353e-05;-0.0014081436530133404
1.10355e-05;-0.0013873796609918593
1.10358e-05;-0.0013666591231804481
1.10360e-05;-0.0013462269924363881
1.10363e-05;-0.0013257948616923283
1.10365e-05;-0.001305622734681097
1.10368e-05;-0.0012871762612763319
1.10370e-05;-0.0012687297878715667
1.10373e-05;-0.0012506932687595998
1.10375e-05;-0.0012353776302149412
1.10378e-05;-0.0012200619916702823
1.10380e-05;-0.0012048069740859097
1.10383e-05;-0.001189954299873603
1.10385e-05;-0.0011747048493964077
1.10387e-05;-0.0011568219813698354
1.10390e-05;-0.0011389391133431416
1.10393e-05;-0.0011207316344417101
1.10395e-05;-0.0011003697021368499
1.10398e-05;-0.0010800077698318517
1.10400e-05;-0.0010591632021048393
1.10402e-05;-0.001035115366685427
1.10405e-05;-0.0010110675312658514
1.10408e-05;-0.0009863925949929
1.10410e-05;-0.0009575555690512401
1.10413e-05;-0.0009287185431097754
1.10415e-05;-0.0008994570764451854
1.10418e-05;-0.0008673785822825761
1.10420e-05;-0.0008353000881201843
1.10423e-05;-0.0008027274445927385
1.10425e-05;-0.0007668751149424656
1.10428e-05;-0.0007310227852924356
1.10430e-05;-0.0006948237340338303
1.10433e-05;-0.0006563234796809429
1.10435e-05;-0.0006178232253283162
1.10438e-05;-0.0005791763536663945
1.10440e-05;-0.0005395563779430684
1.10443e-05;-0.0004999364022200106
1.10445e-05;-0.0004602342619890271
1.10448e-05;-0.0004199867931291385
1.10450e-05;-0.0003798022247718796
1.10453e-05;-0.00034003512918559455
1.10455e-05;-0.0003004557766697174
1.10458e-05;-0.0002621224812911431
1.10460e-05;-0.0002239777025916241
1.10463e-05;-0.00018722051456360455
1.10465e-05;-0.00015152959673664693
1.10468e-05;-0.00011710125170488005
1.10470e-05;-8.418845390431316e-05
1.10472e-05;-5.3044153019600574e-05
1.10475e-05;-2.392127372411815e-05
1.10478e-05;2.9881390794754004e-06
1.10480e-05;2.8022747101360645e-05
1.10483e-05;5.236982897827012e-05
1.10485e-05;7.712967239121954e-05
1.10487e-05;0.00010251227807104954
1.10490e-05;0.0001283210383270904
1.10493e-05;0.00015413196030558451
1.10495e-05;0.00017990090107202213
1.10498e-05;0.00020529598675773648
1.10500e-05;0.00023080049809108089
1.10503e-05;0.000257031271164702
1.10505e-05;0.00028355247150680654
1.10508e-05;0.0003120012474995353
1.10510e-05;0.00034064213954896775
1.10513e-05;0.00037055811239439387
1.10515e-05;0.00040058931740037223
1.10518e-05;0.00043138532217007496
1.10520e-05;0.00046218132693956904
1.10523e-05;0.000493304117961835
1.10525e-05;0.0005265958004463947
1.10528e-05;0.000559887482930729
1.10530e-05;0.0005931791654152887
1.10533e-05;0.0006266227458200658
1.10535e-05;0.000661074477882567
1.10538e-05;0.0006955262099453016
1.10540e-05;0.0007299779420080363
1.10543e-05;0.0007644506091472989
1.10545e-05;0.0007990742426224628
1.10548e-05;0.0008337612785127415
1.10550e-05;0.0008682948856592378
1.10553e-05;0.0009024581899396184
1.10555e-05;0.0009360343906820344
1.10557e-05;0.0009688161832534482
1.10560e-05;0.0010006778540193326
1.10563e-05;0.0010316244551902382
1.10565e-05;0.0010616474035276833
1.10568e-05;0.0010905995564973845
1.10570e-05;0.0011181562532327207
1.10572e-05;0.0011437019075853018
1.10575e-05;0.0011686654853783813
1.10578e-05;0.0011897658012646204
1.10580e-05;0.0012108661171508597
1.10583e-05;0.0012314472975019843
1.10585e-05;0.0012485829576660426
1.10588e-05;0.0012657186178301008
1.10590e-05;0.0012828542779940429
1.10593e-05;0.001299989938158101
1.10595e-05;0.0013165197718417873
1.10598e-05;0.0013290287145873287
1.10600e-05;0.0013415376573329546
1.10603e-05;0.0013540466000785806
1.10605e-05;0.0013665555428241218
1.10608e-05;0.0013784212655020495
1.10610e-05;0.0013860179147315759
1.10613e-05;0.001393614563961051
1.10615e-05;0.0014012112131905775
1.10618e-05;0.001408807862420104
1.10620e-05;0.001416404511649579
1.10623e-05;0.0014240011608791057
1.10625e-05;0.0014315978101086323
1.10628e-05;0.0014391944593381072
1.10630e-05;0.0014467911085676336
1.10633e-05;0.0014543877577971602
1.10635e-05;0.0014619844070266352
1.10638e-05;0.0014695810562561618
1.10640e-05;0.001474538251794389
1.10642e-05;0.0014779515397171058
1.10645e-05;0.0014813648276398458
1.10648e-05;0.0014847781155625857
1.10650e-05;0.0014881914034853025
1.10653e-05;0.0014916046914080427
1.10655e-05;0.0014950179793307827
1.10657e-05;0.0014984312672534994
1.10660e-05;0.0015018445551762394
1.10663e-05;0.0015052578430989794
1.10665e-05;0.0015086711310217194
1.10668e-05;0.0015120844189444361
1.10670e-05;0.001515340791235833
1.10673e-05;0.0015175348712496428
1.10675e-05;0.0015195671591450787
1.10678e-05;0.0015214011338145368
1.10680e-05;0.0015228598094038453
1.10683e-05;0.0015235528243377127
1.10685e-05;0.0015231429756103242
1.10688e-05;0.001521557493716349
1.10690e-05;0.0015188457137981176
1.10693e-05;0.0015150575322980448
1.10695e-05;0.0015102425421432931
1.10698e-05;0.0015043618475958352
1.10700e-05;0.0014970820482760314
1.10703e-05;0.001489455595944316
1.10705e-05;0.0014795283957909134
1.10708e-05;0.0014690946905492237
1.10710e-05;0.0014552992938222315
1.10713e-05;0.0014415038970953325
1.10715e-05;0.00142770850036834
1.10718e-05;0.0014139131036413476
1.10720e-05;0.001397266413472932
1.10723e-05;0.0013789519033029756
1.10725e-05;0.0013606373931330192
1.10727e-05;0.001342322882963187
1.10730e-05;0.0013236224185853777
1.10733e-05;0.0013023603630120137
1.10735e-05;0.0012810983074387937
1.10738e-05;0.0012596652550783218
1.10740e-05;0.0012370972912298106
1.10742e-05;0.001214529327381452
1.10745e-05;0.0011918763859598434
1.10748e-05;0.0011686594454972542
1.10750e-05;0.0011454425050348223
1.10753e-05;0.001122293073065184
1.10755e-05;0.001099591697257859
1.10758e-05;0.0010768903214505338
1.10760e-05;0.0010543458599535354
1.10763e-05;0.0010328428440665432
1.10765e-05;0.001011560863871321
1.10768e-05;0.0009917459050755501
1.10770e-05;0.000971930946279645
1.10773e-05;0.0009538381093084565
1.10775e-05;0.0009367526008651572
1.10778e-05;0.0009199421336375477
1.10780e-05;0.0009049571243081542
1.10783e-05;0.0008897811326596803
1.10785e-05;0.0008733375848669476
1.10788e-05;0.0008565961303162255
1.10790e-05;0.0008378774584866022
1.10793e-05;0.0008191587866568521
1.10795e-05;0.0008002112739422425
1.10798e-05;0.0007797449364962578
1.10800e-05;0.0007592785990501344
1.10803e-05;0.0007382961590231263
1.10805e-05;0.0007138883286235201
1.10808e-05;0.0006894804982237486
1.10810e-05;0.0006645985586150738
1.10812e-05;0.0006365699400709236
1.10815e-05;0.0006085413215265834
1.10818e-05;0.0005801607172772902
1.10820e-05;0.0005494439719394062
1.10823e-05;0.0005187272266013139
1.10825e-05;0.00048758510687543576
1.10827e-05;0.0004536197628781626
1.10830e-05;0.00041965441888065926
1.10833e-05;0.00038547332056492985
1.10835e-05;0.00034986025350508304
1.10838e-05;0.00031424718644499494
1.10840e-05;0.00027853663576954857
1.10843e-05;0.0002421790830251004
1.10845e-05;0.00020582153028089859
1.10848e-05;0.00016934196409827297
1.10850e-05;0.00013279102804197195
1.10853e-05;9.63204114551597e-05
1.10855e-05;6.0473208665737475e-05
1.10858e-05;2.533773457894217e-05
1.10860e-05;-8.934579651372946e-06
1.10863e-05;-4.229611185727977e-05
1.10865e-05;-7.468554634383831e-05
1.10868e-05;-0.00010592760575353777
1.10870e-05;-0.0001357924663190779
1.10873e-05;-0.00016405031977716273
1.10875e-05;-0.0001904713844560169
1.10878e-05;-0.00021490400279658206
1.10880e-05;-0.0002378853623035393
1.10883e-05;-0.0002610790545921798
1.10885e-05;-0.00028594434403413495
1.10888e-05;-0.00031286728755022906
1.10890e-05;-0.0003418909369538578
1.10893e-05;-0.0003711540773854787
1.10895e-05;-0.0004021749059155498
1.10897e-05;-0.00043431193758226654
1.10900e-05;-0.00046674289109535703
1.10903e-05;-0.0005014749596494049
1.10905e-05;-0.0005390518833221094
1.10908e-05;-0.0005800773994335131
1.10910e-05;-0.0006216497198559041
1.10912e-05;-0.000666851199080086
1.10915e-05;-0.0007124399324459201
1.10918e-05;-0.0007605988847137606
1.10920e-05;-0.0008093437536378248
1.10923e-05;-0.000861977371332004
1.10925e-05;-0.0009146109890261832
1.10928e-05;-0.0009679847449181507
1.10930e-05;-0.0010262708231920058
1.10933e-05;-0.0010845569014662558
1.10935e-05;-0.0011428429797405058
1.10938e-05;-0.001201129058014361
1.10940e-05;-0.0012597257810442423
1.10943e-05;-0.001320384263878939
1.10945e-05;-0.0013810427467132247
1.10948e-05;-0.0014417012295479216
1.10950e-05;-0.0015023597123826184
1.10953e-05;-0.001562751605265971
1.10955e-05;-0.0016213741315813225
1.10958e-05;-0.0016799966578966738
1.10960e-05;-0.0017380283756538674
1.10963e-05;-0.0017921388769258503
1.10965e-05;-0.0018462493781978332
1.10968e-05;-0.0018994682653436853
1.10970e-05;-0.0019467694792215818
1.10973e-05;-0.001994070693099478
1.10975e-05;-0.002040330891058828
1.10978e-05;-0.0020796818309734124
1.10980e-05;-0.0021185113813449977
1.10983e-05;-0.002153880451591574
1.10985e-05;-0.002189013957107358
1.10988e-05;-0.002222584011493701
1.10990e-05;-0.002256154065879817
1.10993e-05;-0.0022897241202661602
1.10995e-05;-0.0023206621458280287
1.10997e-05;-0.002350060606833347
1.11000e-05;-0.0023794590678388643
1.11003e-05;-0.0024086618254967767
1.11005e-05;-0.002436565693382058
1.11008e-05;-0.0024644695612675285
1.11010e-05;-0.0024923734291529987
1.11013e-05;-0.0025202772970384694
1.11015e-05;-0.002547968225068699
1.11018e-05;-0.0025742458640405047
1.11020e-05;-0.00260052350301231
1.11023e-05;-0.002626801141983938
1.11025e-05;-0.0026530787809557433
1.11028e-05;-0.0026791389752478115
1.11030e-05;-0.0027037559818063922
1.11033e-05;-0.0027283729883651395
1.11035e-05;-0.002752989994923887
1.11038e-05;-0.002777607001482468
1.11040e-05;-0.002802224008041215
1.11043e-05;-0.002826841014599963
1.11045e-05;-0.0028514580211585435
1.11048e-05;-0.002876075027717291
1.11050e-05;-0.0029006920342760385
1.11053e-05;-0.002925309040834619
1.11055e-05;-0.0029459554301590673
1.11058e-05;-0.0029642792683376683
1.11060e-05;-0.0029826031065161443
1.11063e-05;-0.0030009269446947453
1.11065e-05;-0.003019250782873346
1.11068e-05;-0.0030375746210518223
1.11070e-05;-0.003055898459230423
1.11073e-05;-0.0030742222974090233
1.11075e-05;-0.0030925461355875
1.11078e-05;-0.0031108699737661004
1.11080e-05;-0.0031278916879566953
1.11082e-05;-0.0031362711609583347
1.11085e-05;-0.003144650633960031
1.11088e-05;-0.003153030106961727
1.11090e-05;-0.003161409579963367
1.11093e-05;-0.003169789052965063
1.11095e-05;-0.003178168525966759
1.11098e-05;-0.0031865479989684553
1.11100e-05;-0.0031949274719700947
1.11103e-05;-0.003203306944971791
1.11105e-05;-0.003211686417973487
1.11108e-05;-0.0032200658909751264
1.11110e-05;-0.0032284453639768226
1.11113e-05;-0.0032368248369785187
1.11115e-05;-0.003245204309980158
1.11118e-05;-0.0032535837829818543
1.11120e-05;-0.0032611997306619452
1.11123e-05;-0.003263748134816296
1.11125e-05;-0.003266296538970664
1.11128e-05;-0.0032688449431250315
1.11130e-05;-0.003271393347279382
1.11133e-05;-0.0032739417514337497
1.11135e-05;-0.0032764901555881174
1.11138e-05;-0.003279038559742468
1.11140e-05;-0.0032815869638968356
1.11143e-05;-0.0032841353680512033
1.11145e-05;-0.0032866837722055537
1.11148e-05;-0.0032892321763599215
1.11150e-05;-0.003291780580514289
1.11153e-05;-0.0032943289846686396
1.11155e-05;-0.0032968773888230074
1.11158e-05;-0.003299425792977375
1.11160e-05;-0.0033017606563008955
1.11163e-05;-0.003302678241867537
1.11165e-05;-0.0033035958274341783
1.11167e-05;-0.003304513413000814
1.11170e-05;-0.0033053810684000487
1.11173e-05;-0.0033059173355800453
1.11175e-05;-0.0033064536027600385
1.11178e-05;-0.003306989869940035
1.11180e-05;-0.003307145773052801
1.11183e-05;-0.003304777186914905
1.11185e-05;-0.003302408600777025
1.11188e-05;-0.0032991599338582107
1.11190e-05;-0.003290070140864264
1.11193e-05;-0.0032809803478703785
1.11195e-05;-0.0032718905548764316
1.11198e-05;-0.0032628007618824848
1.11200e-05;-0.0032537109688885995
1.11203e-05;-0.0032386547226767415
1.11205e-05;-0.0032201084919243816
1.11208e-05;-0.0032015622611721475
1.11210e-05;-0.0031830160304197877
1.11213e-05;-0.0031644697996674282
1.11215e-05;-0.0031446574642650478
1.11218e-05;-0.0031164419492368946
1.11220e-05;-0.0030882264342087414
1.11223e-05;-0.0030600109191807794
1.11225e-05;-0.003031795404152626
1.11228e-05;-0.003003579889124473
1.11230e-05;-0.002975364374096511
1.11233e-05;-0.0029462939455460442
1.11235e-05;-0.00291154942687007
1.11238e-05;-0.0028768049081943307
1.11240e-05;-0.0028420603895183564
1.11243e-05;-0.002807315870842382
1.11245e-05;-0.002772571352166643
1.11248e-05;-0.0027378268334906685
1.11250e-05;-0.0027029897938744473
1.11252e-05;-0.0026675386896310915
1.11255e-05;-0.002632087585387495
1.11258e-05;-0.002596833605332952
1.11260e-05;-0.002562887945226344
1.11263e-05;-0.0025292680138510083
1.11265e-05;-0.0024978099551460757
1.11268e-05;-0.002466351896441143
1.11270e-05;-0.0024353787596846223
1.11273e-05;-0.002407624066392541
1.11275e-05;-0.002380366982742949
1.11278e-05;-0.0023564125512167485
1.11280e-05;-0.002332626774055176
1.11283e-05;-0.002309960361649506
1.11285e-05;-0.0022870939491098563
1.11288e-05;-0.00226290012887671
1.11290e-05;-0.0022387063086435634
1.11293e-05;-0.0022144573170110662
1.11295e-05;-0.002189842150923121
1.11298e-05;-0.0021652269848351753
1.11300e-05;-0.0021402161485642277
1.11303e-05;-0.002112579235828202
1.11305e-05;-0.002084942323092176
1.11308e-05;-0.0020573054103563376
1.11310e-05;-0.002029668497620312
1.11313e-05;-0.0020020315848842864
1.11315e-05;-0.001971701965013881
1.11318e-05;-0.0019397972877461022
1.11320e-05;-0.001907892610478323
1.11323e-05;-0.0018759879332107604
1.11325e-05;-0.0018440832559429813
1.11328e-05;-0.0018117818063390172
1.11330e-05;-0.0017768469652428528
1.11333e-05;-0.0017419121241464516
1.11335e-05;-0.0017069098761808498
1.11337e-05;-0.0016714602465315702
1.11340e-05;-0.0016360106168820502
1.11343e-05;-0.0016005167047913234
1.11345e-05;-0.0015647288886321388
1.11348e-05;-0.0015289410724727117
1.11350e-05;-0.001493277928026124
1.11353e-05;-0.0014584422339788121
1.11355e-05;-0.0014236065399317363
1.11358e-05;-0.001389100167006536
1.11360e-05;-0.0013567795095719734
1.11363e-05;-0.0013244588521376295
1.11365e-05;-0.0012925772895325265
1.11368e-05;-0.0012636100142482958
1.11370e-05;-0.0012346427389642613
1.11373e-05;-0.0012063528554603906
1.11375e-05;-0.0011825588442475052
1.11378e-05;-0.001158764833034781
1.11380e-05;-0.0011358232448416767
1.11383e-05;-0.0011185392172304608
1.11385e-05;-0.0011012551896193619
1.11388e-05;-0.0010847180591829373
1.11390e-05;-0.0010731381107054903
1.11393e-05;-0.001062087874734622
1.11395e-05;-0.001055133728957805
1.11398e-05;-0.0010499011050213588
1.11400e-05;-0.0010470988384824753
1.11403e-05;-0.001045761475262401
1.11405e-05;-0.001049116112699568
1.11408e-05;-0.0010547054225050543
1.11410e-05;-0.0010628199921180754
1.11413e-05;-0.001069178267752487
1.11415e-05;-0.0010803686317182896
1.11418e-05;-0.0010902636043400304
1.11420e-05;-0.0011062991739697811
1.11422e-05;-0.0011237385384253033
1.11425e-05;-0.0011415081566947926
1.11428e-05;-0.0011632688578966488
1.11430e-05;-0.0011851453169747477
1.11433e-05;-0.0012084206979288941
1.11435e-05;-0.0012316960788830405
1.11438e-05;-0.0012552851609241582
1.11440e-05;-0.0012826652879180758
1.11443e-05;-0.001310045414912179
1.11445e-05;-0.0013374255419062822
1.11448e-05;-0.0013648056689002
