Time(s);Current(A)
4.25000e-06;0.002041797729604698
4.25025e-06;0.002016686412502215
4.25050e-06;0.0019915750953998163
4.25075e-06;0.001966463778297418
4.25100e-06;0.001941352461194935
4.25125e-06;0.001916241144092537
4.25150e-06;0.0018912941339889581
4.25175e-06;0.0018665239623924205
4.25200e-06;0.0018417537907959667
4.25225e-06;0.001816983619199429
4.25250e-06;0.0017922134476029753
4.25275e-06;0.0017674432760065215
4.25300e-06;0.0017426731044099838
4.25325e-06;0.00171790293281353
4.25350e-06;0.0016931327612170763
4.25375e-06;0.0016683625896205386
4.25400e-06;0.0016435924180240849
4.25425e-06;0.0016188222464276311
4.25450e-06;0.0015940520748310935
4.25475e-06;0.0015748434870100237
4.25500e-06;0.0015616206586458808
4.25525e-06;0.001548397830281693
4.25550e-06;0.00153517500191755
4.25575e-06;0.001521952173553407
4.25600e-06;0.0015087293451892191
4.25625e-06;0.0014955065168250762
4.25650e-06;0.0014822836884608884
4.25675e-06;0.0014690608600967452
4.25700e-06;0.0014558380317326023
4.25725e-06;0.0014426152033684145
4.25750e-06;0.0014293923750042716
4.25775e-06;0.0014161695466401285
4.25800e-06;0.0014062480678700107
4.25825e-06;0.001399879728879914
4.25850e-06;0.001393511389889817
4.25875e-06;0.0013871430508996987
4.25900e-06;0.0013807747119096018
4.25925e-06;0.0013744063729195048
4.25950e-06;0.0013680380339293865
4.25975e-06;0.0013616696949392897
4.26000e-06;0.0013553013559491928
4.26025e-06;0.0013489330169590744
4.26050e-06;0.0013425646779689775
4.26075e-06;0.001336196338978859
4.26100e-06;0.0013298279999887622
4.26125e-06;0.001324993532280054
4.26150e-06;0.001321809922474042
4.26175e-06;0.0013186263126680408
4.26200e-06;0.0013154427028620396
4.26225e-06;0.0013122590930560278
4.26250e-06;0.0013090754832500266
4.26275e-06;0.0013058918734440254
4.26300e-06;0.0013027082636380134
4.26325e-06;0.0012995246538320122
4.26350e-06;0.001296341044026011
4.26375e-06;0.001293157434219999
4.26400e-06;0.0012899738244139978
4.26425e-06;0.0012867902146079966
4.26450e-06;0.0012846029034455399
4.26475e-06;0.0012834878774930815
4.26500e-06;0.0012823728515406194
4.26525e-06;0.001284693613988246
4.26550e-06;0.001290712208516484
4.26575e-06;0.0012967308030447423
4.26600e-06;0.001306577709733801
4.26625e-06;0.0013205449096057385
4.26650e-06;0.0013345121094777233
4.26675e-06;0.0013523840629056762
4.26700e-06;0.0013744585810100706
4.26725e-06;0.0013965330991145396
4.26750e-06;0.001423383840059555
4.26775e-06;0.001455375080938455
4.26800e-06;0.0014873663218174633
4.26825e-06;0.0015232562233686135
4.26850e-06;0.0015633421320149982
4.26875e-06;0.001603428040661519
4.26900e-06;0.001647135869701874
4.26925e-06;0.0016947418588924745
4.26950e-06;0.001742347848082914
4.26975e-06;0.0017939490402504878
4.27000e-06;0.001849850144990234
4.27025e-06;0.0019057512497297907
4.27050e-06;0.0019616523544693475
4.27075e-06;0.0020175534592090935
4.27100e-06;0.00207345456394865
4.27125e-06;0.002131130912624552
4.27150e-06;0.0021907179010763342
4.27175e-06;0.0022503048895279147
4.27200e-06;0.0023098918779794948
4.27225e-06;0.002369478866431277
4.27250e-06;0.002429065854882857
4.27275e-06;0.002482021028138517
4.27300e-06;0.0025278385851836773
4.27325e-06;0.0025736561422286816
4.27350e-06;0.0026194736992738417
4.27375e-06;0.002665291256318846
4.27400e-06;0.002711108813363851
4.27425e-06;0.0027569263704090106
4.27450e-06;0.0028027439274540154
4.27475e-06;0.00284856148449902
4.27500e-06;0.0028943790415441794
4.27525e-06;0.0029401965985891843
4.27550e-06;0.0029700396540902033
4.27575e-06;0.0029826898509540925
4.27600e-06;0.002995340047817939
4.27625e-06;0.003007990244681785
4.27650e-06;0.0030206404415456744
4.27675e-06;0.0030332906384095207
4.27700e-06;0.003045940835273367
4.27725e-06;0.0030585910321372562
4.27750e-06;0.0030712412290011025
4.27775e-06;0.0030838914258649918
4.27800e-06;0.003096541622728838
4.27825e-06;0.0030966481851273002
4.27850e-06;0.0030832544243041007
4.27875e-06;0.003069860663480946
4.27900e-06;0.003056466902657792
4.27925e-06;0.0030430731418345926
4.27950e-06;0.003029679381011438
4.27975e-06;0.0030162856201882836
4.28000e-06;0.003002891859365084
4.28025e-06;0.0029894980985419295
4.28050e-06;0.0029641939435586084
4.28075e-06;0.0029386669396251255
4.28100e-06;0.002913139935691729
4.28125e-06;0.0028876129317583323
4.28150e-06;0.002862085927824849
4.28175e-06;0.0028365589238914524
4.28200e-06;0.0028110319199579695
4.28225e-06;0.002785504916024573
4.28250e-06;0.002761431062683724
4.28275e-06;0.002738921190080728
4.28300e-06;0.0027164113174778085
4.28325e-06;0.002693901444874889
4.28350e-06;0.0026713915722718926
4.28375e-06;0.002648881699668973
4.28400e-06;0.0026263718270660534
4.28425e-06;0.002603861954463057
4.28450e-06;0.0025813520818601375
4.28475e-06;0.002558842209257218
4.28500e-06;0.002536332336654222
4.28525e-06;0.002513822464051302
4.28550e-06;0.002499896287293536
4.28575e-06;0.002495208475114193
4.28600e-06;0.002490520662934866
4.28625e-06;0.002485832850755523
4.28650e-06;0.002481145038576196
4.28675e-06;0.002476457226396869
4.28700e-06;0.002471769414217526
4.28725e-06;0.002467081602038199
4.28750e-06;0.002462393789858872
4.28775e-06;0.0024577059776795295
4.28800e-06;0.0024530181655002025
4.28825e-06;0.0024483303533208755
4.28850e-06;0.002450782911306933
4.28875e-06;0.0024609204273808158
4.28900e-06;0.002471057943454698
4.28925e-06;0.002481195459528615
4.28950e-06;0.002491332975602498
4.28975e-06;0.00250147049167638
4.29000e-06;0.002511608007750297
4.29025e-06;0.00252174552382418
4.29050e-06;0.0025318830398980965
4.29075e-06;0.0025420205559719793
4.29100e-06;0.0025546524239231567
4.29125e-06;0.0025699688851361416
4.29150e-06;0.0025852853463490745
4.29175e-06;0.002600601807562008
4.29200e-06;0.0026159182687749928
4.29225e-06;0.0026312347299879257
4.29250e-06;0.0026465511912008586
4.29275e-06;0.0026618676524138435
4.29300e-06;0.002677184113626777
4.29325e-06;0.0026925005748397097
4.29350e-06;0.0027062875689568174
4.29375e-06;0.0027184284452599337
4.29400e-06;0.00273056932156305
4.29425e-06;0.002742710197866208
4.29450e-06;0.0027548510741693243
4.29475e-06;0.002766991950472482
4.29500e-06;0.002772376098964459
4.29525e-06;0.0027704881916903916
4.29550e-06;0.002768600284416318
4.29575e-06;0.0027667123771422508
4.29600e-06;0.0027648244698681834
4.29625e-06;0.0027629365625941094
4.29650e-06;0.0027536087769276314
4.29675e-06;0.002736273681795241
4.29700e-06;0.0027189385866627914
4.29725e-06;0.0026958361097471017
4.29750e-06;0.0026665263793911632
4.29775e-06;0.0026372166490351255
4.29800e-06;0.00260267358003184
4.29825e-06;0.0025624980315876486
4.29850e-06;0.002522322483143321
4.29875e-06;0.0024776461251576542
4.29900e-06;0.002428125685999603
4.29925e-06;0.0023786052468417196
4.29950e-06;0.0023235607674567506
4.29975e-06;0.002262570935571842
4.30000e-06;0.00220158110368714
4.30025e-06;0.002140591271802438
4.30050e-06;0.002079601439917529
4.30075e-06;0.0020186116080328272
4.30100e-06;0.0019543708207976312
4.30125e-06;0.0018866311315404057
4.30150e-06;0.0018188914422834098
4.30175e-06;0.0017511517530264138
4.30200e-06;0.0016834120637691883
4.30225e-06;0.0016156723745121924
4.30250e-06;0.0015495872925843969
4.30275e-06;0.0014852830130068022
4.30300e-06;0.0014209787334294255
4.30325e-06;0.0013566744538518309
4.30350e-06;0.0012923701742744542
4.30375e-06;0.0012389703467466013
4.30400e-06;0.0011857745465280838
4.30425e-06;0.0011325787463097464
4.30450e-06;0.0010793829460914092
4.30475e-06;0.0010316252097780146
4.30500e-06;0.0009897202923255302
4.30525e-06;0.0009494042158136583
4.30550e-06;0.0009107981593356531
4.30575e-06;0.0008762849435958508
4.30600e-06;0.0008485590446966457
4.30625e-06;0.0008095632738072341
4.30650e-06;0.0007825930513979661
4.30675e-06;0.0007492352349738046
4.30700e-06;0.0007262723425114084
4.30725e-06;0.0006975833882318901
4.30750e-06;0.0006751626549674512
4.30775e-06;0.0006501397408043582
4.30800e-06;0.0006273426410076914
4.30825e-06;0.000606361967696461
4.30850e-06;0.0005855465649335107
4.30875e-06;0.000571477778360705
4.30900e-06;0.0005510513645665116
4.30925e-06;0.0005345665454053969
4.30950e-06;0.0005191117905511549
4.30975e-06;0.0005036570356968605
4.31000e-06;0.0004891509500798381
4.31025e-06;0.0004753637379967219
4.31050e-06;0.00046157652591355907
4.31075e-06;0.000449189488009572
4.31100e-06;0.0004378634607515832
4.31125e-06;0.00042653743349355594
4.31150e-06;0.00041596047240550636
4.31175e-06;0.00040595113154117665
4.31200e-06;0.0003959417906768809
4.31225e-06;0.00038681324539717644
4.31250e-06;0.0003783521410016589
4.31275e-06;0.00036989103660617
4.31300e-06;0.00036223522677330725
4.31325e-06;0.00035518964537971864
4.31350e-06;0.0003481440639861539
4.31375e-06;0.0003416027720209168
4.31400e-06;0.00033544361569282874
4.31425e-06;0.00032928445936476156
4.31450e-06;0.0003239447926745136
4.31475e-06;0.00031922611103233283
4.31500e-06;0.000314507429390168
4.31525e-06;0.0003112263744078184
4.31550e-06;0.0003090347104552667
4.31575e-06;0.0003081337579977515
4.31600e-06;0.0003082108685965469
4.31625e-06;0.0003095136621237566
4.31650e-06;0.00031174524197977236
4.31675e-06;0.0003152457605580563
4.31700e-06;0.00031970784342836086
4.31725e-06;0.0003256558145584072
4.31750e-06;0.0003327297479334992
4.31775e-06;0.00034118905883281545
4.31800e-06;0.0003506981679098593
4.31825e-06;0.0003614231000779627
4.31850e-06;0.0003730693470811902
4.31875e-06;0.0003858296646468176
4.31900e-06;0.0003994341919862029
4.31925e-06;0.0004144019211841422
4.31950e-06;0.00043040264449519894
4.31975e-06;0.0004464033678063098
4.32000e-06;0.00046395795613625603
4.32025e-06;0.00048269001749195404
4.32050e-06;0.0005014220788475886
4.32075e-06;0.000520154140203223
4.32100e-06;0.0005388862015589211
4.32125e-06;0.0005577088963772323
4.32150e-06;0.0005777563450373884
4.32175e-06;0.0005978037936976126
4.32200e-06;0.0006178512423577687
4.32225e-06;0.000637898691017925
4.32250e-06;0.000657946139678149
4.32275e-06;0.0006768842170220902
4.32300e-06;0.0006949816455423793
4.32325e-06;0.0007130790740627298
4.32350e-06;0.0007311765025830191
4.32375e-06;0.0007492739311033082
4.32400e-06;0.0007670976128768489
4.32425e-06;0.0007812220827931048
4.32450e-06;0.0007953465527093606
4.32475e-06;0.0008094710226256644
4.32500e-06;0.0008235954925419204
4.32525e-06;0.0008377199624582241
4.32550e-06;0.0008548403237640522
4.32575e-06;0.0008742308830959895
4.32600e-06;0.0008936214424279924
4.32625e-06;0.0009130120017599297
4.32650e-06;0.000932402561091867
4.32675e-06;0.0009517931204238699
4.32700e-06;0.0009711836797558072
4.32725e-06;0.0009905742390877445
4.32750e-06;0.0010099647984197473
4.32775e-06;0.0010293553577516846
4.32800e-06;0.001048745917083622
4.32825e-06;0.0010741564606930793
4.32850e-06;0.001104128770617064
4.32875e-06;0.0011341010805410489
4.32900e-06;0.0011640733904651351
4.32925e-06;0.0011940457003891199
4.32950e-06;0.0012240180103132063
4.32975e-06;0.0012539903202371911
4.33000e-06;0.0012839626301611759
4.33025e-06;0.0013139349400852621
4.33050e-06;0.001343907250009247
4.33075e-06;0.0013738795599332319
4.33100e-06;0.0014058921830525852
4.33125e-06;0.0014394508952604306
4.33150e-06;0.0014730096074682757
4.33175e-06;0.0015065683196762347
4.33200e-06;0.00154012703188408
4.33225e-06;0.0015736857440919252
4.33250e-06;0.0016072444562998842
4.33275e-06;0.0016380513738659108
4.33300e-06;0.0016667730627133676
4.33325e-06;0.0016954947515609214
4.33350e-06;0.0017242164404083782
4.33375e-06;0.001752938129255932
4.33400e-06;0.0017816598181033887
4.33425e-06;0.0018103815069508455
4.33450e-06;0.0018343395606827547
4.33475e-06;0.0018546878723950991
4.33500e-06;0.0018750361841074435
4.33525e-06;0.001890585015064423
4.33550e-06;0.001902496941234613
4.33575e-06;0.0019144088674048032
4.33600e-06;0.0019211514902697767
4.33625e-06;0.0019239769677407309
4.33650e-06;0.001926802445211685
4.33675e-06;0.00192430503440369
4.33700e-06;0.0019177740960440916
4.33725e-06;0.0019112431576844935
4.33750e-06;0.00189931725185384
4.33775e-06;0.001883303198988434
4.33800e-06;0.001867289146122974
4.33825e-06;0.0018464673780338322
4.33850e-06;0.0018220024653212582
4.33875e-06;0.0017975375526086013
4.33900e-06;0.0017701424717242963
4.33925e-06;0.0017363225272471487
4.33950e-06;0.0016993165605625527
4.33975e-06;0.001662310593878082
4.34000e-06;0.0016253046271936114
4.34025e-06;0.0015882986605090157
4.34050e-06;0.001551292693824545
4.34075e-06;0.001510099466952209
4.34100e-06;0.001465733257960402
4.34125e-06;0.0014213670489687455
4.34150e-06;0.0013770008399770887
4.34175e-06;0.0013326346309852817
4.34200e-06;0.001288268421993625
4.34225e-06;0.0012441411693211498
4.34250e-06;0.0012001949906911553
4.34275e-06;0.0011562488120611608
4.34300e-06;0.0011123026334310176
4.34325e-06;0.0010683564548010231
4.34350e-06;0.0010286245246629068
4.34375e-06;0.0009920860275836193
4.34400e-06;0.0009555475305044555
4.34425e-06;0.0009190090334252918
4.34450e-06;0.0008824705363460041
4.34475e-06;0.0008511524415316923
4.34500e-06;0.00082379021339332
4.34525e-06;0.0008001402016222924
4.34550e-06;0.0007793031977914721
4.34575e-06;0.0007623240478257721
4.34600e-06;0.0007482682655951536
4.34625e-06;0.0007381850623572214
4.34650e-06;0.0007311121621681107
4.34675e-06;0.000728109346567851
4.34700e-06;0.0007281907208778081
4.34725e-06;0.000732285073850114
4.34750e-06;0.0007394203435478696
4.34775e-06;0.0007503518079428539
4.34800e-06;0.0007641599165762849
4.34825e-06;0.0007815280970835341
4.34850e-06;0.0008015939949264033
4.34875e-06;0.000824973029941032
4.34900e-06;0.0008508626624659545
4.34925e-06;0.0008797217038255987
4.34950e-06;0.0009108308755123982
4.34975e-06;0.0009450022041825601
4.35000e-06;0.0009814939449879676
4.35025e-06;0.0010179856857934985
4.35050e-06;0.001057940850341099
4.35075e-06;0.001100520495124233
4.35100e-06;0.001143100139907223
4.35125e-06;0.0011856797846902126
4.35150e-06;0.0012282594294733466
4.35175e-06;0.0012709538503910894
4.35200e-06;0.001315199271430863
4.35225e-06;0.0013594446924707865
4.35250e-06;0.00140369011351056
4.35275e-06;0.0014479355345503337
4.35300e-06;0.0014921809555902572
4.35325e-06;0.001532372328983883
4.35350e-06;0.0015694916647892593
4.35375e-06;0.0016066110005947616
4.35400e-06;0.001643730336400138
4.35425e-06;0.0016808496722055142
4.35450e-06;0.0017179690080110165
4.35475e-06;0.0017453764729539799
4.35500e-06;0.0017654245689539543
4.35525e-06;0.0017854726649538608
4.35550e-06;0.0018055207609537674
4.35575e-06;0.0018255688569537418
4.35600e-06;0.001845616952953648
4.35625e-06;0.0018564317927567903
4.35650e-06;0.0018602499436769758
4.35675e-06;0.0018640680945971482
4.35700e-06;0.0018615057468687982
4.35725e-06;0.0018541084456841386
4.35750e-06;0.0018467111444995044
4.35775e-06;0.0018332902084150257
4.35800e-06;0.0018153047396846343
4.35825e-06;0.0017973192709543038
4.35850e-06;0.0017739126080812088
4.35875e-06;0.0017463979243775342
4.35900e-06;0.0017188832406739526
4.35925e-06;0.0016866714220436943
4.35950e-06;0.0016509002532752884
4.35975e-06;0.0016151290845068825
4.36000e-06;0.0015746380542414771
4.36025e-06;0.0015305704523141616
4.36050e-06;0.0014865028503868458
4.36075e-06;0.0014424352484593808
4.36100e-06;0.0013983676465320653
4.36125e-06;0.001353983869525045
4.36150e-06;0.001305327535440352
4.36175e-06;0.0012566712013558237
4.36200e-06;0.0012080148672712952
4.36225e-06;0.0011593585331866022
4.36250e-06;0.0011107021991020737
4.36275e-06;0.0010631099367243903
4.36300e-06;0.001016323996463295
4.36325e-06;0.0009695380562023582
4.36350e-06;0.000925447745266307
4.36375e-06;0.0008834001026292628
4.36400e-06;0.0008413524599922186
4.36425e-06;0.0008027655788938639
4.36450e-06;0.0007668011606912253
4.36475e-06;0.0007338716186572503
4.36500e-06;0.0007032418161619054
4.36525e-06;0.0006743810721526257
4.36550e-06;0.0006468608684225343
4.36575e-06;0.0006210126977421496
4.36600e-06;0.0005964315443307314
4.36625e-06;0.0005739433256095447
4.36650e-06;0.0005530410709907696
4.36675e-06;0.0005342843699763291
4.36700e-06;0.00051715350612353
4.36725e-06;0.0005013376101253068
4.36750e-06;0.0004865181579354664
4.36775e-06;0.0004729153318633309
4.36800e-06;0.0004602344291354513
4.36825e-06;0.0004489962002671975
4.36850e-06;0.00043885118704655487
4.36875e-06;0.00043037682158656695
4.36900e-06;0.00042316842366415044
4.36925e-06;0.0004159600257417095
4.36950e-06;0.0004099805725248636
4.36975e-06;0.0004049323773142677
4.37000e-06;0.0003998841821036547
4.37025e-06;0.00039614750256283587
4.37050e-06;0.0003934046508665483
4.37075e-06;0.0003906617991702514
4.37100e-06;0.0003888966746707971
4.37125e-06;0.0003878724429680869
4.37150e-06;0.0003868482112653732
4.37175e-06;0.0003866343599584197
4.37200e-06;0.00038703459098422366
4.37225e-06;0.00038743482201002627
4.37250e-06;0.0003878350530358288
4.37275e-06;0.0003882352840616328
4.37300e-06;0.0003886355150874354
4.37325e-06;0.0003893811770866289
4.37350e-06;0.0003903885964766153
4.37375e-06;0.0003913960158665983
4.37400e-06;0.00039240343525658136
4.37425e-06;0.0003934108546465678
4.37450e-06;0.0003944182740365508
4.37475e-06;0.00039457071146429537
4.37500e-06;0.0003940752688093561
4.37525e-06;0.0003935798261544185
4.37550e-06;0.00039308438349948096
4.37575e-06;0.0003925889408445417
4.37600e-06;0.00039209349818960414
4.37625e-06;0.00039159805553466487
4.37650e-06;0.00039110261287972727
4.37675e-06;0.00039060717022478973
4.37700e-06;0.00039011172756985046
4.37725e-06;0.0003896162849149129
4.37750e-06;0.0003891208422599753
4.37775e-06;0.0003884494586801532
4.37800e-06;0.00038540053907319975
4.37825e-06;0.0003823516194662463
4.37850e-06;0.00037930269985928254
4.37875e-06;0.0003762537802523291
4.37900e-06;0.00037320486064537563
4.37925e-06;0.00037015594103841185
4.37950e-06;0.0003671070214314584
4.37975e-06;0.000364058101824505
4.38000e-06;0.0003610091822175412
4.38025e-06;0.00035796026261058773
4.38050e-06;0.00035491134300362395
4.38075e-06;0.0003518624233966705
4.38100e-06;0.00034825175377846873
4.38125e-06;0.00034421540659071
4.38150e-06;0.0003401790594029649
4.38175e-06;0.00033614271221521985
4.38200e-06;0.0003321063650274611
4.38225e-06;0.000328070017839716
4.38250e-06;0.0003241882407815797
4.38275e-06;0.00032042359240305073
4.38300e-06;0.00031665894402453453
4.38325e-06;0.0003128942956460183
4.38350e-06;0.0003091296472674893
4.38375e-06;0.000305364998888973
4.38400e-06;0.0003018773255681938
4.38425e-06;0.00029871646300749804
4.38450e-06;0.0002957761160012103
4.38475e-06;0.00029339201213372416
4.38500e-06;0.00029270068155610806
4.38525e-06;0.0002951825366835899
4.38550e-06;0.0003016206605766509
4.38575e-06;0.0003120282463650245
4.38600e-06;0.00032619844458973274
4.38625e-06;0.0003439244268743735
4.38650e-06;0.0003649995013109466
4.38675e-06;0.00038941084175295095
4.38700e-06;0.00041764721425318344
4.38725e-06;0.00045041274073148073
4.38750e-06;0.0004879746869323069
4.38775e-06;0.0005301180268184532
4.38800e-06;0.0005764899797994499
4.38825e-06;0.0006267377332000232
4.38850e-06;0.0006805085726591419
4.38875e-06;0.0007385620842973121
4.38900e-06;0.0007987596323069712
4.38925e-06;0.0008630151781202882
4.38950e-06;0.0009303457548325538
4.38975e-06;0.0010017146262313451
4.39000e-06;0.0010761435980881776
4.39025e-06;0.0011505725699450101
4.39050e-06;0.0012286523208700027
4.39075e-06;0.0013094985243610946
4.39100e-06;0.0013903447278521862
4.39125e-06;0.0014711909313435518
4.39150e-06;0.0015520371348346435
4.39175e-06;0.001633426137690888
4.39200e-06;0.0017152264578768862
4.39225e-06;0.0017970267780626071
4.39250e-06;0.001878827098248328
4.39275e-06;0.001960627418434326
4.39300e-06;0.0020387231507242743
4.39325e-06;0.0021140116557075176
4.39350e-06;0.0021893001606905055
4.39375e-06;0.002259166897544737
4.39400e-06;0.0023249251786219075
4.39425e-06;0.002390683459698855
4.39450e-06;0.0024483171685165555
4.39475e-06;0.00249979431640388
4.39500e-06;0.002551271464291031
4.39525e-06;0.0025927201337372268
4.39550e-06;0.0026265695183730286
4.39575e-06;0.0026604189030087154
4.39600e-06;0.0026836080731664842
4.39625e-06;0.002698719247600959
4.39650e-06;0.0027138304220353823
4.39675e-06;0.0027179076740091305
4.39700e-06;0.002713623745386314
4.39725e-06;0.0027093398167635117
