Time(s);Current(A)
1.15500e-05;0.0019977914598215134
1.15503e-05;0.0020035114314105483
1.15505e-05;0.002009231402999622
1.15508e-05;0.002014951374588696
1.15510e-05;0.002020671346177731
1.15513e-05;0.002026391317766805
1.15515e-05;0.0020321112893558787
1.15517e-05;0.0020378312609449136
1.15520e-05;0.0020435512325339875
1.15523e-05;0.0020492712041230614
1.15525e-05;0.0020541881760302717
1.15528e-05;0.0020497283473839205
1.15530e-05;0.0020452685187375697
1.15532e-05;0.0020408086900912488
1.15535e-05;0.0020363488614448975
1.15538e-05;0.0020318890327985467
1.15540e-05;0.0020274292041521954
1.15543e-05;0.0020229693755058746
1.15545e-05;0.0020185095468595237
1.15548e-05;0.0020140497182131725
1.15550e-05;0.0020095898895668516
1.15553e-05;0.0020048314390431177
1.15555e-05;0.0019965859164210987
1.15558e-05;0.0019883403937991356
1.15560e-05;0.0019800948711771165
1.15563e-05;0.0019718493485550975
1.15565e-05;0.0019636038259331343
1.15568e-05;0.0019553583033111153
1.15570e-05;0.001947112780689096
1.15573e-05;0.001938867258067133
1.15575e-05;0.0019306217354451139
1.15578e-05;0.0019223762128230948
1.15580e-05;0.0019141306902011315
1.15583e-05;0.0019058851675791124
1.15585e-05;0.0018976396449570934
1.15588e-05;0.0018893941223351303
1.15590e-05;0.0018811485997131112
1.15593e-05;0.0018729030770910922
1.15595e-05;0.001864657554469129
1.15598e-05;0.00185641203184711
1.15600e-05;0.001848166509225091
1.15602e-05;0.0018399209866031279
1.15605e-05;0.0018316754639811088
1.15608e-05;0.0018234299413590897
1.15610e-05;0.0018151844187371264
1.15613e-05;0.0018069388961151074
1.15615e-05;0.0017986933734930883
1.15617e-05;0.0017906101560777675
1.15620e-05;0.0017844222115838662
1.15623e-05;0.001778234267089965
1.15625e-05;0.0017720463225960638
1.15628e-05;0.0017658583781022044
1.15630e-05;0.0017596704336083032
1.15633e-05;0.0017534824891144018
1.15635e-05;0.0017472945446205426
1.15638e-05;0.0017411066001266412
1.15640e-05;0.00173491865563274
1.15643e-05;0.0017287307111388806
1.15645e-05;0.0017225427666449794
1.15648e-05;0.0017163548221510781
1.15650e-05;0.0017101668776572188
1.15653e-05;0.0017039789331633175
1.15655e-05;0.001697790988669416
1.15658e-05;0.001691603044175557
1.15660e-05;0.0016854150996816555
1.15663e-05;0.0016792271551877543
1.15665e-05;0.001673039210693895
1.15668e-05;0.0016668512661999937
1.15670e-05;0.0016606633217060925
1.15673e-05;0.001654475377212233
1.15675e-05;0.0016482874327183319
1.15678e-05;0.0016420994882244307
1.15680e-05;0.0016359115437305713
1.15683e-05;0.0016295922693269512
1.15685e-05;0.0016217394272269867
1.15687e-05;0.0016138865851270752
1.15690e-05;0.0016060337430271105
1.15693e-05;0.001598180900927146
1.15695e-05;0.0015893310823831656
1.15698e-05;0.0015688393547553519
1.15700e-05;0.001548347627127538
1.15702e-05;0.001527855899499863
1.15705e-05;0.0015073641718720493
1.15708e-05;0.0014860619734131998
1.15710e-05;0.0014552957321607774
1.15713e-05;0.0014239268817577203
1.15715e-05;0.0013855212342563708
1.15718e-05;0.0013465384054292776
1.15720e-05;0.0013008157057054495
1.15723e-05;0.0012546107129606848
1.15725e-05;0.0012027738805341964
1.15728e-05;0.0011505079340456271
1.15730e-05;0.001093231130045488
1.15733e-05;0.0010354896208333633
1.15735e-05;0.0009723216485764305
1.15738e-05;0.0009087636039317856
1.15740e-05;0.0008406505998415211
1.15743e-05;0.0007722193630158477
1.15745e-05;0.0007000720538566086
1.15748e-05;0.0006279247446973695
1.15750e-05;0.0005555345029279986
1.15753e-05;0.0004803074846374889
1.15755e-05;0.0004050804663469791
1.15758e-05;0.0003297992964623422
1.15760e-05;0.00025388578672029576
1.15763e-05;0.00017797227697824937
1.15765e-05;0.00010217547329207435
1.15768e-05;2.7849463682342248e-05
1.15770e-05;-4.508933925330789e-05
1.15772e-05;-0.00011642384498114788
1.15775e-05;-0.00018591296389341383
1.15778e-05;-0.0002531729050018253
1.15780e-05;-0.00031775439839985917
1.15783e-05;-0.00037920832488504467
1.15785e-05;-0.0004370855411118158
1.15787e-05;-0.0004909603864563112
1.15790e-05;-0.0005407287826404187
1.15793e-05;-0.0005868734674016181
1.15795e-05;-0.000629932192841986
1.15798e-05;-0.0006699617275310735
1.15800e-05;-0.0007066302615386907
1.15803e-05;-0.0007385209001769785
1.15805e-05;-0.0007698232988194989
1.15808e-05;-0.0007942566920836882
1.15810e-05;-0.0008181575794900389
1.15813e-05;-0.0008358402810720081
1.15815e-05;-0.0008530748114978202
1.15818e-05;-0.0008650759506096371
1.15820e-05;-0.0008766267031578417
1.15823e-05;-0.0008829181946030169
1.15825e-05;-0.0008887550661052917
1.15828e-05;-0.0008892832424204186
1.15830e-05;-0.0008894204670729577
1.15833e-05;-0.000884992464788103
1.15835e-05;-0.0008801836152406586
1.15838e-05;-0.0008709275300149464
1.15840e-05;-0.000861671444789234
1.15843e-05;-0.0008520116549605598
1.15845e-05;-0.0008376377193567127
1.15848e-05;-0.0008232637837528655
1.15850e-05;-0.0008085746297448942
1.15853e-05;-0.0007902046024014621
1.15855e-05;-0.0007718345750580299
1.15857e-05;-0.0007534645477147223
1.15860e-05;-0.0007350945203712903
1.15863e-05;-0.0007159179686620426
1.15865e-05;-0.0006961546956821554
1.15868e-05;-0.0006763914227021343
1.15870e-05;-0.0006566281497221132
1.15872e-05;-0.0006370068393273717
1.15875e-05;-0.0006190432566775447
1.15878e-05;-0.0006010796740277177
1.15880e-05;-0.000583343433489886
1.15883e-05;-0.0005682619158588001
1.15885e-05;-0.0005534179987084484
1.15888e-05;-0.0005413485936519122
1.15890e-05;-0.0005292791885954578
1.15893e-05;-0.0005166430951735138
1.15895e-05;-0.000503594753675735
1.15898e-05;-0.0004903232267670871
1.15900e-05;-0.0004744455156460941
1.15903e-05;-0.00045844517886172673
1.15905e-05;-0.000441012915740836
1.15908e-05;-0.0004234572360675383
1.15910e-05;-0.0004044603946769211
1.15913e-05;-0.0003852582860437823
1.15915e-05;-0.0003635015662770797
1.15918e-05;-0.00033970647024078777
1.15920e-05;-0.00031360708640994044
1.15923e-05;-0.00028734953397702026
1.15925e-05;-0.00025916567006903005
1.15928e-05;-0.00022998075218170973
1.15930e-05;-0.00019982643922459526
1.15933e-05;-0.00016839600368375381
1.15935e-05;-0.0001354224601598063
1.15938e-05;-0.00010100074485975199
1.15940e-05;-6.539639041330494e-05
1.15942e-05;-2.8874888090221322e-05
1.15945e-05;8.298285869179627e-06
1.15948e-05;4.5880451960298405e-05
1.15950e-05;8.385882612645519e-05
1.15953e-05;0.00012189668837885916
1.15955e-05;0.0001606292058507066
1.15957e-05;0.00019936172332229155
1.15960e-05;0.0002380244286805994
1.15963e-05;0.0002758719229214496
1.15965e-05;0.00031371941716229983
1.15968e-05;0.0003513807988243419
1.15970e-05;0.0003868689037377256
1.15973e-05;0.00042216652724346376
1.15975e-05;0.0004552398582397977
1.15978e-05;0.00048805073693662605
1.15980e-05;0.0005177969034834551
1.15983e-05;0.0005471913724008079
1.15985e-05;0.0005724789921927329
1.15988e-05;0.0005973908812038532
1.15990e-05;0.0006179152807915987
1.15993e-05;0.0006382038462557923
1.15995e-05;0.0006557385257561784
1.15998e-05;0.0006729824007176071
1.16000e-05;0.000686830488312762
1.16003e-05;0.0007006785759079168
1.16005e-05;0.0007141072972338034
1.16008e-05;0.0007226389881194267
1.16010e-05;0.00073117067900505
1.16013e-05;0.0007394047140421654
1.16015e-05;0.0007441629574911977
1.16018e-05;0.00074892120094023
1.16020e-05;0.0007534031972573338
1.16023e-05;0.0007546593961900666
1.16025e-05;0.0007559155951227995
1.16027e-05;0.0007568945015880728
1.16030e-05;0.0007546354040603551
1.16033e-05;0.0007523763065326374
1.16035e-05;0.0007498258975407283
1.16038e-05;0.0007438737817048402
1.16040e-05;0.0007379216658689522
1.16042e-05;0.0007319695500331045
1.16045e-05;0.0007260174341972164
1.16048e-05;0.0007200653183613284
1.16050e-05;0.0007141132025254404
1.16053e-05;0.0007078986847327326
1.16055e-05;0.0006986200426525406
1.16058e-05;0.0006893414005723485
1.16060e-05;0.0006800627584922194
1.16063e-05;0.0006707841164120273
1.16065e-05;0.0006615054743318353
1.16068e-05;0.000652226832251706
1.16070e-05;0.0006428960126563364
1.16073e-05;0.0006329559049540588
1.16075e-05;0.0006230157972518485
1.16078e-05;0.0006130756895495709
1.16080e-05;0.0006031804926297782
1.16083e-05;0.0005938097286108738
1.16085e-05;0.0005844389645919061
1.16088e-05;0.0005750682005729383
1.16090e-05;0.0005655685365819579
1.16093e-05;0.000554328493074843
1.16095e-05;0.0005400836072589982
1.16098e-05;0.0005225775120482679
1.16100e-05;0.000502013764224128
1.16103e-05;0.00047859597648032955
1.16105e-05;0.0004525277837272527
1.16108e-05;0.0004239883403844279
1.16110e-05;0.0003928246491579513
1.16113e-05;0.0003583400129935743
1.16115e-05;0.00031993716938557974
1.16118e-05;0.00027764243099996
1.16120e-05;0.00023177032944955147
1.16123e-05;0.00018263530596160447
1.16125e-05;0.0001305518356630915
1.16127e-05;7.581902274372262e-05
1.16130e-05;1.852795249111824e-05
1.16133e-05;-4.157089807627242e-05
1.16135e-05;-0.00010466472905676724
1.16138e-05;-0.00017055010768537055
1.16140e-05;-0.0002388431211235185
1.16143e-05;-0.0003092105960511198
1.16145e-05;-0.0003817089507621984
1.16148e-05;-0.00045441602706775474
1.16150e-05;-0.0005295603904797673
1.16153e-05;-0.0006047047538912708
1.16155e-05;-0.0006799653511910853
1.16158e-05;-0.0007565832366884839
1.16160e-05;-0.0008332011221853634
1.16163e-05;-0.0009098190076827621
1.16165e-05;-0.0009861300569751175
1.16168e-05;-0.0010588581136680743
1.16170e-05;-0.001131586170361524
1.16173e-05;-0.0012043142270549735
1.16175e-05;-0.0012764417629751279
1.16178e-05;-0.001341556888204089
1.16180e-05;-0.0014066720134330505
1.16183e-05;-0.0014711108295325326
1.16185e-05;-0.001527652237944691
1.16188e-05;-0.001583397970011851
1.16190e-05;-0.001629852417643571
1.16193e-05;-0.0016763068652756055
1.16195e-05;-0.0017219012420575828
1.16198e-05;-0.001757452385867495
1.16200e-05;-0.001793003529677648
1.16203e-05;-0.001827611505350631
1.16205e-05;-0.0018512059030915305
1.16208e-05;-0.00187480030083259
1.16210e-05;-0.00189748552603355
1.16212e-05;-0.0019095541472268648
1.16215e-05;-0.0019216227684202612
1.16218e-05;-0.001932894678646876
1.16220e-05;-0.0019348632229338667
1.16223e-05;-0.001936831767220844
1.16225e-05;-0.0019380311159760703
1.16228e-05;-0.0019302484024659391
1.16230e-05;-0.0019224656889558606
1.16233e-05;-0.0019140637113326136
1.16235e-05;-0.0018984304529849037
1.16238e-05;-0.0018827971946372996
1.16240e-05;-0.0018664827417859023
1.16243e-05;-0.0018422138336701777
1.16245e-05;-0.0018179449255546173
1.16248e-05;-0.0017936760174388927
1.16250e-05;-0.0017694071093231679
1.16253e-05;-0.0017451382012076077
1.16255e-05;-0.0017204693520044524
1.16258e-05;-0.0016911303043899671
1.16260e-05;-0.001661791256775681
1.16263e-05;-0.001632452209161196
1.16265e-05;-0.0016031131615467109
1.16268e-05;-0.0015737741139324247
1.16270e-05;-0.0015450253030745997
1.16273e-05;-0.001523168814237213
1.16275e-05;-0.0015013123253999742
1.16278e-05;-0.0014794558365625874
1.16280e-05;-0.0014575993477252006
1.16283e-05;-0.0014357428588879619
1.16285e-05;-0.0014138863700505753
1.16288e-05;-0.0013920298812131885
1.16290e-05;-0.0013701733923759498
1.16293e-05;-0.001348316903538563
1.16295e-05;-0.0013264604147011762
1.16297e-05;-0.001313718016920671
1.16300e-05;-0.0013076058355608537
1.16303e-05;-0.0013014936542010366
1.16305e-05;-0.0012953814728412193
1.16308e-05;-0.0012892692914814434
1.16310e-05;-0.001283157110121626
1.16313e-05;-0.0012770449287618087
1.16315e-05;-0.001270932747402033
1.16318e-05;-0.0012648205660422158
1.16320e-05;-0.0012587083846823984
1.16323e-05;-0.00125343205661267
1.16325e-05;-0.0012579161678488748
1.16328e-05;-0.0012624002790850796
1.16330e-05;-0.0012668843903212539
1.16333e-05;-0.0012713685015574587
1.16335e-05;-0.0012758526127936635
1.16338e-05;-0.0012803367240298378
1.16340e-05;-0.0012848208352660426
1.16343e-05;-0.0012893049465022473
1.16345e-05;-0.0012941995771721258
1.16348e-05;-0.0013038879318903215
1.16350e-05;-0.0013135762866085174
1.16353e-05;-0.0013232646413266474
1.16355e-05;-0.0013329529960448433
1.16358e-05;-0.001342641350763039
1.16360e-05;-0.001352329705481169
1.16363e-05;-0.0013620180601993648
1.16365e-05;-0.0013717064149175605
1.16368e-05;-0.0013814477526887788
1.16370e-05;-0.0013918077850088096
1.16373e-05;-0.0014021678173288404
1.16375e-05;-0.001412527849648801
1.16378e-05;-0.0014228878819688318
1.16380e-05;-0.0014332479142888626
1.16382e-05;-0.0014436079466088234
1.16385e-05;-0.0014539679789288542
1.16388e-05;-0.001464328011248885
1.16390e-05;-0.0014718348086996823
1.16393e-05;-0.001477265966948638
1.16395e-05;-0.0014826971251976305
1.16398e-05;-0.0014881282834466232
1.16400e-05;-0.0014935594416955788
1.16403e-05;-0.0014989905999445714
1.16405e-05;-0.0015044217581935638
1.16408e-05;-0.0015098529164425196
1.16410e-05;-0.0015145905851090022
1.16413e-05;-0.001511230226208852
1.16415e-05;-0.0015078698673087244
1.16418e-05;-0.0015045095084085741
1.16420e-05;-0.0015011491495084239
1.16423e-05;-0.0014977887906082964
1.16425e-05;-0.0014944284317081461
1.16428e-05;-0.0014910680728079959
1.16430e-05;-0.0014877077139078684
1.16433e-05;-0.001484347355007718
1.16435e-05;-0.0014770188616602957
1.16438e-05;-0.0014668036745091766
1.16440e-05;-0.0014565884873579881
1.16443e-05;-0.0014463733002067999
1.16445e-05;-0.0014361581130556806
1.16448e-05;-0.0014259429259044923
1.16450e-05;-0.001415727738753304
1.16453e-05;-0.0014055125516021848
1.16455e-05;-0.0013952973644509965
1.16458e-05;-0.0013850080590880906
1.16460e-05;-0.001373853259366031
1.16463e-05;-0.001362698459643896
1.16465e-05;-0.0013515436599217609
1.16467e-05;-0.0013403888601997015
1.16470e-05;-0.0013292340604775664
1.16473e-05;-0.0013180792607554313
1.16475e-05;-0.0013069244610332963
1.16478e-05;-0.0012961942240288906
1.16480e-05;-0.001290421697536521
1.16483e-05;-0.0012846491710441514
1.16485e-05;-0.001278876644551821
1.16488e-05;-0.0012731041180594515
1.16490e-05;-0.0012673315915670818
1.16493e-05;-0.0012615590650747513
1.16495e-05;-0.0012557865385823817
1.16498e-05;-0.001250823859660543
1.16500e-05;-0.0012553179456571517
1.16503e-05;-0.001259812031653791
1.16505e-05;-0.0012643061176504304
1.16508e-05;-0.0012688002036470392
1.16510e-05;-0.0012732942896436785
1.16513e-05;-0.0012777883756403177
1.16515e-05;-0.0012822824616369266
1.16518e-05;-0.0012867765476335658
1.16520e-05;-0.0012912706336302051
1.16523e-05;-0.001295764719626814
1.16525e-05;-0.0013060132650876378
1.16528e-05;-0.001320447999979215
1.16530e-05;-0.0013348827348706946
1.16533e-05;-0.0013493174697622717
1.16535e-05;-0.001363752204653849
1.16538e-05;-0.0013781869395453283
1.16540e-05;-0.0013926216744369055
1.16543e-05;-0.0014070564093284828
1.16545e-05;-0.0014214911442199621
1.16548e-05;-0.0014359258791115394
1.16550e-05;-0.0014506767299377996
1.16552e-05;-0.0014691189347806396
1.16555e-05;-0.0014875611396236042
1.16558e-05;-0.001506003344466569
1.16560e-05;-0.001524445549309534
1.16563e-05;-0.0015428877541523737
1.16565e-05;-0.0015613299589953386
1.16568e-05;-0.0015797721638383033
1.16570e-05;-0.0015973307328862006
1.16573e-05;-0.0016142464845073277
1.16575e-05;-0.0016311622361284547
1.16578e-05;-0.0016480779877494672
1.16580e-05;-0.0016649937393705943
1.16583e-05;-0.0016819094909917216
1.16585e-05;-0.001698825242612734
1.16588e-05;-0.0017146799633312212
1.16590e-05;-0.0017181447971240103
1.16593e-05;-0.0017216096309167759
1.16595e-05;-0.001725074464709565
1.16598e-05;-0.001728539298502354
1.16600e-05;-0.0017320041322951194
1.16603e-05;-0.0017354689660879084
1.16605e-05;-0.0017389337998806975
1.16608e-05;-0.0017423986336734631
1.16610e-05;-0.001745863467466252
1.16613e-05;-0.001749328301259041
1.16615e-05;-0.0017527931350518066
1.16618e-05;-0.0017429342597663855
1.16620e-05;-0.0017233828024960304
1.16623e-05;-0.001703831345225808
1.16625e-05;-0.001684279887955453
1.16628e-05;-0.001664728430685098
1.16630e-05;-0.0016451769734148753
1.16633e-05;-0.0016256255161445203
1.16635e-05;-0.0016060740588741652
1.16637e-05;-0.0015865226016039426
1.16640e-05;-0.0015669711443335875
1.16643e-05;-0.0015474196870632327
1.16645e-05;-0.0015270029467079973
1.16648e-05;-0.001496482108954193
1.16650e-05;-0.0014659612712001819
1.16653e-05;-0.0014354404334461707
1.16655e-05;-0.0014049195956923664
1.16658e-05;-0.0013743987579383553
1.16660e-05;-0.0013438886383171068
1.16663e-05;-0.0013135036766464272
1.16665e-05;-0.0012831187149755416
1.16668e-05;-0.001252733753304656
1.16670e-05;-0.0012223487916339765
1.16673e-05;-0.0011919638299630912
1.16675e-05;-0.0011619386580867632
1.16678e-05;-0.0011361148293226784
1.16680e-05;-0.0011102910005584186
1.16683e-05;-0.0010849239114843982
1.16685e-05;-0.0010648902703870875
1.16688e-05;-0.0010448566292896413
1.16690e-05;-0.0010253793760599866
1.16693e-05;-0.0010123991840916933
1.16695e-05;-0.0009999629446306858
1.16698e-05;-0.0009938785560430414
1.16700e-05;-0.000988342780353255
1.16703e-05;-0.000989213275922219
1.16705e-05;-0.0009906349464559095
1.16708e-05;-0.0009984928060562182
1.16710e-05;-0.0010069300646804544
1.16713e-05;-0.0010221330908038507
1.16715e-05;-0.0010379160072434034
1.16718e-05;-0.0010604704281094756
1.16720e-05;-0.001083559705686456
1.16722e-05;-0.0011128946205568176
1.16725e-05;-0.001142718036175799
1.16728e-05;-0.0011782457805062647
1.16730e-05;-0.001214337519318755
1.16733e-05;-0.0012570151434695765
1.16735e-05;-0.0012996927676206871
1.16738e-05;-0.0013429293202792735
1.16740e-05;-0.0013926926017981507
1.16743e-05;-0.0014424558833173648
1.16745e-05;-0.0014927221793722828
1.16748e-05;-0.00154886228476717
1.16750e-05;-0.0016050023901624372
1.16753e-05;-0.0016611424955577047
1.16755e-05;-0.0017172826009525916
1.16758e-05;-0.001773422706347859
1.16760e-05;-0.0018296091340344223
1.16763e-05;-0.0018863364771177075
1.16765e-05;-0.0019430638202013774
1.16768e-05;-0.0019997911632850473
1.16770e-05;-0.0020565185063683325
1.16773e-05;-0.0021132458494520024
1.16775e-05;-0.0021689912444442946
1.16778e-05;-0.0022132702195544955
1.16780e-05;-0.0022575491946649965
1.16783e-05;-0.0023018281697754976
1.16785e-05;-0.0023461071448856985
1.16788e-05;-0.0023903861199961996
1.16790e-05;-0.0024346650951067006
1.16793e-05;-0.0024789440702169016
1.16795e-05;-0.002522060140168097
1.16798e-05;-0.002551596715479892
1.16800e-05;-0.002581133290791487
1.16803e-05;-0.002610669866103282
1.16805e-05;-0.0026402064414150768
1.16807e-05;-0.0026697430167266713
1.16810e-05;-0.002699279592038466
1.16813e-05;-0.002728816167350261
1.16815e-05;-0.002757484976142127
1.16818e-05;-0.0027760206879125547
1.16820e-05;-0.002794556399682982
1.16823e-05;-0.00281309211145341
1.16825e-05;-0.002831627823223712
1.16828e-05;-0.0028501635349941394
1.16830e-05;-0.0028686992467645673
1.16833e-05;-0.0028872349585348693
1.16835e-05;-0.0029057706703052967
1.16838e-05;-0.0029243063820757246
1.16840e-05;-0.0029428420938460266
1.16843e-05;-0.0029613778056164545
1.16845e-05;-0.002979913517386882
1.16848e-05;-0.002998449229157184
1.16850e-05;-0.0030169849409276118
1.16853e-05;-0.0030312443551531562
1.16855e-05;-0.003042392896548087
1.16858e-05;-0.003053541437943094
1.16860e-05;-0.0030646899793381004
1.16863e-05;-0.0030758385207330314
1.16865e-05;-0.0030869870621280378
1.16868e-05;-0.003098135603523044
1.16870e-05;-0.003109284144917975
1.16873e-05;-0.003120432686312982
1.16875e-05;-0.0031315812277079884
1.16878e-05;-0.0031427297691029193
1.16880e-05;-0.0031538783104979257
1.16883e-05;-0.003165026851892932
1.16885e-05;-0.003176175393287863
1.16888e-05;-0.0031866289195036485
1.16890e-05;-0.0031889666033950784
1.16892e-05;-0.0031913042872864926
1.16895e-05;-0.003193641971177923
1.16898e-05;-0.0031959796550693528
1.16900e-05;-0.003198317338960767
1.16903e-05;-0.0032006550228521973
1.16905e-05;-0.0032029927067436276
1.16908e-05;-0.0032053303906350574
1.16910e-05;-0.0032076680745264717
1.16913e-05;-0.003210005758417902
1.16915e-05;-0.003212343442309332
1.16918e-05;-0.0032146811262007465
1.16920e-05;-0.0032170188100921764
1.16923e-05;-0.0032193564939836067
1.16925e-05;-0.003214659658143069
1.16928e-05;-0.003204845429023619
1.16930e-05;-0.0031950311999041697
1.16933e-05;-0.003185216970784786
1.16935e-05;-0.0031754027416653363
1.16938e-05;-0.003165588512545887
1.16940e-05;-0.0031557742834265033
1.16943e-05;-0.003145960054307054
