Time(s);Current(A)
6.25000e-06;0.0028936500628790364
6.25025e-06;0.002880127239693066
6.25050e-06;0.00286660441650705
6.25075e-06;0.0028530815933210793
6.25100e-06;0.002839558770135063
6.25125e-06;0.0028260359469490927
6.25150e-06;0.002812513123763122
6.25175e-06;0.002798990300577106
6.25200e-06;0.0027782097082343186
6.25225e-06;0.002756269090576563
6.25250e-06;0.0027343284729187335
6.25275e-06;0.0027123878552609785
6.25300e-06;0.002690447237603223
6.25325e-06;0.002668506619945394
6.25350e-06;0.0026465660022876383
6.25375e-06;0.0026246253846298833
6.25400e-06;0.00260397913990661
6.25425e-06;0.0025856122261023696
6.25450e-06;0.0025672453122981297
6.25475e-06;0.002548878398493827
6.25500e-06;0.0025305114846895867
6.25525e-06;0.0025121445708852844
6.25550e-06;0.002493777657081044
6.25575e-06;0.0024754107432768038
6.25600e-06;0.0024570438294725014
6.25625e-06;0.0024536205572636594
6.25650e-06;0.0024525857603798027
6.25675e-06;0.0024515509634959426
6.25700e-06;0.002450516166612086
6.25725e-06;0.002449481369728229
6.25750e-06;0.0024484465728443687
6.25775e-06;0.002447411775960512
6.25800e-06;0.0024463769790766554
6.25825e-06;0.0024453421821927952
6.25850e-06;0.0024443073853089386
6.25875e-06;0.002443272588425082
6.25900e-06;0.002459600430165259
6.25925e-06;0.0024804845662675366
6.25950e-06;0.0025013687023698853
6.25975e-06;0.002522252838472163
6.26000e-06;0.0025431369745744403
6.26025e-06;0.0025640211106767886
6.26050e-06;0.002584905246779066
6.26075e-06;0.0026057893828813437
6.26100e-06;0.002626673518983692
6.26125e-06;0.0026475576550859694
6.26150e-06;0.002668441791188247
6.26175e-06;0.002696541965444337
6.26200e-06;0.002727419703471239
6.26225e-06;0.0027582974414981413
6.26250e-06;0.002789175179525148
6.26275e-06;0.00282005291755205
6.26300e-06;0.002850930655578952
6.26325e-06;0.0028818083936059586
6.26350e-06;0.0029126861316328607
6.26375e-06;0.002941142829327898
6.26400e-06;0.0029686676314632015
6.26425e-06;0.002996192433598505
6.26450e-06;0.003023717235733902
6.26475e-06;0.0030512420378692056
6.26500e-06;0.0030787668400045092
6.26525e-06;0.003106291642139906
6.26550e-06;0.0031338164442752097
6.26575e-06;0.003148819786199017
6.26600e-06;0.0031590034260234406
6.26625e-06;0.0031691870658478293
6.26650e-06;0.0031793707056722185
6.26675e-06;0.003189554345496642
6.26700e-06;0.003199737985321031
6.26725e-06;0.00320992162514542
6.26750e-06;0.003220105264969844
6.26775e-06;0.0032302889047942326
6.26800e-06;0.003240472544618656
6.26825e-06;0.0032506561844430452
6.26850e-06;0.0032608398242674344
6.26875e-06;0.003266575438317861
6.26900e-06;0.003256728862759674
6.26925e-06;0.003246882287201487
6.26950e-06;0.003237035711643267
6.26975e-06;0.00322718913608508
6.27000e-06;0.003217342560526893
6.27025e-06;0.003207495984968673
6.27050e-06;0.003197649409410486
6.27075e-06;0.003187802833852299
6.27100e-06;0.003177956258294079
6.27125e-06;0.003168109682735892
6.27150e-06;0.0031582631071777048
6.27175e-06;0.0031484165316194848
6.27200e-06;0.0031326399131740095
6.27225e-06;0.003114580730261837
6.27250e-06;0.0030965215473497255
6.27275e-06;0.0030784623644376143
6.27300e-06;0.003060403181525442
6.27325e-06;0.003042343998613331
6.27350e-06;0.0030242848157012196
6.27375e-06;0.003006225632789047
6.27400e-06;0.0029881664498769356
6.27425e-06;0.0029701072669648244
6.27450e-06;0.0029555025605581633
6.27475e-06;0.0029422275351457233
6.27500e-06;0.002928952509733283
6.27525e-06;0.0029156774843207976
6.27550e-06;0.002902402458908357
6.27575e-06;0.002889127433495917
6.27600e-06;0.0028758524080834316
6.27625e-06;0.0028625773826709915
6.27650e-06;0.002849302357258506
6.27675e-06;0.002836027331846066
6.27700e-06;0.0028314333195280515
6.27725e-06;0.0028301807623053875
6.27750e-06;0.002828928205082728
6.27775e-06;0.002827675647860068
6.27800e-06;0.002826423090637404
6.27825e-06;0.0028251705334147443
6.27850e-06;0.0028239179761920846
6.27875e-06;0.0028226654189694206
6.27900e-06;0.002821412861746761
6.27925e-06;0.002820160304524101
6.27950e-06;0.002818907747301437
6.27975e-06;0.0028176551900787774
6.28000e-06;0.0028164026328561173
6.28025e-06;0.002822056134410721
6.28050e-06;0.0028303678839183225
6.28075e-06;0.002838679633425952
6.28100e-06;0.0028469913829335535
6.28125e-06;0.002855303132441155
6.28150e-06;0.002863614881948785
6.28175e-06;0.0028719266314563862
6.28200e-06;0.0028802383809639876
6.28225e-06;0.002888550130471617
6.28250e-06;0.0028968618799792185
6.28275e-06;0.00290517362948682
6.28300e-06;0.0029134853789944495
6.28325e-06;0.002921797128502051
6.28350e-06;0.00293092745933724
6.28375e-06;0.0029403728746813613
6.28400e-06;0.0029498182900254506
6.28425e-06;0.00295926370536954
6.28450e-06;0.0029687091207136612
6.28475e-06;0.0029781545360577505
6.28500e-06;0.002987599951401872
6.28525e-06;0.002997045366745961
6.28550e-06;0.0030010099121003837
6.28575e-06;0.003002864786526889
6.28600e-06;0.003004719660953388
6.28625e-06;0.003006574535379887
6.28650e-06;0.0030084294098063923
6.28675e-06;0.0030102842842328914
6.28700e-06;0.0030121391586593904
6.28725e-06;0.0030139940330858954
6.28750e-06;0.0030028632166417203
6.28775e-06;0.0029867340085992897
6.28800e-06;0.0029706048005568044
6.28825e-06;0.002954475592514374
6.28850e-06;0.0029383463844719435
6.28875e-06;0.0029222171764294582
6.28900e-06;0.0029060879683870276
6.28925e-06;0.0028899587603445427
6.28950e-06;0.002873829552302112
6.28975e-06;0.002853842587994255
6.29000e-06;0.002820341248407978
6.29025e-06;0.0027868399088218144
6.29050e-06;0.002753338569235651
6.29075e-06;0.002719837229649374
6.29100e-06;0.0026863358900632104
6.29125e-06;0.002652834550477047
6.29150e-06;0.00261933321089077
6.29175e-06;0.0025858318713046064
6.29200e-06;0.002552330531718443
6.29225e-06;0.0025145200633755116
6.29250e-06;0.002475050945278513
6.29275e-06;0.002435581827181514
6.29300e-06;0.0023961127090843816
6.29325e-06;0.0023566435909873826
6.29350e-06;0.0023171744728902504
6.29375e-06;0.0022777053547932517
6.29400e-06;0.002242231177503587
6.29425e-06;0.0022082947142070585
6.29450e-06;0.002174358250910645
6.29475e-06;0.0021404217876142316
6.29500e-06;0.0021064853243177033
6.29525e-06;0.00207254886102129
6.29550e-06;0.0020386123977248764
6.29575e-06;0.002018764539624641
6.29600e-06;0.0020043396017627546
6.29625e-06;0.0019899146639008676
6.29650e-06;0.0019754897260389316
6.29675e-06;0.0019610647881770447
6.29700e-06;0.001946639850315158
6.29725e-06;0.0019322149124532222
6.29750e-06;0.0019177899745913354
6.29775e-06;0.0019033650367294484
6.29800e-06;0.0018889400988675127
6.29825e-06;0.0018745151610056257
6.29850e-06;0.0018776816039194893
6.29875e-06;0.0018876192391190792
6.29900e-06;0.0018975568743186694
6.29925e-06;0.0019074945095182933
6.29950e-06;0.0019174321447178835
6.29975e-06;0.0019273697799174737
6.30000e-06;0.0019373074151170975
6.30025e-06;0.0019472450503166877
6.30050e-06;0.001957182685516278
6.30075e-06;0.0019671203207159015
6.30100e-06;0.0019770579559154917
6.30125e-06;0.001996386953260416
6.30150e-06;0.002019330829944211
6.30175e-06;0.0020422747066279282
6.30200e-06;0.0020652185833116453
6.30225e-06;0.0020881624599954404
6.30250e-06;0.0021111063366791574
6.30275e-06;0.0021340502133629525
6.30300e-06;0.0021572839617984415
6.30325e-06;0.002181533180202729
6.30350e-06;0.0022057823986070986
6.30375e-06;0.0022300316170113864
6.30400e-06;0.0022542808354156737
6.30425e-06;0.0022785300538200434
6.30450e-06;0.002302779272224331
6.30475e-06;0.0023270284906286185
6.30500e-06;0.002344425657851081
6.30525e-06;0.0023591853654738844
6.30550e-06;0.0023739450730966877
6.30575e-06;0.002388704780719541
6.30600e-06;0.002403464488342344
6.30625e-06;0.0024182241959651474
6.30650e-06;0.0024329839035880005
6.30675e-06;0.0024477436112108034
6.30700e-06;0.002462503318833657
6.30725e-06;0.00247726302645646
6.30750e-06;0.002492022734079263
6.30775e-06;0.0025067824417021162
6.30800e-06;0.0025215421493249195
6.30825e-06;0.002530234026793731
6.30850e-06;0.0025365903033655033
6.30875e-06;0.002542946579937254
6.30900e-06;0.0025493028565090046
6.30925e-06;0.0025556591330807765
6.30950e-06;0.002562015409652527
6.30975e-06;0.0025683716862242778
6.31000e-06;0.00257472796279605
6.31025e-06;0.0025810842393678007
6.31050e-06;0.0025874405159395514
6.31075e-06;0.0025937967925113237
6.31100e-06;0.0026001530690830743
6.31125e-06;0.0026065093456548462
6.31150e-06;0.002610214062663764
6.31175e-06;0.0026128981537263595
6.31200e-06;0.002615582244788964
6.31225e-06;0.0026182663358515594
6.31250e-06;0.002620950426914155
6.31275e-06;0.0026236345179767593
6.31300e-06;0.002626318609039355
6.31325e-06;0.0026290027001019504
6.31350e-06;0.0026316867911645547
6.31375e-06;0.0026343708822271503
6.31400e-06;0.002637054973289746
6.31425e-06;0.00263973906435235
6.31450e-06;0.002639946859956149
6.31475e-06;0.0026392014914555987
6.31500e-06;0.0026384561229550454
6.31525e-06;0.0026377107544544947
6.31550e-06;0.0026369653859539418
6.31575e-06;0.002636220017453391
6.31600e-06;0.0026354746489528407
6.31625e-06;0.0026347292804522874
6.31650e-06;0.0026339839119517367
6.31675e-06;0.0026332385434511864
6.31700e-06;0.002632493174950633
6.31725e-06;0.0026317478064500827
6.31750e-06;0.0026227851560392994
6.31775e-06;0.002610659547781986
6.31800e-06;0.002598533939524714
6.31825e-06;0.002586408331267442
6.31850e-06;0.002574282723010129
6.31875e-06;0.0025621571147528568
6.31900e-06;0.002550031506495585
6.31925e-06;0.002537905898238272
6.31950e-06;0.0025257802899809998
6.31975e-06;0.0025136546817236868
6.32000e-06;0.0025015290734664145
6.32025e-06;0.0024821437486211967
6.32050e-06;0.002459964047509588
6.32075e-06;0.0024377843463980545
6.32100e-06;0.0024156046452865213
6.32125e-06;0.0023934249441749126
6.32150e-06;0.0023712452430633794
6.32175e-06;0.002349065541951846
6.32200e-06;0.002326885840840237
6.32225e-06;0.002304706139728704
6.32250e-06;0.0022825264386171704
6.32275e-06;0.0022603467375055617
6.32300e-06;0.0022380158772629154
6.32325e-06;0.0022156268335521857
6.32350e-06;0.0021932377898413805
6.32375e-06;0.0021708487461306507
6.32400e-06;0.002148459702419845
6.32425e-06;0.0021260706587091153
6.32450e-06;0.0021036816149983856
6.32475e-06;0.00208129257128758
6.32500e-06;0.00205890352757685
6.32525e-06;0.002038761394320934
6.32550e-06;0.002026490569925378
6.32575e-06;0.0020142197455298634
6.32600e-06;0.0020019489211343493
6.32625e-06;0.001989678096738793
6.32650e-06;0.0019774072723432786
6.32675e-06;0.001965136447947764
6.32700e-06;0.0019528656235522082
6.32725e-06;0.0019405947991566936
6.32750e-06;0.0019283239747611791
6.32775e-06;0.0019261966415795853
6.32800e-06;0.0019279736937493396
6.32825e-06;0.0019297507459190995
6.32850e-06;0.0019315277980888536
6.32875e-06;0.0019333048502586077
6.32900e-06;0.0019350819024283679
6.32925e-06;0.001936858954598122
6.32950e-06;0.001938636006767876
6.32975e-06;0.0019404130589376362
6.33000e-06;0.0019421901111073903
6.33025e-06;0.0019462418390201346
6.33050e-06;0.0019582621423114015
6.33075e-06;0.001970282445602628
6.33100e-06;0.001982302748893854
6.33125e-06;0.001994323052185121
6.33150e-06;0.0020063433554763474
6.33175e-06;0.0020183636587675735
6.33200e-06;0.0020303839620588403
6.33225e-06;0.002042404265350067
6.33250e-06;0.0020544245686413337
6.33275e-06;0.0020664448719325598
6.33300e-06;0.002079413710879695
6.33325e-06;0.002092747655749635
6.33350e-06;0.0021060816006195303
6.33375e-06;0.0021194155454894253
6.33400e-06;0.0021327494903593657
6.33425e-06;0.0021460834352292606
6.33450e-06;0.0021594173800991556
6.33475e-06;0.002172751324969096
6.33500e-06;0.002186085269838991
6.33525e-06;0.0021994192147088863
6.33550e-06;0.0022121777365364382
6.33575e-06;0.0022229204537372376
6.33600e-06;0.0022336631709380375
6.33625e-06;0.0022444058881388737
6.33650e-06;0.0022551486053396736
6.33675e-06;0.0022658913225405094
6.33700e-06;0.0022766340397413092
6.33725e-06;0.002287376756942109
6.33750e-06;0.0022981194741429453
6.33775e-06;0.002308862191343745
6.33800e-06;0.0023196049085445446
6.33825e-06;0.002333625917015985
6.33850e-06;0.0023489087900802627
6.33875e-06;0.00236419166314454
6.33900e-06;0.0023794745362088693
6.33925e-06;0.002394757409273147
6.33950e-06;0.0024100402823374243
6.33975e-06;0.0024253231554017536
6.34000e-06;0.0024406060284660313
6.34025e-06;0.0024558889015303086
6.34050e-06;0.002471171774594638
6.34075e-06;0.0024864546476589156
6.34100e-06;0.002501737520723245
6.34125e-06;0.0025175971384756124
6.34150e-06;0.0025354771908037248
6.34175e-06;0.0025533572431318974
6.34200e-06;0.0025712372954600094
6.34225e-06;0.002589117347788122
6.34250e-06;0.0026069974001162945
6.34275e-06;0.0026248774524444064
6.34300e-06;0.002642757504772519
6.34325e-06;0.0026606375571006915
6.34350e-06;0.0026785176094288035
6.34375e-06;0.002696397661756916
6.34400e-06;0.0027142777140850886
6.34425e-06;0.002732157766413201
6.34450e-06;0.0027430471020882382
6.34475e-06;0.002751245603699462
6.34500e-06;0.0027594441053106584
6.34525e-06;0.002767642606921883
6.34550e-06;0.002775841108533079
6.34575e-06;0.0027840396101442757
6.34600e-06;0.0027922381117554997
6.34625e-06;0.0028004366133666963
6.34650e-06;0.0028086351149778925
6.34675e-06;0.002816833616589117
6.34700e-06;0.002825032118200313
6.34725e-06;0.00283323061981151
6.34750e-06;0.0028414291214227338
6.34775e-06;0.0028444134366264833
6.34800e-06;0.002829131571460188
6.34825e-06;0.0028138497062938413
6.34850e-06;0.002798567841127546
6.34875e-06;0.002783285975961251
6.34900e-06;0.002768004110794904
6.34925e-06;0.002752722245628609
6.34950e-06;0.002737440380462262
6.34975e-06;0.0027221585152959666
6.35000e-06;0.0027068766501296714
6.35025e-06;0.0026915947849633247
6.35050e-06;0.0026763129197970295
6.35075e-06;0.0026610310546307343
6.35100e-06;0.0026457491894643875
6.35125e-06;0.002620697524991231
6.35150e-06;0.0025918853149156738
6.35175e-06;0.002563073104840019
6.35200e-06;0.0025342608947644617
6.35225e-06;0.0025054486846889045
6.35250e-06;0.0024766364746132497
6.35275e-06;0.0024478242645376925
6.35300e-06;0.0024190120544621352
6.35325e-06;0.0023906083316354142
6.35350e-06;0.002362361841816275
6.35375e-06;0.00233411535199704
6.35400e-06;0.0023058688621779007
6.35425e-06;0.0022776223723587614
6.35450e-06;0.0022493758825395263
6.35475e-06;0.002221129392720387
6.35500e-06;0.002192882902901248
6.35525e-06;0.002175862352145237
6.35550e-06;0.0021631628375177823
6.35575e-06;0.0021504633228903274
6.35600e-06;0.002137763808262829
6.35625e-06;0.002125064293635374
6.35650e-06;0.002112364779007919
6.35675e-06;0.0020996652643804213
6.35700e-06;0.0020869657497529664
6.35725e-06;0.0020742662351255115
6.35750e-06;0.0020615667204980136
6.35775e-06;0.0020488672058705587
6.35800e-06;0.0020361676912430604
6.35825e-06;0.002028614670059074
6.35850e-06;0.0020390906892925405
6.35875e-06;0.002049566708526043
6.35900e-06;0.0020600427277595095
6.35925e-06;0.002070518746992976
6.35950e-06;0.002080994766226478
6.35975e-06;0.0020914707854599447
6.36000e-06;0.0021019468046934112
6.36025e-06;0.0021124228239269133
6.36050e-06;0.0021228988431603803
6.36075e-06;0.002133374862393847
6.36100e-06;0.002143850881627349
6.36125e-06;0.0021543269008608154
6.36150e-06;0.0021730804024820056
6.36175e-06;0.0021950200340335843
6.36200e-06;0.0022169596655850885
6.36225e-06;0.0022388992971366668
6.36250e-06;0.002260838928688171
6.36275e-06;0.002282778560239675
6.36300e-06;0.0023047181917912538
6.36325e-06;0.002326657823342758
6.36350e-06;0.002348015216612561
6.36375e-06;0.002369148497437503
6.36400e-06;0.0023902817782623727
6.36425e-06;0.0024114150590872426
6.36450e-06;0.002432548339912184
6.36475e-06;0.002453681620737054
6.36500e-06;0.0024748149015619237
6.36525e-06;0.002495948182386865
6.36550e-06;0.002513116529650579
6.36575e-06;0.002528758713172965
6.36600e-06;0.0025444008966954037
6.36625e-06;0.0025600430802177896
6.36650e-06;0.0025756852637402287
6.36675e-06;0.0025913274472626146
6.36700e-06;0.0026069696307850004
6.36725e-06;0.002622611814307439
6.36750e-06;0.002638253997829825
6.36775e-06;0.0026538961813522112
6.36800e-06;0.002670259843548444
6.36825e-06;0.0026891509680467174
6.36850e-06;0.0027080420925449907
6.36875e-06;0.002726933217043328
6.36900e-06;0.002745824341541602
6.36925e-06;0.002764715466039875
6.36950e-06;0.0027836065905382126
6.36975e-06;0.002802497715036486
6.37000e-06;0.0028213888395347596
6.37025e-06;0.002840279964033097
6.37050e-06;0.0028591710885313704
6.37075e-06;0.0028806763360848735
6.37100e-06;0.002903187799697191
6.37125e-06;0.002925699263309509
6.37150e-06;0.0029482107269219035
6.37175e-06;0.0029707221905342215
6.37200e-06;0.0029932336541465395
6.37225e-06;0.003015745117758934
6.37250e-06;0.003038256581371252
6.37275e-06;0.00306076804498357
6.37300e-06;0.0030832795085959644
6.37325e-06;0.0031035159180470744
6.37350e-06;0.0031228766242572107
6.37375e-06;0.0031422373304674125
6.37400e-06;0.003161598036677549
6.37425e-06;0.0031809587428876856
6.37450e-06;0.0032003194490978874
6.37475e-06;0.0032196801553080238
6.37500e-06;0.003239040861518226
6.37525e-06;0.0032584015677283623
6.37550e-06;0.0032777622739384987
6.37575e-06;0.0032828707553771612
6.37600e-06;0.0032824933369037983
6.37625e-06;0.0032821159184304354
6.37650e-06;0.003281738499957071
6.37675e-06;0.0032813610814837082
6.37700e-06;0.0032809836630103453
6.37725e-06;0.003280606244536981
6.37750e-06;0.003280228826063618
6.37775e-06;0.0032798514075902552
6.37800e-06;0.003279473989116891
6.37825e-06;0.003279096570643528
6.37850e-06;0.0032549530798257004
6.37875e-06;0.0032216616632442063
6.37900e-06;0.003188370246662825
6.37925e-06;0.0031550788300813305
6.37950e-06;0.003121787413499949
6.37975e-06;0.003088495996918568
6.38000e-06;0.0030552045803370733
6.38025e-06;0.003021913163755692
6.38050e-06;0.0029886217471743106
6.38075e-06;0.002955330330592816
6.38100e-06;0.0029220389140114347
6.38125e-06;0.002875801219986971
6.38150e-06;0.002824580305208009
6.38175e-06;0.0027733593904292215
6.38200e-06;0.002722138475650434
6.38225e-06;0.0026709175608714726
6.38250e-06;0.002619696646092685
6.38275e-06;0.002568150117175682
6.38300e-06;0.002515462906643154
6.38325e-06;0.0024627756961108057
6.38350e-06;0.002410088485578278
6.38375e-06;0.002357401275045929
6.38400e-06;0.0023047140645135805
6.38425e-06;0.002252026853981053
6.38450e-06;0.0022036913790579897
6.38475e-06;0.002157030953916536
6.38500e-06;0.0021103705287749243
6.38525e-06;0.0020693222535858448
6.38550e-06;0.0020304341809908445
6.38575e-06;0.0019915461083957124
6.38600e-06;0.0019571495042006986
6.38625e-06;0.001928130254591081
6.38650e-06;0.00190051537610042
6.38675e-06;0.0018729004976098529
6.38700e-06;0.0018510507013627696
6.38725e-06;0.0018314199736940999
6.38750e-06;0.0018117892460254965
6.38775e-06;0.0017984273412981742
6.38800e-06;0.0017874784026701365
6.38825e-06;0.0017765294640420988
6.38850e-06;0.0017707922998614106
6.38875e-06;0.0017670612276019645
6.38900e-06;0.0017633301553425186
6.38925e-06;0.0017646084702204082
6.38950e-06;0.001767814975039702
6.38975e-06;0.0017710214798589959
6.39000e-06;0.0017812141659798056
6.39025e-06;0.0017940959404351114
6.39050e-06;0.0018069777148904175
6.39075e-06;0.001819859489345767
6.39100e-06;0.0018327412638010731
6.39125e-06;0.0018456230382563792
6.39150e-06;0.0018585048127117288
6.39175e-06;0.0018730932856984939
6.39200e-06;0.0018936606134363765
6.39225e-06;0.0019142279411741893
6.39250e-06;0.001934795268912002
6.39275e-06;0.001955362596649885
6.39300e-06;0.0019759299243876974
6.39325e-06;0.0019964972521255104
6.39350e-06;0.002017064579863393
6.39375e-06;0.0020366394909905354
6.39400e-06;0.0020558324057429306
6.39425e-06;0.002075025320495391
6.39450e-06;0.0020942182352477866
6.39475e-06;0.002113411150000182
6.39500e-06;0.0021326040647526422
6.39525e-06;0.002151796979505038
6.39550e-06;0.002170989894257433
6.39575e-06;0.002187585286962359
6.39600e-06;0.0021950811188796745
6.39625e-06;0.0022025769507970153
6.39650e-06;0.002210072782714331
6.39675e-06;0.0022175686146316464
6.39700e-06;0.002225064446548987
6.39725e-06;0.0022325602784663027
6.39750e-06;0.0022400561103836183
6.39775e-06;0.002247551942300959
6.39800e-06;0.002243337657117479
6.39825e-06;0.0022346159682571395
6.39850e-06;0.0022258942793967704
