Time(s);Current(A)
9.75000e-06;0.003966039284408878
9.75025e-06;0.004002238751994274
9.75050e-06;0.0040384382195796705
9.75075e-06;0.0040746376871648214
9.75100e-06;0.004110837154750217
9.75125e-06;0.004147036622335613
9.75150e-06;0.004206255488178949
9.75175e-06;0.00426690199187662
9.75200e-06;0.004327548495574701
9.75225e-06;0.0043881949992727815
9.75250e-06;0.004448841502970451
9.75275e-06;0.004509488006668532
9.75300e-06;0.004570134510366613
9.75325e-06;0.004630781014064282
9.75350e-06;0.004700381965728837
9.75375e-06;0.0047705382624439775
9.75400e-06;0.0048406945591586426
9.75425e-06;0.004910850855873783
9.75450e-06;0.004981007152588923
9.75475e-06;0.005051163449303588
9.75500e-06;0.005121319746018729
9.75525e-06;0.005191476042733869
9.75550e-06;0.005248907487023165
9.75575e-06;0.005305549749909134
9.75600e-06;0.005362192012795101
9.75625e-06;0.005418834275680685
9.75650e-06;0.005475476538566653
9.75675e-06;0.005532118801452621
9.75700e-06;0.005588761064338205
9.75725e-06;0.005645403327224173
9.75750e-06;0.005702045590110141
9.75775e-06;0.0057284829628652485
9.75800e-06;0.005753047061432019
9.75825e-06;0.00577761115999879
9.75850e-06;0.005802175258565394
9.75875e-06;0.005826739357132164
9.75900e-06;0.005851303455698935
9.75925e-06;0.00587586755426554
9.75950e-06;0.00590043165283231
9.75975e-06;0.005924995751399081
9.76000e-06;0.005918745969565686
9.76025e-06;0.005910585144633933
9.76050e-06;0.005902424319702124
9.76075e-06;0.005894263494770316
9.76100e-06;0.005886102669838563
9.76125e-06;0.005877941844906754
9.76150e-06;0.0058697810199749454
9.76175e-06;0.005861620195043192
9.76200e-06;0.005853459370111384
9.76225e-06;0.005845298545179576
9.76250e-06;0.005828028789061314
9.76275e-06;0.005799240987398196
9.76300e-06;0.005770453185735078
9.76325e-06;0.005741665384072155
9.76350e-06;0.0057128775824090375
9.76375e-06;0.005684089780745919
9.76400e-06;0.005655301979082997
9.76425e-06;0.005626514177419878
9.76450e-06;0.005597726375756761
9.76475e-06;0.005568938574093837
9.76500e-06;0.005540150772430719
9.76525e-06;0.005511719883706112
9.76550e-06;0.005483311130331071
9.76575e-06;0.005454902376955837
9.76600e-06;0.005426493623580603
9.76625e-06;0.005398084870205562
9.76650e-06;0.005369676116830329
9.76675e-06;0.005341267363455094
9.76700e-06;0.0053128586100800535
9.76725e-06;0.00528444985670482
9.76750e-06;0.0052763289682030284
9.76775e-06;0.005269466310851439
9.76800e-06;0.005262603653499802
9.76825e-06;0.005255740996148166
9.76850e-06;0.005248878338796529
9.76875e-06;0.005242015681444939
9.76900e-06;0.005235153024093302
9.76925e-06;0.005228290366741666
9.76950e-06;0.005221427709390075
9.76975e-06;0.005245675690352145
9.77000e-06;0.005271853119014923
9.77025e-06;0.005298030547677522
9.77050e-06;0.005324207976340299
9.77075e-06;0.005350385405003076
9.77100e-06;0.005376562833665675
9.77125e-06;0.005402740262328452
9.77150e-06;0.00542891769099123
9.77175e-06;0.005455095119653829
9.77200e-06;0.005481272548316606
9.77225e-06;0.005529535477762437
9.77250e-06;0.005579168125768216
9.77275e-06;0.005628800773774331
9.77300e-06;0.005678433421780446
9.77325e-06;0.005728066069786225
9.77350e-06;0.00577769871779234
9.77375e-06;0.005827331365798456
9.77400e-06;0.005876964013804234
9.77425e-06;0.00592659666181035
9.77450e-06;0.005976229309816465
9.77475e-06;0.006027345664575864
9.77500e-06;0.00607855403720285
9.77525e-06;0.006129762409829836
9.77550e-06;0.006180970782456475
9.77575e-06;0.006232179155083461
9.77600e-06;0.006283387527710446
9.77625e-06;0.006334595900337085
9.77650e-06;0.006372870407028745
9.77675e-06;0.006410342769525768
9.77700e-06;0.006447815132022791
9.77725e-06;0.00648528749451956
9.77750e-06;0.006522759857016583
9.77775e-06;0.006560232219513606
9.77800e-06;0.006597704582010376
9.77825e-06;0.006627449165534509
9.77850e-06;0.006656714480673377
9.77875e-06;0.006685979795812046
9.77900e-06;0.006715245110950915
9.77925e-06;0.006744510426089783
9.77950e-06;0.006773775741228452
9.77975e-06;0.00680304105636732
9.78000e-06;0.006832306371506188
9.78025e-06;0.006861571686644858
9.78050e-06;0.006890837001783725
9.78075e-06;0.006920102316922593
9.78100e-06;0.006949367632061263
9.78125e-06;0.006978632947200131
9.78150e-06;0.007007898262338999
9.78175e-06;0.007035668652207567
9.78200e-06;0.00706334632844888
9.78225e-06;0.007091024004690192
9.78250e-06;0.007118701680931317
9.78275e-06;0.0071463793571726305
9.78300e-06;0.007174057033413943
9.78325e-06;0.007201734709655068
9.78350e-06;0.007229412385896381
9.78375e-06;0.007257090062137693
9.78400e-06;0.007284767738378818
9.78425e-06;0.0073124454146201315
9.78450e-06;0.007340123090861444
9.78475e-06;0.007367800767102569
9.78500e-06;0.007395478443343882
9.78525e-06;0.007412316888285308
9.78550e-06;0.007428483095976342
9.78575e-06;0.007444649303667266
9.78600e-06;0.0074608155113582994
9.78625e-06;0.007476981719049333
9.78650e-06;0.007493147926740258
9.78675e-06;0.007509314134431291
9.78700e-06;0.007525480342122325
9.78725e-06;0.007541646549813249
9.78750e-06;0.007557812757504283
9.78775e-06;0.007573978965195316
9.78800e-06;0.0075901451728862404
9.78825e-06;0.007606311380577274
9.78850e-06;0.007622477588268308
9.78875e-06;0.007638643795959232
9.78900e-06;0.007654810003650266
9.78925e-06;0.007670976211341299
9.78950e-06;0.007687142419032223
9.78975e-06;0.007703308626723257
9.79000e-06;0.007714353325742062
9.79025e-06;0.007718921988331972
9.79050e-06;0.007723490650921913
9.79075e-06;0.007728059313511854
9.79100e-06;0.007732627976101765
9.79125e-06;0.007737196638691706
9.79150e-06;0.0077417653012816475
9.79175e-06;0.007746333963871557
9.79200e-06;0.0077509026264614995
9.79225e-06;0.007755471289051441
9.79250e-06;0.007760039951641351
9.79275e-06;0.007764608614231292
9.79300e-06;0.007769177276821233
9.79325e-06;0.007773745939411144
9.79350e-06;0.007778314602001085
9.79375e-06;0.007782883264591026
9.79400e-06;0.007787451927180967
9.79425e-06;0.007792020589770877
9.79450e-06;0.007796589252360819
9.79475e-06;0.0078011579149507605
9.79500e-06;0.007802203964868124
9.79525e-06;0.007803031546206386
9.79550e-06;0.007803859127544647
9.79575e-06;0.007804686708882903
9.79600e-06;0.007805514290221164
9.79625e-06;0.007806341871559426
9.79650e-06;0.007807169452897681
9.79675e-06;0.007807997034235943
9.79700e-06;0.007808824615574204
9.79725e-06;0.0078096521969124606
9.79750e-06;0.007810479778250722
9.79775e-06;0.007804356602930961
9.79800e-06;0.007789444346850883
9.79825e-06;0.007774532090770702
9.79850e-06;0.007759619834690522
9.79875e-06;0.007744707578610443
9.79900e-06;0.007729795322530263
9.79925e-06;0.007714883066450083
9.79950e-06;0.007699970810370004
9.79975e-06;0.007685058554289824
9.80000e-06;0.007670146298209644
9.80025e-06;0.007655234042129565
9.80050e-06;0.007640321786049385
9.80075e-06;0.007605197407237303
9.80100e-06;0.007568819494714226
9.80125e-06;0.007532441582190903
9.80150e-06;0.00749606366966758
9.80175e-06;0.007459685757144503
9.80200e-06;0.00742330784462118
9.80225e-06;0.007385046430911428
9.80250e-06;0.007341617405541607
9.80275e-06;0.007298188380172081
9.80300e-06;0.007254759354802261
9.80325e-06;0.00721133032943244
9.80350e-06;0.007167901304062914
9.80375e-06;0.007124472278693093
9.80400e-06;0.007076826954288301
9.80425e-06;0.007026283486525313
9.80450e-06;0.006975740018761981
9.80475e-06;0.00692519655099865
9.80500e-06;0.006874653083235662
9.80525e-06;0.006828762627651613
9.80550e-06;0.006784017384520384
9.80575e-06;0.006739272141389458
9.80600e-06;0.006694526898258228
9.80625e-06;0.006649970472214445
9.80650e-06;0.0066205279201399115
9.80675e-06;0.006591085368065179
9.80700e-06;0.006561642815990446
9.80725e-06;0.006532200263915912
9.80750e-06;0.006502757711841179
9.80775e-06;0.006473315159766446
9.80800e-06;0.006443872607691913
9.80825e-06;0.00641443005561718
9.80850e-06;0.006384987503542446
9.80875e-06;0.006357324690463112
9.80900e-06;0.006360649638495526
9.80925e-06;0.00636397458652794
9.80950e-06;0.006367299534560331
9.80975e-06;0.0063706244825927445
9.81000e-06;0.006373949430625158
9.81025e-06;0.006377274378657549
9.81050e-06;0.006380599326689963
9.81075e-06;0.006383924274722377
9.81100e-06;0.0063872492227547905
9.81125e-06;0.006393146212807453
9.81150e-06;0.006423182716256535
9.81175e-06;0.006453219219705617
9.81200e-06;0.006483255723154497
9.81225e-06;0.006513292226603578
9.81250e-06;0.006543328730052661
9.81275e-06;0.00657336523350154
9.81300e-06;0.006603401736950622
9.81325e-06;0.006633438240399705
9.81350e-06;0.006663474743848583
9.81375e-06;0.006694286972088339
9.81400e-06;0.0067323796486384885
9.81425e-06;0.006770472325188381
9.81450e-06;0.00680856500173853
9.81475e-06;0.00684665767828868
9.81500e-06;0.006884750354838572
9.81525e-06;0.006922843031388722
9.81550e-06;0.006960935707938872
9.81575e-06;0.006999028384488764
9.81600e-06;0.007037121061038914
9.81625e-06;0.007073511913648771
9.81650e-06;0.0070939305537128135
9.81675e-06;0.007114349193776994
9.81700e-06;0.007134767833841175
9.81725e-06;0.007155186473905217
9.81750e-06;0.007175605113969398
9.81775e-06;0.007196023754033579
9.81800e-06;0.007216442394097621
9.81825e-06;0.007236861034161802
9.81850e-06;0.0072572796742259825
9.81875e-06;0.0072776983142900245
9.81900e-06;0.007298116954354205
9.81925e-06;0.007300222652354788
9.81950e-06;0.0072899297967369825
9.81975e-06;0.0072796369411192476
9.82000e-06;0.007269344085501443
9.82025e-06;0.007259051229883638
9.82050e-06;0.007248758374265903
9.82075e-06;0.007238465518648098
9.82100e-06;0.007228172663030294
9.82125e-06;0.007217879807412558
9.82150e-06;0.0072075869517947535
9.82175e-06;0.007197294096176948
9.82200e-06;0.007185049758984928
9.82225e-06;0.007154490085079555
9.82250e-06;0.007123930411174182
9.82275e-06;0.0070933707372690166
9.82300e-06;0.007062811063363644
9.82325e-06;0.007032251389458272
9.82350e-06;0.007001691715553106
9.82375e-06;0.0069711320416477335
9.82400e-06;0.006940572367742361
9.82425e-06;0.006910012693837195
9.82450e-06;0.006879348649850381
9.82475e-06;0.006847705056166542
9.82500e-06;0.006816061462482917
9.82525e-06;0.006784417868799079
9.82550e-06;0.00675277427511524
9.82575e-06;0.006721130681431616
9.82600e-06;0.006689487087747777
9.82625e-06;0.006657843494063938
9.82650e-06;0.006626199900380314
9.82675e-06;0.006594556306696475
9.82700e-06;0.006563207848708461
9.82725e-06;0.006534629342391665
9.82750e-06;0.006506050836074675
9.82775e-06;0.006477472329757685
9.82800e-06;0.006448893823440696
9.82825e-06;0.006420315317123899
9.82850e-06;0.00639173681080691
9.82875e-06;0.00636315830448992
9.82900e-06;0.006332790341359638
9.82925e-06;0.006285627700519823
9.82950e-06;0.006238465059680008
9.82975e-06;0.006191302418840513
9.83000e-06;0.006144139778000698
9.83025e-06;0.006096977137160882
9.83050e-06;0.0060498144963213865
9.83075e-06;0.006002651855481571
9.83100e-06;0.005953534906238583
9.83125e-06;0.005886076089489832
9.83150e-06;0.005818617272740623
9.83175e-06;0.005751158455991416
9.83200e-06;0.005683699639242664
9.83225e-06;0.005616240822493457
9.83250e-06;0.005548782005744248
9.83275e-06;0.005481323188995498
9.83300e-06;0.005413864372246289
9.83325e-06;0.005341264139570641
9.83350e-06;0.005265182974075115
9.83375e-06;0.005189101808579074
9.83400e-06;0.005113020643083034
9.83425e-06;0.005036939477587508
9.83450e-06;0.0049608583120914675
9.83475e-06;0.004884777146595427
9.83500e-06;0.004808695981099902
9.83525e-06;0.0047339480899892435
9.83550e-06;0.00467171344504682
9.83575e-06;0.004609478800104818
9.83600e-06;0.004547244155162394
9.83625e-06;0.00448500951021997
9.83650e-06;0.004422774865277547
9.83675e-06;0.004360540220335544
9.83700e-06;0.00429830557539312
9.83725e-06;0.004236070930450696
9.83750e-06;0.004193765728024924
9.83775e-06;0.004164953511101383
9.83800e-06;0.004136141294177844
9.83825e-06;0.004107329077254499
9.83850e-06;0.004078516860330958
9.83875e-06;0.004049704643407418
9.83900e-06;0.004020892426484073
9.83925e-06;0.003992080209560532
9.83950e-06;0.003966822522365097
9.83975e-06;0.0039749253392050675
9.84000e-06;0.003983028156045093
9.84025e-06;0.003991130972885118
9.84050e-06;0.003999233789725088
9.84075e-06;0.0040073366065651135
9.84100e-06;0.004015439423405138
9.84125e-06;0.004023542240245108
9.84150e-06;0.004031645057085134
9.84175e-06;0.004042313695094447
9.84200e-06;0.004077063461699005
9.84225e-06;0.004111813228303799
9.84250e-06;0.004146562994908593
9.84275e-06;0.004181312761513152
9.84300e-06;0.0042160625281179465
9.84325e-06;0.004250812294722741
9.84350e-06;0.004285562061327299
9.84375e-06;0.004320311827932093
9.84400e-06;0.004355827530878651
9.84425e-06;0.004398531814138172
9.84450e-06;0.004441236097397981
9.84475e-06;0.00448394038065779
9.84500e-06;0.004526644663917599
9.84525e-06;0.004569348947177118
9.84550e-06;0.004612053230436927
9.84575e-06;0.004654757513696736
9.84600e-06;0.004696326861438592
9.84625e-06;0.0047272444426093895
9.84650e-06;0.004758162023780187
9.84675e-06;0.004789079604950774
9.84700e-06;0.004819997186121572
9.84725e-06;0.004850914767292369
9.84750e-06;0.004881832348462957
9.84775e-06;0.004912749929633755
9.84800e-06;0.0049407414457022505
9.84825e-06;0.004941270817920227
9.84850e-06;0.004941800190138209
9.84875e-06;0.004942329562356189
9.84900e-06;0.004942858934574167
9.84925e-06;0.004943388306792148
9.84950e-06;0.0049439176790101284
9.84975e-06;0.004944447051228106
9.85000e-06;0.004944976423446087
9.85025e-06;0.004945505795664068
9.85050e-06;0.004946035167882046
9.85075e-06;0.004943516111312223
9.85100e-06;0.004912386484924284
9.85125e-06;0.0048812568585365574
9.85150e-06;0.00485012723214862
9.85175e-06;0.004818997605760681
9.85200e-06;0.004787867979372955
9.85225e-06;0.004756738352985017
9.85250e-06;0.004725608726597079
9.85275e-06;0.004694479100209352
9.85300e-06;0.004663349473821414
9.85325e-06;0.004632219847433476
9.85350e-06;0.004599928197088468
9.85375e-06;0.004556730545695048
9.85400e-06;0.004513532894301337
9.85425e-06;0.004470335242907625
9.85450e-06;0.004427137591514207
9.85475e-06;0.004383939940120495
9.85500e-06;0.004340742288726784
9.85525e-06;0.004297544637333364
9.85550e-06;0.004255066220090898
9.85575e-06;0.004219338066783907
9.85600e-06;0.004183609913477158
9.85625e-06;0.004147881760170167
9.85650e-06;0.004112153606863176
9.85675e-06;0.0040764254535564275
9.85700e-06;0.004040697300249437
9.85725e-06;0.004004969146942447
9.85750e-06;0.003972016862547476
9.85775e-06;0.003965117078268858
9.85800e-06;0.003958217293990239
9.85825e-06;0.003951317509711667
9.85850e-06;0.003944417725433049
9.85875e-06;0.00393751794115443
9.85900e-06;0.003930618156875858
9.85925e-06;0.00392371837259724
9.85950e-06;0.003916818588318621
9.85975e-06;0.003909918804040049
9.86000e-06;0.0039030190197614305
9.86025e-06;0.003896119235482812
9.86050e-06;0.003909846630999777
9.86075e-06;0.003937539406525287
9.86100e-06;0.003965232182050796
9.86125e-06;0.0039929249575761175
9.86150e-06;0.004020617733101627
9.86175e-06;0.004048310508627136
9.86200e-06;0.004076003284152458
9.86225e-06;0.004103696059677967
9.86250e-06;0.004131388835203476
9.86275e-06;0.004159081610728986
9.86300e-06;0.004186774386254307
9.86325e-06;0.004215888597983073
9.86350e-06;0.004258343485383728
9.86375e-06;0.004300798372784096
9.86400e-06;0.004343253260184751
9.86425e-06;0.004385708147585406
9.86450e-06;0.0044281630349857735
9.86475e-06;0.004470617922386429
9.86500e-06;0.0045130728097870845
9.86525e-06;0.004555527697187452
9.86550e-06;0.004593735458622401
9.86575e-06;0.00462906775532344
9.86600e-06;0.004664400052024239
9.86625e-06;0.004699732348725278
9.86650e-06;0.004735064645426316
9.86675e-06;0.004770396942127116
9.86700e-06;0.004805729238828154
9.86725e-06;0.004841061535529193
9.86750e-06;0.0048735192258996035
9.86775e-06;0.004878997730944785
9.86800e-06;0.004884476235989968
9.86825e-06;0.004889954741035113
9.86850e-06;0.004895433246080295
9.86875e-06;0.004900911751125478
9.86900e-06;0.004906390256170623
9.86925e-06;0.0049118687612158055
9.86950e-06;0.004917347266260987
9.86975e-06;0.004922825771306132
9.87000e-06;0.004928304276351315
9.87025e-06;0.004930324106741725
9.87050e-06;0.004899883066399389
9.87075e-06;0.0048694420260568475
9.87100e-06;0.004839000985714306
9.87125e-06;0.004808559945371764
9.87150e-06;0.004778118905029429
9.87175e-06;0.004747677864686887
9.87200e-06;0.004717236824344344
9.87225e-06;0.004686795784002009
9.87250e-06;0.004656354743659467
9.87275e-06;0.004625913703316925
9.87300e-06;0.004593837591624341
9.87325e-06;0.00454641576371201
9.87350e-06;0.00449899393579968
9.87375e-06;0.00445157210788767
9.87400e-06;0.00440415027997534
9.87425e-06;0.004356728452063009
9.87450e-06;0.004309306624151
9.87475e-06;0.004261884796238669
9.87500e-06;0.004215964231679077
9.87525e-06;0.0041710600791270945
9.87550e-06;0.004126155926574808
9.87575e-06;0.004081251774022521
9.87600e-06;0.004036347621470538
9.87625e-06;0.003991443468918251
9.87650e-06;0.0039465393163659645
9.87675e-06;0.0039037670672483664
9.87700e-06;0.003881003477152763
9.87725e-06;0.00385823988705716
9.87750e-06;0.0038354762969617104
9.87775e-06;0.0038127127068661075
9.87800e-06;0.003789949116770504
9.87825e-06;0.003767185526675055
9.87850e-06;0.0037444219365794515
9.87875e-06;0.0037254193147547477
9.87900e-06;0.0037417146949465423
9.87925e-06;0.0037580100751384475
9.87950e-06;0.003774305455330353
9.87975e-06;0.0037906008355222576
9.88000e-06;0.0038068962157140522
9.88025e-06;0.0038231915959059575
9.88050e-06;0.0038394869760978627
9.88075e-06;0.003859214921658807
9.88100e-06;0.003911158693199926
9.88125e-06;0.003963102464741045
9.88150e-06;0.004015046236281811
9.88175e-06;0.00406699000782293
9.88200e-06;0.004118933779364048
9.88225e-06;0.004170877550904815
9.88250e-06;0.0042228213224459335
9.88275e-06;0.004286997706178035
9.88300e-06;0.004359456030510576
9.88325e-06;0.004431914354843608
9.88350e-06;0.00450437267917664
9.88375e-06;0.004576831003509181
9.88400e-06;0.0046492893278422135
9.88425e-06;0.004721747652175245
9.88450e-06;0.0047941833062698
9.88475e-06;0.004866406192255968
9.88500e-06;0.0049386290782421375
9.88525e-06;0.005010851964227818
9.88550e-06;0.005083074850213987
9.88575e-06;0.005155297736200156
9.88600e-06;0.005227520622185836
9.88625e-06;0.005299743508172005
9.88650e-06;0.005357523426211109
9.88675e-06;0.005405524909293555
9.88700e-06;0.005453526392376326
9.88725e-06;0.0055015278754590976
9.88750e-06;0.005549529358541544
9.88775e-06;0.005597530841624315
9.88800e-06;0.005645532324707086
9.88825e-06;0.005689363506314441
9.88850e-06;0.005694054950651784
9.88875e-06;0.005698746394989159
9.88900e-06;0.005703437839326532
9.88925e-06;0.0057081292836638755
9.88950e-06;0.00571282072800125
9.88975e-06;0.005717512172338624
9.89000e-06;0.005722203616675967
9.89025e-06;0.005726895061013341
9.89050e-06;0.005731586505350716
9.89075e-06;0.005732181976641812
9.89100e-06;0.005694335308949695
9.89125e-06;0.005656488641257579
9.89150e-06;0.005618641973565718
9.89175e-06;0.005580795305873602
9.89200e-06;0.005542948638181486
9.89225e-06;0.005505101970489625
9.89250e-06;0.005467255302797508
9.89275e-06;0.005429408635105392
9.89300e-06;0.0053915619674135325
9.89325e-06;0.005351903983876733
9.89350e-06;0.00529524616790377
9.89375e-06;0.00523858835193119
9.89400e-06;0.005181930535958225
9.89425e-06;0.005125272719985262
9.89450e-06;0.0050686149040126815
9.89475e-06;0.005011957088039718
9.89500e-06;0.0049552992720667535
9.89525e-06;0.004901490006121253
9.89550e-06;0.004849609316162522
9.89575e-06;0.0047977286262037904
9.89600e-06;0.004745847936245411
9.89625e-06;0.00469396724628668
9.89650e-06;0.004642086556327948
9.89675e-06;0.004590205866369217
9.89700e-06;0.004541098873599334
9.89725e-06;0.004518023998634455
9.89750e-06;0.004494949123669575
9.89775e-06;0.0044718742487048525
9.89800e-06;0.004448799373739974
9.89825e-06;0.004425724498775094
9.89850e-06;0.004402649623810371
9.89875e-06;0.004379574748845492
9.89900e-06;0.0043564998738806135
9.89925e-06;0.00433342499891589
9.89950e-06;0.004310350123951011
9.89975e-06;0.004287275248986132
9.90000e-06;0.004267441461030558
9.90025e-06;0.004278026407752362
9.90050e-06;0.0042886113544741665
9.90075e-06;0.004299196301195899
