Time(s);Current(A)
1.20500e-05;0.002165533154510487
1.20503e-05;0.002139424022836692
1.20505e-05;0.0021133148911627203
1.20508e-05;0.0020907119714112248
1.20510e-05;0.0020681987538082106
1.20513e-05;0.0020456855362050437
1.20515e-05;0.0020231723186018764
1.20518e-05;0.002000659100998862
1.20520e-05;0.0019781458833956953
1.20523e-05;0.0019556326657925284
1.20525e-05;0.001933657595539661
1.20528e-05;0.001912277189932693
1.20530e-05;0.001890896784325725
1.20533e-05;0.0018695163787189016
1.20535e-05;0.0018481359731119336
1.20538e-05;0.0018267555675049655
1.20540e-05;0.0018053751618981424
1.20543e-05;0.001779330773438587
1.20545e-05;0.001748132581449906
1.20548e-05;0.0017169343894614362
1.20550e-05;0.0016857361974727553
1.20553e-05;0.0016545380054840742
1.20555e-05;0.0016233398134956045
1.20558e-05;0.0015921416215069237
1.20560e-05;0.0015561442978016017
1.20562e-05;0.0015148438281028763
1.20565e-05;0.001473543358403871
1.20568e-05;0.0014322428887048656
1.20570e-05;0.0013909424190061402
1.20573e-05;0.001349641949307135
1.20575e-05;0.0013052837151587644
1.20578e-05;0.001257546584108287
1.20580e-05;0.001209809453058133
1.20583e-05;0.0011620723220076555
1.20585e-05;0.0011143351909571782
1.20588e-05;0.0010665980599070242
1.20590e-05;0.0010182062108817702
1.20593e-05;0.0009690908841088088
1.20595e-05;0.0009199755573361803
1.20598e-05;0.0008708602305632189
1.20600e-05;0.0008217449037902576
1.20603e-05;0.0007761715449912685
1.20605e-05;0.0007306888031154875
1.20608e-05;0.0006852060612397065
1.20610e-05;0.0006397233193642339
1.20613e-05;0.0005966040204306499
1.20615e-05;0.0005560963778783934
1.20618e-05;0.0005171607128918799
1.20620e-05;0.0004812065042650572
1.20623e-05;0.00044798555780559807
1.20625e-05;0.0004175404080186515
1.20628e-05;0.0003895265116315654
1.20630e-05;0.0003635498767638636
1.20633e-05;0.000339530954316712
1.20635e-05;0.00031758848136006346
1.20638e-05;0.0002978621009766658
1.20640e-05;0.00028049136748569184
1.20643e-05;0.00026559485840645623
1.20645e-05;0.0002531445398817408
1.20647e-05;0.0002428699498772387
1.20650e-05;0.00023446968189958352
1.20653e-05;0.00022783926775934532
1.20655e-05;0.00022299847941059227
1.20658e-05;0.0002199801550650252
1.20660e-05;0.00021881708782665809
1.20663e-05;0.00021952894237816818
1.20665e-05;0.0002220435356328352
1.20668e-05;0.00022613681324000582
1.20670e-05;0.00023156536640891594
1.20673e-05;0.0002382091938856052
1.20675e-05;0.00024629241069627745
1.20678e-05;0.0002552763338767719
1.20680e-05;0.0002652890598119752
1.20683e-05;0.00027643863539654327
1.20685e-05;0.0002885314210243745
1.20688e-05;0.00030166647447452724
1.20690e-05;0.0003148015279247689
1.20693e-05;0.00032858368742177285
1.20695e-05;0.0003430809133188543
1.20698e-05;0.000357578139216034
1.20700e-05;0.00037207536511321373
1.20703e-05;0.0003865725910102952
1.20705e-05;0.00040081230396883427
1.20708e-05;0.00041504542877341386
1.20710e-05;0.00042927855357789696
1.20713e-05;0.0004435116783824765
1.20715e-05;0.0004566947288959043
1.20718e-05;0.0004687174242447313
1.20720e-05;0.0004807401195936398
1.20723e-05;0.0004920625513696562
1.20725e-05;0.000502611176510967
1.20728e-05;0.0005131598016523492
1.20730e-05;0.0005237084267937314
1.20732e-05;0.0005353456413525037
1.20735e-05;0.000548185771136812
1.20738e-05;0.0005610259009211204
1.20740e-05;0.0005738660307053418
1.20743e-05;0.0005875756047295122
1.20745e-05;0.0006022459337427308
1.20748e-05;0.0006169162627559492
1.20750e-05;0.0006330790888242129
1.20753e-05;0.0006508911569326821
1.20755e-05;0.0006687032250411514
1.20758e-05;0.0006876747979297879
1.20760e-05;0.0007079276490782343
1.20763e-05;0.0007281805002266808
1.20765e-05;0.0007500229743379681
1.20768e-05;0.0007736220167518676
1.20770e-05;0.0007972210591657671
1.20773e-05;0.0008208201015795067
1.20775e-05;0.0008444191439934063
1.20778e-05;0.0008680181864073058
1.20780e-05;0.0008916172288210455
1.20783e-05;0.0009176005842879691
1.20785e-05;0.0009436449394918682
1.20788e-05;0.0009696892946955908
1.20790e-05;0.0009957336498994899
1.20793e-05;0.0010217780051033887
1.20795e-05;0.0010478223603071113
1.20798e-05;0.0010713826834339126
1.20800e-05;0.0010921980965342127
1.20803e-05;0.0011130135096343715
1.20805e-05;0.0011338289227346716
1.20808e-05;0.0011546443358349716
1.20810e-05;0.0011754597489351305
1.20813e-05;0.0011962751620354305
1.20815e-05;0.0012170905751357306
1.20817e-05;0.0012379059882358895
1.20820e-05;0.0012587214013361895
1.20823e-05;0.0012795368144364896
1.20825e-05;0.0013003522275366484
1.20828e-05;0.0013211676406369485
1.20830e-05;0.0013419830537372485
1.20833e-05;0.00135010815018527
1.20835e-05;0.0013579085803826238
1.20838e-05;0.0013657090105800307
1.20840e-05;0.0013735094407774373
1.20843e-05;0.001381309870974791
1.20845e-05;0.001389110301172198
1.20848e-05;0.0013969107313696045
1.20850e-05;0.0014047111615669585
1.20853e-05;0.0014125115917643651
1.20855e-05;0.0014203120219617718
1.20858e-05;0.0014281124521591257
1.20860e-05;0.0014359128823565324
1.20863e-05;0.001443713312553939
1.20865e-05;0.00144781065281908
1.20868e-05;0.001447815997340673
1.20870e-05;0.0014478213418622659
1.20873e-05;0.0014478266863838588
1.20875e-05;0.0014478320309054518
1.20878e-05;0.0014478373754270447
1.20880e-05;0.0014478427199486378
1.20883e-05;0.0014478480644702306
1.20885e-05;0.0014478534089918237
1.20888e-05;0.0014478587535134166
1.20890e-05;0.0014478640980350095
1.20893e-05;0.0014467153114443502
1.20895e-05;0.0014442911846147518
1.20898e-05;0.001441867057785137
1.20900e-05;0.001439442930955522
1.20902e-05;0.0014370188041259238
1.20905e-05;0.0014345946772963089
1.20908e-05;0.0014321705504666941
1.20910e-05;0.0014297464236370956
1.20913e-05;0.001427322296807481
1.20915e-05;0.001424898169977866
1.20918e-05;0.0014224740431482512
1.20920e-05;0.001422232216276855
1.20923e-05;0.0014244018788114958
1.20925e-05;0.0014265715413461367
1.20928e-05;0.0014287412038807628
1.20930e-05;0.0014309108664154037
1.20933e-05;0.0014330805289500446
1.20935e-05;0.001435250191484671
1.20938e-05;0.0014374198540193118
1.20940e-05;0.0014395895165539526
1.20943e-05;0.0014417591790885787
1.20945e-05;0.0014439288416232196
1.20948e-05;0.0014460985041578605
1.20950e-05;0.0014482681666924866
1.20953e-05;0.0014504378292271275
1.20955e-05;0.0014629613511962483
1.20958e-05;0.001475749764012721
1.20960e-05;0.0014885381768292804
1.20963e-05;0.0015013265896458398
1.20965e-05;0.0015141150024623126
1.20968e-05;0.001526903415278872
1.20970e-05;0.0015396918280954314
1.20973e-05;0.001552480240911904
1.20975e-05;0.0015652686537284636
1.20978e-05;0.001578057066545023
1.20980e-05;0.0015908454793614958
1.20983e-05;0.001603633892178055
1.20985e-05;0.0016164223049946146
1.20987e-05;0.0016301136976754505
1.20990e-05;0.0016448029029480394
1.20993e-05;0.0016594921082206282
1.20995e-05;0.0016741813134931176
1.20998e-05;0.0016888705187657065
1.21000e-05;0.0017035597240382954
1.21003e-05;0.0017182489293108842
1.21005e-05;0.0017329381345833736
1.21008e-05;0.0017476273398559625
1.21010e-05;0.0017623165451285513
1.21013e-05;0.0017770057504010407
1.21015e-05;0.0017916949556736296
1.21018e-05;0.0018063841609462184
1.21020e-05;0.0018210733662187078
1.21023e-05;0.0018357625714912967
1.21025e-05;0.0018504517767638856
1.21028e-05;0.0018616903130663435
1.21030e-05;0.0018691157843335408
1.21033e-05;0.001876541255600738
1.21035e-05;0.001883966726867885
1.21038e-05;0.0018913921981350823
1.21040e-05;0.0018988176694022796
1.21043e-05;0.0019062431406694266
1.21045e-05;0.0019136686119366239
1.21048e-05;0.0019210940832038211
1.21050e-05;0.0019285195544709681
1.21053e-05;0.0019359450257381654
1.21055e-05;0.0019433704970053627
1.21058e-05;0.0019507959682725097
1.21060e-05;0.0019582214395397067
1.21063e-05;0.001965646910806904
1.21065e-05;0.001973072382074051
1.21068e-05;0.001978653792367411
1.21070e-05;0.001982197474763823
1.21072e-05;0.001985741157160211
1.21075e-05;0.001989284839556623
1.21078e-05;0.001992828521953035
1.21080e-05;0.0019963722043494225
1.21083e-05;0.0019999158867458344
1.21085e-05;0.0020034595691422463
1.21088e-05;0.0020070032515386582
1.21090e-05;0.0020105469339350463
1.21093e-05;0.002014090616331458
1.21095e-05;0.00201763429872787
1.21098e-05;0.002021177981124258
1.21100e-05;0.00202472166352067
1.21103e-05;0.002028265345917082
1.21105e-05;0.0020318090283134695
1.21108e-05;0.0020353527107098814
1.21110e-05;0.0020388963931062933
1.21113e-05;0.0020424400755026813
1.21115e-05;0.0020459837578990932
1.21118e-05;0.002049527440295505
1.21120e-05;0.002053071122691893
1.21123e-05;0.002056614805088305
1.21125e-05;0.002060158487484717
1.21128e-05;0.0020637021698811046
1.21130e-05;0.0020662350039799032
1.21133e-05;0.002067650828497511
1.21135e-05;0.002069066653015109
1.21138e-05;0.0020704824775327167
1.21140e-05;0.0020718983020503244
1.21143e-05;0.0020733141265679225
1.21145e-05;0.00207472995108553
1.21148e-05;0.002076145775603138
1.21150e-05;0.002077561600120736
1.21153e-05;0.0020789774246383437
1.21155e-05;0.0020803932491559513
1.21158e-05;0.0020818090736735495
1.21160e-05;0.002083224898191157
1.21163e-05;0.002084640722708765
1.21165e-05;0.002086056547226363
1.21168e-05;0.0020874723717439706
1.21170e-05;0.0020888881962615783
1.21173e-05;0.002090304020779186
1.21175e-05;0.002091719845296784
1.21178e-05;0.0020931356698143918
1.21180e-05;0.0020945514943319994
1.21183e-05;0.0020959673188495976
1.21185e-05;0.0020973831433672052
1.21188e-05;0.002098798967884813
1.21190e-05;0.002100214792402411
1.21193e-05;0.0021015084170722897
1.21195e-05;0.0021026670082251843
1.21198e-05;0.0021038255993780716
1.21200e-05;0.0021049841905309663
1.21203e-05;0.0021061427816838614
1.21205e-05;0.0021073013728367482
1.21208e-05;0.0021084599639896433
1.21210e-05;0.0021096185551425384
1.21213e-05;0.0021107771462954253
1.21215e-05;0.002110887832288627
1.21218e-05;0.00210984056005347
1.21220e-05;0.0021087932878183207
1.21223e-05;0.002107746015583164
1.21225e-05;0.0021066987433480074
1.21228e-05;0.0021056514711128575
1.21230e-05;0.002104604198877701
1.21233e-05;0.0021035569266425443
1.21235e-05;0.002102509654407395
1.21238e-05;0.0020966123290000215
1.21240e-05;0.002085355588261073
1.21243e-05;0.002074098847522201
1.21245e-05;0.0020628421067832533
1.21248e-05;0.002051585366044305
1.21250e-05;0.002040328625305433
1.21253e-05;0.0020290718845664846
1.21255e-05;0.0020178151438275367
1.21258e-05;0.0020065584030885884
1.21260e-05;0.0019953016623497164
1.21263e-05;0.0019840449216107685
1.21265e-05;0.001962292031153404
1.21268e-05;0.0019402706095230857
1.21270e-05;0.001918249187892618
1.21273e-05;0.0018962277662621504
1.21275e-05;0.001874206344631832
1.21278e-05;0.0018521849230013641
1.21280e-05;0.0018301635013708965
1.21283e-05;0.001808142079740578
1.21285e-05;0.0017861206581101104
1.21288e-05;0.0017640992364796426
1.21290e-05;0.001740703606957846
1.21293e-05;0.001715789447518342
1.21295e-05;0.0016908752880788378
1.21298e-05;0.0016659611286395024
1.21300e-05;0.0016410469691999982
1.21303e-05;0.001616132809760494
1.21305e-05;0.0015912186503211588
1.21308e-05;0.0015684638836774725
1.21310e-05;0.0015480952935247832
1.21313e-05;0.0015277267033722319
1.21315e-05;0.0015073581132195423
1.21318e-05;0.001486989523066853
1.21320e-05;0.0014666209329143017
1.21323e-05;0.0014462523427616124
1.21325e-05;0.0014296211629130965
1.21328e-05;0.0014171199035787959
1.21330e-05;0.0014046186442444105
1.21333e-05;0.0013954754203256087
1.21335e-05;0.0013900428993325793
1.21338e-05;0.001384610378339513
1.21340e-05;0.0013825727618377549
1.21343e-05;0.0013842865894005915
1.21345e-05;0.0013860004169634166
1.21348e-05;0.0013913078733356816
1.21350e-05;0.0014005863685108456
1.21353e-05;0.0014098648636859468
1.21355e-05;0.0014225248245743516
1.21358e-05;0.0014389213793821736
1.21360e-05;0.0014553179341898843
1.21363e-05;0.0014746839612243968
1.21365e-05;0.0014973313203223942
1.21368e-05;0.0015199786794202381
1.21370e-05;0.0015464893488153313
1.21373e-05;0.0015772690609835648
1.21375e-05;0.00160804877315159
1.21378e-05;0.0016388284853198238
1.21380e-05;0.0016696081974880575
1.21383e-05;0.0017003879096560827
1.21385e-05;0.0017311676218243165
1.21388e-05;0.0017642435558286502
1.21390e-05;0.0017998568654204175
1.21393e-05;0.001835470175012426
1.21395e-05;0.0018710834846044347
1.21398e-05;0.001906696794196202
1.21400e-05;0.0019423101037882105
1.21403e-05;0.0019779234133802193
1.21405e-05;0.002008364041687044
1.21408e-05;0.0020330887435056665
1.21410e-05;0.0020578134453242895
1.21413e-05;0.002082538147142745
1.21415e-05;0.0021072628489613677
1.21418e-05;0.0021319875507799907
1.21420e-05;0.0021567122525984464
1.21423e-05;0.002181436954417069
1.21425e-05;0.002206161656235692
1.21427e-05;0.002230886358054147
1.21430e-05;0.00225561105987277
1.21433e-05;0.002280335761691393
1.21435e-05;0.0023050604635100162
1.21438e-05;0.0023297851653284714
1.21440e-05;0.00234390664752917
1.21443e-05;0.0023463113390475897
1.21445e-05;0.002348716030565993
1.21448e-05;0.002351120722084413
1.21450e-05;0.0023535254136028325
1.21453e-05;0.002355930105121236
1.21455e-05;0.002358334796639656
1.21458e-05;0.0023607394881580757
1.21460e-05;0.002363144179676479
1.21463e-05;0.002365548871194899
1.21465e-05;0.0023679535627133185
1.21468e-05;0.002370358254231722
1.21470e-05;0.002372762945750142
1.21473e-05;0.0023751676372685618
1.21475e-05;0.002371967014402506
1.21478e-05;0.002362572395965028
1.21480e-05;0.0023531777775275494
1.21483e-05;0.0023437831590901346
1.21485e-05;0.0023343885406526565
1.21488e-05;0.002324993922215178
1.21490e-05;0.002315599303777763
1.21493e-05;0.0023062046853402846
1.21495e-05;0.0022968100669028065
1.21498e-05;0.0022874154484653917
1.21500e-05;0.0022768716896794466
1.21503e-05;0.00226629853154077
1.21505e-05;0.0022557253734021647
1.21508e-05;0.0022451522152634883
1.21510e-05;0.0022345790571248114
1.21512e-05;0.0022240058989862065
1.21515e-05;0.0022134327408475296
1.21518e-05;0.002202859582708853
1.21520e-05;0.002192286424570176
1.21523e-05;0.0021849325162544182
1.21525e-05;0.0021811359497363315
1.21528e-05;0.0021773393832182444
1.21530e-05;0.0021735428167001833
1.21533e-05;0.002169746250182096
1.21535e-05;0.002165949683664009
1.21538e-05;0.002162153117145948
1.21540e-05;0.0021583565506278607
1.21543e-05;0.0021545599841097736
1.21545e-05;0.0021507634175917125
1.21548e-05;0.0021469668510736254
1.21550e-05;0.0021431702845555387
1.21553e-05;0.002139373718037477
1.21555e-05;0.00213557715151939
1.21558e-05;0.0021317805850013033
1.21560e-05;0.0021279840184832417
1.21563e-05;0.0021308338373404595
1.21565e-05;0.0021338536958526483
1.21568e-05;0.0021368735543648167
1.21570e-05;0.0021398934128770055
1.21573e-05;0.0021429132713891947
1.21575e-05;0.002145933129901363
1.21578e-05;0.002148952988413552
1.21580e-05;0.0021519728469257407
1.21583e-05;0.002154992705437909
1.21585e-05;0.002158012563950098
1.21588e-05;0.0021610324224622867
1.21590e-05;0.002164052280974455
1.21593e-05;0.0021670721394866444
1.21595e-05;0.002170091997998833
1.21597e-05;0.0021731118565110016
1.21600e-05;0.0021767162942882205
1.21603e-05;0.0021809667049996206
1.21605e-05;0.0021852171157110208
1.21608e-05;0.002189467526422392
1.21610e-05;0.0021937179371337916
1.21613e-05;0.0021979683478451917
1.21615e-05;0.0022022187585565628
1.21618e-05;0.002206469169267963
1.21620e-05;0.0022084774194013157
1.21623e-05;0.002208008032823712
1.21625e-05;0.002207538646246105
1.21628e-05;0.002207069259668498
1.21630e-05;0.0022065998730908943
1.21633e-05;0.0022061304865132873
1.21635e-05;0.00220566109993568
1.21638e-05;0.0022051917133580766
1.21640e-05;0.002198657301733192
1.21643e-05;0.0021854209041499584
1.21645e-05;0.0021721845065668143
1.21648e-05;0.002158948108983581
1.21650e-05;0.002145711711400347
1.21653e-05;0.002132475313817203
1.21655e-05;0.002119238916233969
1.21658e-05;0.0021060025186507357
1.21660e-05;0.0020927661210675915
1.21663e-05;0.002079529723484358
1.21665e-05;0.002053975369162581
1.21668e-05;0.0020281058749567296
1.21670e-05;0.002002236380750703
1.21673e-05;0.0019763668865446756
1.21675e-05;0.001950497392338824
1.21678e-05;0.001924627898132797
1.21680e-05;0.00189875840392677
1.21682e-05;0.0018728889097209182
1.21685e-05;0.0018470194155148912
1.21688e-05;0.0018191171567406162
1.21690e-05;0.0017889686484473283
1.21693e-05;0.0017588201401542445
1.21695e-05;0.0017286716318609563
1.21698e-05;0.0016985231235676682
1.21700e-05;0.0016683746152745846
1.21703e-05;0.0016382261069812964
1.21705e-05;0.001610106214237733
1.21708e-05;0.0015842279862568348
1.21710e-05;0.0015583497582757613
1.21713e-05;0.0015324715302946878
1.21715e-05;0.0015065933023137898
1.21718e-05;0.0014807150743327163
1.21720e-05;0.0014548368463516426
1.21723e-05;0.001432875307651731
1.21725e-05;0.0014152417966790838
1.21728e-05;0.0013976082857064366
1.21730e-05;0.0013799747747339091
1.21733e-05;0.001362341263761262
1.21735e-05;0.001344707752788615
1.21738e-05;0.0013270742418160873
1.21740e-05;0.0013094407308434403
1.21743e-05;0.001291807219870793
1.21745e-05;0.0012773955995578853
1.21748e-05;0.0012630664073840538
1.21750e-05;0.001248737215210222
1.21753e-05;0.0012344080230364876
1.21755e-05;0.001220078830862656
1.21758e-05;0.0012057496386888244
1.21760e-05;0.0011914204465150898
1.21763e-05;0.0011770912543412582
1.21765e-05;0.0011634834928554922
1.21767e-05;0.0011506729281341708
1.21770e-05;0.0011378623634127629
1.21773e-05;0.0011250517986913548
1.21775e-05;0.0011122412339699466
1.21778e-05;0.0010994306692486252
1.21780e-05;0.0010866201045272171
1.21783e-05;0.0010738095398058092
1.21785e-05;0.0010609989750844878
1.21788e-05;0.0010481884103630797
1.21790e-05;0.0010353778456416716
1.21793e-05;0.0010225672809203504
1.21795e-05;0.0010124394120474603
1.21798e-05;0.0010023801766728957
1.21800e-05;0.0009923209412983991
1.21803e-05;0.0009822617059238345
1.21805e-05;0.0009722024705492697
1.21808e-05;0.0009621432351747731
1.21810e-05;0.0009520839998002085
1.21813e-05;0.0009420247644256437
1.21815e-05;0.0009319655290511472
1.21818e-05;0.0009219062936765825
1.21820e-05;0.0009118470583020179
1.21823e-05;0.0009037872307217465
1.21825e-05;0.0008979367926931725
1.21828e-05;0.0008920863546645985
1.21830e-05;0.0008862359166360642
1.21833e-05;0.0008803854786074902
1.21835e-05;0.0008745350405789162
1.21838e-05;0.0008686846025503819
1.21840e-05;0.0008628341645218079
1.21843e-05;0.0008569837264932339
1.21845e-05;0.0008511332884646995
1.21848e-05;0.0008452828504361255
1.21850e-05;0.0008394324124075516
1.21852e-05;0.0008335819743790173
1.21855e-05;0.0008292810560555058
1.21858e-05;0.0008250197803021269
1.21860e-05;0.000820758504548748
1.21863e-05;0.000816497228795398
1.21865e-05;0.0008122359530420191
1.21868e-05;0.0008079746772886403
1.21870e-05;0.0008037134015352903
1.21873e-05;0.0007994521257819114
1.21875e-05;0.0007951908500285326
1.21878e-05;0.0007909295742751825
1.21880e-05;0.0007866682985218038
1.21883e-05;0.0007824070227684249
1.21885e-05;0.0007784766661412132
1.21888e-05;0.0007749119824207406
1.21890e-05;0.0007713472987002679
1.21893e-05;0.0007677826149798193
1.21895e-05;0.0007642179312593466
1.21898e-05;0.000760653247538874
1.21900e-05;0.0007570885638184254
1.21903e-05;0.0007535238800979527
1.21905e-05;0.0007507019990225258
1.21908e-05;0.000747899121646068
1.21910e-05;0.000745096244269591
1.21913e-05;0.0007422933668931141
1.21915e-05;0.0007394904895166561
1.21918e-05;0.0007366876121401792
1.21920e-05;0.0007338847347637023
1.21923e-05;0.0007318590316941628
1.21925e-05;0.0007306921233132742
1.21928e-05;0.0007295252149323857
1.21930e-05;0.00073051863160627
1.21933e-05;0.0007338992549419173
1.21935e-05;0.0007372798782775646
1.21937e-05;0.0007428359245544436
1.21940e-05;0.0007507958609894856
1.21943e-05;0.0007587557974245275
1.21945e-05;0.0007686045273892552
1.21948e-05;0.0007805404157131072
1.21950e-05;0.0007948001526596969
1.21953e-05;0.0008116277934042439
1.21955e-05;0.0008284554341486769
1.21958e-05;0.0008476253304018791
1.21960e-05;0.000869383470466655
1.21963e-05;0.0008911416105312835
1.21965e-05;0.0009149648796973625
1.21968e-05;0.0009410701619046926
1.21970e-05;0.0009671754441118457
1.21973e-05;0.0009957408983490433
1.21975e-05;0.001027024896745291
