Time(s);Current(A)
8.00000e-06;0.01391365684718844
8.00025e-06;0.013905796977711864
8.00050e-06;0.013897236921216664
8.00075e-06;0.013887172665989603
8.00100e-06;0.01387710841076261
8.00125e-06;0.01386704415553555
8.00150e-06;0.01385697990030849
8.00175e-06;0.013846915645081496
8.00200e-06;0.013836851389854436
8.00225e-06;0.013826787134627374
8.00250e-06;0.01381672287940038
8.00275e-06;0.01380665862417332
8.00300e-06;0.01379659436894626
8.00325e-06;0.013786530113719267
8.00350e-06;0.013776465858492206
8.00375e-06;0.013766401603265145
8.00400e-06;0.013756337348038153
8.00425e-06;0.013746273092811092
8.00450e-06;0.013736208837584031
8.00475e-06;0.013726390910390414
8.00500e-06;0.013717102165123363
8.00525e-06;0.013707813419856312
8.00550e-06;0.013698524674589324
8.00575e-06;0.013689235929322275
8.00600e-06;0.013679947184055224
8.00625e-06;0.013670658438788235
8.00650e-06;0.013658507683495684
8.00675e-06;0.013640208525365311
8.00700e-06;0.013621909367235062
8.00725e-06;0.013603610209104689
8.00750e-06;0.013585311050974314
8.00775e-06;0.013567011892844066
8.00800e-06;0.013548712734713692
8.00825e-06;0.013525370804046973
8.00850e-06;0.013491195579052614
8.00875e-06;0.013457020354058487
8.00900e-06;0.01342284512906413
8.00925e-06;0.013388669904069771
8.00950e-06;0.013354494679075644
8.00975e-06;0.013320319454081287
8.01000e-06;0.013286144229086928
8.01025e-06;0.013251969004092801
8.01050e-06;0.013217793779098444
8.01075e-06;0.013174161766052489
8.01100e-06;0.013128420495021269
8.01125e-06;0.013082679223989738
8.01150e-06;0.013036937952958207
8.01175e-06;0.012991196681926987
8.01200e-06;0.012945455410895458
8.01225e-06;0.012899714139863927
8.01250e-06;0.012853972868832707
8.01275e-06;0.012808231597801176
8.01300e-06;0.012763367124355423
8.01325e-06;0.012720386258835125
8.01350e-06;0.012677405393314535
8.01375e-06;0.012634424527793946
8.01400e-06;0.012591443662273648
8.01425e-06;0.012548462796753057
8.01450e-06;0.012505481931232468
8.01475e-06;0.012462501065712171
8.01500e-06;0.01241952020019158
8.01525e-06;0.01239180567781193
8.01550e-06;0.01236749618640212
8.01575e-06;0.012343186694992144
8.01600e-06;0.012318877203582169
8.01625e-06;0.012294567712172359
8.01650e-06;0.012270258220762385
8.01675e-06;0.01224594872935241
8.01700e-06;0.012221639237942434
8.01725e-06;0.012206492519698419
8.01750e-06;0.01221103001641421
8.01775e-06;0.012215567513129999
8.01800e-06;0.012220105009845758
8.01825e-06;0.012224642506561549
8.01850e-06;0.01222918000327734
8.01875e-06;0.012233717499993099
8.01900e-06;0.01223825499670889
8.01925e-06;0.012242792493424678
8.01950e-06;0.012247329990140438
8.01975e-06;0.012259520659037878
8.02000e-06;0.012288152495213835
8.02025e-06;0.012316784331389597
8.02050e-06;0.012345416167565555
8.02075e-06;0.012374048003741513
8.02100e-06;0.012402679839917276
8.02125e-06;0.012431311676093234
8.02150e-06;0.01245994351226919
8.02175e-06;0.012488575348444953
8.02200e-06;0.012517207184620911
8.02225e-06;0.012547985224488752
8.02250e-06;0.012583373913780616
8.02275e-06;0.01261876260307272
8.02300e-06;0.012654151292364826
8.02325e-06;0.01268953998165669
8.02350e-06;0.012724928670948795
8.02375e-06;0.0127603173602409
8.02400e-06;0.012795706049532764
8.02425e-06;0.012831094738824869
8.02450e-06;0.012866483428116974
8.02475e-06;0.012889803130123178
8.02500e-06;0.012910430944811372
8.02525e-06;0.012931058759499568
8.02550e-06;0.012951686574187764
8.02575e-06;0.012972314388875819
8.02600e-06;0.012992942203564013
8.02625e-06;0.013013570018252209
8.02650e-06;0.013034197832940264
8.02675e-06;0.01305482564762846
8.02700e-06;0.013066509037083417
8.02725e-06;0.013058977284371614
8.02750e-06;0.013051445531659761
8.02775e-06;0.013043913778947907
8.02800e-06;0.013036382026236104
8.02825e-06;0.013028850273524252
8.02850e-06;0.013021318520812397
8.02875e-06;0.013013786768100595
8.02900e-06;0.013006255015388742
8.02925e-06;0.012998723262676887
8.02950e-06;0.012971391410082552
8.02975e-06;0.012939643309751551
8.03000e-06;0.012907895209420551
8.03025e-06;0.012876147109089766
8.03050e-06;0.012844399008758766
8.03075e-06;0.012812650908427765
8.03100e-06;0.01278090280809698
8.03125e-06;0.01274915470776598
8.03150e-06;0.01271740660743498
8.03175e-06;0.012682582359452691
8.03200e-06;0.012641149680753198
8.03225e-06;0.012599717002053704
8.03250e-06;0.01255828432335449
8.03275e-06;0.012516851644654997
8.03300e-06;0.012475418965955503
8.03325e-06;0.012433986287256291
8.03350e-06;0.012392553608556798
8.03375e-06;0.012351120929857304
8.03400e-06;0.01230968825115781
8.03425e-06;0.012268255572458598
8.03450e-06;0.012238414224656156
8.03475e-06;0.012211158226884847
8.03500e-06;0.012183902229113724
8.03525e-06;0.012156646231342416
8.03550e-06;0.012129390233571107
8.03575e-06;0.012102134235799984
8.03600e-06;0.012074878238028676
8.03625e-06;0.012047622240257367
8.03650e-06;0.012020366242486242
8.03675e-06;0.011993110244714934
8.03700e-06;0.01197524978409126
8.03725e-06;0.011977573580965845
8.03750e-06;0.011979897377840446
8.03775e-06;0.011982221174715047
8.03800e-06;0.011984544971589635
8.03825e-06;0.011986868768464236
8.03850e-06;0.011989192565338837
8.03875e-06;0.011991516362213423
8.03900e-06;0.011993840159088026
8.03925e-06;0.011996163955962627
8.03950e-06;0.012018446401004091
8.03975e-06;0.012045180456661265
8.04000e-06;0.012071914512318439
8.04025e-06;0.012098648567975432
8.04050e-06;0.012125382623632606
8.04075e-06;0.01215211667928978
8.04100e-06;0.012178850734946773
8.04125e-06;0.012205584790603947
8.04150e-06;0.012232318846261121
8.04175e-06;0.012262130251246712
8.04200e-06;0.012298552668491863
8.04225e-06;0.012334975085737014
8.04250e-06;0.012371397502981918
8.04275e-06;0.012407819920227067
8.04300e-06;0.012444242337472218
8.04325e-06;0.01248066475471737
8.04350e-06;0.012517087171962272
8.04375e-06;0.012553509589207422
8.04400e-06;0.012589932006452573
8.04425e-06;0.012626354423697476
8.04450e-06;0.0126574421960066
8.04475e-06;0.012677069649935244
8.04500e-06;0.012696697103863754
8.04525e-06;0.012716324557792398
8.04550e-06;0.012735952011721043
8.04575e-06;0.012755579465649553
8.04600e-06;0.012775206919578197
8.04625e-06;0.012794834373506841
8.04650e-06;0.012814461827435352
8.04675e-06;0.012834089281363996
8.04700e-06;0.01285371673529264
8.04725e-06;0.012862664112401731
8.04750e-06;0.012848667679348969
8.04775e-06;0.012834671246296208
8.04800e-06;0.01282067481324354
8.04825e-06;0.012806678380190778
8.04850e-06;0.012792681947138016
8.04875e-06;0.012778685514085349
8.04900e-06;0.012764689081032586
8.04925e-06;0.012750692647979824
8.04950e-06;0.012728359499534539
8.04975e-06;0.012688116740644515
8.05000e-06;0.012647873981754492
8.05025e-06;0.012607631222864742
8.05050e-06;0.012567388463974719
8.05075e-06;0.012527145705084695
8.05100e-06;0.012486902946194945
8.05125e-06;0.012446660187304922
8.05150e-06;0.012406417428414898
8.05175e-06;0.012362782124907467
8.05200e-06;0.012311858680969257
8.05225e-06;0.0122609352370307
8.05250e-06;0.012210011793092144
8.05275e-06;0.012159088349153932
8.05300e-06;0.012108164905215376
8.05325e-06;0.012057241461276819
8.05350e-06;0.012006318017338608
8.05375e-06;0.01195539457340005
8.05400e-06;0.011904471129461495
8.05425e-06;0.011864342755765641
8.05450e-06;0.011826622132780655
8.05475e-06;0.011788901509795668
8.05500e-06;0.011751180886810937
8.05525e-06;0.01171346026382595
8.05550e-06;0.011675739640840965
8.05575e-06;0.011638019017856233
8.05600e-06;0.011600298394871247
8.05625e-06;0.01156257777188626
8.05650e-06;0.011534398075698973
8.05675e-06;0.011526714974899242
8.05700e-06;0.01151903187409951
8.05725e-06;0.011511348773299832
8.05750e-06;0.0115036656725001
8.05775e-06;0.01149598257170037
8.05800e-06;0.01148829947090069
8.05825e-06;0.01148061637010096
8.05850e-06;0.011472933269301228
8.05875e-06;0.011474162219673787
8.05900e-06;0.011494536763638681
8.05925e-06;0.011514911307603574
8.05950e-06;0.01153528585156833
8.05975e-06;0.011555660395533223
8.06000e-06;0.011576034939498117
8.06025e-06;0.011596409483463011
8.06050e-06;0.011616784027427766
8.06075e-06;0.011637158571392659
8.06100e-06;0.011662731642340773
8.06125e-06;0.01169947261201097
8.06150e-06;0.011736213581681417
8.06175e-06;0.011772954551351864
8.06200e-06;0.01180969552102206
8.06225e-06;0.011846436490692508
8.06250e-06;0.011883177460362953
8.06275e-06;0.011919918430033151
8.06300e-06;0.011956659399703596
8.06325e-06;0.011993400369374043
8.06350e-06;0.01202725532740111
8.06375e-06;0.012060466584513763
8.06400e-06;0.012093677841626417
8.06425e-06;0.012126889098738845
8.06450e-06;0.0121601003558515
8.06475e-06;0.012193311612964152
8.06500e-06;0.01222652287007658
8.06525e-06;0.012259734127189234
8.06550e-06;0.012292945384301888
8.06575e-06;0.01231940284101385
8.06600e-06;0.012331351234077201
8.06625e-06;0.01234329962714055
8.06650e-06;0.012355248020203819
8.06675e-06;0.012367196413267167
8.06700e-06;0.012379144806330516
8.06725e-06;0.012391093199393785
8.06750e-06;0.012403041592457134
8.06775e-06;0.012414989985520482
8.06800e-06;0.012426938378583751
8.06825e-06;0.0124388867716471
8.06850e-06;0.01245083516471045
8.06875e-06;0.0124627835577738
8.06900e-06;0.012474731950837066
8.06925e-06;0.012486680343900417
8.06950e-06;0.012498628736963766
8.06975e-06;0.012510577130027034
8.07000e-06;0.012522525523090383
8.07025e-06;0.012534473916153732
8.07050e-06;0.012546422309217
8.07075e-06;0.01255837070228035
8.07100e-06;0.012570319095343698
8.07125e-06;0.012582267488406967
8.07150e-06;0.012594215881470316
8.07175e-06;0.012597228218160991
8.07200e-06;0.012598247441734345
8.07225e-06;0.012599266665307706
8.07250e-06;0.012600285888881067
8.07275e-06;0.012601305112454421
8.07300e-06;0.012602324336027782
8.07325e-06;0.012603343559601141
8.07350e-06;0.012604362783174495
8.07375e-06;0.012605382006747856
8.07400e-06;0.012606401230321217
8.07425e-06;0.01260742045389457
8.07450e-06;0.012608439677467932
8.07475e-06;0.012609458901041292
8.07500e-06;0.012610478124614645
8.07525e-06;0.012611497348188005
8.07550e-06;0.012612516571761366
8.07575e-06;0.01261353579533472
8.07600e-06;0.012614555018908081
8.07625e-06;0.012615574242481442
8.07650e-06;0.012616593466054796
8.07675e-06;0.012617612689628155
8.07700e-06;0.012618631913201516
8.07725e-06;0.012619651136774877
8.07750e-06;0.012622133331426328
8.07775e-06;0.01262775839960635
8.07800e-06;0.012633383467786374
8.07825e-06;0.012639008535966358
8.07850e-06;0.012644633604146381
8.07875e-06;0.012650258672326404
8.07900e-06;0.012655883740506389
8.07925e-06;0.012661508808686411
8.07950e-06;0.012667133876866434
8.07975e-06;0.012672758945046419
8.08000e-06;0.012678384013226442
8.08025e-06;0.012684009081406464
8.08050e-06;0.012689634149586449
8.08075e-06;0.012695259217766472
8.08100e-06;0.012700884285946495
8.08125e-06;0.012706509354126478
8.08150e-06;0.012714095996446748
8.08175e-06;0.01272212015157898
8.08200e-06;0.012730144306711159
8.08225e-06;0.01273816846184339
8.08250e-06;0.012746192616975622
8.08275e-06;0.0127542167721078
8.08300e-06;0.012762240927240032
8.08325e-06;0.012770265082372265
8.08350e-06;0.012778289237504441
8.08375e-06;0.012786313392636674
8.08400e-06;0.012794337547768906
8.08425e-06;0.012802361702901085
8.08450e-06;0.012810385858033317
8.08475e-06;0.012818410013165549
8.08500e-06;0.012826434168297726
8.08525e-06;0.012831647531579072
8.08550e-06;0.012830822523058357
8.08575e-06;0.012829997514537643
8.08600e-06;0.012829172506016933
8.08625e-06;0.012828347497496218
8.08650e-06;0.012827522488975503
8.08675e-06;0.012826697480454794
8.08700e-06;0.012808950966203407
8.08725e-06;0.01278743025070994
8.08750e-06;0.012765909535216618
8.08775e-06;0.012744388819723151
8.08800e-06;0.012722868104229684
8.08825e-06;0.012701347388736363
8.08850e-06;0.012671523768120562
8.08875e-06;0.012623863171013572
8.08900e-06;0.012576202573906906
8.08925e-06;0.012528541976799916
8.08950e-06;0.012480881379692927
8.08975e-06;0.01243322078258626
8.09000e-06;0.01238556018547927
8.09025e-06;0.01233789958837228
8.09050e-06;0.012290238991265613
8.09075e-06;0.012226952094646738
8.09100e-06;0.012160179881769744
8.09125e-06;0.012093407668893203
8.09150e-06;0.01202663545601621
8.09175e-06;0.011959863243139216
8.09200e-06;0.011893091030262676
8.09225e-06;0.011826318817385684
8.09250e-06;0.01175954660450869
8.09275e-06;0.011691752962194261
8.09300e-06;0.011621765002034483
8.09325e-06;0.011551777041874704
8.09350e-06;0.011482880556536729
8.09375e-06;0.011416328866236424
8.09400e-06;0.011349777175936118
8.09425e-06;0.011285228971535149
8.09450e-06;0.011224984818592264
8.09475e-06;0.011164740665648971
8.09500e-06;0.011107709801169123
8.09525e-06;0.011057581984472502
8.09550e-06;0.01100745416777554
8.09575e-06;0.010964816004168315
8.09600e-06;0.01093826772285645
8.09625e-06;0.010911719441544407
8.09650e-06;0.010885171160232363
8.09675e-06;0.010858622878920497
8.09700e-06;0.010832074597608455
8.09725e-06;0.01080552631629641
8.09750e-06;0.010808366033220666
8.09775e-06;0.010817760498951426
8.09800e-06;0.010827154964682187
8.09825e-06;0.010836549430412883
8.09850e-06;0.010845943896143642
8.09875e-06;0.010855338361874403
8.09900e-06;0.01087696898451799
8.09925e-06;0.0109248863152536
8.09950e-06;0.010972803645989206
8.09975e-06;0.01102072097672449
8.10000e-06;0.011068638307460098
8.10025e-06;0.011116555638195707
8.10050e-06;0.01116447296893099
8.10075e-06;0.011212390299666598
8.10100e-06;0.011260307630402207
8.10125e-06;0.01130822496113749
8.10150e-06;0.011374720656167405
8.10175e-06;0.011445360100976616
8.10200e-06;0.011515999545785348
8.10225e-06;0.01158663899059456
8.10250e-06;0.01165727843540377
8.10275e-06;0.011727917880212982
8.10300e-06;0.011798557325021714
8.10325e-06;0.011869196769830925
8.10350e-06;0.011939836214640136
8.10375e-06;0.012008201836176064
8.10400e-06;0.012071682645507004
8.10425e-06;0.012135163454837944
8.10450e-06;0.012198644264168454
8.10475e-06;0.012262125073499395
8.10500e-06;0.012325605882830335
8.10525e-06;0.012382004283720738
8.10550e-06;0.012423187678411093
8.10575e-06;0.012464371073101447
8.10600e-06;0.012505554467791523
8.10625e-06;0.012546737862481878
8.10650e-06;0.012587921257172232
8.10675e-06;0.012618383045518926
8.10700e-06;0.012625811806558395
8.10725e-06;0.012633240567597867
8.10750e-06;0.012640669328637288
8.10775e-06;0.012648098089676759
8.10800e-06;0.01265552685071623
8.10825e-06;0.01266295561175565
8.10850e-06;0.012670384372795121
8.10875e-06;0.012677813133834592
8.10900e-06;0.012685241894874013
8.10925e-06;0.012692670655913485
8.10950e-06;0.01267262990923287
8.10975e-06;0.012646462317110573
8.11000e-06;0.012620294724988098
8.11025e-06;0.012594127132865623
8.11050e-06;0.012567959540743325
8.11075e-06;0.01254179194862085
8.11100e-06;0.012515624356498375
8.11125e-06;0.0124894567643759
8.11150e-06;0.012463289172253603
8.11175e-06;0.012437121580131128
8.11200e-06;0.012406916374527104
8.11225e-06;0.012368037239047072
8.11250e-06;0.01232915810356678
8.11275e-06;0.012290278968086486
8.11300e-06;0.012251399832606456
8.11325e-06;0.012212520697126162
8.11350e-06;0.012173641561645868
8.11375e-06;0.012137053194245677
8.11400e-06;0.012100975763630619
8.11425e-06;0.01206489833301556
8.11450e-06;0.012028820902400747
8.11475e-06;0.011992743471785689
8.11500e-06;0.01195666604117063
8.11525e-06;0.011923091619404413
8.11550e-06;0.011894894364951027
8.11575e-06;0.011866697110497641
8.11600e-06;0.011838499856044446
8.11625e-06;0.011810302601591058
8.11650e-06;0.011782105347137672
8.11675e-06;0.011753908092684477
8.11700e-06;0.011724684260542542
8.11725e-06;0.011693255050663074
8.11750e-06;0.011661825840783822
8.11775e-06;0.011630396630904354
8.11800e-06;0.011598967421024889
8.11825e-06;0.011567538211145634
8.11850e-06;0.011536109001266169
8.11875e-06;0.011502012796757341
8.11900e-06;0.011462187137334963
8.11925e-06;0.011422361477912316
8.11950e-06;0.01138253581848967
8.11975e-06;0.011342710159067022
8.12000e-06;0.011302884499644644
8.12025e-06;0.011263058840221997
8.12050e-06;0.01122323318079935
8.12075e-06;0.011183407521376972
8.12100e-06;0.011143581861954325
8.12125e-06;0.011103756202531677
8.12150e-06;0.011061261589712174
8.12175e-06;0.011018171689014195
8.12200e-06;0.010975081788316214
8.12225e-06;0.010931991887618526
8.12250e-06;0.010888901986920545
8.12275e-06;0.010845812086222564
8.12300e-06;0.010802722185524876
8.12325e-06;0.010759632284826895
8.12350e-06;0.010716542384128913
8.12375e-06;0.010673452483431226
8.12400e-06;0.010633568503883974
8.12425e-06;0.01060057174506532
8.12450e-06;0.01056757498624689
8.12475e-06;0.010534578227428235
8.12500e-06;0.010501581468609581
8.12525e-06;0.010468584709791149
8.12550e-06;0.010435587950972495
8.12575e-06;0.01040259119215384
8.12600e-06;0.010376990250055044
8.12625e-06;0.010367277603339692
8.12650e-06;0.01035756495662434
8.12675e-06;0.010347852309909056
8.12700e-06;0.010338139663193704
8.12725e-06;0.010328427016478353
8.12750e-06;0.010318714369763067
8.12775e-06;0.010309001723047717
8.12800e-06;0.010309436333542053
8.12825e-06;0.010331670107806721
8.12850e-06;0.010353903882071238
8.12875e-06;0.010376137656335906
8.12900e-06;0.010398371430600574
8.12925e-06;0.010420605204865091
8.12950e-06;0.01044283897912976
8.12975e-06;0.010465072753394427
8.13000e-06;0.010487306527658944
8.13025e-06;0.010509540301923612
8.13050e-06;0.01053177407618828
8.13075e-06;0.010572440468492128
8.13100e-06;0.010617218103090117
8.13125e-06;0.010661995737688106
8.13150e-06;0.010706773372285792
8.13175e-06;0.01075155100688378
8.13200e-06;0.01079632864148177
8.13225e-06;0.010841106276079454
8.13250e-06;0.010885883910677444
8.13275e-06;0.010930661545275432
8.13300e-06;0.010975439179873118
8.13325e-06;0.01101999299191103
8.13350e-06;0.011064065970109558
8.13375e-06;0.011108138948307788
8.13400e-06;0.011152211926506317
8.13425e-06;0.011196284904704845
8.13450e-06;0.011240357882903075
8.13475e-06;0.011284430861101603
8.13500e-06;0.011323736710364275
8.13525e-06;0.011352801425272679
8.13550e-06;0.011381866140181279
8.13575e-06;0.011410930855089879
8.13600e-06;0.011439995569998281
8.13625e-06;0.01146906028490688
8.13650e-06;0.01149812499981548
8.13675e-06;0.011519364109457947
8.13700e-06;0.011523791616977641
8.13725e-06;0.011528219124497365
8.13750e-06;0.011532646632017089
8.13775e-06;0.011537074139536783
8.13800e-06;0.011541501647056506
8.13825e-06;0.01154592915457623
8.13850e-06;0.011550356662095924
8.13875e-06;0.011554784169615648
8.13900e-06;0.011559211677135372
8.13925e-06;0.011563639184655066
8.13950e-06;0.01156806669217479
8.13975e-06;0.011572494199694514
8.14000e-06;0.011576921707214206
8.14025e-06;0.01158134921473393
8.14050e-06;0.011585776722253653
8.14075e-06;0.011590204229773348
8.14100e-06;0.011580376404281924
8.14125e-06;0.011567369045210702
8.14150e-06;0.011554361686139568
8.14175e-06;0.011541354327068347
8.14200e-06;0.011528346967997124
8.14225e-06;0.01151533960892599
8.14250e-06;0.011502332249854768
8.14275e-06;0.011489324890783546
8.14300e-06;0.011476317531712412
8.14325e-06;0.01146331017264119
8.14350e-06;0.011450302813569967
8.14375e-06;0.011437295454498835
8.14400e-06;0.011424288095427611
8.14425e-06;0.01141128073635639
8.14450e-06;0.011398273377285256
8.14475e-06;0.011385266018214034
8.14500e-06;0.011372457404033047
8.14525e-06;0.011360075749800308
8.14550e-06;0.011347694095567651
8.14575e-06;0.01133531244133491
8.14600e-06;0.01132293078710217
8.14625e-06;0.011310549132869514
8.14650e-06;0.011298167478636774
8.14675e-06;0.011285785824404032
8.14700e-06;0.011273404170171376
8.14725e-06;0.011261022515938636
8.14750e-06;0.01124665147653154
8.14775e-06;0.011228006677984638
8.14800e-06;0.011209361879437607
8.14825e-06;0.011190717080890578
8.14850e-06;0.011172072282343674
8.14875e-06;0.011153427483796646
8.14900e-06;0.011134782685249615
8.14925e-06;0.011116137886702713
8.14950e-06;0.011097493088155682
8.14975e-06;0.011078848289608654
8.15000e-06;0.01105807617818322
8.15025e-06;0.011032734000097645
8.15050e-06;0.011007391822012068
8.15075e-06;0.010982049643926664
8.15100e-06;0.01095670746584109
8.15125e-06;0.010931365287755512
8.15150e-06;0.010906023109670109
8.15175e-06;0.010880680931584532
8.15200e-06;0.010855338753498957
