Time(s);Current(A)
1.00000e-06;0.011019618621770432
1.00025e-06;0.010994231300570742
1.00050e-06;0.01096884397937105
1.00075e-06;0.01094345665817134
1.00100e-06;0.010918069336971647
1.00125e-06;0.010892682015771937
1.00150e-06;0.010867294694572245
1.00175e-06;0.010841907373372555
1.00200e-06;0.010816520052172842
1.00225e-06;0.010791132730973152
1.00250e-06;0.01076574540977344
1.00275e-06;0.01074174069459099
1.00300e-06;0.010718952561650973
1.00325e-06;0.010696164428710934
1.00350e-06;0.010673376295770915
1.00375e-06;0.010650588162830876
1.00400e-06;0.010627800029890857
1.00425e-06;0.010605011896950818
1.00450e-06;0.0105822237640108
1.00475e-06;0.010559435631070781
1.00500e-06;0.010536647498130743
1.00525e-06;0.01051405603118457
1.00550e-06;0.010497425714410506
1.00575e-06;0.010480795397636456
1.00600e-06;0.010464648206421201
1.00625e-06;0.01046314505178577
1.00650e-06;0.01046164189715034
1.00675e-06;0.01046013874251491
1.00700e-06;0.01045863558787948
1.00725e-06;0.010457132433244051
1.00750e-06;0.01045562927860862
1.00775e-06;0.010467494451226933
1.00800e-06;0.010491122678066532
1.00825e-06;0.010514750904906108
1.00850e-06;0.010538379131745686
1.00875e-06;0.010562007358585285
1.00900e-06;0.01058563558542486
1.00925e-06;0.0106101488600378
1.00950e-06;0.0106614888502521
1.00975e-06;0.010712828840466444
1.01000e-06;0.010764168830680742
1.01025e-06;0.010815508820895043
1.01050e-06;0.010866848811109386
1.01075e-06;0.010918188801323687
1.01100e-06;0.01096952879153803
1.01125e-06;0.01102086878175233
1.01150e-06;0.01107220877196663
1.01175e-06;0.011131345610603674
1.01200e-06;0.011197343049599132
1.01225e-06;0.011263340488594648
1.01250e-06;0.011329337927590106
1.01275e-06;0.011395335366585565
1.01300e-06;0.011461332805581079
1.01325e-06;0.011527330244576538
1.01350e-06;0.011593327683572054
1.01375e-06;0.011659325122567512
1.01400e-06;0.01172499255912236
1.01425e-06;0.011780657279565942
1.01450e-06;0.011836322000009525
1.01475e-06;0.011891986720453154
1.01500e-06;0.011947651440896738
1.01525e-06;0.012003316161340366
1.01550e-06;0.012058980881783948
1.01575e-06;0.01210178960049119
1.01600e-06;0.012133286070282334
1.01625e-06;0.01216478254007345
1.01650e-06;0.012196279009864594
1.01675e-06;0.01222777547965571
1.01700e-06;0.012259271949446827
1.01725e-06;0.012290041014450711
1.01750e-06;0.012298761686208767
1.01775e-06;0.012307482357966831
1.01800e-06;0.012316203029724887
1.01825e-06;0.012324078603426963
1.01850e-06;0.012306338378889866
1.01875e-06;0.012288598154352768
1.01900e-06;0.012270857929815656
1.01925e-06;0.012253117705278559
1.01950e-06;0.012235377480741447
1.01975e-06;0.01221763725620435
1.02000e-06;0.012199897031667252
1.02025e-06;0.01218215680713014
1.02050e-06;0.012164416582593042
1.02075e-06;0.012133486994539377
1.02100e-06;0.01209095182597945
1.02125e-06;0.012048416657419524
1.02150e-06;0.012005881488859563
1.02175e-06;0.011963346320299637
1.02200e-06;0.011920811151739676
1.02225e-06;0.01187827598317975
1.02250e-06;0.011835740814619787
1.02275e-06;0.011793205646059863
1.02300e-06;0.011750534439449317
1.02325e-06;0.01170373977848673
1.02350e-06;0.011656945117524182
1.02375e-06;0.011610150456561594
1.02400e-06;0.011563355795599046
1.02425e-06;0.011516561134636498
1.02450e-06;0.01146976647367391
1.02475e-06;0.011428714553429496
1.02500e-06;0.011392715783751865
1.02525e-06;0.011356717014074265
1.02550e-06;0.011320718244396665
1.02575e-06;0.011284719474719035
1.02600e-06;0.011248720705041435
1.02625e-06;0.01121342898129759
1.02650e-06;0.011199568552834731
1.02675e-06;0.01118570812437186
1.02700e-06;0.011171847695909003
1.02725e-06;0.011157987267446145
1.02750e-06;0.011144126838983274
1.02775e-06;0.011130266410520416
1.02800e-06;0.011116405982057546
1.02825e-06;0.011102545553594688
1.02850e-06;0.01108868512513183
1.02875e-06;0.011074824696668959
1.02900e-06;0.011060964268206101
1.02925e-06;0.01105936758170275
1.02950e-06;0.011068562003082212
1.02975e-06;0.011077756424461675
1.03000e-06;0.011086950845841145
1.03025e-06;0.011096145267220607
1.03050e-06;0.011105339688600077
1.03075e-06;0.01111453410997954
1.03100e-06;0.01112372853135901
1.03125e-06;0.011132922952738471
1.03150e-06;0.011142117374117933
1.03175e-06;0.011151311795497403
1.03200e-06;0.01116078738355553
1.03225e-06;0.011178785425140633
1.03250e-06;0.01119678346672572
1.03275e-06;0.011214781508310808
1.03300e-06;0.01123277954989591
1.03325e-06;0.011250777591480998
1.03350e-06;0.011268775633066101
1.03375e-06;0.011286773674651189
1.03400e-06;0.011304771716236277
1.03425e-06;0.01132276975782138
1.03450e-06;0.011340767799406468
1.03475e-06;0.011358765840991571
1.03500e-06;0.011376290756034788
1.03525e-06;0.011379474715086758
1.03550e-06;0.011382658674138724
1.03575e-06;0.011385842633190691
1.03600e-06;0.01138902659224266
1.03625e-06;0.011392210551294626
1.03650e-06;0.011395394510346596
1.03675e-06;0.011398578469398563
1.03700e-06;0.01140176242845053
1.03725e-06;0.011404946387502498
1.03750e-06;0.011408130346554465
1.03775e-06;0.011411314305606435
1.03800e-06;0.01141355336411062
1.03825e-06;0.011387151507403418
1.03850e-06;0.011360749650696193
1.03875e-06;0.01133434779398899
1.03900e-06;0.011307945937281768
1.03925e-06;0.011281544080574565
1.03950e-06;0.01125514222386734
1.03975e-06;0.011228740367160138
1.04000e-06;0.011202338510452936
1.04025e-06;0.01117531393853029
1.04050e-06;0.011129414222841794
1.04075e-06;0.011083514507153263
1.04100e-06;0.01103761479146477
1.04125e-06;0.010991715075776275
1.04150e-06;0.010945815360087744
1.04175e-06;0.01089991564439925
1.04200e-06;0.010854015928710718
1.04225e-06;0.010808116213022224
1.04250e-06;0.010762080594309475
1.04275e-06;0.010711925614037379
1.04300e-06;0.010661770633765324
1.04325e-06;0.010611615653493226
1.04350e-06;0.010561460673221171
1.04375e-06;0.010511305692949117
1.04400e-06;0.01046115071267702
1.04425e-06;0.010410995732404966
1.04450e-06;0.010361307520846482
1.04475e-06;0.010325767552907225
1.04500e-06;0.010290227584967938
1.04525e-06;0.01025468761702868
1.04550e-06;0.010219147649089422
1.04575e-06;0.010183607681150134
1.04600e-06;0.010148067713210876
1.04625e-06;0.010112527745271589
1.04650e-06;0.010078093825963062
1.04675e-06;0.010077185387314566
1.04700e-06;0.010076276948666068
1.04725e-06;0.010075368510017573
1.04750e-06;0.010074460071369076
1.04775e-06;0.010073551632720579
1.04800e-06;0.010072643194072082
1.04825e-06;0.010072923224244322
1.04850e-06;0.010109226976479325
1.04875e-06;0.01014553072871436
1.04900e-06;0.010181834480949364
1.04925e-06;0.010218138233184399
1.04950e-06;0.010254441985419402
1.04975e-06;0.010290745737654407
1.05000e-06;0.010328130800884369
1.05025e-06;0.010398291521381739
1.05050e-06;0.010468452241879167
1.05075e-06;0.010538612962376537
1.05100e-06;0.010608773682873907
1.05125e-06;0.010678934403371336
1.05150e-06;0.010749095123868705
1.05175e-06;0.010819255844366136
1.05200e-06;0.010889416564863506
1.05225e-06;0.010959577285360875
1.05250e-06;0.011029975921004525
1.05275e-06;0.011107586011379473
1.05300e-06;0.011185196101754485
1.05325e-06;0.01126280619212943
1.05350e-06;0.011340416282504442
1.05375e-06;0.01141802637287939
1.05400e-06;0.011495636463254336
1.05425e-06;0.01157324655362935
1.05450e-06;0.011650856644004295
1.05475e-06;0.011728466734379307
1.05500e-06;0.011805383516573691
1.05525e-06;0.011861285409056926
1.05550e-06;0.011917187301540207
1.05575e-06;0.011973089194023442
1.05600e-06;0.012028991086506725
1.05625e-06;0.012084482312349336
1.05650e-06;0.012127525806573884
1.05675e-06;0.012170569300798469
1.05700e-06;0.012213612795023017
1.05725e-06;0.012256656289247603
1.05750e-06;0.012299276396217211
1.05775e-06;0.012329063196562023
1.05800e-06;0.012358849996906807
1.05825e-06;0.012388636797251593
1.05850e-06;0.012418423597596403
1.05875e-06;0.012448210397941188
1.05900e-06;0.012477997198285998
1.05925e-06;0.012507783998630784
1.05950e-06;0.012537570798975568
1.05975e-06;0.01256735759932038
1.06000e-06;0.012597144399665163
1.06025e-06;0.012626931200009973
1.06050e-06;0.012656406067691726
1.06075e-06;0.012676425932976089
1.06100e-06;0.012696445798260469
1.06125e-06;0.012716465663544832
1.06150e-06;0.012736485528829212
1.06175e-06;0.012756505394113576
1.06200e-06;0.012776525259397957
1.06225e-06;0.01279654512468232
1.06250e-06;0.012816564989966684
1.06275e-06;0.012836584855251064
1.06300e-06;0.012856604720535427
1.06325e-06;0.012876624585819807
1.06350e-06;0.012896386178442507
1.06375e-06;0.012908319258939748
1.06400e-06;0.012920252339437001
1.06425e-06;0.012932185419934244
1.06450e-06;0.012944118500431496
1.06475e-06;0.012956051580928739
1.06500e-06;0.012967984661425982
1.06525e-06;0.012979917741923235
1.06550e-06;0.012991850822420476
1.06575e-06;0.01300378390291773
1.06600e-06;0.013015716983414973
1.06625e-06;0.013019303990807918
1.06650e-06;0.013015547124239307
1.06675e-06;0.013011790257670698
1.06700e-06;0.013008033391102083
1.06725e-06;0.013004276524533473
1.06750e-06;0.013000519657964858
1.06775e-06;0.012996762791396247
1.06800e-06;0.012993005924827638
1.06825e-06;0.012989249058259024
1.06850e-06;0.012985492191690413
1.06875e-06;0.0129810691259707
1.06900e-06;0.012956452873339751
1.06925e-06;0.012931836620708802
1.06950e-06;0.012907220368077833
1.06975e-06;0.012882604115446884
1.07000e-06;0.012857987862815914
1.07025e-06;0.012833371610184965
1.07050e-06;0.012808755357553995
1.07075e-06;0.012784139104923046
1.07100e-06;0.012759522852292097
1.07125e-06;0.012734906599661127
1.07150e-06;0.012710290347030178
1.07175e-06;0.012685407623307903
1.07200e-06;0.012652447884561617
1.07225e-06;0.012619488145815332
1.07250e-06;0.012586528407069019
1.07275e-06;0.012553568668322733
1.07300e-06;0.012520608929576418
1.07325e-06;0.012487649190830133
1.07350e-06;0.012454689452083847
1.07375e-06;0.012421729713337534
1.07400e-06;0.012388769974591249
1.07425e-06;0.012355810235844936
1.07450e-06;0.01232285049709865
1.07475e-06;0.012290199870496735
1.07500e-06;0.012266918753442187
1.07525e-06;0.012243637636387637
1.07550e-06;0.012220356519333068
1.07575e-06;0.01219707540227852
1.07600e-06;0.01217379428522395
1.07625e-06;0.012150513168169402
1.07650e-06;0.012127232051114852
1.07675e-06;0.012103950934060283
1.07700e-06;0.012080669817005734
1.07725e-06;0.012057388699951165
1.07750e-06;0.012034250452529743
1.07775e-06;0.012015442731798139
1.07800e-06;0.011996635011066518
1.07825e-06;0.011977827290334912
1.07850e-06;0.011959019569603291
1.07875e-06;0.011940211848871686
1.07900e-06;0.011921404128140065
1.07925e-06;0.011902596407408459
1.07950e-06;0.011883788686676854
1.07975e-06;0.011864980965945232
1.08000e-06;0.011846173245213627
1.08025e-06;0.01182737862546188
1.08050e-06;0.011808981109991548
1.08075e-06;0.011790583594521217
1.08100e-06;0.01177218607905087
1.08125e-06;0.01175378856358054
1.08150e-06;0.011735391048110192
1.08175e-06;0.011716993532639861
1.08200e-06;0.01169859601716953
1.08225e-06;0.011680198501699183
1.08250e-06;0.01166180098622885
1.08275e-06;0.011643403470758503
1.08300e-06;0.011625112904711498
1.08325e-06;0.011610064086556729
1.08350e-06;0.011595015268401948
1.08375e-06;0.011579966450247179
1.08400e-06;0.011564917632092398
1.08425e-06;0.011549868813937629
1.08450e-06;0.011534819995782849
1.08475e-06;0.01151977117762808
1.08500e-06;0.01150472235947331
1.08525e-06;0.01148967354131853
1.08550e-06;0.01147462472316376
1.08575e-06;0.011459975501676049
1.08600e-06;0.011457438469415436
1.08625e-06;0.011454901437154821
1.08650e-06;0.011452364404894205
1.08675e-06;0.01144982737263359
1.08700e-06;0.011447290340372973
1.08725e-06;0.01144475330811236
1.08750e-06;0.011442216275851746
1.08775e-06;0.01143967924359113
1.08800e-06;0.011447564669101474
1.08825e-06;0.011464621020300358
1.08850e-06;0.01148167737149923
1.08875e-06;0.011498733722698114
1.08900e-06;0.011515790073896985
1.08925e-06;0.011532846425095855
1.08950e-06;0.01154990277629474
1.08975e-06;0.011566959127493611
1.09000e-06;0.011584567122438811
1.09025e-06;0.011618896011201894
1.09050e-06;0.011653224899964974
1.09075e-06;0.011687553788728084
1.09100e-06;0.011721882677491165
1.09125e-06;0.011756211566254275
1.09150e-06;0.011790540455017356
1.09175e-06;0.011824869343780436
1.09200e-06;0.011859198232543547
1.09225e-06;0.011893527121306627
1.09250e-06;0.011927856010069737
1.09275e-06;0.01196220885915949
1.09300e-06;0.011997287970589297
1.09325e-06;0.012032367082019076
1.09350e-06;0.012067446193448853
1.09375e-06;0.012102525304878662
1.09400e-06;0.012137604416308439
1.09425e-06;0.012172683527738247
1.09450e-06;0.012207762639168025
1.09475e-06;0.012242841750597803
1.09500e-06;0.01227792086202761
1.09525e-06;0.01231299997345739
1.09550e-06;0.012347404685297561
1.09575e-06;0.012361367646457781
1.09600e-06;0.012375330607618001
1.09625e-06;0.012389293568778234
1.09650e-06;0.012403256529938456
1.09675e-06;0.012417219491098688
1.09700e-06;0.012431182452258908
1.09725e-06;0.012428388131364767
1.09750e-06;0.012410848748237628
1.09775e-06;0.01239330936511049
1.09800e-06;0.012375769981983337
1.09825e-06;0.012358230598856199
1.09850e-06;0.012340691215729047
1.09875e-06;0.012322034338855967
1.09900e-06;0.012269505068095252
1.09925e-06;0.012216975797334492
1.09950e-06;0.012164446526573777
1.09975e-06;0.012111917255813018
1.10000e-06;0.012059387985052303
1.10025e-06;0.012006858714291588
1.10050e-06;0.011954329443530828
1.10075e-06;0.011900992680219604
1.10100e-06;0.011823179980618484
1.10125e-06;0.01174536728101743
1.10150e-06;0.01166755458141631
1.10175e-06;0.011589741881815255
1.10200e-06;0.011511929182214201
1.10225e-06;0.01143411648261308
1.10250e-06;0.011356303783012027
1.10275e-06;0.011278307335971287
1.10300e-06;0.01119474131355533
1.10325e-06;0.011111175291139376
1.10350e-06;0.011027705669762345
1.10375e-06;0.010947158063810717
1.10400e-06;0.010866610457859022
1.10425e-06;0.010786281947881868
1.10450e-06;0.01071259446401486
1.10475e-06;0.010638906980147788
1.10500e-06;0.01056558468598247
1.10525e-06;0.010503331670245678
1.10550e-06;0.01044107865450894
1.10575e-06;0.010379682093275493
1.10600e-06;0.010344245555872168
1.10625e-06;0.010308809018468843
1.10650e-06;0.010273372481065489
1.10675e-06;0.010237935943662166
1.10700e-06;0.01020249940625881
1.10725e-06;0.010167062868855487
1.10750e-06;0.010153608922220888
1.10775e-06;0.01015949788978078
1.10800e-06;0.01016538685734067
1.10825e-06;0.010171275824900562
1.10850e-06;0.01017716479246045
1.10875e-06;0.01018305376002034
1.10900e-06;0.010190345127960089
1.10925e-06;0.01024014470518964
1.10950e-06;0.010289944282419236
1.10975e-06;0.010339743859648788
1.11000e-06;0.010389543436878384
1.11025e-06;0.010439343014107937
1.11050e-06;0.01048914259133749
1.11075e-06;0.010538942168567085
1.11100e-06;0.010588741745796637
1.11125e-06;0.010639446109356075
1.11150e-06;0.01071757548450257
1.11175e-06;0.010795704859649065
1.11200e-06;0.010873834234795626
1.11225e-06;0.010951963609942121
1.11250e-06;0.011030092985088683
1.11275e-06;0.011108222360235178
1.11300e-06;0.011186351735381673
1.11325e-06;0.011264481110528234
1.11350e-06;0.011342482422142334
1.11375e-06;0.011416601995335335
1.11400e-06;0.011490721568528272
1.11425e-06;0.011564841141721271
1.11450e-06;0.011638960714914208
1.11475e-06;0.011713080288107146
1.11500e-06;0.011787199861300146
1.11525e-06;0.011860338792830676
1.11550e-06;0.01190375345901507
1.11575e-06;0.011947168125199428
1.11600e-06;0.011990582791383785
1.11625e-06;0.012033997457568179
1.11650e-06;0.012077412123752537
1.11675e-06;0.01212082678993693
1.11700e-06;0.012162802808605391
1.11725e-06;0.012161171929731157
1.11750e-06;0.012159541050856922
1.11775e-06;0.012157910171982688
1.11800e-06;0.012156279293108453
1.11825e-06;0.012154648414234219
1.11850e-06;0.012153017535359984
1.11875e-06;0.012150012150270246
1.11900e-06;0.012105344056946538
1.11925e-06;0.012060675963622793
1.11950e-06;0.012016007870299085
1.11975e-06;0.01197133977697534
1.12000e-06;0.011926671683651632
1.12025e-06;0.011882003590327924
1.12050e-06;0.011836557903597614
1.12075e-06;0.011767542554646591
1.12100e-06;0.011698527205695511
1.12125e-06;0.011629193712494598
1.12150e-06;0.011550216937285489
1.12175e-06;0.011471240162076313
1.12200e-06;0.011392061126124934
1.12225e-06;0.011306751357408367
1.12250e-06;0.011221441588691872
1.12275e-06;0.011136065777877128
1.12300e-06;0.011048688162604056
1.12325e-06;0.010961310547331057
1.12350e-06;0.010874008888898506
1.12375e-06;0.010789009561040216
1.12400e-06;0.010704010233181856
1.12425e-06;0.01061923698127679
1.12450e-06;0.010541316325867295
1.12475e-06;0.010463395670457733
1.12500e-06;0.010386148814831492
1.12525e-06;0.01032932552910504
1.12550e-06;0.010272502243378634
1.12575e-06;0.01021567895765223
1.12600e-06;0.010158855671925779
1.12625e-06;0.010102032386199375
1.12650e-06;0.010045209100472923
1.12675e-06;0.010006771913916366
1.12700e-06;0.009984513017822265
1.12725e-06;0.009962254121728145
1.12750e-06;0.009939995225634045
1.12775e-06;0.009917736329539925
1.12800e-06;0.009895477433445824
1.12825e-06;0.009874512598835507
1.12850e-06;0.009892772109233419
1.12875e-06;0.009911031619631331
1.12900e-06;0.009929291130029258
1.12925e-06;0.00994755064042717
1.12950e-06;0.009965810150825097
1.12975e-06;0.00998406966122301
1.13000e-06;0.010002329171620921
1.13025e-06;0.010020588682018848
1.13050e-06;0.01003884819241676
1.13075e-06;0.010073831810752295
1.13100e-06;0.010123531300759894
1.13125e-06;0.010173230790767493
1.13150e-06;0.010222930280775134
1.13175e-06;0.010272629770782733
1.13200e-06;0.010322329260790374
1.13225e-06;0.010372028750797973
1.13250e-06;0.010421728240805615
1.13275e-06;0.010471427730813214
1.13300e-06;0.010521258993811877
1.13325e-06;0.010575084432765858
1.13350e-06;0.010628909871719794
1.13375e-06;0.010682735310673775
1.13400e-06;0.010736560749627711
1.13425e-06;0.010790386188581648
1.13450e-06;0.010844211627535629
1.13475e-06;0.010898037066489565
1.13500e-06;0.01095118081238113
1.13525e-06;0.010983661734908742
1.13550e-06;0.011016142657436353
1.13575e-06;0.011048623579963992
1.13600e-06;0.011081104502491603
1.13625e-06;0.011113585425019243
1.13650e-06;0.011146066347546854
1.13675e-06;0.011178547270074493
1.13700e-06;0.011209894954837998
1.13725e-06;0.011206893028261609
1.13750e-06;0.011203891101685216
1.13775e-06;0.011200889175108825
1.13800e-06;0.011197887248532433
1.13825e-06;0.011194885321956043
1.13850e-06;0.011191883395379652
1.13875e-06;0.01118888146880326
1.13900e-06;0.01118587954222687
1.13925e-06;0.011165375288534082
1.13950e-06;0.011129470392800699
1.13975e-06;0.011093565497067316
1.14000e-06;0.011057660601333903
1.14025e-06;0.01102175570560052
1.14050e-06;0.010985850809867108
1.14075e-06;0.010949945914133724
1.14100e-06;0.010914041018400312
1.14125e-06;0.010877533522127962
1.14150e-06;0.010822760578869677
1.14175e-06;0.010767987635611345
1.14200e-06;0.010713214692353059
1.14225e-06;0.010658441749094727
1.14250e-06;0.010603668805836441
1.14275e-06;0.010548895862578156
1.14300e-06;0.010494122919319825
1.14325e-06;0.01043934997606154
1.14350e-06;0.010384577032803207
1.14375e-06;0.01033008279889919
1.14400e-06;0.010284036534429566
1.14425e-06;0.010237990269959904
1.14450e-06;0.010191944005490281
1.14475e-06;0.010145897741020619
1.14500e-06;0.010099851476550995
1.14525e-06;0.010053805212081332
1.14550e-06;0.010007758947611708
1.14575e-06;0.009961712683142086
1.14600e-06;0.009915666418672423
1.14625e-06;0.009870673915568215
1.14650e-06;0.009857622011761578
1.14675e-06;0.009844570107954951
1.14700e-06;0.009831518204148324
1.14725e-06;0.009818466300341687
1.14750e-06;0.00980541439653506
1.14775e-06;0.009792362492728421
1.14800e-06;0.009779310588921794
1.14825e-06;0.009767330908722267
1.14850e-06;0.009787851437500718
1.14875e-06;0.009808371966279152
1.14900e-06;0.009828892495057603
1.14925e-06;0.009849413023836037
1.14950e-06;0.009869933552614488
1.14975e-06;0.009890454081392922
1.15000e-06;0.009910974610171356
1.15025e-06;0.009932355391917874
1.15050e-06;0.00997981133284565
1.15075e-06;0.010027267273773465
1.15100e-06;0.010074723214701242
1.15125e-06;0.010122179155629019
1.15150e-06;0.010169635096556833
1.15175e-06;0.01021709103748461
