Time(s);Current(A)
5.25000e-06;-0.009050069612771518
5.25025e-06;-0.009057157908886917
5.25050e-06;-0.009064246205002315
5.25075e-06;-0.009071334501117738
5.25100e-06;-0.009078422797233136
5.25125e-06;-0.009080048264935803
5.25150e-06;-0.009077415933418785
5.25175e-06;-0.009074783601901778
5.25200e-06;-0.009072151270384762
5.25225e-06;-0.009069518938867755
5.25250e-06;-0.009066886607350746
5.25275e-06;-0.00906425427583373
5.25300e-06;-0.009061621944316723
5.25325e-06;-0.009058989612799715
5.25350e-06;-0.009054698608001758
5.25375e-06;-0.009049114811765508
5.25400e-06;-0.009043531015529257
5.25425e-06;-0.009037947219292988
5.25450e-06;-0.009032363423056739
5.25475e-06;-0.009026779626820488
5.25500e-06;-0.009021195830584219
5.25525e-06;-0.009015612034347968
5.25550e-06;-0.00901002823811172
5.25575e-06;-0.009004744895402766
5.25600e-06;-0.008999695730064488
5.25625e-06;-0.008994329130180782
5.25650e-06;-0.008988715117701
5.25675e-06;-0.008979178490041753
5.25700e-06;-0.008966584525306043
5.25725e-06;-0.008953990560570377
5.25750e-06;-0.008936228492763104
5.25775e-06;-0.008914438338484751
5.25800e-06;-0.008892648184206473
5.25825e-06;-0.00886590067757426
5.25850e-06;-0.008835289346309979
5.25875e-06;-0.008804678015045801
5.25900e-06;-0.00876567472279412
5.25925e-06;-0.008720130627456576
5.25950e-06;-0.008674586532119185
5.25975e-06;-0.008629042436781793
5.26000e-06;-0.008583498341444248
5.26025e-06;-0.008529435067053564
5.26050e-06;-0.008468731834168953
5.26075e-06;-0.008408028601284544
5.26100e-06;-0.008347325368400138
5.26125e-06;-0.008286622135515525
5.26150e-06;-0.008220481569006701
5.26175e-06;-0.0081501030742473
5.26200e-06;-0.008079724579487661
5.26225e-06;-0.008007539002001393
5.26250e-06;-0.007933944960832703
5.26275e-06;-0.007859481049565657
5.26300e-06;-0.007783905523697761
5.26325e-06;-0.00770780805293528
5.26350e-06;-0.007631636018471309
5.26375e-06;-0.007555839772497451
5.26400e-06;-0.007480868766670701
5.26425e-06;-0.007407145786820832
5.26450e-06;-0.007334987271017109
5.26475e-06;-0.007264613300039061
5.26500e-06;-0.007196312383705641
5.26525e-06;-0.007130509174279635
5.26550e-06;-0.00707102696036038
5.26575e-06;-0.007015547608929249
5.26600e-06;-0.006960068257498117
5.26625e-06;-0.006904588906066798
5.26650e-06;-0.006855646534213392
5.26675e-06;-0.0068117991689085645
5.26700e-06;-0.006767951803603588
5.26725e-06;-0.00672410443829876
5.26750e-06;-0.0066866287236828
5.26775e-06;-0.006654119156137956
5.26800e-06;-0.0066216095885932216
5.26825e-06;-0.006589100021048487
5.26850e-06;-0.006556590453503643
5.26875e-06;-0.0065240808859589085
5.26900e-06;-0.006491571318414064
5.26925e-06;-0.00645906175086933
5.26950e-06;-0.006427196615484841
5.26975e-06;-0.006405083949677262
5.27000e-06;-0.006382971283869758
5.27025e-06;-0.006360858618062254
5.27050e-06;-0.006338745952254675
5.27075e-06;-0.006316633286447171
5.27100e-06;-0.006294520620639667
5.27125e-06;-0.006272407954832088
5.27150e-06;-0.006250295289024584
5.27175e-06;-0.006231563581548983
5.27200e-06;-0.00621546703678648
5.27225e-06;-0.006199370492024031
5.27250e-06;-0.006183273947261582
5.27275e-06;-0.006167177402499079
5.27300e-06;-0.006151080857736631
5.27325e-06;-0.006134984312974127
5.27350e-06;-0.006119146039332689
5.27375e-06;-0.006107216293857235
5.27400e-06;-0.00609528654838174
5.27425e-06;-0.006083356802906286
5.27450e-06;-0.0060714270574308326
5.27475e-06;-0.006059497311955339
5.27500e-06;-0.006047567566479885
5.27525e-06;-0.006035637821004431
5.27550e-06;-0.006024811359025534
5.27575e-06;-0.00601514549663734
5.27600e-06;-0.006006053671440295
5.27625e-06;-0.005997647923051018
5.27650e-06;-0.005990204646370992
5.27675e-06;-0.0059841346123607276
5.27700e-06;-0.005979716402028146
5.27725e-06;-0.005976998979151767
5.27750e-06;-0.005975945267858591
5.27775e-06;-0.005976955274749954
5.27800e-06;-0.005979011634994705
5.27825e-06;-0.005982877607673042
5.27850e-06;-0.005988154015719526
5.27875e-06;-0.0059960580036996945
5.27900e-06;-0.006006009961511641
5.27925e-06;-0.006015961919323552
5.27950e-06;-0.006029646659653455
5.27975e-06;-0.006046240779023495
5.28000e-06;-0.006062834898393479
5.28025e-06;-0.0060794290177634625
5.28050e-06;-0.006096023137133502
5.28075e-06;-0.006116454367605306
5.28100e-06;-0.006139876292166568
5.28125e-06;-0.006163298216727909
5.28150e-06;-0.006186720141289172
5.28175e-06;-0.0062101420658505135
5.28200e-06;-0.006235603143175989
5.28225e-06;-0.0062626535625761245
5.28250e-06;-0.006289703981976352
5.28275e-06;-0.006317571583795306
5.28300e-06;-0.006346076108175274
5.28325e-06;-0.00637458063255534
5.28350e-06;-0.006403140636014981
5.28375e-06;-0.006431743880587859
5.28400e-06;-0.006460347125160833
5.28425e-06;-0.006488153773891617
5.28450e-06;-0.0065153395455059306
5.28475e-06;-0.006542525317120336
5.28500e-06;-0.0065681486024530365
5.28525e-06;-0.0065925540657412645
5.28550e-06;-0.006616959529029575
5.28575e-06;-0.00663653493944426
5.28600e-06;-0.006652345744092845
5.28625e-06;-0.006668156548741378
5.28650e-06;-0.006683967353389909
5.28675e-06;-0.006699778158038495
5.28700e-06;-0.006715588962687026
5.28725e-06;-0.006731399767335558
5.28750e-06;-0.006747210571984143
5.28775e-06;-0.006763021376632675
5.28800e-06;-0.006772712995809376
5.28825e-06;-0.006777635242576808
5.28850e-06;-0.006782557489344223
5.28875e-06;-0.006787479736111638
5.28900e-06;-0.006792401982879069
5.28925e-06;-0.0067973242296464845
5.28950e-06;-0.006802246476413899
5.28975e-06;-0.0068071687231813305
5.29000e-06;-0.006812090969948746
5.29025e-06;-0.006812634440213798
5.29050e-06;-0.006809765035361407
5.29075e-06;-0.006806895630509016
5.29100e-06;-0.006804026225656615
5.29125e-06;-0.006801156820804225
5.29150e-06;-0.006798287415951834
5.29175e-06;-0.006795418011099433
5.29200e-06;-0.006792548606247043
5.29225e-06;-0.006789444330233997
5.29250e-06;-0.006782785647743879
5.29275e-06;-0.0067761269652537835
5.29300e-06;-0.006769468282763689
5.29325e-06;-0.006762809600273571
5.29350e-06;-0.006756150917783476
5.29375e-06;-0.006749492235293381
5.29400e-06;-0.006742833552803263
5.29425e-06;-0.006736174870313168
5.29450e-06;-0.006729280378643792
5.29475e-06;-0.006722202094246071
5.29500e-06;-0.00671512380984835
5.29525e-06;-0.006708045525450604
5.29550e-06;-0.006701592558321237
5.29575e-06;-0.006695626971569537
5.29600e-06;-0.006689661384817818
5.29625e-06;-0.006683695798066118
5.29650e-06;-0.006678961087971342
5.29675e-06;-0.006675185739084482
5.29700e-06;-0.006673483833569372
5.29725e-06;-0.006673397996672079
5.29750e-06;-0.006673312159774785
5.29775e-06;-0.006675572058619083
5.29800e-06;-0.006679660254280786
5.29825e-06;-0.006683748449942504
5.29850e-06;-0.006691988330066887
5.29875e-06;-0.006703464086831336
5.29900e-06;-0.006714939843595744
5.29925e-06;-0.006726415600360153
5.29950e-06;-0.006737891357124601
5.29975e-06;-0.00674936711388901
5.30000e-06;-0.006761399147507247
5.30025e-06;-0.006781849558441917
5.30050e-06;-0.006802299969376517
5.30075e-06;-0.0068227503803111175
5.30100e-06;-0.0068432007912457874
5.30125e-06;-0.006863651202180387
5.30150e-06;-0.006884101613114988
5.30175e-06;-0.006907694238686145
5.30200e-06;-0.006933735947040584
5.30225e-06;-0.006959777655395023
5.30250e-06;-0.00698581936374955
5.30275e-06;-0.00701186107210399
5.30300e-06;-0.007037902780458517
5.30325e-06;-0.007063944488812956
5.30350e-06;-0.007089911726596824
5.30375e-06;-0.007115820921053592
5.30400e-06;-0.007141730115510271
5.30425e-06;-0.0071676393099669505
5.30450e-06;-0.007193548504423718
5.30475e-06;-0.0072194576988803974
5.30500e-06;-0.007245366893337077
5.30525e-06;-0.007268891559065787
5.30550e-06;-0.007290557692221213
5.30575e-06;-0.007312223825376638
5.30600e-06;-0.007331575364349255
5.30625e-06;-0.007349122878638872
5.30650e-06;-0.00736667039292849
5.30675e-06;-0.007384926050565448
5.30700e-06;-0.00740373364429852
5.30725e-06;-0.0074225412380316555
5.30750e-06;-0.0074439003460426405
5.30775e-06;-0.007467248137326963
5.30800e-06;-0.007490595928611365
5.30825e-06;-0.007513943719895688
5.30850e-06;-0.00753729151118001
5.30875e-06;-0.007560639302464412
5.30900e-06;-0.007583987093748735
5.30925e-06;-0.007612073299394764
5.30950e-06;-0.007643852686562393
5.30975e-06;-0.007675632073729915
5.31000e-06;-0.007707411460897437
5.31025e-06;-0.007739190848065067
5.31050e-06;-0.007770970235232589
5.31075e-06;-0.007802749622400111
5.31100e-06;-0.007838633175426508
5.31125e-06;-0.007877715568476709
5.31150e-06;-0.007916797961527045
5.31175e-06;-0.007955880354577248
5.31200e-06;-0.007994962747627449
5.31225e-06;-0.008034045140677785
5.31250e-06;-0.008073127533727988
5.31275e-06;-0.008112244862708867
5.31300e-06;-0.008151890892181343
5.31325e-06;-0.008191536921653685
5.31350e-06;-0.008231182951126027
5.31375e-06;-0.008270828980598504
5.31400e-06;-0.008310475010070846
5.31425e-06;-0.008350121039543188
5.31450e-06;-0.008389767069015664
5.31475e-06;-0.008424632536474838
5.31500e-06;-0.008455771971987517
5.31525e-06;-0.0084869114075003
5.31550e-06;-0.00851805084301298
5.31575e-06;-0.008549190278525765
5.31600e-06;-0.008580329714038444
5.31625e-06;-0.008611469149551122
5.31650e-06;-0.008635479598093625
5.31675e-06;-0.008653933621863548
5.31700e-06;-0.008672387645633472
5.31725e-06;-0.008690841669403458
5.31750e-06;-0.008709295693173382
5.31775e-06;-0.008727749716943305
5.31800e-06;-0.00874620374071329
5.31825e-06;-0.008756944449453678
5.31850e-06;-0.008761673300564717
5.31875e-06;-0.00876640215167577
5.31900e-06;-0.008771131002786809
5.31925e-06;-0.008775859853897847
5.31950e-06;-0.0087805887050089
5.31975e-06;-0.008785317556119939
5.32000e-06;-0.008790046407230993
5.32025e-06;-0.008794775258342031
5.32050e-06;-0.00879950410945307
5.32075e-06;-0.008804232960564123
5.32100e-06;-0.008808324654349456
5.32125e-06;-0.008802773971804748
5.32150e-06;-0.008797223289260019
5.32175e-06;-0.00879167260671531
5.32200e-06;-0.0087861219241706
5.32225e-06;-0.008780571241625873
5.32250e-06;-0.008775020559081165
5.32275e-06;-0.008769469876536455
5.32300e-06;-0.008763919193991727
5.32325e-06;-0.008758368511447017
5.32350e-06;-0.00875281782890231
5.32375e-06;-0.00874726714635758
5.32400e-06;-0.008740491876529316
5.32425e-06;-0.008732762147512665
5.32450e-06;-0.008725032418496042
5.32475e-06;-0.008717302689479418
5.32500e-06;-0.008709572960462769
5.32525e-06;-0.008701843231446144
5.32550e-06;-0.008694113502429521
5.32575e-06;-0.008686454884464616
5.32600e-06;-0.008679872420683578
5.32625e-06;-0.00867328995690254
5.32650e-06;-0.00866670749312148
5.32675e-06;-0.008660125029340444
5.32700e-06;-0.008653542565559407
5.32725e-06;-0.008646960101778347
5.32750e-06;-0.008640377637997309
5.32775e-06;-0.008632859078147082
5.32800e-06;-0.008624610912897228
5.32825e-06;-0.008616362747647403
5.32850e-06;-0.008608114582397549
5.32875e-06;-0.008599866417147724
5.32900e-06;-0.008591618251897897
5.32925e-06;-0.008583370086648045
5.32950e-06;-0.008575121921398218
5.32975e-06;-0.008566873756148393
5.33000e-06;-0.008558625590898539
5.33025e-06;-0.008550377425648714
5.33050e-06;-0.008542129260398889
5.33075e-06;-0.008533740811108359
5.33100e-06;-0.00852322938299061
5.33125e-06;-0.008512717954872859
5.33150e-06;-0.008502206526755072
5.33175e-06;-0.008491695098637321
5.33200e-06;-0.00848118367051957
5.33225e-06;-0.008470672242401785
5.33250e-06;-0.008460160814284034
5.33275e-06;-0.008449649386166248
5.33300e-06;-0.008439137958048498
5.33325e-06;-0.008428626529930747
5.33350e-06;-0.00841811510181296
5.33375e-06;-0.00840760367369521
5.33400e-06;-0.008397295089654129
5.33425e-06;-0.00838714460491336
5.33450e-06;-0.008376994120172626
5.33475e-06;-0.008366843635431892
5.33500e-06;-0.008357348170202828
5.33525e-06;-0.008348363235664225
5.33550e-06;-0.008339378301125622
5.33575e-06;-0.008330393366586988
5.33600e-06;-0.008322616148806888
5.33625e-06;-0.00831578024110921
5.33650e-06;-0.00830894433341151
5.33675e-06;-0.008306185265759028
5.33700e-06;-0.008306603740035891
5.33725e-06;-0.00830702221431275
5.33750e-06;-0.008312353204080596
5.33775e-06;-0.00832151307204283
5.33800e-06;-0.00833067294000503
5.33825e-06;-0.008348026748638058
5.33850e-06;-0.00837176702074747
5.33875e-06;-0.008395507292856801
5.33900e-06;-0.008419247564966132
5.33925e-06;-0.008442987837075543
5.33950e-06;-0.008466728109184874
5.33975e-06;-0.008491660028858412
5.34000e-06;-0.008534625664515856
5.34025e-06;-0.008577591300173156
5.34050e-06;-0.008620556935830455
5.34075e-06;-0.0086635225714879
5.34100e-06;-0.008706488207145199
5.34125e-06;-0.008749453842802644
5.34150e-06;-0.00879984090448366
5.34175e-06;-0.008856012321720001
5.34200e-06;-0.008912183738956532
5.34225e-06;-0.008968355156192874
5.34250e-06;-0.009024526573429214
5.34275e-06;-0.009080697990665744
5.34300e-06;-0.009136869407902086
5.34325e-06;-0.009193067640909028
5.34350e-06;-0.00924967168852553
5.34375e-06;-0.00930627573614184
5.34400e-06;-0.00936287978375815
5.34425e-06;-0.009419483831374652
5.34450e-06;-0.009476087878990963
5.34475e-06;-0.009532691926607273
5.34500e-06;-0.009589295974223774
5.34525e-06;-0.009640697130939173
5.34550e-06;-0.009688043087105918
5.34575e-06;-0.009735389043272504
5.34600e-06;-0.009776882479918083
5.34625e-06;-0.009813814387055444
5.34650e-06;-0.00985074629419268
5.34675e-06;-0.009879147856669409
5.34700e-06;-0.009900900758044777
5.34725e-06;-0.00992265365942007
5.34750e-06;-0.00993504298316418
5.34775e-06;-0.009940134213238761
5.34800e-06;-0.009945225443313326
5.34825e-06;-0.009935801566619962
5.34850e-06;-0.009915064427732644
5.34875e-06;-0.009894327288845399
5.34900e-06;-0.009873590149958152
5.34925e-06;-0.009852853011070835
5.34950e-06;-0.009832115872183588
5.34975e-06;-0.0097937260054308
5.35000e-06;-0.009741577373967351
5.35025e-06;-0.009689428742503904
5.35050e-06;-0.00963728011104028
5.35075e-06;-0.00958513147957683
5.35100e-06;-0.009532982848113382
5.35125e-06;-0.009468830410550596
5.35150e-06;-0.009395322051058771
5.35175e-06;-0.009321813691566946
5.35200e-06;-0.009248305332074871
5.35225e-06;-0.009174796972583046
5.35250e-06;-0.009095751696259162
5.35275e-06;-0.009012390875250197
5.35300e-06;-0.008929030054241515
5.35325e-06;-0.008845669233232833
5.35350e-06;-0.00876230841222387
5.35375e-06;-0.00867837369677276
5.35400e-06;-0.008593991680560726
5.35425e-06;-0.008510894842464242
5.35450e-06;-0.008428799688834462
5.35475e-06;-0.008348293016401654
5.35500e-06;-0.008270450134456772
5.35525e-06;-0.008196470439242652
5.35550e-06;-0.008124635666417166
5.35575e-06;-0.008064413323827064
5.35600e-06;-0.008013241859748487
5.35625e-06;-0.007962070395669736
5.35650e-06;-0.00791089893159116
5.35675e-06;-0.007859727467512583
5.35700e-06;-0.0078085560034338326
5.35725e-06;-0.007757384539355256
5.35750e-06;-0.007706213075276679
5.35775e-06;-0.007656629022146397
5.35800e-06;-0.007631067942763506
5.35825e-06;-0.007605506863380528
5.35850e-06;-0.007579945783997637
5.35875e-06;-0.007554384704614746
5.35900e-06;-0.007528823625231768
5.35925e-06;-0.007503262545848877
5.35950e-06;-0.007477701466465985
5.35975e-06;-0.0074521403870830075
5.36000e-06;-0.0074371155642026735
5.36025e-06;-0.007430302836089075
5.36050e-06;-0.007423490107975454
5.36075e-06;-0.0074166773798618555
5.36100e-06;-0.007409864651748257
5.36125e-06;-0.007403051923634636
5.36150e-06;-0.0073962391955210375
5.36175e-06;-0.007389426467407439
5.36200e-06;-0.007382613739293818
5.36225e-06;-0.007381562344960963
5.36250e-06;-0.007385001408788171
5.36275e-06;-0.0073884404726153674
5.36300e-06;-0.0073918795364425645
5.36325e-06;-0.007395318600269773
5.36350e-06;-0.00739875766409697
5.36375e-06;-0.007402196727924167
5.36400e-06;-0.007405635791751375
5.36425e-06;-0.007409074855578571
5.36450e-06;-0.007413640233541175
5.36475e-06;-0.0074190834753270676
5.36500e-06;-0.007424526717112943
5.36525e-06;-0.007429969958898818
5.36550e-06;-0.00743541320068471
5.36575e-06;-0.0074407376155941835
5.36600e-06;-0.007444263772193054
5.36625e-06;-0.007447789928791936
5.36650e-06;-0.007451316085390807
5.36675e-06;-0.007454842241989689
5.36700e-06;-0.00745836839858856
5.36725e-06;-0.007461365315218617
5.36750e-06;-0.007462686547001606
5.36775e-06;-0.007463023233416938
5.36800e-06;-0.0074633599198322695
5.36825e-06;-0.007463696606247602
5.36850e-06;-0.007464033292662934
5.36875e-06;-0.007464369979078266
5.36900e-06;-0.007464706665493598
5.36925e-06;-0.00746504335190893
5.36950e-06;-0.007465380038324262
5.36975e-06;-0.0074657167247395954
5.37000e-06;-0.007466053411154927
5.37025e-06;-0.007466390097570258
5.37050e-06;-0.007466726783985592
5.37075e-06;-0.007467063470400923
5.37100e-06;-0.007467400156816256
5.37125e-06;-0.007467736843231588
5.37150e-06;-0.00746807352964692
5.37175e-06;-0.007468281026348032
5.37200e-06;-0.0074665334394505905
5.37225e-06;-0.007464785852553149
5.37250e-06;-0.007463038265655702
5.37275e-06;-0.007461290678758261
5.37300e-06;-0.00745954309186082
5.37325e-06;-0.007457795504963373
5.37350e-06;-0.007456047918065932
5.37375e-06;-0.007454300331168491
5.37400e-06;-0.0074525527442710435
5.37425e-06;-0.0074508051573736024
5.37450e-06;-0.007449057570476161
5.37475e-06;-0.007447309983578714
5.37500e-06;-0.007445562396681273
5.37525e-06;-0.007443814809783826
5.37550e-06;-0.007442067222886385
5.37575e-06;-0.007440319635988944
5.37600e-06;-0.0074385720490914966
5.37625e-06;-0.00743545107084641
5.37650e-06;-0.007431259653599353
5.37675e-06;-0.007427068236352283
5.37700e-06;-0.007422876819105226
5.37725e-06;-0.007418685401858169
5.37750e-06;-0.007414493984611097
5.37775e-06;-0.00741030256736404
5.37800e-06;-0.007406111150116983
5.37825e-06;-0.007401919732869912
5.37850e-06;-0.00739424046102629
5.37875e-06;-0.007383842710141995
5.37900e-06;-0.007373444959257665
5.37925e-06;-0.007363047208373371
5.37950e-06;-0.007352649457489041
5.37975e-06;-0.007342251706604746
5.38000e-06;-0.007331853955720452
5.38025e-06;-0.0073214562048361225
5.38050e-06;-0.007311058453951828
5.38075e-06;-0.007297898109887053
5.38100e-06;-0.007282584564921557
5.38125e-06;-0.007267271019956114
5.38150e-06;-0.007251957474990669
5.38175e-06;-0.007236643930025174
5.38200e-06;-0.0072213303850597295
5.38225e-06;-0.007206016840094286
5.38250e-06;-0.00719070329512879
5.38275e-06;-0.0071753182940056046
5.38300e-06;-0.007158888864728709
5.38325e-06;-0.007142459435451759
5.38350e-06;-0.007126030006174864
5.38375e-06;-0.007109600576897914
5.38400e-06;-0.007093171147621018
5.38425e-06;-0.007076741718344123
5.38450e-06;-0.007060312289067173
5.38475e-06;-0.007043882859790278
5.38500e-06;-0.007028103989830386
5.38525e-06;-0.007012823780348619
5.38550e-06;-0.0069975435708669025
5.38575e-06;-0.006983958079076554
5.38600e-06;-0.006971671606010897
5.38625e-06;-0.006959385132945283
5.38650e-06;-0.006950944887889082
5.38675e-06;-0.006945452816578383
5.38700e-06;-0.006939960745267703
5.38725e-06;-0.006934468673957023
5.38750e-06;-0.006928976602646324
5.38775e-06;-0.006923484531335644
5.38800e-06;-0.006917992460024963
5.38825e-06;-0.006913239482248597
5.38850e-06;-0.006918930918678414
5.38875e-06;-0.00692462235510825
5.38900e-06;-0.006930313791538067
5.38925e-06;-0.0069360052279678844
5.38950e-06;-0.0069416966643977215
5.38975e-06;-0.006947388100827539
5.39000e-06;-0.006953079537257356
5.39025e-06;-0.006964297847265082
5.39050e-06;-0.006979752563314217
5.39075e-06;-0.006995207279363352
5.39100e-06;-0.0070106619954125385
5.39125e-06;-0.007026116711461673
5.39150e-06;-0.007041571427510808
5.39175e-06;-0.007057026143559996
5.39200e-06;-0.00707248085960913
5.39225e-06;-0.007090706725095418
5.39250e-06;-0.007111056705427444
5.39275e-06;-0.007131406685759401
5.39300e-06;-0.007151756666091428
5.39325e-06;-0.0071721066464233854
5.39350e-06;-0.007192456626755343
5.39375e-06;-0.007212806607087369
5.39400e-06;-0.007233156587419326
5.39425e-06;-0.007251761464858903
5.39450e-06;-0.007269028702793763
5.39475e-06;-0.007286295940728564
5.39500e-06;-0.007303563178663365
5.39525e-06;-0.007320830416598225
5.39550e-06;-0.007338097654533027
5.39575e-06;-0.007355364892467828
5.39600e-06;-0.007372632130402687
5.39625e-06;-0.007389899368337489
5.39650e-06;-0.0074006590145241835
5.39675e-06;-0.0074064305239993815
