Time(s);Current(A)
3.80000e-06;0.0014771726374993304
3.80025e-06;0.0014797521536484568
3.80050e-06;0.0014823316697975834
3.80075e-06;0.0014849111859467099
3.80100e-06;0.0014874907020958322
3.80125e-06;0.0014900702182449586
3.80150e-06;0.0014926497343940852
3.80175e-06;0.0014966688948035334
3.80200e-06;0.001501123585300902
3.80225e-06;0.0015055782757982705
3.80250e-06;0.0015100329662956391
3.80275e-06;0.001514487656793
3.80300e-06;0.0015189423472903687
3.80325e-06;0.0015233970377877373
3.80350e-06;0.0015278517282850982
3.80375e-06;0.001532960110071875
3.80400e-06;0.0015382662505915537
3.80425e-06;0.0015435723911112233
3.80450e-06;0.001548878531630902
3.80475e-06;0.0015541846721505805
3.80500e-06;0.0015596793793559384
3.80525e-06;0.001565231132921598
3.80550e-06;0.0015707828864872672
3.80575e-06;0.0015763346400529362
3.80600e-06;0.0015818863936185958
3.80625e-06;0.001587656148553397
3.80650e-06;0.0015934918546110447
3.80675e-06;0.0015993275606686927
3.80700e-06;0.0016065173813339464
3.80725e-06;0.001614116857127487
3.80750e-06;0.0016217163329210274
3.80775e-06;0.0016293158087145548
3.80800e-06;0.0016369152845080953
3.80825e-06;0.0016445147603016358
3.80850e-06;0.0016521142360951635
3.80875e-06;0.0016618142655539729
3.80900e-06;0.0016721497675026105
3.80925e-06;0.001682485269451248
3.80950e-06;0.001692820771399868
3.80975e-06;0.0017031562733485057
3.81000e-06;0.0017134917752971433
3.81025e-06;0.0017238272772457635
3.81050e-06;0.001736205163497215
3.81075e-06;0.0017492009244831136
3.81100e-06;0.0017621966854690122
3.81125e-06;0.001775192446454889
3.81150e-06;0.0017881882074407877
3.81175e-06;0.0018011839684266863
3.81200e-06;0.001814179729412563
3.81225e-06;0.0018271754903984617
3.81250e-06;0.0018401712513843604
3.81275e-06;0.0018533633896161258
3.81300e-06;0.0018670926161465096
3.81325e-06;0.0018808218426768933
3.81350e-06;0.001894551069207277
3.81375e-06;0.0019082802957376375
3.81400e-06;0.0019220095222680213
3.81425e-06;0.001935738748798405
3.81450e-06;0.0019494679753287655
3.81475e-06;0.001963197201859149
3.81500e-06;0.0019769264283895096
3.81525e-06;0.001989830516321088
3.81550e-06;0.0020024849782189977
3.81575e-06;0.002014706410639185
3.81600e-06;0.0020264541705366113
3.81625e-06;0.0020376655025083684
3.81650e-06;0.002047966906662833
3.81675e-06;0.0020559919058449603
3.81700e-06;0.00206339952918813
3.81725e-06;0.002067846732430029
3.81750e-06;0.002071398331068325
3.81775e-06;0.002071527045444144
3.81800e-06;0.0020706202476973236
3.81825e-06;0.0020697134499505065
3.81850e-06;0.0020647567257655024
3.81875e-06;0.002058574792779695
3.81900e-06;0.0020509345538485273
3.81925e-06;0.0020393058739173716
3.81950e-06;0.0020276771939861764
3.81975e-06;0.0020134261697643033
3.82000e-06;0.0019970526093875903
3.82025e-06;0.0019790385269389038
3.82050e-06;0.0019594015623684287
3.82075e-06;0.0019380662570156304
3.82100e-06;0.0019150471480924936
3.82125e-06;0.0018904916560546132
3.82150e-06;0.0018645873514821889
3.82175e-06;0.0018375250743869326
3.82200e-06;0.0018094956565199868
3.82225e-06;0.0017806773898740406
3.82250e-06;0.0017511823067948413
3.82275e-06;0.0017210640350961712
3.82300e-06;0.0016904325351620036
3.82325e-06;0.0016594808098289331
3.82350e-06;0.001628427348848702
3.82375e-06;0.0015974925534641769
3.82400e-06;0.0015668966191266485
3.82425e-06;0.0015368521795777739
3.82450e-06;0.0015075300034838425
3.82475e-06;0.0014790645709172065
3.82500e-06;0.0014516254612794743
3.82525e-06;0.0014254343336940138
3.82550e-06;0.0014007288286184973
3.82575e-06;0.0013777475621635294
3.82600e-06;0.0013575673768544596
3.82625e-06;0.001338109545341323
3.82650e-06;0.001320980375650227
3.82675e-06;0.001305612922576645
3.82700e-06;0.001291896843035815
3.82725e-06;0.0012785835868316417
3.82750e-06;0.0012673324268320033
3.82775e-06;0.001256705104933066
3.82800e-06;0.0012485103898061953
3.82825e-06;0.0012410516019290827
3.82850e-06;0.0012358209272337513
3.82875e-06;0.0012312643151221078
3.82900e-06;0.0012286304313514204
3.82925e-06;0.0012265782232531409
3.82950e-06;0.0012245260151548683
3.82975e-06;0.001224978674784916
3.83000e-06;0.0012261891224961692
3.83025e-06;0.0012273995702074183
3.83050e-06;0.0012308707386521405
3.83075e-06;0.0012350258343188016
3.83100e-06;0.0012391809299854486
3.83125e-06;0.0012448707107217936
3.83150e-06;0.0012510247738795517
3.83175e-06;0.001257178837037289
3.83200e-06;0.0012648590349062779
3.83225e-06;0.001273000928489345
3.83250e-06;0.0012811428220723844
3.83275e-06;0.0012902510849137905
3.83300e-06;0.0012996516997615618
3.83325e-06;0.0013090523146093015
3.83350e-06;0.0013188351334591597
3.83375e-06;0.0013290558113522926
3.83400e-06;0.0013393739729615649
3.83425e-06;0.0013496921345708718
3.83450e-06;0.001360164679307342
3.83475e-06;0.0013706839289825167
3.83500e-06;0.0013812031786577268
3.83525e-06;0.0013908866339860924
3.83550e-06;0.0014003172396381692
3.83575e-06;0.001409747845290278
3.83600e-06;0.0014191784509423547
3.83625e-06;0.0014286090565944316
3.83650e-06;0.0014380396622465405
3.83675e-06;0.0014474702678986173
3.83700e-06;0.001454964811076741
3.83725e-06;0.0014618736446581865
3.83750e-06;0.0014687824782396084
3.83775e-06;0.001475691311821054
3.83800e-06;0.001482600145402476
3.83825e-06;0.001489508978983898
3.83850e-06;0.0014964178125653435
3.83875e-06;0.0015008894776227834
3.83900e-06;0.001504623835381312
3.83925e-06;0.0015083581931398533
3.83950e-06;0.001512092550898382
3.83975e-06;0.0015158269086569106
3.84000e-06;0.001519561266415452
3.84025e-06;0.0015232956241739805
3.84050e-06;0.0015270299819325093
3.84075e-06;0.0015307643396910507
3.84100e-06;0.0015325519069499189
3.84125e-06;0.001533750519103449
3.84150e-06;0.0015349491312569832
3.84175e-06;0.0015361477434105133
3.84200e-06;0.0015373463555640476
3.84225e-06;0.0015385449677175777
3.84250e-06;0.0015397435798711078
3.84275e-06;0.0015409421920246419
3.84300e-06;0.001542140804178172
3.84325e-06;0.0015427941993980936
3.84350e-06;0.0015432826522184095
3.84375e-06;0.0015437711050387236
3.84400e-06;0.0015442595578590377
3.84425e-06;0.0015448417944611916
3.84450e-06;0.0015456805280498478
3.84475e-06;0.0015465192616385037
3.84500e-06;0.0015473579952271627
3.84525e-06;0.0015481967288158188
3.84550e-06;0.001549433843565615
3.84575e-06;0.0015509957938859707
3.84600e-06;0.0015528512188621954
3.84625e-06;0.0015551379883779527
3.84650e-06;0.0015585543714458576
3.84675e-06;0.00156430112690913
3.84700e-06;0.0015731337105220533
3.84725e-06;0.0015862727103907255
3.84750e-06;0.0016004880689236907
3.84775e-06;0.0016200748400973116
3.84800e-06;0.0016412866042516464
3.84825e-06;0.0016624983684059812
3.84850e-06;0.0016894206548006886
3.84875e-06;0.0017180705237099581
3.84900e-06;0.0017537398347155766
3.84925e-06;0.0017915327107680644
3.84950e-06;0.0018293255868204242
3.84975e-06;0.0018741807312419095
3.85000e-06;0.0019211723967792274
3.85025e-06;0.001968164062316386
3.85050e-06;0.0020213918290093134
3.85075e-06;0.0020765061796014102
3.85100e-06;0.002131620530193507
3.85125e-06;0.0021916465105623136
3.85150e-06;0.002253158387555195
3.85175e-06;0.0023174520208881495
3.85200e-06;0.002382587208357793
3.85225e-06;0.002449570613901905
3.85250e-06;0.002517113153811387
3.85275e-06;0.002586112084916378
3.85300e-06;0.00265555161249503
3.85325e-06;0.002725624015560259
3.85350e-06;0.0027958878800330056
3.85375e-06;0.002865601631722023
3.85400e-06;0.0029351489598886866
3.85425e-06;0.0030030292362866625
3.85450e-06;0.00307040518587061
3.85475e-06;0.003135336328780578
3.85500e-06;0.003199527853651272
3.85525e-06;0.0032602266315737544
3.85550e-06;0.0033198687620829754
3.85575e-06;0.0033747451551684846
3.85600e-06;0.0034281797878870477
3.85625e-06;0.003475627084234269
3.85650e-06;0.003521263054543646
3.85675e-06;0.0035584765344767455
3.85700e-06;0.0035931419905185563
3.85725e-06;0.00362780744656025
3.85750e-06;0.0036518500802603755
3.85775e-06;0.0036726790320315067
3.85800e-06;0.003693507983802567
3.85825e-06;0.003703255373094432
3.85850e-06;0.003709650299553051
3.85875e-06;0.003716045226011648
3.85900e-06;0.003713450210255903
3.85925e-06;0.003708135501568538
3.85950e-06;0.0036977178376619148
3.85975e-06;0.0036824846774821474
3.86000e-06;0.003663087617245206
3.86025e-06;0.003639657536298392
3.86050e-06;0.0036123550501187093
3.86075e-06;0.003581398404944203
3.86100e-06;0.0035470424721319766
3.86125e-06;0.0035095472904696163
3.86150e-06;0.003469171036099938
3.86175e-06;0.003426171988804763
3.86200e-06;0.0033808082330921145
3.86225e-06;0.0033333402478594033
3.86250e-06;0.0032840469656493657
3.86275e-06;0.003233243239464402
3.86300e-06;0.003181267469811895
3.86325e-06;0.0031284605958675714
3.86350e-06;0.003075162837279672
3.86375e-06;0.0030217140021121217
3.86400e-06;0.0029684543265332463
3.86425e-06;0.0029157249239569845
3.86450e-06;0.002863879100567026
3.86475e-06;0.0028132921973131803
3.86500e-06;0.002764354062785734
3.86525e-06;0.002717456534437159
3.86550e-06;0.0026729908759036553
3.86575e-06;0.00263134806391373
3.86600e-06;0.002592919378624198
3.86625e-06;0.0025580100493342
3.86650e-06;0.002526427331700252
3.86675e-06;0.002497454615073577
3.86700e-06;0.002470615714309796
3.86725e-06;0.0024459335278733656
3.86750e-06;0.0024245820408455633
3.86775e-06;0.0024040843294702075
3.86800e-06;0.0023878237824883613
3.86825e-06;0.002372845088690126
3.86850e-06;0.002361806382192817
3.86875e-06;0.0023519596250267294
3.86900e-06;0.0023449893633643608
3.86925e-06;0.002338889316915951
3.86950e-06;0.0023364958061696337
3.86975e-06;0.0023352236195327046
3.87000e-06;0.00233395143289578
3.87025e-06;0.0023365554186893425
3.87050e-06;0.0023403320481447426
3.87075e-06;0.002346429340219929
3.87100e-06;0.002353228693506553
3.87125e-06;0.002362370606672468
3.87150e-06;0.0023722212055441757
3.87175e-06;0.0023820718044158837
3.87200e-06;0.0023946389743169025
3.87225e-06;0.002408027978090433
3.87250e-06;0.0024214169818640085
3.87275e-06;0.002436519989897684
3.87300e-06;0.002452141529102997
3.87325e-06;0.0024677630683083624
3.87350e-06;0.002484283259125009
3.87375e-06;0.002501075315586184
3.87400e-06;0.0025178673720474163
3.87425e-06;0.0025350433306655902
3.87450e-06;0.0025523354297391195
3.87475e-06;0.0025696275288127073
3.87500e-06;0.0025862140296644153
3.87525e-06;0.002602587068577228
3.87550e-06;0.0026189601074900963
3.87575e-06;0.002633960620221544
3.87600e-06;0.002648545907842168
3.87625e-06;0.0026631311954628417
3.87650e-06;0.0026764589666713684
3.87675e-06;0.0026894063062359716
3.87700e-06;0.0027023536458005305
3.87725e-06;0.0027153009853650894
3.87750e-06;0.002728248324929692
3.87775e-06;0.002741195664494251
3.87800e-06;0.00275414300405881
3.87825e-06;0.0027669257717875336
3.87850e-06;0.002779258438452852
3.87875e-06;0.00279159110511817
3.87900e-06;0.0028039237717835306
3.87925e-06;0.002816256438448849
3.87950e-06;0.002828589105114167
3.87975e-06;0.0028409217717795276
3.88000e-06;0.002853254438444846
3.88025e-06;0.002865567694221736
3.88050e-06;0.002877875077696625
3.88075e-06;0.002890182461171473
3.88100e-06;0.002902489844646362
3.88125e-06;0.002914797228121209
3.88150e-06;0.002927104611596057
3.88175e-06;0.002939411995070946
3.88200e-06;0.002951719378545794
3.88225e-06;0.0029640267620206413
3.88250e-06;0.0029763341454955303
3.88275e-06;0.002988450199368816
3.88300e-06;0.003000042970162426
3.88325e-06;0.0030116357409560755
3.88350e-06;0.003023228511749686
3.88375e-06;0.0030348212825432957
3.88400e-06;0.003046414053336945
3.88425e-06;0.0030580068241305553
3.88450e-06;0.0030695995949241656
3.88475e-06;0.003081192365717815
3.88500e-06;0.003092785136511425
3.88525e-06;0.0031043779073050746
3.88550e-06;0.0031149168857872098
3.88575e-06;0.003125137064500611
3.88600e-06;0.003135357243214047
3.88625e-06;0.0031444459145610125
3.88650e-06;0.0031531922753000844
3.88675e-06;0.003161938636039186
3.88700e-06;0.0031682932202013077
3.88725e-06;0.0031739242293180765
3.88750e-06;0.0031795552384348644
3.88775e-06;0.0031821036894018264
3.88800e-06;0.0031837195858089268
3.88825e-06;0.0031853354822160324
3.88850e-06;0.0031869513786231328
3.88875e-06;0.0031871511399233685
3.88900e-06;0.0031834777967284992
3.88925e-06;0.003179804453533642
3.88950e-06;0.003176131110338773
3.88975e-06;0.0031724577671439157
3.89000e-06;0.003165729453366915
3.89025e-06;0.003158076930991703
3.89050e-06;0.0031504244086165167
3.89075e-06;0.003140587939979979
3.89100e-06;0.003130090770410809
3.89125e-06;0.003119593600841674
3.89150e-06;0.0031075941005203273
3.89175e-06;0.0030951401058065616
3.89200e-06;0.0030818556240115353
3.89225e-06;0.0030683198981273957
3.89250e-06;0.003054181595413446
3.89275e-06;0.0030398609974295492
3.89300e-06;0.0030251281053317843
3.89325e-06;0.0030102704834682496
3.89350e-06;0.002995354141198779
3.89375e-06;0.002980420034468804
3.89400e-06;0.0029658012482751336
3.89425e-06;0.0029512778548006144
3.89450e-06;0.0029373864430470957
3.89475e-06;0.0029236862223132147
3.89500e-06;0.0029109110490709
3.89525e-06;0.0028984157269178854
3.89550e-06;0.002886859752507561
3.89575e-06;0.002876350516275693
3.89600e-06;0.002866936782364825
3.89625e-06;0.0028587878380371638
3.89650e-06;0.0028522630048556084
3.89675e-06;0.002848829271664843
3.89700e-06;0.0028462098105084153
3.89725e-06;0.002848340862967757
3.89750e-06;0.0028519090701919795
3.89775e-06;0.0028554772774161893
3.89800e-06;0.0028646190074979334
3.89825e-06;0.002875446874191271
3.89850e-06;0.0028862747408846087
3.89875e-06;0.002905176434001464
3.89900e-06;0.002926520671031016
3.89925e-06;0.0029478649080605687
3.89950e-06;0.0029692091450901933
3.89975e-06;0.002990553382119746
3.90000e-06;0.0030207551231656296
3.90025e-06;0.0030536364911173722
3.90050e-06;0.003086517859069004
3.90075e-06;0.0031193992270206355
3.90100e-06;0.003152280594972378
3.90125e-06;0.003190936749898676
3.90150e-06;0.003231339929102146
3.90175e-06;0.003271743108305754
3.90200e-06;0.0033149800610134655
3.90225e-06;0.00335907430441093
3.90250e-06;0.0034031685478082456
3.90275e-06;0.0034489954453768047
3.90300e-06;0.003495346516203214
3.90325e-06;0.0035416975870294666
3.90350e-06;0.0035884501671969264
3.90375e-06;0.0036353242144540913
3.90400e-06;0.0036816480595508647
3.90425e-06;0.0037278054540867043
3.90450e-06;0.0037727437522182806
3.90475e-06;0.0038173132417644007
3.90500e-06;0.0038593774762825626
3.90525e-06;0.0039006838055529063
3.90550e-06;0.00394199013482311
3.90575e-06;0.003978688327352091
3.90600e-06;0.004013992437849447
3.90625e-06;0.004049296548346683
3.90650e-06;0.004080939437061685
3.90675e-06;0.004111474710315603
3.90700e-06;0.004140782902858233
3.90725e-06;0.004169719871353779
3.90750e-06;0.004198656839849227
3.90775e-06;0.004225364756707816
3.90800e-06;0.004251398327076989
3.90825e-06;0.004277431897446073
3.90850e-06;0.004301551379208294
3.90875e-06;0.0043250917990452125
3.90900e-06;0.004348632218882052
3.90925e-06;0.004370753611185073
3.90950e-06;0.004392445710500926
3.90975e-06;0.004414137809816705
3.91000e-06;0.004435829909132485
3.91025e-06;0.004457522008448339
3.91050e-06;0.0044792141077641175
3.91075e-06;0.004500906207079971
3.91100e-06;0.004520612205810205
3.91125e-06;0.004539717357105867
3.91150e-06;0.004558822508401594
3.91175e-06;0.004577927659697256
3.91200e-06;0.004597032810992918
3.91225e-06;0.004616137962288645
3.91250e-06;0.004635243113584307
3.91275e-06;0.004654348264879969
3.91300e-06;0.004673453416175695
3.91325e-06;0.004692558567471357
3.91350e-06;0.004709050490884843
3.91375e-06;0.004724751844434854
3.91400e-06;0.004740453197984811
3.91425e-06;0.004756154551534769
3.91450e-06;0.004771855905084779
3.91475e-06;0.0047875572586347365
3.91500e-06;0.004803258612184747
3.91525e-06;0.004818959965734704
3.91550e-06;0.004834661319284662
3.91575e-06;0.004850362672834672
3.91600e-06;0.004863705891147909
3.91625e-06;0.004876335711802699
3.91650e-06;0.0048889655324575315
3.91675e-06;0.004901796042469293
3.91700e-06;0.0049146872662667205
3.91725e-06;0.004927578490064192
3.91750e-06;0.00494046971386162
3.91775e-06;0.004953360937659048
3.91800e-06;0.00496625216145652
3.91825e-06;0.0049795695841112755
3.91850e-06;0.004994052653109323
3.91875e-06;0.00500853572210742
3.91900e-06;0.0050230187911054665
3.91925e-06;0.005037501860103563
3.91950e-06;0.00505198492910161
3.91975e-06;0.005066467998099657
3.92000e-06;0.005082669776097872
3.92025e-06;0.0050993915085740535
3.92050e-06;0.005116113241050236
3.92075e-06;0.005132834973526474
3.92100e-06;0.005149556706002655
3.92125e-06;0.005166278438478837
3.92150e-06;0.005183000170955075
3.92175e-06;0.005199721903431257
3.92200e-06;0.005216732282000203
3.92225e-06;0.005234532102532077
3.92250e-06;0.00525233192306389
3.92275e-06;0.005270131743595704
3.92300e-06;0.005287931564127577
3.92325e-06;0.005305731384659391
3.92350e-06;0.005323531205191264
3.92375e-06;0.0053413310257230786
3.92400e-06;0.005359130846254892
3.92425e-06;0.005376077719899189
3.92450e-06;0.005392766554775011
3.92475e-06;0.005409455389650833
3.92500e-06;0.005426144224526711
3.92525e-06;0.005441440393700474
3.92550e-06;0.0054563152450315885
3.92575e-06;0.005471190096362754
3.92600e-06;0.005486064947693868
3.92625e-06;0.0054991517313805515
3.92650e-06;0.005511697577783239
3.92675e-06;0.005520930532685639
3.92700e-06;0.005529161251159233
3.92725e-06;0.005537391969632854
3.92750e-06;0.005540147280859496
3.92775e-06;0.0055412461380172605
3.92800e-06;0.005542344995175021
3.92825e-06;0.005543443852332782
3.92850e-06;0.005542102696522975
3.92875e-06;0.005534088148366981
3.92900e-06;0.005526073600210988
3.92925e-06;0.005518059052054968
3.92950e-06;0.005510044503898974
3.92975e-06;0.0054964007016280805
3.93000e-06;0.005481053902582227
3.93025e-06;0.005465707103536426
3.93050e-06;0.005447137027897078
3.93075e-06;0.005427591826684844
3.93100e-06;0.005405559454303488
3.93125e-06;0.00538277464751552
3.93150e-06;0.005357989593107571
3.93175e-06;0.005332599411417117
3.93200e-06;0.0053060476918325465
3.93225e-06;0.005278542178542855
3.93250e-06;0.005250328174821055
3.93275e-06;0.0052214773385379125
3.93300e-06;0.00519210805559536
3.93325e-06;0.005162406491164232
3.93350e-06;0.005132579639175988
3.93375e-06;0.00510283432835616
3.93400e-06;0.005073378991692585
3.93425e-06;0.00504441520347135
3.93450e-06;0.005016111878690074
3.93475e-06;0.004988611221362629
3.93500e-06;0.004962084456509989
3.93525e-06;0.004937308439985631
3.93550e-06;0.004912990676239846
3.93575e-06;0.004890536235209835
3.93600e-06;0.004870120568992505
3.93625e-06;0.004851681992225762
3.93650e-06;0.004834662864504156
3.93675e-06;0.004817857260104321
3.93700e-06;0.004800491037401598
3.93725e-06;0.004782532427018485
3.93750e-06;0.004764136716421048
3.93775e-06;0.004745648100669719
3.93800e-06;0.0047272733506676864
3.93825e-06;0.0047089330480364275
3.93850e-06;0.004690185903261845
3.93875e-06;0.00467131567808563
3.93900e-06;0.004650368162686722
3.93925e-06;0.004628792212600532
3.93950e-06;0.0046072162625144155
3.93975e-06;0.004584072494186523
3.94000e-06;0.004560454419786347
3.94025e-06;0.0045368363453862515
3.94050e-06;0.004512630478807094
3.94075e-06;0.004486817011006489
3.94100e-06;0.004461003543205885
3.94125e-06;0.004435190075405192
3.94150e-06;0.004407983941902376
3.94175e-06;0.004380356490557052
3.94200e-06;0.0043524911187842645
3.94225e-06;0.004324553769852237
3.94250e-06;0.004296558147397051
3.94275e-06;0.0042685448956750974
3.94300e-06;0.004240341093107575
3.94325e-06;0.004212079643919581
3.94350e-06;0.004184001952957891
3.94375e-06;0.004156316267078271
3.94400e-06;0.004129228931282122
3.94425e-06;0.004102929971499664
3.94450e-06;0.00407750833542488
3.94475e-06;0.00405295151958942
3.94500e-06;0.004029749705519755
3.94525e-06;0.004006897610675771
3.94550e-06;0.003985511112814466
3.94575e-06;0.003965757419801537
3.94600e-06;0.003948465159157367
3.94625e-06;0.003931808687740956
3.94650e-06;0.003918398462696777
3.94675e-06;0.0039059703121844987
3.94700e-06;0.0038997772320217656
3.94725e-06;0.003895470423907714
3.94750e-06;0.0038911636157936617
3.94775e-06;0.0038868568076795957
3.94800e-06;0.0038825499995655435
3.94825e-06;0.0038875306682698914
3.94850e-06;0.0038953210419081902
3.94875e-06;0.0039031114155464626
3.94900e-06;0.003910901789184761
