Time(s);Current(A)
9.25000e-06;-0.007016760345889296
9.25025e-06;-0.007021960470150321
9.25050e-06;-0.007027160594411381
9.25075e-06;-0.007032360718672442
9.25100e-06;-0.007037560842933468
9.25125e-06;-0.007042760967194528
9.25150e-06;-0.007047961091455589
9.25175e-06;-0.007053161215716614
9.25200e-06;-0.0070583613399776745
9.25225e-06;-0.0070635614642387354
9.25250e-06;-0.00706876158849976
9.25275e-06;-0.00705885105511831
9.25300e-06;-0.007043374632903241
9.25325e-06;-0.007027898210688276
9.25350e-06;-0.007012421788473207
9.25375e-06;-0.0069969453662581385
9.25400e-06;-0.006981468944043175
9.25425e-06;-0.006965992521828106
9.25450e-06;-0.006950516099613037
9.25475e-06;-0.006935039677398072
9.25500e-06;-0.006919563255183003
9.25525e-06;-0.0069040868329679345
9.25550e-06;-0.006884785783477278
9.25575e-06;-0.0068640759633855535
9.25600e-06;-0.006843366143293829
9.25625e-06;-0.006822656323202105
9.25650e-06;-0.006801946503110521
9.25675e-06;-0.006781236683018796
9.25700e-06;-0.006760526862927072
9.25725e-06;-0.006739817042835488
9.25750e-06;-0.006719107222743764
9.25775e-06;-0.006698397402652039
9.25800e-06;-0.00668476001989697
9.25825e-06;-0.006673727712376462
9.25850e-06;-0.006662695404855952
9.25875e-06;-0.0066516630973355185
9.25900e-06;-0.006640630789815009
9.25925e-06;-0.006629598482294501
9.25950e-06;-0.006618566174774067
9.25975e-06;-0.006607533867253558
9.26000e-06;-0.006596501559733049
9.26025e-06;-0.006585469252212615
9.26050e-06;-0.00658274852530104
9.26075e-06;-0.006583089302051858
9.26100e-06;-0.006583430078802674
9.26125e-06;-0.006583770855553492
9.26150e-06;-0.00658411163230431
9.26175e-06;-0.006584452409055126
9.26200e-06;-0.006584793185805944
9.26225e-06;-0.0065851339625567626
9.26250e-06;-0.006585474739307578
9.26275e-06;-0.006585815516058397
9.26300e-06;-0.0065861562928092145
9.26325e-06;-0.006586497069560031
9.26350e-06;-0.0065868378463108486
9.26375e-06;-0.0065871786230616665
9.26400e-06;-0.006587519399812483
9.26425e-06;-0.0065878601765633005
9.26450e-06;-0.006592669997414501
9.26475e-06;-0.006599125954605571
9.26500e-06;-0.0066055819117965976
9.26525e-06;-0.006612037868987668
9.26550e-06;-0.006618493826178739
9.26575e-06;-0.006624949783369765
9.26600e-06;-0.006631405740560836
9.26625e-06;-0.006637861697751906
9.26650e-06;-0.006644317654942933
9.26675e-06;-0.006650773612134003
9.26700e-06;-0.006657229569325074
9.26725e-06;-0.0066636855265161
9.26750e-06;-0.006670141483707171
9.26775e-06;-0.006676597440898241
9.26800e-06;-0.006683053398089268
9.26825e-06;-0.006689509355280338
9.26850e-06;-0.006702090414381105
9.26875e-06;-0.006716927605355508
9.26900e-06;-0.006731764796330012
9.26925e-06;-0.0067466019873045156
9.26950e-06;-0.006761439178278919
9.26975e-06;-0.0067762763692534225
9.27000e-06;-0.006791113560227926
9.27025e-06;-0.006805950751202329
9.27050e-06;-0.00683917803014785
9.27075e-06;-0.0068791791496348375
9.27100e-06;-0.0069191802691215545
9.27125e-06;-0.006959181388608542
9.27150e-06;-0.00699918250809553
9.27175e-06;-0.007039183627582246
9.27200e-06;-0.007079184747069233
9.27225e-06;-0.007119185866556221
9.27250e-06;-0.0071768291818782425
9.27275e-06;-0.00724097085770813
9.27300e-06;-0.0073051125335380175
9.27325e-06;-0.0073692542093679045
9.27350e-06;-0.007433395885197358
9.27375e-06;-0.007497537561027245
9.27400e-06;-0.007561679236857133
9.27425e-06;-0.007628796373937664
9.27450e-06;-0.007705829354757207
9.27475e-06;-0.007782862335576751
9.27500e-06;-0.007859895316395771
9.27525e-06;-0.007936928297215314
9.27550e-06;-0.008013961278034859
9.27575e-06;-0.00809099425885388
9.27600e-06;-0.008168027239673423
9.27625e-06;-0.008244941883147755
9.27650e-06;-0.008321812938015137
9.27675e-06;-0.00839868399288304
9.27700e-06;-0.008472024211662934
9.27725e-06;-0.008544063875454103
9.27750e-06;-0.008616103539245759
9.27775e-06;-0.00866985167166295
9.27800e-06;-0.008716862266063498
9.27825e-06;-0.008763872860464364
9.27850e-06;-0.00881088345486523
9.27875e-06;-0.008857894049265779
9.27900e-06;-0.008904904643666644
9.27925e-06;-0.008951915238067511
9.27950e-06;-0.00899892583246806
9.27975e-06;-0.009045936426868925
9.28000e-06;-0.009092947021269792
9.28025e-06;-0.009139957615670338
9.28050e-06;-0.009186968210071205
9.28075e-06;-0.009233978804472071
9.28100e-06;-0.009280989398872619
9.28125e-06;-0.00932142220408244
9.28150e-06;-0.009339934263470928
9.28175e-06;-0.009358446322859417
9.28200e-06;-0.009376958382247782
9.28225e-06;-0.009395470441636272
9.28250e-06;-0.009413982501024761
9.28275e-06;-0.009432494560413125
9.28300e-06;-0.009451006619801614
9.28325e-06;-0.009469518679190105
9.28350e-06;-0.009488030738578469
9.28375e-06;-0.009506542797966958
9.28400e-06;-0.009525054857355447
9.28425e-06;-0.009543566916743811
9.28450e-06;-0.009562078976132302
9.28475e-06;-0.00958059103552079
9.28500e-06;-0.009590718631454184
9.28525e-06;-0.009597757877913986
9.28550e-06;-0.009604797124373789
9.28575e-06;-0.009611836370833543
9.28600e-06;-0.009618875617293346
9.28625e-06;-0.009625914863753146
9.28650e-06;-0.0096329541102129
9.28675e-06;-0.009639993356672703
9.28700e-06;-0.009647032603132506
9.28725e-06;-0.00965407184959226
9.28750e-06;-0.009661111096052062
9.28775e-06;-0.009668150342511863
9.28800e-06;-0.009675189588971617
9.28825e-06;-0.00968222883543142
9.28850e-06;-0.009689268081891222
9.28875e-06;-0.009690292536711323
9.28900e-06;-0.00968910149155371
9.28925e-06;-0.009687910446396096
9.28950e-06;-0.00968671940123849
9.28975e-06;-0.009685528356080877
9.29000e-06;-0.009684337310923264
9.29025e-06;-0.009683146265765651
9.29050e-06;-0.009681955220608045
9.29075e-06;-0.0096667997845178
9.29100e-06;-0.009646500677681464
9.29125e-06;-0.009626201570845266
9.29150e-06;-0.00960590246400893
9.29175e-06;-0.009585603357172593
9.29200e-06;-0.009565304250336394
9.29225e-06;-0.009545005143500058
9.29250e-06;-0.009524706036663722
9.29275e-06;-0.009491318983866213
9.29300e-06;-0.009453111091756847
9.29325e-06;-0.009414903199647481
9.29350e-06;-0.009376695307538374
9.29375e-06;-0.009338487415429008
9.29400e-06;-0.009300279523319643
9.29425e-06;-0.009262071631210535
9.29450e-06;-0.00922386373910117
9.29475e-06;-0.009183985178287448
9.29500e-06;-0.009138539047128478
9.29525e-06;-0.0090930929159692
9.29550e-06;-0.009047646784809923
9.29575e-06;-0.009002200653650953
9.29600e-06;-0.008956754522491676
9.29625e-06;-0.008911308391332399
9.29650e-06;-0.008865862260173428
9.29675e-06;-0.008820416129014151
9.29700e-06;-0.008780829222757743
9.29725e-06;-0.008743400514727368
9.29750e-06;-0.008705971806696742
9.29775e-06;-0.008668543098666114
9.29800e-06;-0.008631114390635741
9.29825e-06;-0.008593685682605113
9.29850e-06;-0.008559314895560952
9.29875e-06;-0.008535134752635615
9.29900e-06;-0.008510954609710443
9.29925e-06;-0.008486774466785108
9.29950e-06;-0.008462594323859771
9.29975e-06;-0.008438414180934599
9.30000e-06;-0.008414234038009264
9.30025e-06;-0.008398814211372469
9.30050e-06;-0.008386621176570382
9.30075e-06;-0.008374428141768213
9.30100e-06;-0.008362235106966045
9.30125e-06;-0.008350042072163957
9.30150e-06;-0.008337849037361789
9.30175e-06;-0.00832565600255962
9.30200e-06;-0.008313462967757533
9.30225e-06;-0.008301269932955364
9.30250e-06;-0.008289076898153195
9.30275e-06;-0.008276883863351108
9.30300e-06;-0.00826469082854894
9.30325e-06;-0.00825249779374677
9.30350e-06;-0.008240304758944684
9.30375e-06;-0.008228111724142515
9.30400e-06;-0.008215918689340346
9.30425e-06;-0.008203725654538259
9.30450e-06;-0.008193542053032028
9.30475e-06;-0.008190054968438935
9.30500e-06;-0.008186567883845867
9.30525e-06;-0.008183080799252774
9.30550e-06;-0.008179593714659681
9.30575e-06;-0.00817610663006661
9.30600e-06;-0.008172619545473518
9.30625e-06;-0.008169132460880425
9.30650e-06;-0.008165645376287355
9.30675e-06;-0.008162158291694262
9.30700e-06;-0.008158671207101169
9.30725e-06;-0.008155184122508076
9.30750e-06;-0.008151697037915007
9.30775e-06;-0.008148209953321914
9.30800e-06;-0.00814472286872882
9.30825e-06;-0.008141235784135751
9.30850e-06;-0.008137748699542658
9.30875e-06;-0.008134261614949565
9.30900e-06;-0.008138075029279955
9.30925e-06;-0.008144577523495924
9.30950e-06;-0.00815108001771189
9.30975e-06;-0.008157582511927816
9.31000e-06;-0.008164085006143783
9.31025e-06;-0.008170587500359752
9.31050e-06;-0.008177089994575677
9.31075e-06;-0.008183592488791644
9.31100e-06;-0.008190094983007613
9.31125e-06;-0.008196597477223537
9.31150e-06;-0.008203099971439505
9.31175e-06;-0.008209602465655474
9.31200e-06;-0.008216104959871398
9.31225e-06;-0.008222607454087366
9.31250e-06;-0.008231191264628441
9.31275e-06;-0.008246711145157452
9.31300e-06;-0.008262231025686568
9.31325e-06;-0.008277750906215681
9.31350e-06;-0.008293270786744692
9.31375e-06;-0.008308790667273807
9.31400e-06;-0.00832431054780292
9.31425e-06;-0.008339830428331932
9.31450e-06;-0.008355350308861047
9.31475e-06;-0.00837087018939016
9.31500e-06;-0.008386390069919172
9.31525e-06;-0.008401909950448287
9.31550e-06;-0.0084174298309774
9.31575e-06;-0.008432949711506516
9.31600e-06;-0.008448469592035527
9.31625e-06;-0.008463710384827412
9.31650e-06;-0.008478848377902658
9.31675e-06;-0.008493986370977799
9.31700e-06;-0.008509124364053045
9.31725e-06;-0.00852426235712829
9.31750e-06;-0.008539400350203431
9.31775e-06;-0.008554538343278677
9.31800e-06;-0.00856967633635392
9.31825e-06;-0.008584814329429064
9.31850e-06;-0.008599952322504307
9.31875e-06;-0.008615090315579553
9.31900e-06;-0.008630228308654694
9.31925e-06;-0.00864536630172994
9.31950e-06;-0.00865745285079038
9.31975e-06;-0.008659370340491216
9.32000e-06;-0.008661287830192065
9.32025e-06;-0.008663205319892913
9.32050e-06;-0.008665122809593747
9.32075e-06;-0.008667040299294595
9.32100e-06;-0.008668957788995443
9.32125e-06;-0.00867087527869628
9.32150e-06;-0.008672792768397128
9.32175e-06;-0.008674710258097976
9.32200e-06;-0.00867662774779881
9.32225e-06;-0.008678545237499658
9.32250e-06;-0.008680462727200506
9.32275e-06;-0.008682380216901342
9.32300e-06;-0.008674606259414552
9.32325e-06;-0.00866326253553514
9.32350e-06;-0.008651918811655807
9.32375e-06;-0.008640575087776397
9.32400e-06;-0.008629231363896985
9.32425e-06;-0.008617887640017575
9.32450e-06;-0.008606543916138241
9.32475e-06;-0.008595200192258831
9.32500e-06;-0.00858385646837942
9.32525e-06;-0.008572512744500086
9.32550e-06;-0.008561169020620676
9.32575e-06;-0.008549825296741264
9.32600e-06;-0.00853848157286193
9.32625e-06;-0.008528106739486308
9.32650e-06;-0.008518088789111962
9.32675e-06;-0.008508070838737683
9.32700e-06;-0.008498052888363337
9.32725e-06;-0.00848803493798899
9.32750e-06;-0.008478016987614712
9.32775e-06;-0.008467999037240366
9.32800e-06;-0.00845798108686602
9.32825e-06;-0.00844796313649174
9.32850e-06;-0.008437945186117393
9.32875e-06;-0.008427927235743047
9.32900e-06;-0.008417909285368768
9.32925e-06;-0.008407891334994422
9.32950e-06;-0.008401434646558287
9.32975e-06;-0.00839628972022951
9.33000e-06;-0.008391144793900697
9.33025e-06;-0.008385999867571884
9.33050e-06;-0.008380854941243106
9.33075e-06;-0.008375710014914294
9.33100e-06;-0.00837056508858548
9.33125e-06;-0.008365420162256701
9.33150e-06;-0.008360275235927889
9.33175e-06;-0.008355130309599076
9.33200e-06;-0.008349985383270298
9.33225e-06;-0.008344840456941486
9.33250e-06;-0.008339695530612673
9.33275e-06;-0.00833455060428386
9.33300e-06;-0.00832940567795508
9.33325e-06;-0.008324265702639224
9.33350e-06;-0.008319142226772292
9.33375e-06;-0.008314018750905393
9.33400e-06;-0.00830889527503846
9.33425e-06;-0.008303771799171527
9.33450e-06;-0.008298648323304628
9.33475e-06;-0.008293524847437695
9.33500e-06;-0.008288401371570763
9.33525e-06;-0.008283277895703864
9.33550e-06;-0.008278154419836932
9.33575e-06;-0.008273030943969998
9.33600e-06;-0.0082679074681031
9.33625e-06;-0.008262783992236167
9.33650e-06;-0.008257660516369234
9.33675e-06;-0.008252537040502335
9.33700e-06;-0.008247413564635403
9.33725e-06;-0.008246300052928623
9.33750e-06;-0.00824666357917358
9.33775e-06;-0.008247027105418537
9.33800e-06;-0.008247390631663496
9.33825e-06;-0.008247754157908453
9.33850e-06;-0.008248117684153412
9.33875e-06;-0.00824848121039837
9.33900e-06;-0.008248844736643326
9.33925e-06;-0.008249208262888285
9.33950e-06;-0.008249571789133244
9.33975e-06;-0.0082499353153782
9.34000e-06;-0.008250298841623158
9.34025e-06;-0.008261181709342681
9.34050e-06;-0.008275939291639525
9.34075e-06;-0.008290696873936469
9.34100e-06;-0.008305454456233414
9.34125e-06;-0.008320212038530358
9.34150e-06;-0.008334969620827203
9.34175e-06;-0.008349727203124147
9.34200e-06;-0.008364484785421091
9.34225e-06;-0.008379242367717936
9.34250e-06;-0.00839399995001488
9.34275e-06;-0.008408757532311824
9.34300e-06;-0.00842351511460867
9.34325e-06;-0.0084470525875168
9.34350e-06;-0.008473824062308411
9.34375e-06;-0.008500595537099838
9.34400e-06;-0.008527367011891449
9.34425e-06;-0.008554138486683058
9.34450e-06;-0.008580909961474486
9.34475e-06;-0.008607681436266097
9.34500e-06;-0.008634452911057706
9.34525e-06;-0.008661224385849134
9.34550e-06;-0.008687995860640745
9.34575e-06;-0.008714767335432354
9.34600e-06;-0.008741369365709696
9.34625e-06;-0.008767406715358793
9.34650e-06;-0.00879344406500789
9.34675e-06;-0.008819481414656811
9.34700e-06;-0.008845518764305909
9.34725e-06;-0.008871556113955006
9.34750e-06;-0.008897593463603928
9.34775e-06;-0.008923630813253026
9.34800e-06;-0.008949668162902123
9.34825e-06;-0.008975705512551044
9.34850e-06;-0.009001742862200141
9.34875e-06;-0.009027780211849239
9.34900e-06;-0.009050305062729769
9.34925e-06;-0.009071536113022421
9.34950e-06;-0.009092767163315071
9.34975e-06;-0.009113998213607722
9.35000e-06;-0.00913522926390023
9.35025e-06;-0.00915646031419288
9.35050e-06;-0.00917769136448553
9.35075e-06;-0.009198922414778038
9.35100e-06;-0.009220153465070689
9.35125e-06;-0.00924138451536334
9.35150e-06;-0.009262615565655847
9.35175e-06;-0.009283846615948497
9.35200e-06;-0.009306880405014761
9.35225e-06;-0.00933057821836655
9.35250e-06;-0.0093542760317185
9.35275e-06;-0.009377973845070447
9.35300e-06;-0.009401671658422235
9.35325e-06;-0.009425369471774185
9.35350e-06;-0.009449067285126135
9.35375e-06;-0.009472765098477923
9.35400e-06;-0.009496462911829873
9.35425e-06;-0.00952016072518182
9.35450e-06;-0.009543858538533609
9.35475e-06;-0.009567556351885559
9.35500e-06;-0.009591761584572278
9.35525e-06;-0.009616153721077785
9.35550e-06;-0.009640545857583458
9.35575e-06;-0.009664937994089129
9.35600e-06;-0.009689330130594635
9.35625e-06;-0.009713722267100308
9.35650e-06;-0.00973811440360598
9.35675e-06;-0.009760490345554986
9.35700e-06;-0.009782123638502484
9.35725e-06;-0.00980375693144998
9.35750e-06;-0.00982539022439733
9.35775e-06;-0.009847023517344827
9.35800e-06;-0.009868656810292323
9.35825e-06;-0.00989029010323982
9.35850e-06;-0.00990966175664974
9.35875e-06;-0.009928200353379176
9.35900e-06;-0.009946738950108615
9.35925e-06;-0.009969518270869294
9.35950e-06;-0.009993859628120301
9.35975e-06;-0.01001820098537131
9.36000e-06;-0.010051162026602486
9.36025e-06;-0.010087298058899548
9.36050e-06;-0.01012343409119661
9.36075e-06;-0.010159570123493425
9.36100e-06;-0.010195706155790487
9.36125e-06;-0.010231842188087547
9.36150e-06;-0.010272226986394758
9.36175e-06;-0.010326770967580085
9.36200e-06;-0.01038131494876541
9.36225e-06;-0.010435858929950368
9.36250e-06;-0.010490402911135694
9.36275e-06;-0.01054494689232102
9.36300e-06;-0.010599490873505977
9.36325e-06;-0.010664705405927266
9.36350e-06;-0.01073385034982564
9.36375e-06;-0.010802995293723546
9.36400e-06;-0.010872140237621921
9.36425e-06;-0.010941285181520296
9.36450e-06;-0.011011958881470637
9.36475e-06;-0.011087727222188298
9.36500e-06;-0.01116349556290596
9.36525e-06;-0.01123926390362311
9.36550e-06;-0.011315032244340772
9.36575e-06;-0.011390800585058435
9.36600e-06;-0.011466922075383686
9.36625e-06;-0.011543173645519041
9.36650e-06;-0.011617819630165015
9.36675e-06;-0.011691874210346852
9.36700e-06;-0.011763530961923258
9.36725e-06;-0.011834304492674724
9.36750e-06;-0.011901892375743711
9.36775e-06;-0.011968306851184241
9.36800e-06;-0.012030265299410817
9.36825e-06;-0.012090582405955789
9.36850e-06;-0.012143779987526379
9.36875e-06;-0.012194355149500014
9.36900e-06;-0.012244930311473648
9.36925e-06;-0.01228778836303021
9.36950e-06;-0.012327803879211997
9.36975e-06;-0.012367819395393782
9.37000e-06;-0.012399972148214715
9.37025e-06;-0.012429228715573686
9.37050e-06;-0.012458485282932657
9.37075e-06;-0.012475329727348612
9.37100e-06;-0.012487602266395732
9.37125e-06;-0.012499874805442852
9.37150e-06;-0.01251214734448989
9.37175e-06;-0.01252441988353701
9.37200e-06;-0.01253669242258413
9.37225e-06;-0.01254457858818608
9.37250e-06;-0.012537846988616746
9.37275e-06;-0.012531115389047411
9.37300e-06;-0.012524383789478122
9.37325e-06;-0.012517652189908787
9.37350e-06;-0.012510920590339453
9.37375e-06;-0.012504188990770163
9.37400e-06;-0.012487937347547846
9.37425e-06;-0.012468179073035214
9.37450e-06;-0.012448420798522717
9.37475e-06;-0.012428662524010085
9.37500e-06;-0.012408904249497454
9.37525e-06;-0.012389145974984821
9.37550e-06;-0.012369387700472323
9.37575e-06;-0.012346492539927202
9.37600e-06;-0.01232244193271425
9.37625e-06;-0.01229839132550146
9.37650e-06;-0.012274340718288508
9.37675e-06;-0.012250290111075555
9.37700e-06;-0.012226239503862767
9.37725e-06;-0.012202188896649814
9.37750e-06;-0.012182936236990792
9.37775e-06;-0.012165450862613076
9.37800e-06;-0.012147965488235242
9.37825e-06;-0.012130480113857409
9.37850e-06;-0.012112994739479695
9.37875e-06;-0.012095509365101861
9.37900e-06;-0.012078023990724027
9.37925e-06;-0.012060538616346312
9.37950e-06;-0.012043053241968478
9.37975e-06;-0.012024879910773015
9.38000e-06;-0.012006453176232942
9.38025e-06;-0.011988026441692744
9.38050e-06;-0.011969599707152546
9.38075e-06;-0.011951172972612473
9.38100e-06;-0.011932746238072276
9.38125e-06;-0.011914319503532078
9.38150e-06;-0.011895892768992005
9.38175e-06;-0.011877466034451807
9.38200e-06;-0.011852944629813473
9.38225e-06;-0.011826178302603883
9.38250e-06;-0.011799411975394112
9.38275e-06;-0.011772645648184341
9.38300e-06;-0.011745879320974753
9.38325e-06;-0.011719112993764982
9.38350e-06;-0.011692346666555211
9.38375e-06;-0.01166558033934544
9.38400e-06;-0.011635332549450428
9.38425e-06;-0.011603802390856177
9.38450e-06;-0.011572272232261926
9.38475e-06;-0.01154074207366789
9.38500e-06;-0.011509211915073638
9.38525e-06;-0.011477681756479388
9.38550e-06;-0.01144615159788535
9.38575e-06;-0.0114146214392911
9.38600e-06;-0.011384113063323157
9.38625e-06;-0.011353981052744253
9.38650e-06;-0.011323849042165143
9.38675e-06;-0.011293717031586034
9.38700e-06;-0.01126358502100713
9.38725e-06;-0.011234995641166748
9.38750e-06;-0.011211547140045833
9.38775e-06;-0.011188098638925078
9.38800e-06;-0.011164650137804164
9.38825e-06;-0.01114120163668325
9.38850e-06;-0.011117753135562495
9.38875e-06;-0.011099808538444922
9.38900e-06;-0.011083891259973474
9.38925e-06;-0.011067973981502135
9.38950e-06;-0.011052056703030687
9.38975e-06;-0.01103613942455924
9.39000e-06;-0.0110202221460879
9.39025e-06;-0.011004304867616454
9.39050e-06;-0.010988387589145006
9.39075e-06;-0.010972470310673667
9.39100e-06;-0.01095655303220222
9.39125e-06;-0.010940533166655674
9.39150e-06;-0.010924171425572777
9.39175e-06;-0.010907809684489768
9.39200e-06;-0.01089144794340676
9.39225e-06;-0.010875086202323749
9.39250e-06;-0.010858724461240851
9.39275e-06;-0.010842362720157843
9.39300e-06;-0.010826000979074834
9.39325e-06;-0.010809639237991936
9.39350e-06;-0.010793277496908928
9.39375e-06;-0.010776915755825917
9.39400e-06;-0.010759649143112367
9.39425e-06;-0.010742049228232008
9.39450e-06;-0.010724449313351647
9.39475e-06;-0.010706849398471408
9.39500e-06;-0.010689249483591047
9.39525e-06;-0.010671649568710688
9.39550e-06;-0.010654049653830447
9.39575e-06;-0.010636449738950086
9.39600e-06;-0.01061959393953383
9.39625e-06;-0.0106052179347048
9.39650e-06;-0.010590841929875675
9.39675e-06;-0.010576465925046548
9.39700e-06;-0.010562089920217519
9.39725e-06;-0.010547713915388394
