Time(s);Current(A)
1.32500e-05;0.007526427401331029
1.32503e-05;0.0075227592978206565
1.32505e-05;0.0075190911943102835
1.32508e-05;0.0075154230907999355
1.32510e-05;0.007511754987289563
1.32513e-05;0.007508086883779191
1.32515e-05;0.007504418780268843
1.32518e-05;0.007500750676758471
1.32520e-05;0.007497082573248098
1.32523e-05;0.007493414469737751
1.32525e-05;0.007489746366227378
1.32528e-05;0.0074860782627170054
1.32530e-05;0.0074824101592066575
1.32533e-05;0.007478742055696285
1.32535e-05;0.007475073952185912
1.32538e-05;0.00747140584867554
1.32540e-05;0.0074676272449391715
1.32543e-05;0.0074583544720248475
1.32545e-05;0.007449081699110524
1.32548e-05;0.007439808926196262
1.32550e-05;0.007430536153281938
1.32553e-05;0.007421263380367614
1.32555e-05;0.007411990607453353
1.32558e-05;0.007402717834539029
1.32560e-05;0.007393445061624705
1.32563e-05;0.007384172288710443
1.32565e-05;0.007374899515796119
1.32568e-05;0.007365626742881795
1.32570e-05;0.007356353969967535
1.32573e-05;0.00734708119705321
1.32575e-05;0.007337808424138886
1.32578e-05;0.007328535651224625
1.32580e-05;0.007319262878310301
1.32583e-05;0.007309990105395976
1.32585e-05;0.007300717332481716
1.32588e-05;0.007291444559567392
1.32590e-05;0.00728169933055725
1.32593e-05;0.007271517491289906
1.32595e-05;0.007261335652022494
1.32598e-05;0.007251153812755081
1.32600e-05;0.007240971973487737
1.32603e-05;0.007230790134220324
1.32605e-05;0.007220608294952912
1.32608e-05;0.007210426455685567
1.32610e-05;0.007200244616418155
1.32613e-05;0.007190062777150742
1.32615e-05;0.007179880937883398
1.32618e-05;0.007169699098615985
1.32620e-05;0.007159517259348573
1.32623e-05;0.00714933542008116
1.32625e-05;0.007139153580813816
1.32628e-05;0.007128971741546403
1.32630e-05;0.007118789902278991
1.32633e-05;0.007108608063011646
1.32635e-05;0.007098426223744234
1.32638e-05;0.007088216238280253
1.32640e-05;0.007076606798970141
1.32643e-05;0.007064997359659951
1.32645e-05;0.007053387920349761
1.32648e-05;0.00704177848103965
1.32650e-05;0.00703016904172946
1.32653e-05;0.0070185596024192705
1.32655e-05;0.0070069501631091595
1.32658e-05;0.00699534072379897
1.32660e-05;0.00698373128448878
1.32663e-05;0.006972121845178669
1.32665e-05;0.006960512405868479
1.32668e-05;0.006948902966558289
1.32670e-05;0.006937293527248178
1.32673e-05;0.006925684087937988
1.32675e-05;0.006914074648627798
1.32678e-05;0.006902465209317687
1.32680e-05;0.006890855770007497
1.32683e-05;0.0068792463306973075
1.32685e-05;0.0068675720977131125
1.32688e-05;0.006855837987032327
1.32690e-05;0.00684410387635154
1.32693e-05;0.006832369765670834
1.32695e-05;0.006820635654990047
1.32698e-05;0.006808901544309261
1.32700e-05;0.006797167433628554
1.32703e-05;0.006785433322947767
1.32705e-05;0.006773699212266981
1.32708e-05;0.006761965101586195
1.32710e-05;0.006750230990905488
1.32713e-05;0.006738496880224701
1.32715e-05;0.006726762769543915
1.32718e-05;0.006715028658863208
1.32720e-05;0.0067032945481824225
1.32723e-05;0.006691560437501636
1.32725e-05;0.006679826326820929
1.32728e-05;0.006668092216140143
1.32730e-05;0.006656569129230273
1.32733e-05;0.006655538331336343
1.32735e-05;0.006654507533442405
1.32738e-05;0.006653476735548468
1.32740e-05;0.006652445937654538
1.32743e-05;0.006651415139760601
1.32745e-05;0.006650384341866663
1.32748e-05;0.0066493535439727325
1.32750e-05;0.006648322746078795
1.32753e-05;0.006647291948184858
1.32755e-05;0.006646261150290928
1.32758e-05;0.00664523035239699
1.32760e-05;0.006644199554503053
1.32763e-05;0.006643168756609123
1.32765e-05;0.006642137958715186
1.32768e-05;0.006641107160821248
1.32770e-05;0.0066400763629273175
1.32773e-05;0.006639045565033381
1.32775e-05;0.006638014767139443
1.32778e-05;0.006640068242319742
1.32780e-05;0.0066449719828965415
1.32783e-05;0.006649875723473341
1.32785e-05;0.006654779464050107
1.32788e-05;0.006659683204626906
1.32790e-05;0.006664586945203705
1.32793e-05;0.006669490685780505
1.32795e-05;0.00667439442635727
1.32798e-05;0.006679298166934069
1.32800e-05;0.006684201907510868
1.32803e-05;0.006689105648087635
1.32805e-05;0.006694009388664434
1.32808e-05;0.006698913129241233
1.32810e-05;0.006703816869817999
1.32813e-05;0.0067087206103947986
1.32815e-05;0.006713624350971598
1.32818e-05;0.006718528091548364
1.32820e-05;0.006723431832125163
1.32823e-05;0.006728108489833428
1.32825e-05;0.006721494385920158
1.32828e-05;0.006714880282006844
1.32830e-05;0.0067082661780935296
1.32833e-05;0.006701652074180261
1.32835e-05;0.006695037970266946
1.32838e-05;0.006688423866353632
1.32840e-05;0.006681809762440362
1.32843e-05;0.006675195658527048
1.32845e-05;0.006668581554613733
1.32848e-05;0.0066619674507004635
1.32850e-05;0.0066553533467871495
1.32853e-05;0.0066487392428738355
1.32855e-05;0.006631777520925116
1.32858e-05;0.006605253267735537
1.32860e-05;0.006578729014545959
1.32863e-05;0.006552204761356561
1.32865e-05;0.006525680508166982
1.32868e-05;0.0064991562549774045
1.32870e-05;0.006472632001788006
1.32873e-05;0.0064461077485984284
1.32875e-05;0.00641958349540885
1.32878e-05;0.006393059242219272
1.32880e-05;0.006366534989029874
1.32883e-05;0.006340010735840295
1.32885e-05;0.006313318194059404
1.32888e-05;0.00627825819425014
1.32890e-05;0.006243198194440638
1.32893e-05;0.006208138194631136
1.32895e-05;0.0061730781948218716
1.32898e-05;0.006143115637812213
1.32900e-05;0.006115408185147633
1.32903e-05;0.00608770073248324
1.32905e-05;0.006059993279818659
1.32908e-05;0.006025166527336232
1.32910e-05;0.005997146891237141
1.32913e-05;0.005952460261788078
1.32915e-05;0.005932371527908443
1.32918e-05;0.0059145513301301
1.32920e-05;0.005896731132351636
1.32923e-05;0.0058789109345731725
1.32925e-05;0.00586109073679483
1.32928e-05;0.0058432705390163665
1.32930e-05;0.005825450341237903
1.32933e-05;0.00580763014345956
1.32935e-05;0.005789809945681096
1.32938e-05;0.005771989747902632
1.32940e-05;0.00575416955012429
1.32943e-05;0.005736349352345826
1.32945e-05;0.0057443891924211345
1.32948e-05;0.005754438628662466
1.32950e-05;0.005764488064903866
1.32953e-05;0.005774537501145266
1.32955e-05;0.005784586937386597
1.32958e-05;0.005794636373627996
1.32960e-05;0.005804685809869396
1.32963e-05;0.0058147352461107955
1.32965e-05;0.0058247846823521274
1.32968e-05;0.005834834118593527
1.32970e-05;0.005844883554834927
1.32973e-05;0.005854932991076259
1.32975e-05;0.005880931979294067
1.32978e-05;0.0059081704149825396
1.32980e-05;0.005935408850670828
1.32983e-05;0.005962647286359301
1.32985e-05;0.0059898857220477735
1.32988e-05;0.006017124157736062
1.32990e-05;0.0060443625934245345
1.32993e-05;0.006071601029113007
1.32995e-05;0.006098839464801296
1.32998e-05;0.006126077900489769
1.33000e-05;0.006152384988780553
1.33003e-05;0.006177446834914592
1.33005e-05;0.0062025086810488005
1.33008e-05;0.006227570527183009
1.33010e-05;0.006252632373317048
1.33013e-05;0.006277694219451256
1.33015e-05;0.006302756065585465
1.33018e-05;0.006327817911719503
1.33020e-05;0.006352879757853712
1.33023e-05;0.00637794160398792
1.33025e-05;0.006403003450121959
1.33028e-05;0.006407891491862711
1.33030e-05;0.006411211817414076
1.33033e-05;0.006414532142965418
1.33035e-05;0.0064178524685167835
1.33038e-05;0.006421172794068148
1.33040e-05;0.00642449311961949
1.33043e-05;0.006427813445170855
1.33045e-05;0.006431133770722221
1.33048e-05;0.0064344540962735855
1.33050e-05;0.006437774421824928
1.33053e-05;0.006441094747376293
1.33055e-05;0.006444415072927658
1.33058e-05;0.006447735398479
1.33060e-05;0.006451055724030365
1.33063e-05;0.006445325474658581
1.33065e-05;0.006427494308415954
1.33068e-05;0.006409663142173206
1.33070e-05;0.006391831975930459
1.33073e-05;0.006374000809687832
1.33075e-05;0.006356169643445084
1.33078e-05;0.0063383384772023365
1.33080e-05;0.006320507310959709
1.33083e-05;0.006302676144716962
1.33085e-05;0.006284844978474214
1.33088e-05;0.006267013812231587
1.33090e-05;0.0062491826459888395
1.33093e-05;0.006231351479746091
1.33095e-05;0.006213520313503465
1.33098e-05;0.006195689147260717
1.33100e-05;0.006177937025541897
1.33103e-05;0.00616019104641175
1.33105e-05;0.0061424450672814815
1.33108e-05;0.006124699088151214
1.33110e-05;0.006106953109021066
1.33113e-05;0.006089207129890798
1.33115e-05;0.006071461150760529
1.33118e-05;0.006053715171630381
1.33120e-05;0.0060359691925001135
1.33123e-05;0.006018223213369846
1.33125e-05;0.006000477234239698
1.33128e-05;0.00598273125510943
1.33130e-05;0.005964985275979161
1.33133e-05;0.0059472392968488936
1.33135e-05;0.0059294933177187455
1.33138e-05;0.005920737707068595
1.33140e-05;0.005912680742343339
1.33143e-05;0.005904623777618138
1.33145e-05;0.005896566812892881
1.33148e-05;0.005888509848167626
1.33150e-05;0.005880452883442425
1.33153e-05;0.005872395918717168
1.33155e-05;0.0058643389539919126
1.33158e-05;0.005856281989266711
1.33160e-05;0.005848225024541455
1.33163e-05;0.005840168059816199
1.33165e-05;0.005832111095090998
1.33168e-05;0.005824054130365742
1.33170e-05;0.0058159971656404855
1.33173e-05;0.0058079402009152846
1.33175e-05;0.005803702711100747
1.33178e-05;0.0057997620345468515
1.33180e-05;0.005795821357992982
1.33183e-05;0.005791880681439087
1.33185e-05;0.005787940004885191
1.33188e-05;0.005783999328331323
1.33190e-05;0.005780058651777427
1.33193e-05;0.005776117975223532
1.33195e-05;0.0057721772986696635
1.33198e-05;0.005768236622115768
1.33200e-05;0.005764295945561873
1.33203e-05;0.005760355269008004
1.33205e-05;0.005756414592454109
1.33208e-05;0.005755597084377392
1.33210e-05;0.0057550222792483625
1.33213e-05;0.005754447474119329
1.33215e-05;0.005753872668990296
1.33218e-05;0.005753297863861262
1.33220e-05;0.005752723058732232
1.33223e-05;0.005752148253603199
1.33225e-05;0.005751573448474165
1.33228e-05;0.005750998643345136
1.33230e-05;0.005750423838216103
1.33233e-05;0.005749849033087069
1.33235e-05;0.005749274227958039
1.33238e-05;0.005748699422829006
1.33240e-05;0.0057619791201636425
1.33243e-05;0.005776335457651243
1.33245e-05;0.0057906917951389405
1.33248e-05;0.005805048132626638
1.33250e-05;0.005819404470114239
1.33253e-05;0.005833760807601936
1.33255e-05;0.005848117145089634
1.33258e-05;0.005862473482577233
1.33260e-05;0.005876829820064931
1.33263e-05;0.005891186157552629
1.33265e-05;0.005905542495040229
1.33268e-05;0.005919898832527927
1.33270e-05;0.005934255170015624
1.33273e-05;0.005953679785627804
1.33275e-05;0.005979880856086605
1.33278e-05;0.006006081926545405
1.33280e-05;0.006032282997004029
1.33283e-05;0.006058484067462829
1.33285e-05;0.00608468513792163
1.33288e-05;0.006110886208380253
1.33290e-05;0.006137087278839054
1.33293e-05;0.006163288349297855
1.33295e-05;0.006189489419756478
1.33298e-05;0.006215690490215278
1.33300e-05;0.0062418915606740795
1.33303e-05;0.00626809263113288
1.33305e-05;0.006294293701591503
1.33308e-05;0.006313386282910528
1.33310e-05;0.006331926460066176
1.33313e-05;0.006350466637221698
1.33315e-05;0.006369006814377345
1.33318e-05;0.006387546991532993
1.33320e-05;0.006406087168688515
1.33323e-05;0.006424627345844163
1.33325e-05;0.00644316752299981
1.33328e-05;0.006461707700155332
1.33330e-05;0.00648024787731098
1.33333e-05;0.0064987880544666275
1.33335e-05;0.006493627254535121
1.33338e-05;0.006486624640096579
1.33340e-05;0.0064796220256580364
1.33343e-05;0.006472619411219542
1.33345e-05;0.006465616796780999
1.33348e-05;0.006458614182342457
1.33350e-05;0.006451611567903961
1.33353e-05;0.006444608953465419
1.33355e-05;0.006437606339026877
1.33358e-05;0.0064306037245883815
1.33360e-05;0.006423601110149839
1.33363e-05;0.006394224848759612
1.33365e-05;0.0063631099203354646
1.33368e-05;0.006331994991911106
1.33370e-05;0.006300880063486748
1.33373e-05;0.0062697651350626
1.33375e-05;0.006238650206638241
1.33378e-05;0.0062075352782138835
1.33380e-05;0.0061764203497897355
1.33383e-05;0.006145305421365378
1.33385e-05;0.006114190492941019
1.33388e-05;0.0060757301392205965
1.33390e-05;0.006036698968912271
1.33393e-05;0.005997667798603681
1.33395e-05;0.005958636628295091
1.33398e-05;0.005919605457986765
1.33400e-05;0.005880574287678176
1.33403e-05;0.005841543117369586
1.33405e-05;0.005802511947061261
1.33408e-05;0.0057634807767526705
1.33410e-05;0.00572444960644408
1.33413e-05;0.00570011754928553
1.33415e-05;0.005676927767390903
1.33418e-05;0.005653737985496275
1.33420e-05;0.005630548203601805
1.33423e-05;0.005607358421707178
1.33425e-05;0.005584168639812551
1.33428e-05;0.005560978857918081
1.33430e-05;0.005537789076023454
1.33433e-05;0.005514599294128826
1.33435e-05;0.005491409512234356
1.33438e-05;0.005468219730339729
1.33440e-05;0.005445029948445102
1.33443e-05;0.005421840166550632
1.33445e-05;0.005398650384656005
1.33448e-05;0.005375460602761377
1.33450e-05;0.005360260385585692
1.33453e-05;0.0053557424796909035
1.33455e-05;0.005351224573796115
1.33458e-05;0.005346706667901356
1.33460e-05;0.005342188762006567
1.33463e-05;0.005337670856111778
1.33465e-05;0.0053331529502170195
1.33468e-05;0.005328635044322231
1.33470e-05;0.005324117138427441
1.33473e-05;0.005319599232532652
1.33475e-05;0.005315081326637894
1.33478e-05;0.005310563420743104
1.33480e-05;0.005306045514848316
1.33483e-05;0.005301527608953557
1.33485e-05;0.005297009703058768
1.33488e-05;0.005292491797163979
1.33490e-05;0.005294056991366916
1.33493e-05;0.005296094906250675
1.33495e-05;0.005298132821134434
1.33498e-05;0.0053001707360181794
1.33500e-05;0.005302208650901939
1.33503e-05;0.005304246565785698
1.33505e-05;0.005306284480669444
1.33508e-05;0.005308322395553203
1.33510e-05;0.005310360310436962
1.33513e-05;0.005312398225320708
1.33515e-05;0.005314436140204467
1.33518e-05;0.005316474055088226
1.33520e-05;0.005318511969971971
1.33523e-05;0.005320549884855731
1.33525e-05;0.00532258779973949
1.33528e-05;0.005324625714623236
1.33530e-05;0.005326663629506995
1.33533e-05;0.005328701544390755
1.33535e-05;0.005336665081073144
1.33538e-05;0.005345089100721116
1.33540e-05;0.005353513120369089
1.33543e-05;0.005361937140017004
1.33545e-05;0.005370361159664976
1.33548e-05;0.005378785179312949
1.33550e-05;0.005387209198960864
1.33553e-05;0.005395633218608836
1.33555e-05;0.005404057238256809
1.33557e-05;0.005412481257904724
1.33560e-05;0.005420905277552696
1.33563e-05;0.005429329297200669
1.33565e-05;0.00543775331684864
1.33568e-05;0.005446177336496555
1.33570e-05;0.005454601356144528
1.33573e-05;0.0054630253757925
1.33575e-05;0.005471449395440415
1.33578e-05;0.005479873415088388
1.33580e-05;0.00549341826110084
1.33583e-05;0.00550736104903247
1.33585e-05;0.005521303836964193
1.33588e-05;0.005535246624895918
1.33590e-05;0.005549189412827547
1.33593e-05;0.005563132200759271
1.33595e-05;0.005577074988690995
1.33598e-05;0.005591017776622625
1.33600e-05;0.0056049605645543486
1.33603e-05;0.005618903352486073
1.33605e-05;0.005632846140417702
1.33608e-05;0.0056439031189369805
1.33610e-05;0.005654735839796464
1.33613e-05;0.005665568560655875
1.33615e-05;0.00567640128151536
1.33618e-05;0.005687234002374844
1.33620e-05;0.0056980667232342545
1.33623e-05;0.005708899444093739
1.33625e-05;0.005719732164953223
1.33628e-05;0.005730564885812634
1.33630e-05;0.0057413976066721184
1.33633e-05;0.005752230327531602
1.33635e-05;0.005768397919488092
1.33638e-05;0.005784980086885035
1.33640e-05;0.005801562254281978
1.33642e-05;0.005818144421678808
1.33645e-05;0.005834726589075751
1.33648e-05;0.005851308756472694
1.33650e-05;0.005867890923869637
1.33653e-05;0.005884473091266467
1.33655e-05;0.00590105525866341
1.33658e-05;0.005917637426060353
1.33660e-05;0.005934219593457183
1.33663e-05;0.005950801760854126
1.33665e-05;0.005967383928251069
1.33668e-05;0.005983966095647899
1.33670e-05;0.006000548263044842
1.33673e-05;0.0060244049363750015
1.33675e-05;0.0060488269151167205
1.33678e-05;0.006073248893858605
1.33680e-05;0.006097670872600489
1.33683e-05;0.006122092851342208
1.33685e-05;0.006146514830084092
1.33688e-05;0.006170936808825976
1.33690e-05;0.006195358787567695
1.33693e-05;0.0062197807663095794
1.33695e-05;0.006244202745051463
1.33698e-05;0.006268624723793182
1.33700e-05;0.006293046702535067
1.33703e-05;0.00631746868127695
1.33705e-05;0.006341890660018669
1.33708e-05;0.006366312638760554
1.33710e-05;0.006380340938207232
1.33713e-05;0.006393561539755129
1.33715e-05;0.0064067821413031165
1.33718e-05;0.006420002742851104
1.33720e-05;0.006433223344399001
1.33723e-05;0.006446443945946988
1.33725e-05;0.006459664547494975
1.33727e-05;0.006472885149042873
1.33730e-05;0.006486105750590859
1.33733e-05;0.0064993263521388464
1.33735e-05;0.006512546953686834
1.33738e-05;0.0065257675552347315
1.33740e-05;0.006538988156782718
1.33743e-05;0.006552208758330705
1.33745e-05;0.006565429359878603
1.33748e-05;0.00657864996142659
1.33750e-05;0.006591870562974576
1.33753e-05;0.006605091164522474
1.33755e-05;0.006618311766070461
1.33758e-05;0.006626769827918228
1.33760e-05;0.006628860217257038
1.33763e-05;0.006630950606595862
1.33765e-05;0.006633040995934686
1.33768e-05;0.006635131385273496
1.33770e-05;0.006637221774612321
1.33773e-05;0.006639312163951145
1.33775e-05;0.006641402553289955
1.33778e-05;0.006643492942628779
1.33780e-05;0.006645583331967604
1.33783e-05;0.006647673721306414
1.33785e-05;0.006649764110645238
1.33788e-05;0.0066518544999840615
1.33790e-05;0.006653944889322872
1.33793e-05;0.0066560352786616955
1.33795e-05;0.00665812566800052
1.33798e-05;0.00666021605733933
1.33800e-05;0.006662306446678154
1.33803e-05;0.006664396836016978
1.33805e-05;0.006666487225355788
1.33808e-05;0.0066645665831703525
1.33810e-05;0.006662334241764107
1.33812e-05;0.006660101900357876
1.33815e-05;0.00665786955895163
1.33818e-05;0.0066556372175453835
1.33820e-05;0.006653404876139138
1.33823e-05;0.006651172534732907
1.33825e-05;0.006648940193326661
1.33828e-05;0.006646707851920415
1.33830e-05;0.006644475510514184
1.33833e-05;0.006642243169107938
1.33835e-05;0.006640010827701692
1.33838e-05;0.006637778486295461
1.33840e-05;0.006635546144889215
1.33843e-05;0.006633313803482969
1.33845e-05;0.0066310814620767385
1.33848e-05;0.006628849120670492
1.33850e-05;0.006626616779264246
1.33853e-05;0.006624384437858015
1.33855e-05;0.006622152096451769
1.33858e-05;0.006619919755045523
1.33860e-05;0.006617687413639292
1.33863e-05;0.006615455072233046
1.33865e-05;0.0066132227308268
1.33868e-05;0.006607605480619025
1.33870e-05;0.006601725187493116
1.33873e-05;0.006595844894367207
1.33875e-05;0.006589964601241337
1.33878e-05;0.006584084308115429
1.33880e-05;0.006578204014989519
1.33883e-05;0.006572323721863649
1.33885e-05;0.0065664434287377406
1.33888e-05;0.006560563135611831
1.33890e-05;0.006554682842485961
1.33893e-05;0.0065488025493600525
1.33895e-05;0.006542922256234143
1.33897e-05;0.006537041963108274
1.33900e-05;0.0065311616699823645
1.33903e-05;0.006525281376856456
1.33905e-05;0.006519401083730546
1.33908e-05;0.006513520790604676
1.33910e-05;0.006507640497478768
1.33913e-05;0.006501760204352858
1.33915e-05;0.006495879911226989
1.33918e-05;0.00648999961810108
1.33920e-05;0.00648411932497517
1.33923e-05;0.006478239031849301
1.33925e-05;0.006472358738723392
1.33928e-05;0.006457848723102217
1.33930e-05;0.006442668087525874
1.33933e-05;0.006427487451949427
1.33935e-05;0.00641230681637298
1.33938e-05;0.006397126180796636
1.33940e-05;0.006381945545220189
1.33943e-05;0.006366764909643742
1.33945e-05;0.0063515842740673985
1.33948e-05;0.006336403638490951
1.33950e-05;0.0063212230029145045
1.33953e-05;0.00630604236733816
1.33955e-05;0.006290861731761714
1.33958e-05;0.006258129130435064
1.33960e-05;0.006224032557266262
1.33963e-05;0.00618993598409723
1.33965e-05;0.006155839410928197
1.33968e-05;0.006121742837759395
1.33970e-05;0.006087646264590362
1.33973e-05;0.006053549691421329
1.33975e-05;0.006019453118252528
1.33978e-05;0.005985356545083495
1.33980e-05;0.0059512599719144625
1.33983e-05;0.005917163398745661
1.33985e-05;0.005883066825576628
1.33988e-05;0.005843723201136997
1.33990e-05;0.005803971825776849
1.33993e-05;0.00576422045041697
1.33995e-05;0.005724469075056821
1.33998e-05;0.005684717699696674
1.34000e-05;0.005644966324336794
1.34003e-05;0.005605214948976646
1.34005e-05;0.005565463573616498
1.34008e-05;0.005525712198256619
