Time(s);Current(A)
1.15000e-05;0.0009663918852473616
1.15003e-05;0.0009422942758101872
1.15005e-05;0.0009185817030412219
1.15007e-05;0.0008950219453260835
1.15010e-05;0.0008714621876107855
1.15013e-05;0.0008479024298954874
1.15015e-05;0.0008240173513730095
1.15018e-05;0.0007989506335347619
1.15020e-05;0.0007738839156965142
1.15023e-05;0.0007488171978582666
1.15025e-05;0.0007237504800201889
1.15028e-05;0.0006986837621819412
1.15030e-05;0.0006736170443436936
1.15033e-05;0.0006485503265056159
1.15035e-05;0.0006216377328237729
1.15038e-05;0.0005939925397834019
1.15040e-05;0.0005663473467432184
1.15043e-05;0.0005387021537028474
1.15045e-05;0.0005110569606624764
1.15048e-05;0.0004834117676222929
1.15050e-05;0.0004557665745819219
1.15053e-05;0.00042802731457252985
1.15055e-05;0.00039994638189313407
1.15058e-05;0.00037186544921354796
1.15060e-05;0.00034378451653396184
1.15063e-05;0.00031590524456481236
1.15065e-05;0.0002887584502554384
1.15068e-05;0.0002616116559460645
1.15070e-05;0.00023446486163687452
1.15073e-05;0.0002077634826155352
1.15075e-05;0.0001826799534346881
1.15078e-05;0.0001578375337303777
1.15080e-05;0.0001340632139092978
1.15083e-05;0.00011121671572832758
1.15085e-05;8.946887238948773e-05
1.15088e-05;6.899048720517375e-05
1.15090e-05;4.995234331221469e-05
1.15092e-05;3.252315514373296e-05
1.15095e-05;1.6854894449347106e-05
1.15098e-05;3.0536309601275834e-06
1.15100e-05;-8.826701862318257e-06
1.15103e-05;-1.875535931895777e-05
1.15105e-05;-2.6703899205008158e-05
1.15108e-05;-3.2643904098901734e-05
1.15110e-05;-3.654698356611984e-05
1.15113e-05;-3.838603861508476e-05
1.15115e-05;-3.81444678482004e-05
1.15118e-05;-3.583443324232395e-05
1.15120e-05;-3.150074379503413e-05
1.15123e-05;-2.5202741748035037e-05
1.15125e-05;-1.7001205283115277e-05
1.15128e-05;-6.956929593865818e-06
1.15130e-05;4.869281123623517e-06
1.15133e-05;1.841580749837663e-05
1.15135e-05;3.3614462095181605e-05
1.15138e-05;5.037904330824276e-05
1.15140e-05;6.860290186645747e-05
1.15143e-05;8.817029689396196e-05
1.15145e-05;0.00010896458908484709
1.15148e-05;0.00013086914012622772
1.15150e-05;0.0001538518373089902
1.15153e-05;0.00017784899325846358
1.15155e-05;0.00020217104221920685
1.15158e-05;0.00022767317664415155
1.15160e-05;0.0002531753110690963
1.15163e-05;0.00027879645516189655
1.15165e-05;0.0003048498694927143
1.15168e-05;0.00033090328382353207
1.15170e-05;0.0003569566981541733
1.15173e-05;0.0003826577328278303
1.15175e-05;0.00040707884427556695
1.15177e-05;0.00043149995572313806
1.15180e-05;0.0004559210671708747
1.15183e-05;0.0004797212866114317
1.15185e-05;0.0005012662847737118
1.15188e-05;0.0005222000100507663
1.15190e-05;0.0005409134528923111
1.15193e-05;0.0005589819580165244
1.15195e-05;0.0005747079023628557
1.15198e-05;0.0005904338467092935
1.15200e-05;0.000605732981009142
1.15203e-05;0.0006194818439448998
1.15205e-05;0.0006332307068807508
1.15208e-05;0.0006464118133523603
1.15210e-05;0.0006575306989476365
1.15213e-05;0.0006686495845429879
1.15215e-05;0.0006790097218538331
1.15218e-05;0.000686613912467856
1.15220e-05;0.0006942181030819305
1.15223e-05;0.000701822293696005
1.15225e-05;0.0007094264843100278
1.15228e-05;0.0007170306749241023
1.15230e-05;0.0007246348655381768
1.15233e-05;0.0007322390561521997
1.15235e-05;0.0007398432467662742
1.15238e-05;0.0007474474373803487
1.15240e-05;0.0007542661421954766
1.15243e-05;0.0007582317835673824
1.15245e-05;0.0007621974249392882
1.15248e-05;0.0007661630663111671
1.15250e-05;0.000770128707683073
1.15253e-05;0.0007740943490549787
1.15255e-05;0.0007780599904268577
1.15258e-05;0.0007820256317987635
1.15260e-05;0.0007859912731706692
1.15262e-05;0.0007899569145425482
1.15265e-05;0.0007935054793385733
1.15268e-05;0.0007955391269540359
1.15270e-05;0.0007975727745694846
1.15273e-05;0.0007996064221849472
1.15275e-05;0.0008016400698004096
1.15278e-05;0.0008036737174158722
1.15280e-05;0.0008057073650313209
1.15283e-05;0.0008077410126467835
1.15285e-05;0.000809774660262246
1.15288e-05;0.0008118083078776948
1.15290e-05;0.0008138883132516007
1.15293e-05;0.0008161367005697052
1.15295e-05;0.0008183850878877944
1.15298e-05;0.0008216433259207361
1.15300e-05;0.0008285695719081514
1.15303e-05;0.0008364344582077769
1.15305e-05;0.0008477087000501064
1.15308e-05;0.0008598005923756939
1.15310e-05;0.0008748623776097302
1.15313e-05;0.0008908197150194576
1.15315e-05;0.0009100299020392379
1.15318e-05;0.0009304322695673327
1.15320e-05;0.0009551649084162782
1.15323e-05;0.0009812179429390744
1.15325e-05;0.0010120669554851067
1.15328e-05;0.001042915968031348
1.15330e-05;0.0010750505040552714
1.15333e-05;0.0011118543543382473
1.15335e-05;0.0011486582046214726
1.15338e-05;0.0011867614175194489
1.15340e-05;0.0012295842115765876
1.15343e-05;0.0012724070056340164
1.15345e-05;0.0013163982350217302
1.15347e-05;0.0013646334878314246
1.15350e-05;0.0014128687406414458
1.15353e-05;0.001461103993451467
1.15355e-05;0.0015093392462611614
1.15358e-05;0.0015575744990711828
1.15360e-05;0.001606078182553324
1.15362e-05;0.0016555568674154436
1.15365e-05;0.0017050355522778983
1.15368e-05;0.001754514237140353
1.15370e-05;0.0018039929220028078
1.15373e-05;0.0018534716068649272
1.15375e-05;0.0019000542870284333
1.15378e-05;0.0019361180180838013
1.15380e-05;0.001972181749138925
1.15383e-05;0.0020082454801942933
1.15385e-05;0.0020443092112496612
1.15388e-05;0.002080372942304785
1.15390e-05;0.002116436673360153
1.15393e-05;0.002152500404415521
1.15395e-05;0.0021885641354706447
1.15398e-05;0.0022246278665260127
1.15400e-05;0.0022606915975813806
1.15403e-05;0.002291863045926475
1.15405e-05;0.0023052646084438144
1.15408e-05;0.002318666170961154
1.15410e-05;0.0023320677334784027
1.15413e-05;0.0023454692959957424
1.15415e-05;0.0023588708585130817
1.15418e-05;0.0023722724210303307
1.15420e-05;0.00238567398354767
1.15423e-05;0.0023990755460650097
1.15425e-05;0.0024124771085822583
1.15428e-05;0.002425878671099598
1.15430e-05;0.002435989477509224
1.15432e-05;0.0024341475077211596
1.15435e-05;0.0024323055379330827
1.15438e-05;0.0024304635681450058
1.15440e-05;0.002428621598356941
1.15443e-05;0.002426779628568864
1.15445e-05;0.002424937658780787
1.15447e-05;0.002423095688992723
1.15450e-05;0.002421253719204646
1.15453e-05;0.0024194117494165685
1.15455e-05;0.002416207631563445
1.15458e-05;0.002408055881483201
1.15460e-05;0.002399904131402903
1.15463e-05;0.0023917523813226046
1.15465e-05;0.002383600631242361
1.15468e-05;0.0023754488811620626
1.15470e-05;0.002367297131081764
1.15473e-05;0.0023591453810015207
1.15475e-05;0.0023509936309212224
1.15478e-05;0.0023428418808409237
1.15480e-05;0.0023348703419599943
1.15483e-05;0.0023275533712279316
1.15485e-05;0.0023202364004958685
1.15488e-05;0.002312919429763855
1.15490e-05;0.002305602459031792
1.15493e-05;0.002298285488299729
1.15495e-05;0.0022909685175677152
1.15498e-05;0.002283651546835652
1.15500e-05;0.0022763345761035894
1.15503e-05;0.0022690176053715757
1.15505e-05;0.0022617006346395126
1.15508e-05;0.00225438366390745
1.15510e-05;0.002247066693175436
1.15513e-05;0.002239749722443373
1.15515e-05;0.00223243275171131
1.15517e-05;0.0022251157809792966
1.15520e-05;0.0022177988102472334
1.15523e-05;0.0022104818395151703
1.15525e-05;0.002203164868783157
1.15528e-05;0.002195847898051094
1.15530e-05;0.0021880908980487852
1.15532e-05;0.0021787356114469176
1.15535e-05;0.0021693803248449867
1.15538e-05;0.0021600250382430557
1.15540e-05;0.0021506697516411252
1.15543e-05;0.0021413144650392576
1.15545e-05;0.0021319591784373267
1.15548e-05;0.0021226038918353957
1.15550e-05;0.0021132486052335285
1.15553e-05;0.0021038933186315976
1.15555e-05;0.0020945380320296666
1.15558e-05;0.002085182745427799
1.15560e-05;0.0020758274588258685
1.15563e-05;0.0020664721722239376
1.15565e-05;0.00205711688562207
1.15568e-05;0.002047761599020139
1.15570e-05;0.0020384063124182085
1.15573e-05;0.002029051025816341
1.15575e-05;0.00201969573921441
1.15578e-05;0.002010340452612479
1.15580e-05;0.0020016242451310275
1.15583e-05;0.0019952293186724186
1.15585e-05;0.00198883439221381
1.15588e-05;0.0019824394657552446
1.15590e-05;0.0019760445392966357
1.15593e-05;0.0019696496128380273
1.15595e-05;0.0019632546863794617
1.15598e-05;0.001956859759920853
1.15600e-05;0.0019581172226394486
1.15602e-05;0.001962411799383666
1.15605e-05;0.001966706376127912
1.15608e-05;0.0019710009528721584
1.15610e-05;0.0019752955296163757
1.15613e-05;0.001979590106360622
1.15615e-05;0.0019838846831048682
1.15617e-05;0.001991570744239801
1.15620e-05;0.0020115754496622556
1.15623e-05;0.0020315801550847097
1.15625e-05;0.002051584860507164
1.15628e-05;0.002071589565929483
1.15630e-05;0.0020915942713519375
1.15633e-05;0.002111598976774392
1.15635e-05;0.0021316036821967107
1.15638e-05;0.0021516083876191652
1.15640e-05;0.0021741226848432313
1.15643e-05;0.002205752391472465
1.15645e-05;0.0022373820981019137
1.15648e-05;0.0022690118047313623
1.15650e-05;0.002300641511360596
1.15653e-05;0.0023322712179900448
1.15655e-05;0.0023639009246194933
1.15658e-05;0.002395530631248727
1.15660e-05;0.0024271603378781758
1.15663e-05;0.002456662704497948
1.15665e-05;0.00248171196851723
1.15668e-05;0.0025192479120160465
1.15670e-05;0.0025525956279250184
1.15673e-05;0.0025859433438337642
1.15675e-05;0.0026192910597427357
1.15678e-05;0.0026526387756517075
1.15680e-05;0.0026800478375397217
1.15683e-05;0.0027078684528754077
1.15685e-05;0.0027343893345009277
1.15687e-05;0.002760910216126268
1.15690e-05;0.002787431097751788
1.15693e-05;0.0028058042303334575
1.15695e-05;0.002819847013240164
1.15698e-05;0.002833889796146966
1.15700e-05;0.002847932579053768
1.15702e-05;0.0028540064937350056
1.15705e-05;0.0028472775329129647
1.15708e-05;0.0028405485720909233
1.15710e-05;0.0028278804582380903
1.15713e-05;0.00280567043269919
1.15715e-05;0.002783460407160139
1.15718e-05;0.002753524558000382
1.15720e-05;0.002711176311600114
1.15723e-05;0.0026688280651995587
1.15725e-05;0.002619986654075252
1.15728e-05;0.002560713249695968
1.15730e-05;0.002501439845316282
1.15733e-05;0.0024365138066636135
1.15735e-05;0.0023625061806620815
1.15738e-05;0.002288498554660048
1.15740e-05;0.0022091414272408863
1.15743e-05;0.0021211897292114476
1.15745e-05;0.002033238031181413
1.15748e-05;0.0019419315060694037
1.15750e-05;0.0018452350771154574
1.15753e-05;0.0017485386481608562
1.15755e-05;0.0016494036871799046
1.15758e-05;0.0015463509525504204
1.15760e-05;0.001443298217920238
1.15763e-05;0.0013402454832900557
1.15765e-05;0.0012374516349423514
1.15768e-05;0.001135073716277054
1.15770e-05;0.0010326957976117567
1.15772e-05;0.0009303178789471531
1.15775e-05;0.0008302040498599578
1.15778e-05;0.0007337277331751008
1.15780e-05;0.00063905740692456
1.15783e-05;0.0005488548864189871
1.15785e-05;0.0004629992913354684
1.15787e-05;0.00038217151016179686
1.15790e-05;0.0003070806433316732
1.15793e-05;0.00023826519871169742
1.15795e-05;0.00017548899374592286
1.15798e-05;0.00011800050615720656
1.15800e-05;6.550771909347787e-05
1.15803e-05;1.819418132088342e-05
1.15805e-05;-2.36796518457593e-05
1.15808e-05;-5.985248637124796e-05
1.15810e-05;-9.004541628948143e-05
1.15813e-05;-0.00011408641177312117
1.15815e-05;-0.00013228868804743851
1.15818e-05;-0.0001452882286948121
1.15820e-05;-0.00015343317465473934
1.15823e-05;-0.00015677375012277853
1.15825e-05;-0.00015531200367076335
1.15828e-05;-0.00014904948222185186
1.15830e-05;-0.00013797669167059528
1.15833e-05;-0.00012215109629090627
1.15835e-05;-0.0001019341112310793
1.15838e-05;-7.788929580094674e-05
1.15840e-05;-5.039985966362503e-05
1.15843e-05;-1.966238538003103e-05
1.15845e-05;1.4156717904550732e-05
1.15848e-05;5.0891383920625364e-05
1.15850e-05;9.03824549496486e-05
1.15853e-05;0.0001324288479336159
1.15855e-05;0.0001766390991044527
1.15857e-05;0.00022249515431461818
1.15860e-05;0.0002697427782296954
1.15863e-05;0.00031788370067456793
1.15865e-05;0.0003664335148010385
1.15868e-05;0.00041564025901529223
1.15870e-05;0.000464847003229546
1.15872e-05;0.0005140537474434663
1.15875e-05;0.0005612478848548263
1.15878e-05;0.0006081769965590566
1.15880e-05;0.0006551061082632869
1.15883e-05;0.0007001024242160053
1.15885e-05;0.0007419934882451923
1.15888e-05;0.0007818363175709157
1.15890e-05;0.0008183884294217195
1.15893e-05;0.0008536702215207305
1.15895e-05;0.000886911103269228
1.15898e-05;0.0009201519850175003
1.15900e-05;0.0009533928667659978
1.15903e-05;0.0009894434300829896
1.15905e-05;0.0010258639801470598
1.15908e-05;0.0010622845302113765
1.15910e-05;0.001100941880846121
1.15913e-05;0.0011431929010501105
1.15915e-05;0.0011854439212543864
1.15918e-05;0.0012276949414586622
1.15920e-05;0.0012699459616626518
1.15923e-05;0.0013121969818669277
1.15925e-05;0.0013544480020712035
1.15928e-05;0.001396699022275193
1.15930e-05;0.0014433324630695181
1.15933e-05;0.0014970067512799772
1.15935e-05;0.0015506810394900726
1.15938e-05;0.0016043553277005317
1.15940e-05;0.0016580296159109907
1.15942e-05;0.001711703904121086
1.15945e-05;0.001765378192331545
1.15948e-05;0.001819052480542004
1.15950e-05;0.001874487374886785
1.15953e-05;0.0019327508793346305
1.15955e-05;0.0019910143837824756
1.15957e-05;0.002049277888229926
1.15960e-05;0.0021075413926777715
1.15963e-05;0.0021658048971256168
1.15965e-05;0.002224068401573462
1.15968e-05;0.0022784136967469817
1.15970e-05;0.002332243031136687
1.15973e-05;0.0023860723655263916
1.15975e-05;0.0024399016999157317
1.15978e-05;0.002493731034305437
1.15980e-05;0.0025475603686951416
1.15983e-05;0.00259780782582385
1.15985e-05;0.002642300597672886
1.15988e-05;0.0026867933695219224
1.15990e-05;0.0027272916119622246
1.15993e-05;0.0027613721974270597
1.15995e-05;0.002795452782891895
1.15998e-05;0.0028235362446318367
1.16000e-05;0.0028419846582920074
1.16003e-05;0.0028604330719521776
1.16005e-05;0.002872467729135509
1.16008e-05;0.002874197971258719
1.16010e-05;0.0028759282133819296
1.16013e-05;0.0028710394642996293
1.16015e-05;0.0028555165676769413
1.16018e-05;0.002839993671054253
1.16020e-05;0.0028176917459901947
1.16023e-05;0.0027844985557185387
1.16025e-05;0.002751305365446883
1.16027e-05;0.0027121356850888178
1.16030e-05;0.00266336410689114
1.16033e-05;0.002614592528693462
1.16035e-05;0.002560470436753354
1.16038e-05;0.00249775214778038
1.16040e-05;0.0024350338588074063
1.16042e-05;0.0023679744369916253
1.16045e-05;0.0022939405011268587
1.16048e-05;0.002219906565262092
1.16050e-05;0.0021424118651106106
1.16053e-05;0.0020593570611784667
1.16055e-05;0.0019763022572457604
1.16058e-05;0.0018932474533130538
1.16060e-05;0.0018101926493809101
1.16063e-05;0.001724051974733085
1.16065e-05;0.001637504943976214
1.16068e-05;0.0015509579132199295
1.16070e-05;0.0014644108824630585
1.16073e-05;0.0013795220905522296
1.16075e-05;0.001297297444280028
1.16078e-05;0.0012150727980072694
1.16080e-05;0.0011354289791928845
1.16083e-05;0.001059931547512836
1.16085e-05;0.0009874978091274564
1.16088e-05;0.0009199862356935802
1.16090e-05;0.000855309152459125
1.16093e-05;0.0007974883416209677
1.16095e-05;0.0007433665092576602
1.16098e-05;0.0006901784160083974
1.16100e-05;0.0006388607007320738
1.16103e-05;0.0005890015539361201
1.16105e-05;0.0005405301429448246
1.16108e-05;0.0004932308297816278
1.16110e-05;0.0004487967858998328
1.16113e-05;0.0004070502463824023
1.16115e-05;0.0003670863215907384
1.16118e-05;0.0003274102516812776
1.16120e-05;0.0002882542996439662
1.16123e-05;0.0002495062548151671
1.16125e-05;0.00021126476019355122
1.16127e-05;0.00017356732983408408
1.16130e-05;0.00013725618925593443
1.16133e-05;0.00010224147132582125
1.16135e-05;6.819257597047636e-05
1.16138e-05;3.4467566074540704e-05
1.16140e-05;7.380022191997965e-07
1.16143e-05;-3.289075194531421e-05
1.16145e-05;-6.618540243573017e-05
1.16148e-05;-9.891272100452329e-05
1.16150e-05;-0.00013084141919712263
1.16153e-05;-0.000161735414316373
1.16155e-05;-0.00019189719811403942
1.16158e-05;-0.0002218109093089277
1.16160e-05;-0.00025132606420130645
1.16163e-05;-0.0002803110864455956
1.16165e-05;-0.0003084443914680886
1.16168e-05;-0.000336577696490391
1.16170e-05;-0.00036378179554710517
1.16173e-05;-0.0003894930215913279
1.16175e-05;-0.00041450235223237355
1.16178e-05;-0.0004383840096306794
1.16180e-05;-0.0004616010472756507
1.16183e-05;-0.0004837502991658694
1.16185e-05;-0.0005052525558687385
1.16188e-05;-0.0005251985638039881
1.16190e-05;-0.0005437290862184595
1.16193e-05;-0.0005604553830422384
1.16195e-05;-0.0005743583236487591
1.16198e-05;-0.0005840983354244283
1.16200e-05;-0.0005889329806573298
1.16203e-05;-0.000588814422950277
1.16205e-05;-0.0005838893273012856
1.16208e-05;-0.0005743044535309705
1.16210e-05;-0.000560203697620985
1.16212e-05;-0.0005415949393804218
1.16215e-05;-0.0005180910980084504
1.16218e-05;-0.0004891044499056024
1.16220e-05;-0.0004544214265172678
1.16223e-05;-0.0004142635951956272
1.16225e-05;-0.00036897425795114015
1.16228e-05;-0.0003188967415065746
1.16230e-05;-0.0002643726351765489
1.16233e-05;-0.00020565825353312538
1.16235e-05;-0.00014276257703488306
1.16238e-05;-7.556887380429761e-05
1.16240e-05;-4.19477788074891e-06
1.16243e-05;7.09695177649776e-05
1.16245e-05;0.00014945755926855397
1.16248e-05;0.00023080293701819362
1.16250e-05;0.0003145403351056878
1.16253e-05;0.00040057172798804995
1.16255e-05;0.0004882029249358183
1.16258e-05;0.0005770006449927074
1.16260e-05;0.0006676725145191093
1.16263e-05;0.0007583443840461256
1.16265e-05;0.000849016253573142
1.16268e-05;0.0009384007001769634
1.16270e-05;0.0010276156153205555
1.16273e-05;0.0011168305304641475
1.16275e-05;0.001203559406981672
1.16278e-05;0.0012862941851946763
1.16280e-05;0.0013690289634076805
1.16283e-05;0.0014485235979691412
1.16285e-05;0.0015228125804014768
1.16288e-05;0.0015934584082050477
1.16290e-05;0.0016582511017972168
1.16293e-05;0.0017185591203135913
1.16295e-05;0.0017716620081700547
1.16297e-05;0.0018247648960261586
1.16300e-05;0.0018740074624467688
1.16303e-05;0.0019170479919611214
1.16305e-05;0.001960088521475474
1.16308e-05;0.0019985792891418306
1.16310e-05;0.0020297603569910294
1.16313e-05;0.0020609414248402283
1.16315e-05;0.0020881756022743097
1.16318e-05;0.0021090686600825897
1.16320e-05;0.0021299617178908697
1.16323e-05;0.002147671865829995
1.16325e-05;0.002160268314092527
1.16328e-05;0.0021728647623550598
1.16330e-05;0.0021803125432833586
1.16333e-05;0.0021794884159370797
1.16335e-05;0.002178664288590801
1.16338e-05;0.002177840161244528
1.16340e-05;0.002177016033898249
1.16343e-05;0.0021761919065519703
1.16345e-05;0.0021753677792056975
1.16348e-05;0.0021745436518594186
1.16350e-05;0.0021634240168532507
1.16353e-05;0.00215094864052548
1.16355e-05;0.002138473264197625
1.16358e-05;0.00212599788786977
1.16360e-05;0.0021135225115419994
1.16363e-05;0.002101047135214144
1.16365e-05;0.0020885717588862893
1.16368e-05;0.0020753475152119898
1.16370e-05;0.0020609201326283444
1.16373e-05;0.002046492750044699
1.16375e-05;0.002032065367461152
1.16378e-05;0.0020176379848775064
1.16380e-05;0.002003210602293861
1.16382e-05;0.001988783219710314
1.16385e-05;0.0019743558371266685
1.16388e-05;0.001959928454543023
1.16390e-05;0.0019455010719593778
1.16393e-05;0.0019310736893758305
1.16395e-05;0.001917817616952602
1.16398e-05;0.0019064433849320342
1.16400e-05;0.0018950691529115435
1.16403e-05;0.0018836949208909757
1.16405e-05;0.001872320688870408
1.16408e-05;0.0018609464568499173
1.16410e-05;0.0018495722248293494
1.16413e-05;0.0018381979928087818
1.16415e-05;0.001826823760788291
1.16418e-05;0.0018154495287677234
1.16420e-05;0.0018040752967471555
1.16423e-05;0.0017918657070736385
1.16425e-05;0.0017783140221673372
1.16428e-05;0.001764762337261036
1.16430e-05;0.0017512106523548264
1.16433e-05;0.0017376589674485252
1.16435e-05;0.0017241072825422239
1.16438e-05;0.0017105555976360143
1.16440e-05;0.001697003912729713
1.16443e-05;0.0016834522278234118
1.16445e-05;0.0016699005429172023
1.16448e-05;0.001656348858010901
1.16450e-05;0.0016427971731045998
1.16453e-05;0.0016288977634159576
1.16455e-05;0.001614952564352667
1.16458e-05;0.0016010073652893762
1.16460e-05;0.0015870621662261802
1.16463e-05;0.0015731169671628893
1.16465e-05;0.0015591717680995987
1.16467e-05;0.0015452265690364024
