Time(s);Current(A)
9.50000e-06;0.00798821235055598
9.50025e-06;0.007983573125443599
9.50050e-06;0.007985720600080223
9.50075e-06;0.007987868074716863
9.50100e-06;0.007990015549353502
9.50125e-06;0.007992163023990126
9.50150e-06;0.007994310498626766
9.50175e-06;0.007997842648279236
9.50200e-06;0.008008253786925469
9.50225e-06;0.008018664925571774
9.50250e-06;0.008029076064218078
9.50275e-06;0.008039487202864314
9.50300e-06;0.008049898341510618
9.50325e-06;0.008060309480156923
9.50350e-06;0.008070720618803227
9.50375e-06;0.008082135400237741
9.50400e-06;0.008098536223607363
9.50425e-06;0.008114937046976986
9.50450e-06;0.008131337870346497
9.50475e-06;0.008147738693716119
9.50500e-06;0.008164139517085741
9.50525e-06;0.008180540340455253
9.50550e-06;0.008196941163824875
9.50575e-06;0.008213576601611346
9.50600e-06;0.008231377590861566
9.50625e-06;0.00824917858011191
9.50650e-06;0.008266903518970938
9.50675e-06;0.008284250643686467
9.50700e-06;0.008301597768402114
9.50725e-06;0.008318712216373349
9.50750e-06;0.008334670739130134
9.50775e-06;0.00835062926188703
9.50800e-06;0.008366357084585479
9.50825e-06;0.00838079710496383
9.50850e-06;0.00839446373751807
9.50875e-06;0.008407942990321438
9.50900e-06;0.008422763938102167
9.50925e-06;0.008440360346826952
9.50950e-06;0.00845883362384596
9.50975e-06;0.008481663134117355
9.51000e-06;0.008504492644388904
9.51025e-06;0.008528023696112047
9.51050e-06;0.008555039967017598
9.51075e-06;0.008582967016785256
9.51100e-06;0.008615418765633218
9.51125e-06;0.008647870514480958
9.51150e-06;0.008684942355120056
9.51175e-06;0.0087243149482845
9.51200e-06;0.00876474286881545
9.51225e-06;0.008810413597413464
9.51250e-06;0.008856084326011785
9.51275e-06;0.008901755054610109
9.51300e-06;0.008952166629901257
9.51325e-06;0.009004939092269269
9.51350e-06;0.00905771155463728
9.51375e-06;0.009111330610792974
9.51400e-06;0.009169155498128275
9.51425e-06;0.009226980385463575
9.51450e-06;0.009285189114000432
9.51475e-06;0.009345304744428427
9.51500e-06;0.009405420374856425
9.51525e-06;0.00946571832855448
9.51550e-06;0.009526922054190486
9.51575e-06;0.009588125779826491
9.51600e-06;0.009649120236840952
9.51625e-06;0.009709075058904398
9.51650e-06;0.009768627183222264
9.51675e-06;0.009826178727381524
9.51700e-06;0.009883209518827768
9.51725e-06;0.009937653239555927
9.51750e-06;0.009991364286028594
9.51775e-06;0.010041435447268933
9.51800e-06;0.010090527134608892
9.51825e-06;0.010134752849709357
9.51850e-06;0.010177742147744497
9.51875e-06;0.010214588994086584
9.51900e-06;0.010249619994287433
9.51925e-06;0.010275629971151294
9.51950e-06;0.010301639948015156
9.51975e-06;0.010324979370134137
9.52000e-06;0.010335051623778638
9.52025e-06;0.010345123877423137
9.52050e-06;0.010355196131067638
9.52075e-06;0.010362143907445534
9.52100e-06;0.010353569453331664
9.52125e-06;0.010344994999217793
9.52150e-06;0.010336420545103982
9.52175e-06;0.010325632033660465
9.52200e-06;0.010303844207688623
9.52225e-06;0.010281041483523571
9.52250e-06;0.010252552453584063
9.52275e-06;0.010220242181127904
9.52300e-06;0.010184264228349534
9.52325e-06;0.01014482850996192
9.52350e-06;0.010102200467906122
9.52375e-06;0.010056659811063155
9.52400e-06;0.01000848764279577
9.52425e-06;0.009957964447253385
9.52450e-06;0.009905370079366512
9.52475e-06;0.009850977572702943
9.52500e-06;0.009795066510103683
9.52525e-06;0.009737951869669963
9.52550e-06;0.00967998383869376
9.52575e-06;0.009621521907689263
9.52600e-06;0.009562925567170668
9.52625e-06;0.009504554151596829
9.52650e-06;0.009446765908051059
9.52675e-06;0.009389917064917352
9.52700e-06;0.009334365270073
9.52725e-06;0.00928049130340901
9.52750e-06;0.009228699051817148
9.52775e-06;0.009179395971424288
9.52800e-06;0.009132991532055308
9.52825e-06;0.009089893652998159
9.52850e-06;0.009050389623678615
9.52875e-06;0.009013949131272495
9.52900e-06;0.008978974584446553
9.52925e-06;0.008944166836366537
9.52950e-06;0.008909377697768216
9.52975e-06;0.008875014815898053
9.53000e-06;0.008841564037324529
9.53025e-06;0.008808406562533915
9.53050e-06;0.008776899399782264
9.53075e-06;0.008746387911790587
9.53100e-06;0.008715881905559403
9.53125e-06;0.00868451728955279
9.53150e-06;0.008652997711771113
9.53175e-06;0.008620708292447907
9.53200e-06;0.008588481060705212
9.53225e-06;0.008556562773428207
9.53250e-06;0.008524644486150985
9.53275e-06;0.008492618911642647
9.53300e-06;0.008460060340095598
9.53325e-06;0.008427501768548328
9.53350e-06;0.008394943197001058
9.53375e-06;0.00836225642696622
9.53400e-06;0.008328932773923903
9.53425e-06;0.008295723040414255
9.53450e-06;0.008263079252851628
9.53475e-06;0.008230505455576999
9.53500e-06;0.008198279366188867
9.53525e-06;0.00816608636028167
9.53550e-06;0.008134057711279357
9.53575e-06;0.008102202516469576
9.53600e-06;0.008071209032509158
9.53625e-06;0.008040531714265182
9.53650e-06;0.008011425089840724
9.53675e-06;0.007982655776471012
9.53700e-06;0.007955562205791586
9.53725e-06;0.007928831304966783
9.53750e-06;0.007903902127950764
9.53775e-06;0.007879472012120388
9.53800e-06;0.007857521204697989
9.53825e-06;0.007836207566387626
9.53850e-06;0.007818059349037502
9.53875e-06;0.007801115495228486
9.53900e-06;0.007790154852980064
9.53925e-06;0.0077791942107317165
9.53950e-06;0.0077682335684832945
9.53975e-06;0.007757272926234873
9.54000e-06;0.0077481227774684825
9.54025e-06;0.007747967060334007
9.54050e-06;0.007747811343199531
9.54075e-06;0.007747655626065056
9.54100e-06;0.00774749990893058
9.54125e-06;0.0077493730719202765
9.54150e-06;0.007761325599319782
9.54175e-06;0.0077732781267193666
9.54200e-06;0.007785230654118952
9.54225e-06;0.007797183181518457
9.54250e-06;0.007809135708918042
9.54275e-06;0.007821088236317627
9.54300e-06;0.00783482917776545
9.54325e-06;0.007857454861439241
9.54350e-06;0.00788008054511303
9.54375e-06;0.007902706228786667
9.54400e-06;0.007925331912460459
9.54425e-06;0.007947957596134248
9.54450e-06;0.007970583279807887
9.54475e-06;0.007993960914139628
9.54500e-06;0.008021074197813552
9.54525e-06;0.00804818748148729
9.54550e-06;0.008075444803145601
9.54575e-06;0.008103417697555895
9.54600e-06;0.008131390591966187
9.54625e-06;0.008159294718512311
9.54650e-06;0.008186857210108056
9.54675e-06;0.008214419701703802
9.54700e-06;0.00824170688256042
9.54725e-06;0.008267626334870028
9.54750e-06;0.008293545787179637
9.54775e-06;0.00831772493362506
9.54800e-06;0.008341037427783806
9.54825e-06;0.008363949237296097
9.54850e-06;0.008384691317443045
9.54875e-06;0.008404587396715046
9.54900e-06;0.008425088959929961
9.54925e-06;0.008447512413558827
9.54950e-06;0.008470515712406939
9.54975e-06;0.00849639965028237
9.55000e-06;0.008522283588157624
9.55025e-06;0.008548557479355451
9.55050e-06;0.008576768637124416
9.55075e-06;0.008605929930611189
9.55100e-06;0.0086398114458757
9.55125e-06;0.008673692961140211
9.55150e-06;0.008707574476404493
9.55175e-06;0.008742115515538272
9.55200e-06;0.008779933032833752
9.55225e-06;0.008817750550128975
9.55250e-06;0.008855568067424454
9.55275e-06;0.008890274506827984
9.55300e-06;0.00893290518081083
9.55325e-06;0.008983971619991205
9.55350e-06;0.009032399992747565
9.55375e-06;0.009080498243932358
9.55400e-06;0.009133447859764653
9.55425e-06;0.009184306359062052
9.55450e-06;0.009236587528561982
9.55475e-06;0.009287949739355624
9.55500e-06;0.009339311950149615
9.55525e-06;0.009391212610205625
9.55550e-06;0.009444271445536334
9.55575e-06;0.009497330280867402
9.55600e-06;0.009549847430583446
9.55625e-06;0.009601880867137817
9.55650e-06;0.009652714154963458
9.55675e-06;0.009696026460191078
9.55700e-06;0.009741950832880646
9.55725e-06;0.009794284362101753
9.55750e-06;0.009836963056333005
9.55775e-06;0.009881824319830396
9.55800e-06;0.009924546907006872
9.55825e-06;0.009963191542338363
9.55850e-06;0.009996973406087161
9.55875e-06;0.010030755269836189
9.55900e-06;0.010062966045352166
9.55925e-06;0.010090504322560786
9.55950e-06;0.010117318924282786
9.55975e-06;0.01014138696357466
9.56000e-06;0.010162470850081694
9.56025e-06;0.010179936407984745
9.56050e-06;0.010195883489425163
9.56075e-06;0.010207314542705915
9.56100e-06;0.010217199482860838
9.56125e-06;0.010222486201978704
9.56150e-06;0.010227772921096535
9.56175e-06;0.010233059640214402
9.56200e-06;0.010232404056129981
9.56225e-06;0.010229784910958006
9.56250e-06;0.010227165765786013
9.56275e-06;0.010222884749317766
9.56300e-06;0.010213661240979674
9.56325e-06;0.01020443773264152
9.56350e-06;0.010194161598311933
9.56375e-06;0.010180754899409486
9.56400e-06;0.010167348200507128
9.56425e-06;0.010152935980138156
9.56450e-06;0.010135533286508892
9.56475e-06;0.010118130592879745
9.56500e-06;0.010100246894089669
9.56525e-06;0.010080932660876006
9.56550e-06;0.010061478051491308
9.56575e-06;0.01004160595605545
9.56600e-06;0.010021631683640246
9.56625e-06;0.010001353531561993
9.56650e-06;0.009981131623692416
9.56675e-06;0.009961076989031934
9.56700e-06;0.009941322792186989
9.56725e-06;0.009922462113067163
9.56750e-06;0.00990425851472847
9.56775e-06;0.009888009108887548
9.56800e-06;0.009871759703046516
9.56825e-06;0.009856405439412083
9.56850e-06;0.009843713375365309
9.56875e-06;0.009831021311318449
9.56900e-06;0.009818630544373498
9.56925e-06;0.009807135850716813
9.56950e-06;0.00979564115706005
9.56975e-06;0.00978441849268542
9.57000e-06;0.009774004857577285
9.57025e-06;0.009763591222469078
9.57050e-06;0.009753177587360872
9.57075e-06;0.009742763952252737
9.57100e-06;0.009732625188584974
9.57125e-06;0.009722577252807733
9.57150e-06;0.00971252931703056
9.57175e-06;0.00970248138125332
9.57200e-06;0.009692386344206081
9.57225e-06;0.009682151225526379
9.57250e-06;0.009671916106846746
9.57275e-06;0.009661680988167044
9.57300e-06;0.009651445869487341
9.57325e-06;0.009641210750807708
9.57350e-06;0.009630975632128006
9.57375e-06;0.009620740513448304
9.57400e-06;0.00961053820389047
9.57425e-06;0.009600433470371214
9.57450e-06;0.009590328736851958
9.57475e-06;0.00958022400333277
9.57500e-06;0.009570119269813514
9.57525e-06;0.009560014536294258
9.57550e-06;0.00954990980277507
9.57575e-06;0.009539805069255813
9.57600e-06;0.0095300047282228
9.57625e-06;0.009521109666312708
9.57650e-06;0.009512214604402556
9.57675e-06;0.009503319542492403
9.57700e-06;0.009494833247087248
9.57725e-06;0.009487562644577868
9.57750e-06;0.009480292042068489
9.57775e-06;0.009473021439559158
9.57800e-06;0.009466093633784811
9.57825e-06;0.009460362492629132
9.57850e-06;0.009455718126310518
9.57875e-06;0.009452738825394312
9.57900e-06;0.009451298740992044
9.57925e-06;0.009454436366745913
9.57950e-06;0.00945967643227122
9.57975e-06;0.00947116926328286
9.58000e-06;0.009482662094294422
9.58025e-06;0.009496514760449647
9.58050e-06;0.00951738569934678
9.58075e-06;0.009538256638243913
9.58100e-06;0.009563084527666285
9.58125e-06;0.009599680594238736
9.58150e-06;0.009636276660811184
9.58175e-06;0.009672872727383387
9.58200e-06;0.009709468793955836
9.58225e-06;0.009746064860528285
9.58250e-06;0.00979559829724098
9.58275e-06;0.009849406728974717
9.58300e-06;0.009903215160708455
9.58325e-06;0.009957023592441829
9.58350e-06;0.010010832024175567
9.58375e-06;0.010067196513746199
9.58400e-06;0.010131162852578939
9.58425e-06;0.010195129191412113
9.58450e-06;0.010260084725267274
9.58475e-06;0.01032798217668744
9.58500e-06;0.010395879628108064
9.58525e-06;0.010464270622460756
9.58550e-06;0.010534129439223048
9.58575e-06;0.010603988255985814
9.58600e-06;0.010673489609554993
9.58625e-06;0.010741927848950148
9.58650e-06;0.010810366088345767
9.58675e-06;0.01087793910432966
9.58700e-06;0.010942938900779357
9.58725e-06;0.011006526264536557
9.58750e-06;0.011065912979829487
9.58775e-06;0.011125299695122015
9.58800e-06;0.01118216526375654
9.58825e-06;0.011231532810791757
9.58850e-06;0.01128090035782664
9.58875e-06;0.01132764291472917
9.58900e-06;0.011366578614125834
9.58925e-06;0.011405514313522496
9.58950e-06;0.011444450012918895
9.58975e-06;0.01148338571231556
9.59000e-06;0.011514174825785019
9.59025e-06;0.01154227200001869
9.59050e-06;0.011570369174252549
9.59075e-06;0.01159846634848641
9.59100e-06;0.011624180710776534
9.59125e-06;0.011642808466120449
9.59150e-06;0.011661436221464363
9.59175e-06;0.011680063976808151
9.59200e-06;0.011698691732152065
9.59225e-06;0.011715212157603929
9.59250e-06;0.011725465274092316
9.59275e-06;0.011735718390580773
9.59300e-06;0.01174597150706923
9.59325e-06;0.011756224623557618
9.59350e-06;0.011764416470752378
9.59375e-06;0.011766477995604136
9.59400e-06;0.01176853952045588
9.59425e-06;0.011770601045307638
9.59450e-06;0.011772662570159397
9.59475e-06;0.011774724095011142
9.59500e-06;0.011776785619862899
9.59525e-06;0.011778847144714657
9.59550e-06;0.011780908669566402
9.59575e-06;0.01178297019441816
9.59600e-06;0.011785031719269918
9.59625e-06;0.011786274954798035
9.59650e-06;0.011785084555216298
9.59675e-06;0.011783894155634559
9.59700e-06;0.011782703756052828
9.59725e-06;0.011781513356471091
9.59750e-06;0.011780322956889354
9.59775e-06;0.011779132557307614
9.59800e-06;0.011777942157725886
9.59825e-06;0.011776751758144147
9.59850e-06;0.01177556135856241
9.59875e-06;0.011774370958980679
9.59900e-06;0.01177422085495193
9.59925e-06;0.011777164644133434
9.59950e-06;0.011780108433314918
9.59975e-06;0.011783052222496421
9.60000e-06;0.011785996011677924
9.60025e-06;0.011788939800859408
9.60050e-06;0.011791883590040911
9.60075e-06;0.011794827379222416
9.60100e-06;0.011797771168403899
9.60125e-06;0.011800714957585404
9.60150e-06;0.011803658746766907
9.60175e-06;0.011806602535948391
9.60200e-06;0.011813093865001007
9.60225e-06;0.011820757435021522
9.60250e-06;0.011828421005041985
9.60275e-06;0.011836084575062498
9.60300e-06;0.011843748145083013
9.60325e-06;0.011851411715103476
9.60350e-06;0.011859075285123989
9.60375e-06;0.011866738855144504
9.60400e-06;0.011874402425164967
9.60425e-06;0.01188206599518548
9.60450e-06;0.011889729565205995
9.60475e-06;0.011897857221272852
9.60500e-06;0.011907365093437101
9.60525e-06;0.01191687296560135
9.60550e-06;0.011926380837765536
9.60575e-06;0.011935888709929785
9.60600e-06;0.011945396582094035
9.60625e-06;0.011954904454258284
9.60650e-06;0.011964239040693605
9.60675e-06;0.011973058266336966
9.60700e-06;0.011981877491980328
9.60725e-06;0.011990696717623631
9.60750e-06;0.011999515943266993
9.60775e-06;0.012008335168910356
9.60800e-06;0.012017154394553657
9.60825e-06;0.01202547275659047
9.60850e-06;0.01203230152414841
9.60875e-06;0.012039130291706302
9.60900e-06;0.012044206856869405
9.60925e-06;0.012044072280757373
9.60950e-06;0.012043937704645341
9.60975e-06;0.01204380312853331
9.61000e-06;0.012043668552421278
9.61025e-06;0.012043533976309246
9.61050e-06;0.012040700381229999
9.61075e-06;0.012029839763026096
9.61100e-06;0.012018979144822266
9.61125e-06;0.012008118526618363
9.61150e-06;0.01199725790841446
9.61175e-06;0.011986397290210631
9.61200e-06;0.011972753403901842
9.61225e-06;0.011950831933140543
9.61250e-06;0.011928910462379393
9.61275e-06;0.011906988991618093
9.61300e-06;0.011885067520856794
9.61325e-06;0.011863146050095643
9.61350e-06;0.011841224579334344
9.61375e-06;0.011817365529060538
9.61400e-06;0.0117877440162986
9.61425e-06;0.011758122503536464
9.61450e-06;0.011728500990774325
9.61475e-06;0.011698879478012188
9.61500e-06;0.01166925796525025
9.61525e-06;0.011639636452488113
9.61550e-06;0.011609574560963018
9.61575e-06;0.011578202960037308
9.61600e-06;0.011546831359111385
9.61625e-06;0.0115156961010376
9.61650e-06;0.011485263738928385
9.61675e-06;0.011455212196982286
9.61700e-06;0.011426293234056613
9.61725e-06;0.011398103219511437
9.61750e-06;0.011372081135454105
9.61775e-06;0.011346059051396774
9.61800e-06;0.0113215308955464
9.61825e-06;0.0113014457600716
9.61850e-06;0.011281360624596799
9.61875e-06;0.011261275489122135
9.61900e-06;0.011242381149004093
9.61925e-06;0.011227028296361557
9.61950e-06;0.011211675443719125
9.61975e-06;0.011196322591076589
9.62000e-06;0.01118245818351967
9.62025e-06;0.011173020489250665
9.62050e-06;0.011163582794981598
9.62075e-06;0.01115414510071253
9.62100e-06;0.011144707406443525
9.62125e-06;0.011135269712174458
9.62150e-06;0.01112583201790539
9.62175e-06;0.011116394323636385
9.62200e-06;0.011106956629367316
9.62225e-06;0.01110151732218467
9.62250e-06;0.011097399232894472
9.62275e-06;0.011093281143604245
9.62300e-06;0.01108916305431402
9.62325e-06;0.011085044965023794
9.62350e-06;0.011080926875733595
9.62375e-06;0.01107680878644337
9.62400e-06;0.011072690697153142
9.62425e-06;0.011069370064354458
9.62450e-06;0.011068421108739094
9.62475e-06;0.01106747215312373
9.62500e-06;0.011066523197508374
9.62525e-06;0.01106557424189301
9.62550e-06;0.011064625286277647
9.62575e-06;0.01106367633066229
9.62600e-06;0.011062727375046927
9.62625e-06;0.011063008480793817
9.62650e-06;0.011063696045206566
9.62675e-06;0.011064383609619319
9.62700e-06;0.011065071174032074
9.62725e-06;0.011065758738444823
9.62750e-06;0.011066446302857576
9.62775e-06;0.011067133867270332
9.62800e-06;0.011068016739697862
9.62825e-06;0.011069480468344299
9.62850e-06;0.011070944196990737
9.62875e-06;0.011073342985607117
9.62900e-06;0.01107852269132627
9.62925e-06;0.011083702397045423
9.62950e-06;0.011091090831304882
9.62975e-06;0.011105048139402201
9.63000e-06;0.01111900544749952
9.63025e-06;0.011132962755596745
9.63050e-06;0.011146920063694063
9.63075e-06;0.011160877371791384
9.63100e-06;0.011184109586418333
9.63125e-06;0.011210406579966553
9.63150e-06;0.011236703573514773
9.63175e-06;0.011263000567062994
9.63200e-06;0.011289297560611035
9.63225e-06;0.01131896711350267
9.63250e-06;0.011358666833721448
9.63275e-06;0.011398366553939956
9.63300e-06;0.011438066274158734
9.63325e-06;0.011477765994377512
9.63350e-06;0.011517465714596019
9.63375e-06;0.011557165434814796
9.63400e-06;0.011596865155033574
9.63425e-06;0.011638660440728208
9.63450e-06;0.011686688047409197
9.63475e-06;0.011734715654090186
9.63500e-06;0.011782743260770851
9.63525e-06;0.01183077086745184
9.63550e-06;0.01187879847413283
9.63575e-06;0.011926826080813493
9.63600e-06;0.011974853687494482
9.63625e-06;0.012022595718111618
9.63650e-06;0.012069488430624907
9.63675e-06;0.012116381143138512
9.63700e-06;0.0121623427796472
9.63725e-06;0.012205535347571565
9.63750e-06;0.012248727915496225
9.63775e-06;0.012290392047049398
9.63800e-06;0.012327510529142164
9.63825e-06;0.01236462901123518
9.63850e-06;0.01239852026170621
9.63875e-06;0.012422813557067855
9.63900e-06;0.012447106852429664
9.63925e-06;0.012471400147791472
9.63950e-06;0.012495693443153117
9.63975e-06;0.012519986738514927
9.64000e-06;0.012529896311351922
9.64025e-06;0.012535052959781886
9.64050e-06;0.012540209608211814
9.64075e-06;0.012545366256641778
9.64100e-06;0.012550522905071741
9.64125e-06;0.012550718015371104
9.64150e-06;0.012536157252578263
9.64175e-06;0.01252159648978542
9.64200e-06;0.012507035726992678
9.64225e-06;0.012492474964199834
9.64250e-06;0.012477914201406993
9.64275e-06;0.012459202889421811
9.64300e-06;0.012428147627730365
9.64325e-06;0.012397092366038918
9.64350e-06;0.012366037104347683
9.64375e-06;0.012334981842656237
9.64400e-06;0.01230392658096479
9.64425e-06;0.012270935776383378
9.64450e-06;0.012232188566327788
9.64475e-06;0.012192829231800905
9.64500e-06;0.012151649407180698
9.64525e-06;0.01211010727611588
9.64550e-06;0.01206748762679504
9.64575e-06;0.012024772596670582
9.64600e-06;0.011981773899061873
9.64625e-06;0.011938947097815978
9.64650e-06;0.011896631525316035
9.64675e-06;0.011854760516415328
9.64700e-06;0.011814211662839144
9.64725e-06;0.011774402186256623
9.64750e-06;0.011736791655403351
9.64775e-06;0.011700550514797734
9.64800e-06;0.011668382012189017
9.64825e-06;0.011636213509580082
9.64850e-06;0.011607111537809722
9.64875e-06;0.011587129588642855
9.64900e-06;0.011567147639476123
9.64925e-06;0.011547165690309256
9.64950e-06;0.011527183741142389
9.64975e-06;0.011507201791975657
9.65000e-06;0.011500115212212208
9.65025e-06;0.011497289748852198
9.65050e-06;0.011494464285492207
9.65075e-06;0.011491638822132198
9.65100e-06;0.011488813358772188
9.65125e-06;0.011490982895117548
9.65150e-06;0.011508007821027484
9.65175e-06;0.011525032746937421
