Time(s);Current(A)
1.10500e-05;0.0029017547033955127
1.10503e-05;0.0029095739945997354
1.10505e-05;0.0029173932858039047
1.10508e-05;0.0029252125770081274
1.10510e-05;0.00293303186821235
1.10513e-05;0.0029408511594165195
1.10515e-05;0.002948670450620742
1.10518e-05;0.002956489741824965
1.10520e-05;0.0029643090330291346
1.10523e-05;0.002972128324233357
1.10525e-05;0.0029799476154375795
1.10528e-05;0.0029772510991119766
1.10530e-05;0.002969574281635223
1.10533e-05;0.0029618974641584693
1.10535e-05;0.002954220646681768
1.10538e-05;0.0029465438292050144
1.10540e-05;0.0029388670117282607
1.10543e-05;0.002931190194251559
1.10545e-05;0.0029235133767748058
1.10548e-05;0.002915836559298052
1.10550e-05;0.0029081597418213504
1.10553e-05;0.0029004829243445968
1.10555e-05;0.002892806106867843
1.10557e-05;0.0028842940559495565
1.10560e-05;0.002871940929820583
1.10563e-05;0.002859587803691609
1.10565e-05;0.002847234677562719
1.10568e-05;0.0028348815514337455
1.10570e-05;0.0028225284253047714
1.10572e-05;0.0028101752991758814
1.10575e-05;0.0027978221730469077
1.10578e-05;0.002785469046917934
1.10580e-05;0.0027731159207889603
1.10583e-05;0.0027607627946600703
1.10585e-05;0.0027495575229932825
1.10588e-05;0.0027436310094568687
1.10590e-05;0.0027377044959204957
1.10593e-05;0.002731777982384082
1.10595e-05;0.0027258514688476686
1.10598e-05;0.002719924955311295
1.10600e-05;0.0027139984417748815
1.10603e-05;0.002708071928238468
1.10605e-05;0.0027021454147020947
1.10608e-05;0.002696218901165681
1.10610e-05;0.0026902923876292676
1.10613e-05;0.0026863786749601088
1.10615e-05;0.002691721439740037
1.10618e-05;0.0026970642045199655
1.10620e-05;0.0027024069692998575
1.10623e-05;0.002707749734079786
1.10625e-05;0.0027130924988597142
1.10628e-05;0.0027184352636396066
1.10630e-05;0.002723778028419535
1.10633e-05;0.0027291207931994634
1.10635e-05;0.0027344635579793553
1.10638e-05;0.0027398063227592837
1.10640e-05;0.002745149087539212
1.10642e-05;0.002751709917123441
1.10645e-05;0.0027638723884687634
1.10648e-05;0.0027760348598140855
1.10650e-05;0.0027881973311593253
1.10653e-05;0.002800359802504648
1.10655e-05;0.00281252227384997
1.10657e-05;0.00282468474519521
1.10660e-05;0.002836847216540532
1.10663e-05;0.002849009687885854
1.10665e-05;0.0028611721592311764
1.10668e-05;0.0028733346305764166
1.10670e-05;0.0028854971019217387
1.10673e-05;0.0028971672218980585
1.10675e-05;0.0029065731142403238
1.10678e-05;0.002915979006582653
1.10680e-05;0.002925384898924982
1.10683e-05;0.002934790791267247
1.10685e-05;0.002944196683609576
1.10688e-05;0.002953602575951905
1.10690e-05;0.0029630084682941704
1.10693e-05;0.0029724143606364994
1.10695e-05;0.0029818202529788285
1.10698e-05;0.002991226145321094
1.10700e-05;0.003000632037663423
1.10703e-05;0.0030100379300057522
1.10705e-05;0.003019443822348017
1.10708e-05;0.0030284416601714867
1.10710e-05;0.0030355629350844824
1.10713e-05;0.0030426842099974304
1.10715e-05;0.003049805484910426
1.10718e-05;0.0030569267598234222
1.10720e-05;0.00306404803473637
1.10723e-05;0.003071169309649366
1.10725e-05;0.0030782905845623616
1.10727e-05;0.0030854118594753096
1.10730e-05;0.0030925331343883053
1.10733e-05;0.0030996544093013015
1.10735e-05;0.003106775684214249
1.10738e-05;0.003113896959127245
1.10740e-05;0.003121018234040241
1.10742e-05;0.0031281632077382934
1.10745e-05;0.0031354171675132686
1.10748e-05;0.0031426711272882434
1.10750e-05;0.003149925087063169
1.10753e-05;0.003157179046838144
1.10755e-05;0.0031644330066131193
1.10758e-05;0.003171686966388094
1.10760e-05;0.00317894092616302
1.10763e-05;0.0031861948859379947
1.10765e-05;0.0031934488457129695
1.10768e-05;0.0032007028054878953
1.10770e-05;0.0032079567652628705
1.10773e-05;0.0032152107250378453
1.10775e-05;0.0032197714612430886
1.10778e-05;0.0032230566829985967
1.10780e-05;0.0032263419047541047
1.10783e-05;0.0032296271265095907
1.10785e-05;0.003232912348265099
1.10788e-05;0.0032361975700206072
1.10790e-05;0.003239482791776093
1.10793e-05;0.0032427680135316012
1.10795e-05;0.0032460532352871093
1.10798e-05;0.0032493384570425952
1.10800e-05;0.0032526236787981033
1.10803e-05;0.0032559089005536118
1.10805e-05;0.00325681599402773
1.10808e-05;0.0032467865407294102
1.10810e-05;0.0032367570874310904
1.10812e-05;0.0032267276341328382
1.10815e-05;0.0032166981808345184
1.10818e-05;0.0032066687275361986
1.10820e-05;0.0031966392742379464
1.10823e-05;0.0031866098209396266
1.10825e-05;0.0031765803676413067
1.10827e-05;0.0031665509143430546
1.10830e-05;0.0031565214610447347
1.10833e-05;0.003146492007746415
1.10835e-05;0.0031286367736481223
1.10838e-05;0.0031070752388157566
1.10840e-05;0.003085513703983391
1.10843e-05;0.0030639521691510248
1.10845e-05;0.0030423906343188052
1.10848e-05;0.003020829099486439
1.10850e-05;0.0029992675646540734
1.10853e-05;0.0029777060298218534
1.10855e-05;0.0029561444949894877
1.10858e-05;0.0029345829601571216
1.10860e-05;0.002913021425324902
1.10863e-05;0.0028914500719436735
1.10865e-05;0.002869833564976853
1.10868e-05;0.002848217058010179
1.10870e-05;0.0028266005510433584
1.10873e-05;0.002804984044076538
1.10875e-05;0.0027833675371098637
1.10878e-05;0.0027617510301430432
1.10880e-05;0.002740134523176223
1.10883e-05;0.0027185180162095485
1.10885e-05;0.002696901509242728
1.10888e-05;0.0026752850022759077
1.10890e-05;0.002661958015556059
1.10893e-05;0.002652556957221379
1.10895e-05;0.002643155898886699
1.10897e-05;0.002633754840552083
1.10900e-05;0.002624353782217403
1.10903e-05;0.002614952723882723
1.10905e-05;0.0026055516655481073
1.10908e-05;0.0025961506072134273
1.10910e-05;0.0025867495488787473
1.10912e-05;0.0025773484905441315
1.10915e-05;0.0025706562150168504
1.10918e-05;0.0025764211017537276
1.10920e-05;0.0025821859884905657
1.10923e-05;0.0025879508752274434
1.10925e-05;0.0025937157619643205
1.10928e-05;0.0025994806487011977
1.10930e-05;0.002605245535438036
1.10933e-05;0.002611010422174913
1.10935e-05;0.0026167753089117902
1.10938e-05;0.0026225401956486284
1.10940e-05;0.0026283050823855056
1.10943e-05;0.0026403242546137354
1.10945e-05;0.002655305465200214
1.10948e-05;0.0026702866757867946
1.10950e-05;0.0026852678863733747
1.10953e-05;0.0027002490969598534
1.10955e-05;0.0027152303075464335
1.10958e-05;0.0027302115181330137
1.10960e-05;0.0027451927287194923
1.10963e-05;0.002760173939306073
1.10965e-05;0.002775155149892653
1.10968e-05;0.0027901449038814346
1.10970e-05;0.0028051739473063347
1.10973e-05;0.0028202029907312344
1.10975e-05;0.0028352320341560326
1.10978e-05;0.0028502610775809328
1.10980e-05;0.002865290121005833
1.10983e-05;0.002880319164430631
1.10985e-05;0.002895348207855531
1.10988e-05;0.002908586474056198
1.10990e-05;0.002913589306096359
1.10993e-05;0.0029185921381365536
1.10995e-05;0.0029235949701767487
1.10997e-05;0.00292859780221691
1.11000e-05;0.0029336006342571045
1.11003e-05;0.0029386034662972995
1.11005e-05;0.0029436062983374607
1.11008e-05;0.0029450198158041804
1.11010e-05;0.0029299267776514734
1.11013e-05;0.002914833739498766
1.11015e-05;0.002899740701346161
1.11018e-05;0.002884647663193454
1.11020e-05;0.0028695546250407464
1.11023e-05;0.0028544615868881414
1.11025e-05;0.0028393685487354344
1.11028e-05;0.002824275510582727
1.11030e-05;0.002809182472430122
1.11033e-05;0.0027814964804118926
1.11035e-05;0.002747846447824127
1.11038e-05;0.0027141964152365894
1.11040e-05;0.002680546382648824
1.11043e-05;0.0026468963500610584
1.11045e-05;0.0026132463174735206
1.11048e-05;0.002579596284885755
1.11050e-05;0.0025459462522979897
1.11053e-05;0.0025122962197104523
1.11055e-05;0.0024775339369968474
1.11058e-05;0.002437656633520003
1.11060e-05;0.0023977793300434284
1.11063e-05;0.002357902026566584
1.11065e-05;0.0023180247230897393
1.11068e-05;0.002278147419613165
1.11070e-05;0.0022382701161363207
1.11073e-05;0.0021994428773494915
1.11075e-05;0.00216544468067122
1.11078e-05;0.0021314464839927174
1.11080e-05;0.0020974482873142154
1.11082e-05;0.0020634500906359433
1.11085e-05;0.0020294518939574413
1.11088e-05;0.001995453697278939
1.11090e-05;0.0019641486293309357
1.11093e-05;0.0019452287336173954
1.11095e-05;0.001926308837903855
1.11098e-05;0.001907388942190315
1.11100e-05;0.0018884690464769029
1.11103e-05;0.0018695491507633628
1.11105e-05;0.0018506292550498225
1.11108e-05;0.0018317093593364106
1.11110e-05;0.0018127894636228703
1.11113e-05;0.00179386956790933
1.11115e-05;0.0017749496721959181
1.11118e-05;0.0017651251926293907
1.11120e-05;0.0017596083148767063
1.11123e-05;0.0017540914371240591
1.11125e-05;0.0017485745593713749
1.11128e-05;0.0017430576816186904
1.11130e-05;0.0017375408038660433
1.11133e-05;0.001732023926113359
1.11135e-05;0.0017265070483606746
1.11138e-05;0.0017209901706080274
1.11140e-05;0.0017154732928553432
1.11143e-05;0.0017113355380761904
1.11145e-05;0.0017135401000871503
1.11148e-05;0.0017157446620981254
1.11150e-05;0.0017179492241091003
1.11153e-05;0.0017201537861200604
1.11155e-05;0.0017223583481310355
1.11158e-05;0.0017245629101420104
1.11160e-05;0.0017267674721529705
1.11163e-05;0.0017289720341639454
1.11165e-05;0.0017311765961749205
1.11167e-05;0.0017333811581858806
1.11170e-05;0.0017355857201968555
1.11173e-05;0.0017390491525459339
1.11175e-05;0.0017431087876486576
1.11178e-05;0.0017471684227514089
1.11180e-05;0.0017512280578541601
1.11183e-05;0.0017552876929569114
1.11185e-05;0.001759347328059635
1.11188e-05;0.0017634069631623864
1.11190e-05;0.0017674665982651376
1.11193e-05;0.0017715262333678615
1.11195e-05;0.0017755858684706128
1.11198e-05;0.001779645503573364
1.11200e-05;0.0017857026208500043
1.11203e-05;0.001800945767926535
1.11205e-05;0.001816188915003066
1.11208e-05;0.0018314320620794937
1.11210e-05;0.0018466752091560246
1.11213e-05;0.0018619183562325553
1.11215e-05;0.001877161503308983
1.11218e-05;0.001892404650385514
1.11220e-05;0.001907647797462045
1.11223e-05;0.0019228909445384724
1.11225e-05;0.0019381340916150033
1.11228e-05;0.0019560737324481204
1.11230e-05;0.0019864140206209834
1.11233e-05;0.0020167543087940523
1.11235e-05;0.002047094596967121
1.11238e-05;0.002077434885139984
1.11240e-05;0.0021077751733130524
1.11243e-05;0.0021381154614861213
1.11245e-05;0.0021684557496589843
1.11248e-05;0.002198796037832053
1.11250e-05;0.0022291363260051214
1.11252e-05;0.0022594766141779844
1.11255e-05;0.002290611251223024
1.11258e-05;0.002325398943352636
1.11260e-05;0.0023601866354820123
1.11263e-05;0.0023949743276116243
1.11265e-05;0.002429762019741236
1.11268e-05;0.0024645497118708478
1.11270e-05;0.0024993374040002242
1.11273e-05;0.002534125096129836
1.11275e-05;0.0025674828196544652
1.11278e-05;0.0025942643972712135
1.11280e-05;0.0026210459748881435
1.11283e-05;0.0026478275525050735
1.11285e-05;0.0026746091301218223
1.11288e-05;0.0027013907077387523
1.11290e-05;0.0027281722853556823
1.11293e-05;0.0027549538629724306
1.11295e-05;0.0027785502374953093
1.11298e-05;0.00278749848602294
1.11300e-05;0.00279644673455051
1.11303e-05;0.0028053949830781407
1.11305e-05;0.0028143432316057714
1.11308e-05;0.0028232914801333414
1.11310e-05;0.002832239728660972
1.11313e-05;0.002841187977188603
1.11315e-05;0.002850136225716173
1.11318e-05;0.0028590844742438035
1.11320e-05;0.0028680327227714342
1.11323e-05;0.0028769809712990042
1.11325e-05;0.0028739565009142385
1.11328e-05;0.0028652617340960466
1.11330e-05;0.002856566967277914
1.11333e-05;0.0028478722004597226
1.11335e-05;0.0028391774336415307
1.11337e-05;0.002830482666823398
1.11340e-05;0.0028217879000052067
1.11343e-05;0.0028130931331870153
1.11345e-05;0.0028043983663688823
1.11348e-05;0.002795703599550691
1.11350e-05;0.0027870088327324994
1.11353e-05;0.002777167395523029
1.11355e-05;0.0027620526454752515
1.11358e-05;0.002746937895427372
1.11360e-05;0.0027318231453794923
1.11363e-05;0.0027167083953317153
1.11365e-05;0.002701593645283836
1.11368e-05;0.002686478895235956
1.11370e-05;0.002671364145188179
1.11373e-05;0.0026562493951402997
1.11375e-05;0.00264113464509242
1.11378e-05;0.002626019895044643
1.11380e-05;0.002610905144996763
1.11383e-05;0.0025957903949488837
1.11385e-05;0.0025806756449011066
1.11388e-05;0.0025662903717994794
1.11390e-05;0.0025552598204872544
1.11393e-05;0.002544229269175104
1.11395e-05;0.002533198717862879
1.11398e-05;0.0025221681665506535
1.11400e-05;0.002511137615238503
1.11403e-05;0.002500107063926278
1.11405e-05;0.0024890765126140526
1.11408e-05;0.002478045961301902
1.11410e-05;0.002467015409989677
1.11413e-05;0.0024559848586774517
1.11415e-05;0.0024449543073653012
1.11418e-05;0.002433923756053076
1.11420e-05;0.0024228932047408508
1.11422e-05;0.002411775147927977
1.11425e-05;0.002400254670433269
1.11428e-05;0.002388734192938561
1.11430e-05;0.002377213715443931
1.11433e-05;0.0023656932379492236
1.11435e-05;0.0023541727604545156
1.11438e-05;0.0023426522829598077
1.11440e-05;0.0023311318054651782
1.11443e-05;0.0023196113279704703
1.11445e-05;0.0023080908504757624
1.11448e-05;0.002296570372981133
1.11450e-05;0.002285049895486425
1.11453e-05;0.002273529417991717
1.11455e-05;0.002262008940497087
1.11458e-05;0.0022513310185033877
1.11460e-05;0.002241052131974357
1.11463e-05;0.0022307732454453963
1.11465e-05;0.0022204943589163658
1.11468e-05;0.002210215472387335
1.11470e-05;0.002199936585858374
1.11473e-05;0.0021896576993293434
1.11475e-05;0.0021793788128003128
1.11478e-05;0.002169099926271352
1.11480e-05;0.0021588210397423214
1.11483e-05;0.002148542153213291
1.11485e-05;0.0021382632666843296
1.11488e-05;0.002127984380155299
1.11490e-05;0.002118071578586043
1.11493e-05;0.002109842330141275
1.11495e-05;0.0021016130816964513
1.11498e-05;0.0020933838332516277
1.11500e-05;0.0020851545848068597
1.11503e-05;0.002076925336362036
1.11505e-05;0.002068696087917212
1.11507e-05;0.0020604668394724446
1.11510e-05;0.0020522375910276207
1.11513e-05;0.002044008342582797
1.11515e-05;0.002035779094138029
1.11518e-05;0.0020275498456932056
1.11520e-05;0.002019320597248382
1.11523e-05;0.0020110913488035585
1.11525e-05;0.0020028621003587905
1.11528e-05;0.001994632851913967
1.11530e-05;0.001986403603469143
1.11533e-05;0.0019777553257052187
1.11535e-05;0.001967180014063298
1.11538e-05;0.001956604702421377
1.11540e-05;0.0019460293907795276
1.11543e-05;0.0019354540791376065
1.11545e-05;0.0019248787674956856
1.11548e-05;0.001914303455853836
1.11550e-05;0.0019037281442119151
1.11553e-05;0.001893152832569994
1.11555e-05;0.0018825775209281447
1.11558e-05;0.0018720022092862238
1.11560e-05;0.0018614268976443026
1.11563e-05;0.0018508515860024533
1.11565e-05;0.0018402762743605324
1.11568e-05;0.0018297009627186113
1.11570e-05;0.001819125651076762
1.11573e-05;0.001808550339434841
1.11575e-05;0.0017983924915297188
1.11578e-05;0.0017901544776959986
1.11580e-05;0.0017819164638622224
1.11583e-05;0.0017736784500284465
1.11585e-05;0.0017654404361947262
1.11588e-05;0.00175720242236095
1.11590e-05;0.0017489644085271739
1.11592e-05;0.0017407263946934537
1.11595e-05;0.0017381196349003872
1.11598e-05;0.0017381798449048363
1.11600e-05;0.0017382400549092849
1.11603e-05;0.0017383002649137339
1.11605e-05;0.001738360474918183
1.11608e-05;0.001738420684922632
1.11610e-05;0.0017384808949270805
1.11613e-05;0.0017409262069316433
1.11615e-05;0.0017543401365190804
1.11618e-05;0.0017677540661064266
1.11620e-05;0.0017811679956938637
1.11623e-05;0.0017945819252813008
1.11625e-05;0.0018079958548686467
1.11628e-05;0.0018214097844560838
1.11630e-05;0.0018348237140435209
1.11633e-05;0.001848237643630867
1.11635e-05;0.0018636413788217703
1.11638e-05;0.0018881958407869007
1.11640e-05;0.0019127503027518648
1.11643e-05;0.0019373047647169952
1.11645e-05;0.0019618592266821256
1.11648e-05;0.0019864136886470897
1.11650e-05;0.0020109681506122203
1.11653e-05;0.0020355226125773505
1.11655e-05;0.0020600770745423146
1.11658e-05;0.0020851165208382065
1.11660e-05;0.002112386315211048
1.11663e-05;0.002139656109583705
1.11665e-05;0.002166925903956547
1.11668e-05;0.0021941956983293886
1.11670e-05;0.0022214654927020456
1.11673e-05;0.0022487352870748873
1.11675e-05;0.002276005081447729
1.11677e-05;0.0023019353250982046
1.11680e-05;0.002321705236985329
1.11683e-05;0.002341475148872453
1.11685e-05;0.002361245060759443
1.11688e-05;0.0023810149726465673
1.11690e-05;0.0024007848845336915
1.11693e-05;0.0024205547964208157
1.11695e-05;0.0024403247083078063
1.11698e-05;0.0024565525937827715
1.11700e-05;0.0024564913925850113
1.11703e-05;0.002456430191387251
1.11705e-05;0.0024563689901894903
1.11708e-05;0.00245630778899173
1.11710e-05;0.00245624658779397
1.11713e-05;0.002456185386596209
1.11715e-05;0.002456124185398449
1.11718e-05;0.0024560629842006886
1.11720e-05;0.0024560017830029283
1.11723e-05;0.0024559405818051676
1.11725e-05;0.0024409913431495817
1.11728e-05;0.002418991109107658
1.11730e-05;0.0023969908750657346
1.11733e-05;0.00237499064102396
1.11735e-05;0.0023529904069820363
1.11738e-05;0.0023309901729401125
1.11740e-05;0.0023089899388983384
1.11743e-05;0.0022869897048564147
1.11745e-05;0.002264989470814491
1.11748e-05;0.002242989236772717
1.11750e-05;0.0022192372790143244
1.11753e-05;0.0021874294865082767
1.11755e-05;0.0021556216940024444
1.11758e-05;0.002123813901496397
1.11760e-05;0.0020920061089903493
1.11762e-05;0.002060198316484517
1.11765e-05;0.0020283905239784697
1.11768e-05;0.001996895848626187
1.11770e-05;0.0019668411378209742
1.11773e-05;0.0019367864270155583
1.11775e-05;0.0019067317162101422
1.11778e-05;0.0018766770054047261
1.11780e-05;0.0018466222945995136
1.11783e-05;0.0018165675837940975
1.11785e-05;0.0017891757207207466
1.11788e-05;0.0017740297735359318
1.11790e-05;0.0017588838263510142
1.11793e-05;0.0017437378791660969
1.11795e-05;0.001728591931981282
1.11798e-05;0.0017134459847963648
1.11800e-05;0.0016983000376114472
1.11803e-05;0.0016831540904266324
1.11805e-05;0.001668008143241715
1.11808e-05;0.0016528621960567977
1.11810e-05;0.001637716248871983
1.11813e-05;0.0016225703016870653
1.11815e-05;0.0016214165198281361
1.11818e-05;0.0016268894470609049
1.11820e-05;0.0016323623742937107
1.11823e-05;0.0016378353015265165
1.11825e-05;0.001643308228759285
1.11828e-05;0.0016487811559920908
1.11830e-05;0.0016542540832248966
1.11833e-05;0.0016597270104576653
1.11835e-05;0.001665199937690471
1.11838e-05;0.0016706728649232769
1.11840e-05;0.0016761457921560456
1.11843e-05;0.0016836677502848078
1.11845e-05;0.0017006128007320557
1.11847e-05;0.0017175578511791887
1.11850e-05;0.0017345029016264367
1.11853e-05;0.0017514479520736846
1.11855e-05;0.0017683930025208178
1.11858e-05;0.0017853380529680657
1.11860e-05;0.0018022831034153136
1.11863e-05;0.0018194829811207258
1.11865e-05;0.0018378547595444992
1.11868e-05;0.0018562265379683971
1.11870e-05;0.001874598316392295
1.11873e-05;0.0018929700948160685
1.11875e-05;0.0019113418732399664
1.11878e-05;0.0019297136516638644
1.11880e-05;0.0019480854300876378
1.11883e-05;0.0019655655877474786
1.11885e-05;0.001978945355905477
1.11888e-05;0.001992325124063385
1.11890e-05;0.002005704892221384
1.11893e-05;0.0020190846603793827
1.11895e-05;0.0020324644285372906
1.11898e-05;0.0020458441966952896
1.11900e-05;0.002059223964853288
1.11903e-05;0.002072603733011196
1.11905e-05;0.0020860789081878195
1.11908e-05;0.002099992841582503
1.11910e-05;0.0021139067749770925
1.11913e-05;0.0021278207083717765
1.11915e-05;0.00214173464176646
1.11918e-05;0.0021556485751610495
1.11920e-05;0.002169562508555733
1.11923e-05;0.002183476441950417
1.11925e-05;0.0021973903753450064
1.11928e-05;0.0022119014236740404
1.11930e-05;0.0022291584867972355
1.11932e-05;0.0022464155499203136
1.11935e-05;0.0022636726130435087
1.11938e-05;0.002280929676166704
1.11940e-05;0.002298186739289782
1.11943e-05;0.002315443802412977
1.11945e-05;0.0023327008655361723
1.11948e-05;0.002349957928659367
1.11950e-05;0.0023672149917824455
1.11953e-05;0.0023844720549056403
1.11955e-05;0.0024017291180288354
1.11958e-05;0.002418514513517504
1.11960e-05;0.0024350765265540347
1.11963e-05;0.0024516385395905657
1.11965e-05;0.002468200552626985
1.11968e-05;0.0024847625656635158
1.11970e-05;0.0025013245787000463
1.11973e-05;0.0025178865917364654
1.11975e-05;0.0025344486047729963
1.11978e-05;0.0025510106178095273
1.11980e-05;0.002567572630845946
1.11983e-05;0.002584134643882477
