Time(s);Current(A)
7.25000e-06;0.0024543542786697814
7.25025e-06;0.002553513361862153
7.25050e-06;0.002652973763616088
7.25075e-06;0.0027521627313707654
7.25100e-06;0.0028505081393209184
7.25125e-06;0.002947449506892994
7.25150e-06;0.003042511542588055
7.25175e-06;0.0031353949823159106
7.25200e-06;0.0032258317069564987
7.25225e-06;0.003313358849236586
7.25250e-06;0.0033973806768625614
7.25275e-06;0.003477291586508683
7.25300e-06;0.00355248565265793
7.25325e-06;0.0036216293383753797
7.25350e-06;0.0036844572905815145
7.25375e-06;0.0037444233914174408
7.25400e-06;0.0037963123779081076
7.25425e-06;0.0038453415231618124
7.25450e-06;0.0038862992273483907
7.25475e-06;0.003923407911744538
7.25500e-06;0.003949653357999436
7.25525e-06;0.003975898804254246
7.25550e-06;0.0039975401108870824
7.25575e-06;0.004006186975331129
7.25600e-06;0.004014833839775147
7.25625e-06;0.004019354204793945
7.25650e-06;0.004012228190114251
7.25675e-06;0.004005102175434581
7.25700e-06;0.00399408084698178
7.25725e-06;0.003972065623081228
7.25750e-06;0.003950050399180751
7.25775e-06;0.003924752160341284
7.25800e-06;0.0038901881408498914
7.25825e-06;0.0038556241213586165
7.25850e-06;0.0038188514728055055
7.25875e-06;0.0037758453246160536
7.25900e-06;0.0037313718703714575
7.25925e-06;0.0036827571812223306
7.25950e-06;0.003633241800000934
7.25975e-06;0.0035807401819582976
7.26000e-06;0.00352665071107084
7.26025e-06;0.0034713757381890013
7.26050e-06;0.0034152653648473774
7.26075e-06;0.003358665000716584
7.26100e-06;0.0033019203993028337
7.26125e-06;0.0032453807861604613
7.26150e-06;0.00318942333825606
7.26175e-06;0.003134492423215734
7.26200e-06;0.003081068984126472
7.26225e-06;0.0030295987376984645
7.26250e-06;0.002980494388462534
7.26275e-06;0.0029341657792644705
7.26300e-06;0.0028910228030413405
7.26325e-06;0.002851398928389851
7.26350e-06;0.0028150693488559067
7.26375e-06;0.00278062169604033
7.26400e-06;0.0027463415742125926
7.26425e-06;0.002711684108979154
7.26450e-06;0.0026769340163268975
7.26475e-06;0.002642440370303678
7.26500e-06;0.0026085522341354585
7.26525e-06;0.00257557052122435
7.26550e-06;0.002543446621200323
7.26575e-06;0.0025112269568268388
7.26600e-06;0.0024779582518164246
7.26625e-06;0.002444126201827988
7.26650e-06;0.0024087042014147284
7.26675e-06;0.0023732822010015886
7.26700e-06;0.002337615999829723
7.26725e-06;0.002301260581366038
7.26750e-06;0.002264905162902476
7.26775e-06;0.0022285497444387912
7.26800e-06;0.0021921943259752296
7.26825e-06;0.0021540956899671684
7.26850e-06;0.0021154514427961005
7.26875e-06;0.0020768071956251636
7.26900e-06;0.0020381629484542262
7.26925e-06;0.0019995645756420333
7.26950e-06;0.0019610956758158247
7.26975e-06;0.0019226267759896159
7.27000e-06;0.0018841610690267766
7.27025e-06;0.001845704373406806
7.27050e-06;0.0018074721122332243
7.27075e-06;0.001769873281119669
7.27100e-06;0.001732777760013548
7.27125e-06;0.0016971027503009711
7.27150e-06;0.001662052054538527
7.27175e-06;0.0016287633843004195
7.27200e-06;0.0015961262866404328
7.27225e-06;0.0015653281475898298
7.27250e-06;0.001535427456987425
7.27275e-06;0.0015080596700173426
7.27300e-06;0.0014818577147689617
7.27325e-06;0.0014589461316955245
7.27350e-06;0.0014372778161666734
7.27375e-06;0.0014191184229455334
7.27400e-06;0.0014023806712331096
7.27425e-06;0.001389655273599057
7.27450e-06;0.0013769298759650475
7.27475e-06;0.0013660633238672063
7.27500e-06;0.0013604430637651338
7.27525e-06;0.0013548228036630802
7.27550e-06;0.0013510614703147327
7.27575e-06;0.0013525466581854983
7.27600e-06;0.0013540318460562592
7.27625e-06;0.0013571471303364451
7.27650e-06;0.001364863099062027
7.27675e-06;0.001372579067787609
7.27700e-06;0.001381857976191168
7.27725e-06;0.0013955480299869428
7.27750e-06;0.0014092380837827177
7.27775e-06;0.0014243187206400103
7.27800e-06;0.001443324054112595
7.27825e-06;0.0014623293875851797
7.27850e-06;0.0014813347210578286
7.27875e-06;0.0015037062046310997
7.27900e-06;0.0015271312624275837
7.27925e-06;0.001550556320224147
7.27950e-06;0.0015745683456927276
7.27975e-06;0.0016004146764481981
7.28000e-06;0.0016268957685157803
7.28025e-06;0.0016538522131324758
7.28050e-06;0.0016811546552503703
7.28075e-06;0.001708676349040376
7.28100e-06;0.001736290634632437
7.28125e-06;0.001763868811566472
7.28150e-06;0.0017912667958702307
7.28175e-06;0.0018183053305281282
7.28200e-06;0.0018447881553806376
7.28225e-06;0.0018704110359598518
7.28250e-06;0.001895042597205621
7.28275e-06;0.0019192428173132295
7.28300e-06;0.0019418847462027871
7.28325e-06;0.0019632351205211103
7.28350e-06;0.001983567562733795
7.28375e-06;0.00200394168496187
7.28400e-06;0.0020255833107744124
7.28425e-06;0.0020488934956371645
7.28450e-06;0.0020736997896685775
7.28475e-06;0.0020997865307796613
7.28500e-06;0.0021269377631372996
7.28525e-06;0.0021551357943507725
7.28550e-06;0.002184402722673485
7.28575e-06;0.0022146763014675532
7.28600e-06;0.0022477909890071903
7.28625e-06;0.002282485164293532
7.28650e-06;0.0023216371892282065
7.28675e-06;0.002360789214162881
7.28700e-06;0.002399941239097688
7.28725e-06;0.0024390932640323626
7.28750e-06;0.0024832622656718283
7.28775e-06;0.002529001535176945
7.28800e-06;0.002574740804681907
7.28825e-06;0.0026204800741868686
7.28850e-06;0.002667456651901927
7.28875e-06;0.002717925332661198
7.28900e-06;0.00276839401342064
7.28925e-06;0.002819266182787157
7.28950e-06;0.0028712771337299913
7.28975e-06;0.0029232880846730017
7.29000e-06;0.002975539317629635
7.29025e-06;0.003028468707851469
7.29050e-06;0.0030813059364999955
7.29075e-06;0.0031338830539579814
7.29100e-06;0.0031860627132090907
7.29125e-06;0.003237120610717408
7.29150e-06;0.0032875809199131214
7.29175e-06;0.0033363546323916995
7.29200e-06;0.0033843852655346864
7.29225e-06;0.003430318676991331
7.29250e-06;0.0034752097124226347
7.29275e-06;0.003517158809489894
7.29300e-06;0.003557370298463556
7.29325e-06;0.0035926776685899233
7.29350e-06;0.0036279850387161707
7.29375e-06;0.003661061282527901
7.29400e-06;0.003687840531838485
7.29425e-06;0.0037146197811489786
7.29450e-06;0.0037390906459851677
7.29475e-06;0.0037570464676136006
7.29500e-06;0.0037750022892419723
7.29525e-06;0.003789583676388344
7.29550e-06;0.0037946412659626565
7.29575e-06;0.0037996988555369514
7.29600e-06;0.0038047564451112468
7.29625e-06;0.003809814034685559
7.29650e-06;0.0038148716242598544
7.29675e-06;0.003808720701207984
7.29700e-06;0.0037990616161238627
7.29725e-06;0.003789402531039774
7.29750e-06;0.003779743445955653
7.29775e-06;0.0037700843608715643
7.29800e-06;0.0037575874823343658
7.29825e-06;0.003737081389055769
7.29850e-06;0.003716575295777242
7.29875e-06;0.0036960692024987146
7.29900e-06;0.003675563109220118
7.29925e-06;0.0036534156018709816
7.29950e-06;0.0036266354678040425
7.29975e-06;0.0035998553337370123
7.30000e-06;0.003573075199670073
7.30025e-06;0.0035462950656031337
7.30050e-06;0.003519063339825934
7.30075e-06;0.003490557069216138
7.30100e-06;0.0034620948388030663
7.30125e-06;0.0034337569047485357
7.30150e-06;0.003405585903141022
7.30175e-06;0.003378082973631419
7.30200e-06;0.0033513955870351996
7.30225e-06;0.003325759223260739
7.30250e-06;0.0033013957983588044
7.30275e-06;0.0032785256418534883
7.30300e-06;0.0032573696992036372
7.30325e-06;0.003238447494431167
7.30350e-06;0.0032219183813768917
7.30375e-06;0.0032066436829716917
7.30400e-06;0.0031949093677774622
7.30425e-06;0.0031844887966260187
7.30450e-06;0.003177776056338834
7.30475e-06;0.003172762325522146
7.30500e-06;0.0031725437751579694
7.30525e-06;0.003172325224793793
7.30550e-06;0.0031741893757385935
7.30575e-06;0.003181931615521801
7.30600e-06;0.0031896738553050348
7.30625e-06;0.0032002885351947365
7.30650e-06;0.0032190102144203005
7.30675e-06;0.003237731893645928
7.30700e-06;0.003256453572871492
7.30725e-06;0.003275175252097056
7.30750e-06;0.0032938969313226836
7.30775e-06;0.0033156746733007934
7.30800e-06;0.0033460776599440085
7.30825e-06;0.0033764806465873265
7.30850e-06;0.0034068836332305412
7.30875e-06;0.0034372866198737564
7.30900e-06;0.0034676896065170743
7.30925e-06;0.0034995785792450483
7.30950e-06;0.003535661508245307
7.30975e-06;0.0035717444372456875
7.31000e-06;0.003608289839072571
7.31025e-06;0.0036461404959297924
7.31050e-06;0.0036839911527868857
7.31075e-06;0.003721890733043714
7.31100e-06;0.0037599283917128974
7.31125e-06;0.003797767229908736
7.31150e-06;0.0038350449293569045
7.31175e-06;0.0038719096072921304
7.31200e-06;0.003907608598561004
7.31225e-06;0.003942664712601217
7.31250e-06;0.00397590640925708
7.31275e-06;0.004008005984628245
7.31300e-06;0.004036882106715485
7.31325e-06;0.004065758228802822
7.31350e-06;0.004092910427946991
7.31375e-06;0.004115197132377969
7.31400e-06;0.004137483836809022
7.31425e-06;0.004156758430437879
7.31450e-06;0.004167531826700668
7.31475e-06;0.004178305222963421
7.31500e-06;0.004189078619226174
7.31525e-06;0.004199852015488964
7.31550e-06;0.004210625411751717
7.31575e-06;0.00422139880801447
7.31600e-06;0.0042202955626658685
7.31625e-06;0.004215475037019658
7.31650e-06;0.0042106545113734465
7.31675e-06;0.0042058339857272194
7.31700e-06;0.004201013460081009
7.31725e-06;0.004196192934434797
7.31750e-06;0.0041882927811591935
7.31775e-06;0.004171700875153024
7.31800e-06;0.004155108969146856
7.31825e-06;0.00413851706314063
7.31850e-06;0.004121925157134461
7.31875e-06;0.004104034811975792
7.31900e-06;0.0040843676222870415
7.31925e-06;0.0040647004325982915
7.31950e-06;0.0040450332429094755
7.31975e-06;0.004025366053220725
7.32000e-06;0.004001254164472769
7.32025e-06;0.003972435502794225
7.32050e-06;0.0039454284742533804
7.32075e-06;0.00391927695604711
7.32100e-06;0.0038877919867101327
7.32125e-06;0.003860521697572173
7.32150e-06;0.003833467928727999
7.32175e-06;0.003808942945709279
7.32200e-06;0.0037845943667742903
7.32225e-06;0.003762306048050835
7.32250e-06;0.0037400177293273043
7.32275e-06;0.0037200698123889832
7.32300e-06;0.003701824551226414
7.32325e-06;0.003683790545633079
7.32350e-06;0.0036682238380443466
7.32375e-06;0.0036525442427864686
7.32400e-06;0.0036355462088158742
7.32425e-06;0.003618366278333495
7.32450e-06;0.003599061940422122
7.32475e-06;0.0035796438089246755
7.32500e-06;0.0035588966583197518
7.32525e-06;0.0035381495077147582
7.32550e-06;0.0035171163505305306
7.32575e-06;0.0034927428626506983
7.32600e-06;0.0034683693747707828
7.32625e-06;0.0034435611033311053
7.32650e-06;0.0034136749037040337
7.32675e-06;0.003383788704076861
7.32700e-06;0.0033539025044497894
7.32725e-06;0.0033236435413839436
7.32750e-06;0.0032890309961060202
7.32775e-06;0.003254418450828097
7.32800e-06;0.0032198059055500564
7.32825e-06;0.0031848944214209656
7.32850e-06;0.00314649156788734
7.32875e-06;0.003107991444571825
7.32900e-06;0.003068355287118765
7.32925e-06;0.0030286752416576997
7.32950e-06;0.002988461225857665
7.32975e-06;0.0029479654769802646
7.33000e-06;0.0029070748809657634
7.33025e-06;0.002865920435576264
7.33050e-06;0.0028247810882134254
7.33075e-06;0.002783963075971641
7.33100e-06;0.002743791056548904
7.33125e-06;0.002704446233857504
7.33150e-06;0.0026661030919380912
7.33175e-06;0.002628902987028338
7.33200e-06;0.0025928857515664064
7.33225e-06;0.002558243450760119
7.33250e-06;0.002525261656248437
7.33275e-06;0.0024942425867155115
7.33300e-06;0.0024654999093652544
7.33325e-06;0.0024392716984203235
7.33350e-06;0.0024159901264596416
7.33375e-06;0.0023964921680123758
7.33400e-06;0.002381532602394784
7.33425e-06;0.002371365220829031
7.33450e-06;0.002365958505253044
7.33475e-06;0.0023652837367722696
7.33500e-06;0.00236931998382871
7.33525e-06;0.002377998056594016
7.33550e-06;0.0023915782042500684
7.33575e-06;0.002412166719576519
7.33600e-06;0.0024335703123372784
7.33625e-06;0.0024644933650282016
7.33650e-06;0.00249633561440281
7.33675e-06;0.002538913354207793
7.33700e-06;0.0025814910940127763
7.33725e-06;0.002624888704043187
7.33750e-06;0.0026778617500107064
7.33775e-06;0.0027314547829535582
7.33800e-06;0.0027922887735276473
7.33825e-06;0.0028535358255461427
7.33850e-06;0.0029198439385930875
7.33875e-06;0.0029891264238805846
7.33900e-06;0.0030610207536964414
7.33925e-06;0.0031351458116580266
7.33950e-06;0.0032111675384806507
7.33975e-06;0.0032888521853609754
7.34000e-06;0.0033679452905519894
7.34025e-06;0.00344806968051987
7.34050e-06;0.0035287776586635042
7.34075e-06;0.0036096222878540057
7.34100e-06;0.0036901592059531228
7.34125e-06;0.003769931260046377
7.34150e-06;0.0038485125547419513
7.34175e-06;0.003925538624847786
7.34200e-06;0.004000632290940126
7.34225e-06;0.004073339371450265
7.34250e-06;0.004143162932331428
7.34275e-06;0.004209434128615467
7.34300e-06;0.004270170563149865
7.34325e-06;0.004330027676652618
7.34350e-06;0.004379615015815444
7.34375e-06;0.004429202354978438
7.34400e-06;0.0044778344291047925
7.34425e-06;0.004515309762964443
7.34450e-06;0.004552785096823966
7.34475e-06;0.0045887968838628996
7.34500e-06;0.004607715601312332
7.34525e-06;0.004626634318761699
7.34550e-06;0.0046455530362110664
7.34575e-06;0.004664471753660498
7.34600e-06;0.0046833904711098655
7.34625e-06;0.004689789245641627
7.34650e-06;0.004687079689609307
7.34675e-06;0.004684370133576997
7.34700e-06;0.004681660577544687
7.34725e-06;0.004678951021512368
7.34750e-06;0.004675114004978484
7.34775e-06;0.004658109141309009
7.34800e-06;0.004641104277639477
7.34825e-06;0.004623506026065261
7.34850e-06;0.004598977472976672
7.34875e-06;0.004574448919888166
7.34900e-06;0.004549439655387549
7.34925e-06;0.004518816061709368
7.34950e-06;0.004488192468031291
7.34975e-06;0.0044572801194170605
7.35000e-06;0.004422995341477625
7.35025e-06;0.004388710563538305
7.35050e-06;0.004354324108653111
7.35075e-06;0.00431875014743976
7.35100e-06;0.004283177232927976
7.35125e-06;0.0042476165430614336
7.35150e-06;0.00421214847709129
7.35175e-06;0.004177762184991337
7.35200e-06;0.00414357355419633
7.35225e-06;0.00411169345114456
7.35250e-06;0.004080186977662275
7.35275e-06;0.004053044202106732
7.35300e-06;0.00402590142655128
7.35325e-06;0.003999318030285289
7.35350e-06;0.003979267741796753
7.35375e-06;0.003959217453308286
7.35400e-06;0.003939680538214092
7.35425e-06;0.003926139418419995
7.35450e-06;0.003912598298625944
7.35475e-06;0.003899974303537279
7.35500e-06;0.003898061599799656
7.35525e-06;0.0038961488960620396
7.35550e-06;0.003894236192324423
7.35575e-06;0.0038923234885868
7.35600e-06;0.0038904107848491834
7.35625e-06;0.003888498081111567
7.35650e-06;0.003887697000544739
7.35675e-06;0.003899878799605271
7.35700e-06;0.0039120605986658445
7.35725e-06;0.003924242397726377
7.35750e-06;0.003936424196786909
7.35775e-06;0.003948605995847482
7.35800e-06;0.003960787794908014
7.35825e-06;0.003973567638252265
7.35850e-06;0.003993332165930822
7.35875e-06;0.004013096693609311
7.35900e-06;0.004033119481097717
7.35925e-06;0.004056158538948633
7.35950e-06;0.004079197596799471
7.35975e-06;0.0041023916154331146
7.36000e-06;0.004127395453475617
7.36025e-06;0.004152399291518036
7.36050e-06;0.004177459431080453
7.36075e-06;0.004203177127876401
7.36100e-06;0.0042288948246722614
7.36125e-06;0.004254575929764864
7.36150e-06;0.004279829672698223
7.36175e-06;0.004305083415631497
7.36200e-06;0.0043302165124505555
7.36225e-06;0.004353940558055023
7.36250e-06;0.004377512170874892
7.36275e-06;0.004399303489306463
7.36300e-06;0.004420890866224189
7.36325e-06;0.004440096367527266
7.36350e-06;0.00445894378675597
7.36375e-06;0.0044736090905077965
7.36400e-06;0.004487645926553149
7.36425e-06;0.004494342756746373
7.36450e-06;0.004501039586939575
7.36475e-06;0.004507005709342694
7.36500e-06;0.004504437742563611
7.36525e-06;0.0045018697757845385
7.36550e-06;0.004498174988431796
7.36575e-06;0.004481319827810665
7.36600e-06;0.0044644646671895905
7.36625e-06;0.004447609506568459
7.36650e-06;0.004430754345947385
7.36675e-06;0.00441389918532631
7.36700e-06;0.004387345461496389
7.36725e-06;0.0043537359770893435
7.36750e-06;0.004320126492682298
7.36775e-06;0.004286517008275139
7.36800e-06;0.004252907523868094
7.36825e-06;0.0042184804793783575
7.36850e-06;0.004174504979609157
7.36875e-06;0.004130529479840105
7.36900e-06;0.00408619313127689
7.36925e-06;0.004037642354139445
7.36950e-06;0.003989091577002166
7.36975e-06;0.003940343827179103
7.37000e-06;0.0038892955921424974
7.37025e-06;0.0038381855833574045
7.37050e-06;0.0037863541060355445
7.37075e-06;0.003734542011053846
7.37100e-06;0.0036830042878377173
7.37125e-06;0.003632099643684102
7.37150e-06;0.0035821332325880126
7.37175e-06;0.0035333514084244107
7.37200e-06;0.003485998759801836
7.37225e-06;0.003440395719211738
7.37250e-06;0.0033969070279842007
7.37275e-06;0.003355898855268828
7.37300e-06;0.00331773654907215
7.37325e-06;0.003282803111001158
7.37350e-06;0.0032517272254970427
7.37375e-06;0.0032256597231598814
7.37400e-06;0.0032057171178754675
7.37425e-06;0.0031922678636866516
7.37450e-06;0.0031852512967748387
7.37475e-06;0.003184597139011981
7.37500e-06;0.003190483765535459
7.37525e-06;0.003205006460518047
7.37550e-06;0.0032205890692602016
7.37575e-06;0.0032485506325791694
7.37600e-06;0.003277879891912715
7.37625e-06;0.0033231827591813914
7.37650e-06;0.0033684856264499137
7.37675e-06;0.0034147843964814806
7.37700e-06;0.003473167359368567
7.37725e-06;0.00353727161624721
7.37750e-06;0.003606857174902612
7.37775e-06;0.003681889471420458
7.37800e-06;0.003762319720783036
7.37825e-06;0.0038478059335392556
7.37850e-06;0.003937837647211889
7.37875e-06;0.004031900557271663
7.37900e-06;0.004129480610384404
7.37925e-06;0.004230068368955334
7.37950e-06;0.00433321431188163
7.37975e-06;0.0044385980392531
7.38000e-06;0.004545889424199025
7.38025e-06;0.004654575513067964
7.38050e-06;0.004764036976348173
7.38075e-06;0.004873654264168585
7.38100e-06;0.0049828053999551964
7.38125e-06;0.005090872693719339
7.38150e-06;0.005197275422198997
7.38175e-06;0.0053015142980969215
7.38200e-06;0.005403084811336079
7.38225e-06;0.005501365812012601
7.38250e-06;0.005595671270871529
7.38275e-06;0.005685077941673716
7.38300e-06;0.005766850857692679
7.38325e-06;0.005847896334567619
7.38350e-06;0.005920037647177161
7.38375e-06;0.005987002852548824
7.38400e-06;0.006049202162017304
7.38425e-06;0.006110848647851504
7.38450e-06;0.006166038590792573
7.38475e-06;0.006220375447568076
7.38500e-06;0.006264748932517347
7.38525e-06;0.006309122417466618
7.38550e-06;0.006352697587505058
7.38575e-06;0.006386949070662335
7.38600e-06;0.006420659127601281
7.38625e-06;0.006448045754450946
7.38650e-06;0.006475432381300517
7.38675e-06;0.006502091911785087
7.38700e-06;0.006520259531689031
7.38725e-06;0.006538427151592914
7.38750e-06;0.006555967778965194
7.38775e-06;0.006566185629372158
7.38800e-06;0.0065764034797791224
7.38825e-06;0.006586187653006429
7.38850e-06;0.006590906819712435
7.38875e-06;0.006595625986418441
7.38900e-06;0.00659990733810744
7.38925e-06;0.0065990753566074496
7.38950e-06;0.00659824337510746
7.38975e-06;0.006597148506274863
7.39000e-06;0.006592983321280324
7.39025e-06;0.006588818136285785
7.39050e-06;0.006584492028594612
7.39075e-06;0.0065782864710595195
7.39100e-06;0.006572080913524427
7.39125e-06;0.006565777908696416
7.39150e-06;0.006558336796545667
7.39175e-06;0.006550895684394893
7.39200e-06;0.006543524254403844
7.39225e-06;0.006536966656935547
7.39250e-06;0.006530409059467228
7.39275e-06;0.006524160019792753
7.39300e-06;0.006521514691151814
7.39325e-06;0.006518869362510867
7.39350e-06;0.006516224033869928
7.39375e-06;0.00651357870522899
7.39400e-06;0.006510933376588042
7.39425e-06;0.006508288047947104
7.39450e-06;0.006505642719306166
7.39475e-06;0.0065074432483480426
7.39500e-06;0.006512478164450928
7.39525e-06;0.006517513080553813
7.39550e-06;0.006522547996656715
7.39575e-06;0.0065275829127596
7.39600e-06;0.006532617828862502
7.39625e-06;0.006537652744965388
7.39650e-06;0.006543339056144656
7.39675e-06;0.006556633146710581
7.39700e-06;0.006569927237276461
7.39725e-06;0.00658322132784234
7.39750e-06;0.006596515418408265
7.39775e-06;0.006609809508974145
7.39800e-06;0.006623103599540025
7.39825e-06;0.00663639769010595
7.39850e-06;0.00664969178067183
7.39875e-06;0.00666298587123771
7.39900e-06;0.00667915221943372
7.39925e-06;0.006697408151592269
7.39950e-06;0.006715664083750818
