Time(s);Current(A)
1.05000e-05;0.002131877985735023
1.05002e-05;0.002092219369080144
1.05005e-05;0.0020525607524249957
1.05008e-05;0.0020129021357698476
1.05010e-05;0.0019732435191149684
1.05013e-05;0.0019335849024598203
1.05015e-05;0.001896563538401969
1.05017e-05;0.001862200923387704
1.05020e-05;0.001827838308373206
1.05023e-05;0.0017934756933587078
1.05025e-05;0.0017591130783444426
1.05028e-05;0.0017247504633299447
1.05030e-05;0.0016903878483154465
1.05033e-05;0.0016652074778552117
1.05035e-05;0.0016400457806365668
1.05038e-05;0.0016148840834177512
1.05040e-05;0.0015978908582579157
1.05043e-05;0.0015809142447066524
1.05045e-05;0.0015639376311552741
1.05048e-05;0.0015556486551430695
1.05050e-05;0.0015473773465273033
1.05053e-05;0.0015391060379114807
1.05055e-05;0.0015398425175901596
1.05058e-05;0.0015405973157317765
1.05060e-05;0.0015413521138733985
1.05063e-05;0.0015507778584964052
1.05065e-05;0.00156022123657232
1.05068e-05;0.0015696646146482985
1.05070e-05;0.0015870297391920969
1.05073e-05;0.0016044109735969204
1.05075e-05;0.0016217922080018618
1.05078e-05;0.0016498487099829006
1.05080e-05;0.0016779269214541486
1.05083e-05;0.001706005132925587
1.05085e-05;0.0017340833443970254
1.05087e-05;0.0017621615558682737
1.05090e-05;0.001790239767339712
1.05093e-05;0.0018183179788111505
1.05095e-05;0.0018545856852181732
1.05098e-05;0.0018908700459867127
1.05100e-05;0.0019271544067552522
1.05102e-05;0.001963438767523546
1.05105e-05;0.0019997231282920854
1.05108e-05;0.002036007489060625
1.05110e-05;0.0020722918498289186
1.05113e-05;0.0021058211362858935
1.05115e-05;0.002139344819954939
1.05118e-05;0.0021728685036239846
1.05120e-05;0.0022063921872928034
1.05123e-05;0.002239915870961849
1.05125e-05;0.0022734395546308945
1.05128e-05;0.002306963238299713
1.05130e-05;0.0023404869219687584
1.05133e-05;0.0023591674821565314
1.05135e-05;0.0023778178569973498
1.05138e-05;0.0023964682318382948
1.05140e-05;0.00241511860667924
1.05143e-05;0.0024337689815200586
1.05145e-05;0.0024524193563610036
1.05148e-05;0.0024710697312019486
1.05150e-05;0.002489720106042767
1.05153e-05;0.0024884266427765444
1.05155e-05;0.002487092621222361
1.05158e-05;0.0024857585996681864
1.05160e-05;0.002484424578114003
1.05163e-05;0.00248309055655982
1.05165e-05;0.0024817565350056456
1.05168e-05;0.0024804225134514623
1.05170e-05;0.002479088491897279
1.05172e-05;0.0024777544703431047
1.05175e-05;0.0024682051696662756
1.05178e-05;0.0024503736264998638
1.05180e-05;0.002432542083333573
1.05183e-05;0.002414710540167161
1.05185e-05;0.002396878997000749
1.05187e-05;0.002379047453834458
1.05190e-05;0.002361215910668046
1.05193e-05;0.002343384367501634
1.05195e-05;0.002325552824335343
1.05198e-05;0.002307721281168931
1.05200e-05;0.0022836916272307916
1.05203e-05;0.0022596493686594904
1.05205e-05;0.002235607110088352
1.05208e-05;0.002211564851517051
1.05210e-05;0.0021875225929457497
1.05213e-05;0.0021634803343746115
1.05215e-05;0.0021394380758033103
1.05218e-05;0.002118361968144055
1.05220e-05;0.0020972918925236997
1.05223e-05;0.0020762218169032014
1.05225e-05;0.0020551517412827035
1.05228e-05;0.0020340816656623482
1.05230e-05;0.0020130115900418503
1.05233e-05;0.0019919415144213524
1.05235e-05;0.001988631903278241
1.05238e-05;0.001985358410260574
1.05240e-05;0.0019820849172429078
1.05243e-05;0.001978811424225263
1.05245e-05;0.0019755379312075966
1.05248e-05;0.0019722644381899297
1.05250e-05;0.0019689909451722854
1.05253e-05;0.0019657174521546185
1.05255e-05;0.001962443959136952
1.05257e-05;0.0019591704661193073
1.05260e-05;0.001955896973101641
1.05263e-05;0.001980405842744728
1.05265e-05;0.0020049712112966914
1.05268e-05;0.002029536579848821
1.05270e-05;0.002054101948400951
1.05272e-05;0.0020786673169529146
1.05275e-05;0.0021032326855050442
1.05278e-05;0.0021277980540571743
1.05280e-05;0.0021523634226091374
1.05283e-05;0.0021769287911612674
1.05285e-05;0.002201494159713397
1.05288e-05;0.002226059528265527
1.05290e-05;0.002265370170749739
1.05293e-05;0.002304710799592961
1.05295e-05;0.0023440514284361834
1.05298e-05;0.0023833920572791396
1.05300e-05;0.0024227326861223615
1.05303e-05;0.002462073314965584
1.05305e-05;0.0025014139438085396
1.05308e-05;0.002541112968446158
1.05310e-05;0.002580812721926456
1.05313e-05;0.002620512475406485
1.05315e-05;0.0026602122288867836
1.05318e-05;0.0026999119823670815
1.05320e-05;0.002739611735847111
1.05323e-05;0.002779311489327409
1.05325e-05;0.002802336530000357
1.05328e-05;0.002825327660558569
1.05330e-05;0.002848318791116937
1.05333e-05;0.002871309921675305
1.05335e-05;0.002894301052233517
1.05338e-05;0.002917292182791885
1.05340e-05;0.0029402833133502534
1.05342e-05;0.0029632744439084657
1.05345e-05;0.0029862655744668336
1.05348e-05;0.0030092567050252015
1.05350e-05;0.0030322478355834137
1.05353e-05;0.0030552389661417816
1.05355e-05;0.0030782300967001496
1.05357e-05;0.00307894287424364
1.05360e-05;0.0030796103459688477
1.05363e-05;0.003080277817694056
1.05365e-05;0.003080945289419259
1.05368e-05;0.003081612761144467
1.05370e-05;0.0030822802328696747
1.05373e-05;0.0030829477045948824
1.05375e-05;0.0030836151763200858
1.05378e-05;0.0030842826480452935
1.05380e-05;0.003084950119770501
1.05383e-05;0.0030856175914957045
1.05385e-05;0.0030862850632209123
1.05388e-05;0.0030869525349461204
1.05390e-05;0.0030766118855027292
1.05393e-05;0.0030662488496674034
1.05395e-05;0.0030558858138320776
1.05398e-05;0.0030455227779968225
1.05400e-05;0.0030351597421614967
1.05403e-05;0.003024796706326171
1.05405e-05;0.0030144336704909153
1.05408e-05;0.0030040706346555895
1.05410e-05;0.002993707598820264
1.05413e-05;0.0029833445629850086
1.05415e-05;0.0029729216252278043
1.05418e-05;0.0029624985656525444
1.05420e-05;0.0029520755060773556
1.05423e-05;0.0029416524465020956
1.05425e-05;0.002931229386926836
1.05427e-05;0.002920806327351647
1.05430e-05;0.0029103832677763873
1.05433e-05;0.002899960208201128
1.05435e-05;0.0028895371486259386
1.05438e-05;0.002879114089050679
1.05440e-05;0.002855928077757275
1.05442e-05;0.0028327161114040486
1.05445e-05;0.0028095041450506646
1.05448e-05;0.0027862921786972806
1.05450e-05;0.002763080212344054
1.05453e-05;0.00273986824599067
1.05455e-05;0.002716656279637286
1.05458e-05;0.0026934443132839024
1.05460e-05;0.0026702323469306754
1.05463e-05;0.002647020380577292
1.05465e-05;0.002623808414223908
1.05468e-05;0.002575452807330712
1.05470e-05;0.0025270460676961658
1.05473e-05;0.0024786393280616195
1.05475e-05;0.002430232588427401
1.05478e-05;0.0023818258487928548
1.05480e-05;0.0023334191091583085
1.05483e-05;0.00228501236952409
1.05485e-05;0.0022366056298895438
1.05488e-05;0.0021881988902549975
1.05490e-05;0.002139792150620779
1.05493e-05;0.0020913854109862323
1.05495e-05;0.0020321517549032574
1.05498e-05;0.001972896080930261
1.05500e-05;0.0019136404069568635
1.05503e-05;0.0018543847329834657
1.05505e-05;0.0017951290590104696
1.05508e-05;0.0017368896973951175
1.05510e-05;0.001679674932178301
1.05512e-05;0.0016224601669618721
1.05515e-05;0.0015652454017450557
1.05518e-05;0.001508030636528239
1.05520e-05;0.0014508158713118103
1.05523e-05;0.0014007433016484804
1.05525e-05;0.0013506852565344002
1.05527e-05;0.0013006272114206594
1.05530e-05;0.001257658451100924
1.05533e-05;0.0012147041077298307
1.05535e-05;0.0011794248433227054
1.05538e-05;0.001144161187149804
1.05540e-05;0.0011185052485564474
1.05543e-05;0.001092868848460329
1.05545e-05;0.0010773737182638182
1.05548e-05;0.0010618992116099204
1.05550e-05;0.00105665200544744
1.05553e-05;0.0010514255977816984
1.05555e-05;0.0010539745316059457
1.05558e-05;0.0010619053558533057
1.05560e-05;0.0010779676602513776
1.05563e-05;0.001094046478840881
1.05565e-05;0.0011203974430378464
1.05568e-05;0.0011467692969294278
1.05570e-05;0.0011826014952667245
1.05573e-05;0.00121845293239953
1.05575e-05;0.0012630441133755308
1.05578e-05;0.0013076530677157503
1.05580e-05;0.0013603523830594125
1.05583e-05;0.0014130681511653372
1.05585e-05;0.0014741129120584115
1.05588e-05;0.001535174611001788
1.05590e-05;0.0015962363099447509
1.05593e-05;0.0016664791539356548
1.05595e-05;0.0017367406689353046
1.05597e-05;0.0018070021839344782
1.05600e-05;0.001877263698934128
1.05603e-05;0.0019475252139337777
1.05605e-05;0.00201893241236678
1.05608e-05;0.0020914946327884845
1.05610e-05;0.002164056853210189
1.05612e-05;0.0022366190736314013
1.05615e-05;0.0023091812940531056
1.05618e-05;0.0023817435144748104
1.05620e-05;0.002435849641052525
1.05623e-05;0.0024899182348510633
1.05625e-05;0.002543986828649601
1.05628e-05;0.002598055422448139
1.05630e-05;0.0026521240162463108
1.05633e-05;0.0027061926100448485
1.05635e-05;0.0027602612038433866
1.05638e-05;0.002814329797641558
1.05640e-05;0.002868398391440096
1.05643e-05;0.002903201308410118
1.05645e-05;0.002918581512526068
1.05648e-05;0.002933961716642122
1.05650e-05;0.0029493419207581766
1.05653e-05;0.0029647221248741266
1.05655e-05;0.0029801023289901807
1.05658e-05;0.002995482533106235
1.05660e-05;0.003010862737222185
1.05663e-05;0.0030262429413382393
1.05665e-05;0.0030416231454542934
1.05668e-05;0.003025220258765104
1.05670e-05;0.0030087527371770815
1.05673e-05;0.002992285215589059
1.05675e-05;0.002975817694001148
1.05678e-05;0.002959350172413126
1.05680e-05;0.0029428826508251034
1.05682e-05;0.0029264151292371925
1.05685e-05;0.002900919003267745
1.05688e-05;0.002866320680061607
1.05690e-05;0.0028317223568557035
1.05693e-05;0.0027971240336495656
1.05695e-05;0.0027625257104434272
1.05697e-05;0.0027279273872375235
1.05700e-05;0.0026933290640313856
1.05703e-05;0.0026587307408252473
1.05705e-05;0.0026190147854752944
1.05708e-05;0.0025792884227785785
1.05710e-05;0.002539562060081863
1.05713e-05;0.002499835697385147
1.05715e-05;0.0024601093346887006
1.05718e-05;0.0024203829719919847
1.05720e-05;0.002380656609295269
1.05723e-05;0.0023491636904088235
1.05725e-05;0.0023176875152623798
1.05728e-05;0.002286211340115936
1.05730e-05;0.002254735164969706
1.05733e-05;0.0022232589898232625
1.05735e-05;0.002191782814676819
1.05738e-05;0.002160306639530589
1.05740e-05;0.002138888916654942
1.05743e-05;0.0021174916489032224
1.05745e-05;0.0020960943811516473
1.05748e-05;0.002074697113399928
1.05750e-05;0.0020532998456482083
1.05753e-05;0.0020319025778966337
1.05755e-05;0.0020105053101449138
1.05758e-05;0.0019891080423931943
1.05760e-05;0.0019677107746416196
1.05763e-05;0.0019463135068899001
1.05765e-05;0.0019249162391381804
1.05767e-05;0.0019058393244101197
1.05770e-05;0.001889101676083702
1.05773e-05;0.0018723640277572844
1.05775e-05;0.00185562637943098
1.05778e-05;0.0018388887311045624
1.05780e-05;0.0018221510827781447
1.05782e-05;0.0018054134344518407
1.05785e-05;0.001788675786125423
1.05788e-05;0.0017719381377990053
1.05790e-05;0.001755200489472701
1.05793e-05;0.0017384628411462833
1.05795e-05;0.0017217251928198657
1.05798e-05;0.001707701076254937
1.05800e-05;0.0016936824779973212
1.05803e-05;0.00167966387973961
1.05805e-05;0.0016656452814818989
1.05808e-05;0.001651626683224283
1.05810e-05;0.0016376080849665718
1.05813e-05;0.0016235894867088609
1.05815e-05;0.0016095708884512447
1.05818e-05;0.0015955522901935338
1.05820e-05;0.0015840699344184192
1.05823e-05;0.0015751444942364527
1.05825e-05;0.0015662190540544256
1.05828e-05;0.0015572936138723986
1.05830e-05;0.0015483681736904319
1.05833e-05;0.0015394427335084049
1.05835e-05;0.0015305172933263778
1.05838e-05;0.0015215918531444113
1.05840e-05;0.0015126664129623843
1.05843e-05;0.001503740972780357
1.05845e-05;0.001506475903941137
1.05848e-05;0.0015092345479301927
1.05850e-05;0.0015119931919192482
1.05853e-05;0.0015147518359082852
1.05855e-05;0.0015175104798973407
1.05858e-05;0.0015202691238863965
1.05860e-05;0.0015230277678754335
1.05863e-05;0.001525786411864489
1.05865e-05;0.0015285450558535447
1.05867e-05;0.0015313036998425818
1.05870e-05;0.0015400639678920332
1.05873e-05;0.001554874779708989
1.05875e-05;0.001569685591525844
1.05878e-05;0.0015844964033427996
1.05880e-05;0.0015993072151597551
1.05883e-05;0.0016141180269767107
1.05885e-05;0.0016289288387935658
1.05888e-05;0.0016437396506105216
1.05890e-05;0.0016585504624274771
1.05893e-05;0.0016733612742443323
1.05895e-05;0.0016881720860612878
1.05898e-05;0.0017076807107747787
1.05900e-05;0.001727198889080235
1.05903e-05;0.0017467170673858238
1.05905e-05;0.0017662352456914124
1.05908e-05;0.0017857534239968688
1.05910e-05;0.0018052716023024575
1.05913e-05;0.0018247897806080461
1.05915e-05;0.0018443079589135025
1.05918e-05;0.0018604607784711636
1.05920e-05;0.0018766067541493914
1.05923e-05;0.0018927527298275098
1.05925e-05;0.0019088987055057376
1.05928e-05;0.0019250446811839655
1.05930e-05;0.0019411906568620838
1.05933e-05;0.001957336632540312
1.05935e-05;0.0019734826082185397
1.05938e-05;0.001977363913792566
1.05940e-05;0.0019812202776203357
1.05943e-05;0.0019850766414481057
1.05945e-05;0.0019889330052758497
1.05948e-05;0.001992789369103619
1.05950e-05;0.001996645732931389
1.05952e-05;0.0020005020967591327
1.05955e-05;0.0020043584605869027
1.05958e-05;0.0020082148244146727
1.05960e-05;0.0020120711882424163
1.05963e-05;0.0020159275520701863
1.05965e-05;0.0020125486622071904
1.05968e-05;0.002001875543532941
1.05970e-05;0.0019912024248587637
1.05973e-05;0.0019805293061845143
1.05975e-05;0.001969856187510265
1.05978e-05;0.001959183068836088
1.05980e-05;0.0019485099501618387
1.05983e-05;0.0019378368314875894
1.05985e-05;0.0019271637128134122
1.05988e-05;0.0019164905941391629
1.05990e-05;0.0019058174754649135
1.05993e-05;0.0018951443567907366
1.05995e-05;0.0018780383765728947
1.05998e-05;0.001860919314323346
1.06000e-05;0.0018438002520739132
1.06003e-05;0.0018266811898243645
1.06005e-05;0.0018095621275748157
1.06008e-05;0.001792443065325383
1.06010e-05;0.0017753240030758343
1.06013e-05;0.0017582049408262856
1.06015e-05;0.0017428681524474215
1.06018e-05;0.0017275349885461893
1.06020e-05;0.0017122018246449571
1.06023e-05;0.0016968686607438288
1.06025e-05;0.0016815354968425966
1.06028e-05;0.0016662023329413645
1.06030e-05;0.0016508691690402361
1.06033e-05;0.0016355360051390042
1.06035e-05;0.001630818291114797
1.06037e-05;0.0016261221649412627
1.06040e-05;0.0016214260387676968
1.06043e-05;0.0016167299125941306
1.06045e-05;0.0016120337864205963
1.06048e-05;0.0016073376602470301
1.06050e-05;0.001602641534073464
1.06053e-05;0.0015979454078998978
1.06055e-05;0.0015932492817263635
1.06058e-05;0.0015885531555527976
1.06060e-05;0.0015838570293792314
1.06063e-05;0.001579160903205697
1.06065e-05;0.0015880766445383724
1.06068e-05;0.0015970200673134773
1.06070e-05;0.0016059634900885214
1.06073e-05;0.0016149069128636262
1.06075e-05;0.001623850335638731
1.06078e-05;0.0016327937584137751
1.06080e-05;0.00164173718118888
1.06083e-05;0.0016506806039639848
1.06085e-05;0.0016596240267390291
1.06088e-05;0.0016685674495141337
1.06090e-05;0.0016775108722892386
1.06093e-05;0.001686454295064283
1.06095e-05;0.0017014061452955997
1.06098e-05;0.0017163702144189796
1.06100e-05;0.0017313342835422582
1.06103e-05;0.001746298352665638
1.06105e-05;0.001761262421789018
1.06108e-05;0.0017762264909122964
1.06110e-05;0.0017911905600356763
1.06113e-05;0.0018061546291590562
1.06115e-05;0.0018194612878535106
1.06118e-05;0.0018327645759957075
1.06120e-05;0.0018460678641379043
1.06122e-05;0.0018593711522800112
1.06125e-05;0.001872674440422208
1.06128e-05;0.0018859777285644048
1.06130e-05;0.0018992810167065115
1.06133e-05;0.0019125843048487083
1.06135e-05;0.001911558721593546
1.06138e-05;0.0019105039987777927
1.06140e-05;0.0019094492759620465
1.06143e-05;0.0019083945531462934
1.06145e-05;0.00190733983033054
1.06148e-05;0.001906285107514794
1.06150e-05;0.0019052303846990406
1.06153e-05;0.0019041756618832875
1.06155e-05;0.0019031209390675413
1.06158e-05;0.001902066216251788
1.06160e-05;0.0019010114934360346
1.06163e-05;0.0018882698782941275
1.06165e-05;0.0018637461100440374
1.06168e-05;0.0018392223417939475
1.06170e-05;0.0018146985735440237
1.06173e-05;0.0017901748052939336
1.06175e-05;0.0017656510370438435
1.06178e-05;0.0017411272687939197
1.06180e-05;0.0017166035005438296
1.06183e-05;0.0016920797322937397
1.06185e-05;0.001667555964043816
1.06188e-05;0.0016430321957937258
1.06190e-05;0.0016185084275436358
1.06193e-05;0.001582771761352551
1.06195e-05;0.0015470122923239888
1.06198e-05;0.0015112528232954264
1.06200e-05;0.0014754933542671066
1.06203e-05;0.0014397338852385443
1.06205e-05;0.001403974416209982
1.06207e-05;0.0013681354032538937
1.06210e-05;0.0013322962285349873
1.06213e-05;0.0012964570538160807
1.06215e-05;0.0012606178790974172
1.06218e-05;0.0012247787043785107
1.06220e-05;0.0011889395296596041
1.06222e-05;0.0011574578634727369
1.06225e-05;0.0011259850588270397
1.06228e-05;0.0010945122541813424
1.06230e-05;0.0010685617499308362
1.06233e-05;0.0010426224759726072
1.06235e-05;0.0010166832020142022
1.06238e-05;0.000996098523982016
1.06240e-05;0.0009755247351939857
1.06243e-05;0.0009549509464058161
1.06245e-05;0.0009387199307723073
1.06248e-05;0.0009224977467141384
1.06250e-05;0.0009062755626558596
1.06253e-05;0.0008951515479815169
1.06255e-05;0.000884037901075723
1.06258e-05;0.0008729242541698537
1.06260e-05;0.0008658382253630115
1.06263e-05;0.0008587603872240719
1.06265e-05;0.0008516825490850842
1.06268e-05;0.0008482910143384915
1.06270e-05;0.0008449069761534268
1.06273e-05;0.0008415229379683393
1.06275e-05;0.000843637522886427
1.06278e-05;0.0008457632899460388
1.06280e-05;0.0008478890570056648
1.06283e-05;0.000850014824065291
1.06285e-05;0.0008521405911249026
1.06288e-05;0.0008542663581845288
1.06290e-05;0.0008563921252441549
1.06292e-05;0.0008608219345272502
1.06295e-05;0.0008675745664647264
1.06298e-05;0.0008743271984022027
1.06300e-05;0.0008810798303396333
1.06303e-05;0.0008878324622771096
1.06305e-05;0.0008945850942145858
1.06307e-05;0.0009013377261520163
1.06310e-05;0.0009080903580894926
1.06313e-05;0.0009158354418769894
1.06315e-05;0.0009235825439401386
1.06318e-05;0.0009313296460032353
1.06320e-05;0.0009390767480663845
1.06323e-05;0.0009468238501295338
1.06325e-05;0.0009531879683147999
1.06328e-05;0.0009595492740284533
1.06330e-05;0.0009659105797421069
1.06333e-05;0.0009722718854557173
1.06335e-05;0.000978633191169371
1.06338e-05;0.0009869235107113135
1.06340e-05;0.0009952177531454608
1.06343e-05;0.0010093351222796273
1.06345e-05;0.0010234643334744405
1.06348e-05;0.0010428624972667183
1.06350e-05;0.0010622713761370267
1.06353e-05;0.001086229245988052
1.06355e-05;0.0011101963667843316
1.06358e-05;0.0011400581224903013
1.06360e-05;0.0011699318656779375
1.06363e-05;0.0012070499539706897
1.06365e-05;0.0012441827745508444
1.06368e-05;0.0012887816679667883
1.06370e-05;0.001333395744580866
1.06373e-05;0.0013780098211952458
1.06375e-05;0.0014301693403045376
1.06377e-05;0.0014823442040201506
1.06380e-05;0.0015345190677361173
1.06383e-05;0.0015967065330402587
1.06385e-05;0.0016589143602291534
1.06388e-05;0.0017211221874184697
1.06390e-05;0.0017833300146077862
1.06392e-05;0.001845537841796681
1.06395e-05;0.0019077456689859972
1.06398e-05;0.001975327823177444
1.06400e-05;0.0020429209067391522
1.06403e-05;0.002110513990300403
1.06405e-05;0.0021781070738621116
1.06408e-05;0.00224570015742382
1.06410e-05;0.0023132932409850706
1.06413e-05;0.0023748427778758404
1.06415e-05;0.0024363800244538553
1.06418e-05;0.002497917271031453
1.06420e-05;0.002559454517609468
1.06423e-05;0.0026209917641874824
1.06425e-05;0.0026825290107650806
1.06428e-05;0.002734173251293153
1.06430e-05;0.0027758438470903615
1.06433e-05;0.0028175144428872877
1.06435e-05;0.0028591850386844968
1.06438e-05;0.0029008556344817054
1.06440e-05;0.0029425262302786317
1.06443e-05;0.0029841968260758403
1.06445e-05;0.0030068297377040987
1.06448e-05;0.0030294239338049755
1.06450e-05;0.0030520181299060053
1.06453e-05;0.00306165139039822
1.06455e-05;0.0030712582931961938
1.06458e-05;0.0030808651959942325
1.06460e-05;0.0030783856816724623
1.06462e-05;0.0030758815880999706
1.06465e-05;0.003073377494527462
1.06468e-05;0.0030523483404911777
1.06470e-05;0.003031281513412641
1.06473e-05;0.0030102146863339617
1.06475e-05;0.0029891478592552825
1.06477e-05;0.0029680810321767457
1.06480e-05;0.0029470142050980665
