Time(s);Current(A)
5.50000e-06;0.0048580708047082696
5.50025e-06;0.004918675395826921
5.50050e-06;0.004987131100823967
5.50075e-06;0.005065348910223183
5.50100e-06;0.005143566719622134
5.50125e-06;0.005221784529021086
5.50150e-06;0.005300002338420302
5.50175e-06;0.005378220147819253
5.50200e-06;0.005456437957218205
5.50225e-06;0.005534655766617421
5.50250e-06;0.005606666523366246
5.50275e-06;0.005678321240493744
5.50300e-06;0.005749975957621485
5.50325e-06;0.005821630674748984
5.50350e-06;0.0058932853918767245
5.50375e-06;0.0059649401090042225
5.50400e-06;0.006036594826131721
5.50425e-06;0.006095768154809421
5.50450e-06;0.006139422078341664
5.50475e-06;0.006183076001873908
5.50500e-06;0.0062267299254063
5.50525e-06;0.006270383848938543
5.50550e-06;0.006314037772470787
5.50575e-06;0.006357691696003178
5.50600e-06;0.006401345619535422
5.50625e-06;0.006444999543067665
5.50650e-06;0.006488653466600057
5.50675e-06;0.006532307390132301
5.50700e-06;0.006575961313664544
5.50725e-06;0.0066028083193768
5.50750e-06;0.006628691271939937
5.50775e-06;0.006654574224503162
5.50800e-06;0.006680457177066298
5.50825e-06;0.0067063401296294355
5.50850e-06;0.00673222308219266
5.50875e-06;0.006758106034755797
5.50900e-06;0.0067839889873189336
5.50925e-06;0.0068098719398821585
5.50950e-06;0.006835754892445295
5.50975e-06;0.0068616378450084324
5.51000e-06;0.006883929184380138
5.51025e-06;0.006901754698458275
5.51050e-06;0.006919580212536412
5.51075e-06;0.006937405726614609
5.51100e-06;0.006955231240692746
5.51125e-06;0.006973056754770884
5.51150e-06;0.006990882268849081
5.51175e-06;0.007008707782927218
5.51200e-06;0.007026533297005416
5.51225e-06;0.0070443588110835524
5.51250e-06;0.00705648601610941
5.51275e-06;0.007068286363299606
5.51300e-06;0.007080086710489762
5.51325e-06;0.007091887057679919
5.51350e-06;0.007103687404870115
5.51375e-06;0.007115487752060271
5.51400e-06;0.007127288099250427
5.51425e-06;0.007139088446440624
5.51450e-06;0.00715088879363078
5.51475e-06;0.007154361305547671
5.51500e-06;0.007147478955897581
5.51525e-06;0.007140596606247514
5.51550e-06;0.0071337142565974475
5.51575e-06;0.007126831906947358
5.51600e-06;0.007119949557297291
5.51625e-06;0.0071130672076472005
5.51650e-06;0.007106184857997134
5.51675e-06;0.007066344694710488
5.51700e-06;0.0070246140548751584
5.51725e-06;0.006982883415039969
5.51750e-06;0.00694115277520478
5.51775e-06;0.006899422135369449
5.51800e-06;0.006857691495534259
5.51825e-06;0.00681596085569907
5.51850e-06;0.006759626456869509
5.51875e-06;0.006685133689416315
5.51900e-06;0.006610640921963121
5.51925e-06;0.006536148154509675
5.51950e-06;0.006461655387056482
5.51975e-06;0.006387162619603288
5.52000e-06;0.006312669852149842
5.52025e-06;0.006238177084696648
5.52050e-06;0.006156180357122763
5.52075e-06;0.006064853177433802
5.52100e-06;0.005973525997744842
5.52125e-06;0.005882198818055572
5.52150e-06;0.005790871638366612
5.52175e-06;0.005699544458677651
5.52200e-06;0.005608217278988381
5.52225e-06;0.005516890099299421
5.52250e-06;0.005427908992150158
5.52275e-06;0.0053418450003821895
5.52300e-06;0.005255781008614512
5.52325e-06;0.005169717016846835
5.52350e-06;0.005083653025078865
5.52375e-06;0.005002793208360325
5.52400e-06;0.00493723830750895
5.52425e-06;0.004871683406657353
5.52450e-06;0.004806128505805978
5.52475e-06;0.00474057360495438
5.52500e-06;0.004677722934296895
5.52525e-06;0.00464210980347878
5.52550e-06;0.0045903487241650935
5.52575e-06;0.004538587644851581
5.52600e-06;0.0045053465776674784
5.52625e-06;0.00448157199672608
5.52650e-06;0.004457797415784762
5.52675e-06;0.0044340228348434445
5.52700e-06;0.004410248253902046
5.52725e-06;0.004386473672960729
5.52750e-06;0.0043626990920194115
5.52775e-06;0.004338924511078013
5.52800e-06;0.004315149930136696
5.52825e-06;0.0042913753491953775
5.52850e-06;0.004272159884650748
5.52875e-06;0.004276571825778864
5.52900e-06;0.004280983766906997
5.52925e-06;0.004285395708035113
5.52950e-06;0.004289807649163231
5.52975e-06;0.004294219590291362
5.53000e-06;0.004298631531419479
5.53025e-06;0.004303043472547596
5.53050e-06;0.004307455413675728
5.53075e-06;0.004311867354803845
5.53100e-06;0.004316279295931962
5.53125e-06;0.0043280932315105675
5.53150e-06;0.004343690689375022
5.53175e-06;0.004359288147239477
5.53200e-06;0.004374885605103985
5.53225e-06;0.00439048306296844
5.53250e-06;0.004406080520832895
5.53275e-06;0.004421677978697402
5.53300e-06;0.004436727633065216
5.53325e-06;0.00445149727820697
5.53350e-06;0.004466266923348674
5.53375e-06;0.004481036568490378
5.53400e-06;0.004495806213632132
5.53425e-06;0.004510575858773835
5.53450e-06;0.004525345503915539
5.53475e-06;0.004544763094151201
5.53500e-06;0.00456655647701441
5.53525e-06;0.004588349859877618
5.53550e-06;0.004610143242740901
5.53575e-06;0.00463193662560411
5.53600e-06;0.004653730008467318
5.53625e-06;0.004675523391330601
5.53650e-06;0.004701818158301676
5.53675e-06;0.004751441136075014
5.53700e-06;0.004801064113848519
5.53725e-06;0.004850687091621857
5.53750e-06;0.004900310069395194
5.53775e-06;0.0049499330471687
5.53800e-06;0.004999556024942037
5.53825e-06;0.005049179002715542
5.53850e-06;0.005117367111718667
5.53875e-06;0.005195044769546402
5.53900e-06;0.005272722427374399
5.53925e-06;0.005350400085202134
5.53950e-06;0.005428077743029869
5.53975e-06;0.005505755400857868
5.54000e-06;0.005583433058685603
5.54025e-06;0.005661110716513338
5.54050e-06;0.005748324861081345
5.54075e-06;0.005840413571598036
5.54100e-06;0.0059325022821147275
5.54125e-06;0.006024590992631731
5.54150e-06;0.006116679703148422
5.54175e-06;0.006208768413665113
5.54200e-06;0.006300857124182116
5.54225e-06;0.006392945834698807
5.54250e-06;0.006478160427197527
5.54275e-06;0.006559861320937367
5.54300e-06;0.006641562214677208
5.54325e-06;0.006723263108417326
5.54350e-06;0.006804964002157166
5.54375e-06;0.006886664895897007
5.54400e-06;0.006968365789637125
5.54425e-06;0.007045157286735283
5.54450e-06;0.0070965060673275765
5.54475e-06;0.007147854847920045
5.54500e-06;0.007199203628512339
5.54525e-06;0.007250552409104633
5.54550e-06;0.007301901189697101
5.54575e-06;0.007353249970289396
5.54600e-06;0.00740459875088169
5.54625e-06;0.007430357714768287
5.54650e-06;0.007443036468663351
5.54675e-06;0.0074557152225584586
5.54700e-06;0.0074683939764535225
5.54725e-06;0.007481072730348587
5.54750e-06;0.0074937514842436945
5.54775e-06;0.007506430238138758
5.54800e-06;0.007519108992033822
5.54825e-06;0.00753178774592893
5.54850e-06;0.007544466499823994
5.54875e-06;0.007557145253719058
5.54900e-06;0.0075698240076141655
5.54925e-06;0.007562369853120253
5.54950e-06;0.007544624782029495
5.54975e-06;0.007526879710938676
5.55000e-06;0.007509134639847918
5.55025e-06;0.0074913895687571605
5.55050e-06;0.007473644497666343
5.55075e-06;0.007455899426575585
5.55100e-06;0.007438154355484767
5.55125e-06;0.007420409284394009
5.55150e-06;0.007402664213303252
5.55175e-06;0.007384919142212434
5.55200e-06;0.007367174071121676
5.55225e-06;0.007346002536261958
5.55250e-06;0.007323079567769969
5.55275e-06;0.007300156599278056
5.55300e-06;0.007277233630786145
5.55325e-06;0.007254310662294155
5.55350e-06;0.007231387693802244
5.55375e-06;0.007208464725310331
5.55400e-06;0.007185541756818342
5.55425e-06;0.00716261878832643
5.55450e-06;0.007139695819834518
5.55475e-06;0.007123022944111661
5.55500e-06;0.007109544797245696
5.55525e-06;0.0070960666503796874
5.55550e-06;0.007082588503513723
5.55575e-06;0.007069110356647759
5.55600e-06;0.007055632209781749
5.55625e-06;0.0070421540629157856
5.55650e-06;0.007028675916049822
5.55675e-06;0.007015197769183812
5.55700e-06;0.007001719622317848
5.55725e-06;0.006994778865925465
5.55750e-06;0.006991179690332705
5.55775e-06;0.0069875805147399574
5.55800e-06;0.006983981339147209
5.55825e-06;0.006980382163554449
5.55850e-06;0.006976782987961701
5.55875e-06;0.006973183812368953
5.55900e-06;0.006969584636776193
5.55925e-06;0.006965985461183446
5.55950e-06;0.006962386285590686
5.55975e-06;0.006958787109997938
5.56000e-06;0.00695518793440519
5.56025e-06;0.00695158875881243
5.56050e-06;0.0069479895832196825
5.56075e-06;0.006944390407626934
5.56100e-06;0.006940791232034174
5.56125e-06;0.006937192056441426
5.56150e-06;0.006933592880848678
5.56175e-06;0.0069299937052559185
5.56200e-06;0.006926394529663171
5.56225e-06;0.006923485820124951
5.56250e-06;0.006924155418340917
5.56275e-06;0.006924825016556881
5.56300e-06;0.0069254946147728445
5.56325e-06;0.006926164212988811
5.56350e-06;0.006926833811204775
5.56375e-06;0.00692750340942074
5.56400e-06;0.006928173007636704
5.56425e-06;0.0069288426058526685
5.56450e-06;0.006929512204068634
5.56475e-06;0.006930181802284598
5.56500e-06;0.0069308514005005616
5.56525e-06;0.006931520998716528
5.56550e-06;0.006932190596932492
5.56575e-06;0.0069328601951484554
5.56600e-06;0.006933529793364422
5.56625e-06;0.006934199391580386
5.56650e-06;0.006934868989796349
5.56675e-06;0.006935538588012316
5.56700e-06;0.0069362081862282795
5.56725e-06;0.006936877784444243
5.56750e-06;0.006939914418354428
5.56775e-06;0.006944160960263531
5.56800e-06;0.006948407502172648
5.56825e-06;0.006952654044081752
5.56850e-06;0.006956900585990855
5.56875e-06;0.006961147127899973
5.56900e-06;0.006965393669809076
5.56925e-06;0.0069696402117181795
5.56950e-06;0.006973886753627296
5.56975e-06;0.0069781332955364
5.57000e-06;0.006982379837445503
5.57025e-06;0.006986626379354621
5.57050e-06;0.006990872921263724
5.57075e-06;0.0069951194631728275
5.57100e-06;0.006999470237335877
5.57125e-06;0.0070043611902374705
5.57150e-06;0.007009252143139063
5.57175e-06;0.007014143096040672
5.57200e-06;0.0070190340489422656
5.57225e-06;0.007023925001843875
5.57250e-06;0.007028815954745468
5.57275e-06;0.0070337069076470615
5.57300e-06;0.007038597860548671
5.57325e-06;0.007043488813450264
5.57350e-06;0.0070483797663518566
5.57375e-06;0.007053270719253466
5.57400e-06;0.007058161672155059
5.57425e-06;0.0070630526250566525
5.57450e-06;0.007067943577958262
5.57475e-06;0.007063238342619959
5.57500e-06;0.007053628024972502
5.57525e-06;0.007044017707325012
5.57550e-06;0.0070344073896775544
5.57575e-06;0.007024797072030097
5.57600e-06;0.007015186754382608
5.57625e-06;0.007005576436735151
5.57650e-06;0.006995966119087661
5.57675e-06;0.006986355801440204
5.57700e-06;0.006956980061957476
5.57725e-06;0.00691750124627925
5.57750e-06;0.006878022430601156
5.57775e-06;0.006838543614923063
5.57800e-06;0.006799064799244837
5.57825e-06;0.006759585983566743
5.57850e-06;0.00672010716788865
5.57875e-06;0.006680628352210423
5.57900e-06;0.00664114953653233
5.57925e-06;0.006585987309918112
5.57950e-06;0.00652280852301955
5.57975e-06;0.006459629736121202
5.58000e-06;0.0063964509492228545
5.58025e-06;0.006333272162324292
5.58050e-06;0.006270093375425944
5.58075e-06;0.006206914588527382
5.58100e-06;0.006143735801629034
5.58125e-06;0.0060797966123237275
5.58150e-06;0.006011916673419507
5.58175e-06;0.005944036734515517
5.58200e-06;0.005876156795611526
5.58225e-06;0.005808276856707306
5.58250e-06;0.005740396917803315
5.58275e-06;0.005672516978899325
5.58300e-06;0.0056046370399951044
5.58325e-06;0.0055367571010911144
5.58350e-06;0.0054828460054029225
5.58375e-06;0.005436075070371263
5.58400e-06;0.005389304135339762
5.58425e-06;0.005342533200308261
5.58450e-06;0.005295762265276603
5.58475e-06;0.005248991330245102
5.58500e-06;0.005202220395213442
5.58525e-06;0.0051554494601819415
5.58550e-06;0.005108678525150441
5.58575e-06;0.005061907590118782
5.58600e-06;0.005015136655087281
5.58625e-06;0.004982799180030307
5.58650e-06;0.0049578393540349285
5.58675e-06;0.004932879528039635
5.58700e-06;0.004907919702044341
5.58725e-06;0.0048829598760489635
5.58750e-06;0.00485800005005367
5.58775e-06;0.004833040224058376
5.58800e-06;0.0048080803980629985
5.58825e-06;0.004783120572067705
5.58850e-06;0.004758160746072411
5.58875e-06;0.0047332009200770336
5.58900e-06;0.0047157430148953485
5.58925e-06;0.0047021197092584005
5.58950e-06;0.0046884964036214985
5.58975e-06;0.004674873097984597
5.59000e-06;0.004661249792347649
5.59025e-06;0.004647626486710748
5.59050e-06;0.004634003181073847
5.59075e-06;0.004620379875436899
5.59100e-06;0.004606756569799997
5.59125e-06;0.004593133264163096
5.59150e-06;0.004579509958526148
5.59175e-06;0.004566873231303
5.59200e-06;0.004559349400160968
5.59225e-06;0.004551825569018909
5.59250e-06;0.0045443017378768765
5.59275e-06;0.004536777906734844
5.59300e-06;0.004529254075592785
5.59325e-06;0.004521730244450753
5.59350e-06;0.004514206413308694
5.59375e-06;0.004506682582166662
5.59400e-06;0.004499158751024629
5.59425e-06;0.004491634919882571
5.59450e-06;0.004484111088740538
5.59475e-06;0.00448602883858021
5.59500e-06;0.00449277264337698
5.59525e-06;0.004499516448173728
5.59550e-06;0.004506260252970474
5.59575e-06;0.004513004057767244
5.59600e-06;0.004519747862563992
5.59625e-06;0.004526491667360738
5.59650e-06;0.0045332354721575084
5.59675e-06;0.004539979276954256
5.59700e-06;0.004551277330872567
5.59725e-06;0.004586177565982886
5.59750e-06;0.004621077801093087
5.59775e-06;0.004655978036203407
5.59800e-06;0.004690878271313609
5.59825e-06;0.00472577850642381
5.59850e-06;0.004760678741534129
5.59875e-06;0.0047955789766443305
5.59900e-06;0.004830479211754532
5.59925e-06;0.004865379446864852
5.59950e-06;0.004913893975914596
5.59975e-06;0.0049693674381000455
5.60000e-06;0.005024840900285684
5.60025e-06;0.005080314362471134
5.60050e-06;0.005135787824656584
5.60075e-06;0.005191261286842221
5.60100e-06;0.005246734749027671
5.60125e-06;0.005302208211213122
5.60150e-06;0.005357991025227102
5.60175e-06;0.005415377040495024
5.60200e-06;0.00547276305576314
5.60225e-06;0.005530149071031061
5.60250e-06;0.005587535086298983
5.60275e-06;0.005644921101567099
5.60300e-06;0.005702307116835021
5.60325e-06;0.005759693132102943
5.60350e-06;0.005817079147371058
5.60375e-06;0.0058616577111970415
5.60400e-06;0.005899689758647593
5.60425e-06;0.005937721806098273
5.60450e-06;0.005975753853548824
5.60475e-06;0.006013785900999375
5.60500e-06;0.006051817948450055
5.60525e-06;0.0060898499959006055
5.60550e-06;0.006121333426118351
5.60575e-06;0.006118878956517031
5.60600e-06;0.0061164244869157175
5.60625e-06;0.006113970017314397
5.60650e-06;0.006111515547713084
5.60675e-06;0.006109061078111771
5.60700e-06;0.00610660660851045
5.60725e-06;0.0061041521389091375
5.60750e-06;0.006070989414181956
5.60775e-06;0.00602213019464933
5.60800e-06;0.00597327097511687
5.60825e-06;0.00592441175558441
5.60850e-06;0.005875552536051785
5.60875e-06;0.005826693316519325
5.60900e-06;0.005777834096986865
5.60925e-06;0.005728974877454239
5.60950e-06;0.005657876476847139
5.60975e-06;0.0055754105404173405
5.61000e-06;0.005492944603987263
5.61025e-06;0.005410478667557464
5.61050e-06;0.005328012731127386
5.61075e-06;0.0052455467946975875
5.61100e-06;0.005163080858267789
5.61125e-06;0.005080614921837711
5.61150e-06;0.0049919052227580234
5.61175e-06;0.004900004030459698
5.61200e-06;0.0048081028381610595
5.61225e-06;0.004716201645862734
5.61250e-06;0.004624300453564408
5.61275e-06;0.00453239926126577
5.61300e-06;0.00444286377208746
5.61325e-06;0.0043655884277019295
5.61350e-06;0.004288313083316137
5.61375e-06;0.004211037738930607
5.61400e-06;0.004133762394545076
5.61425e-06;0.004056487050159284
5.61450e-06;0.0039792117057737535
5.61475e-06;0.003926964339202103
5.61500e-06;0.003887509999198672
5.61525e-06;0.0038480556591952413
5.61550e-06;0.003808601319191677
5.61575e-06;0.0037691469791882462
5.61600e-06;0.003729692639184815
5.61625e-06;0.0036902382991812507
5.61650e-06;0.00365078395917782
5.61675e-06;0.003611329619174389
5.61700e-06;0.0035718752791708244
5.61725e-06;0.0035593566492972332
5.61750e-06;0.0035606061815125303
5.61775e-06;0.0035618557137278317
5.61800e-06;0.003563105245943129
5.61825e-06;0.003564354778158426
5.61850e-06;0.0035656043103737276
5.61875e-06;0.003566853842589025
5.61900e-06;0.0035681033748043265
5.61925e-06;0.0035693529070196235
5.61950e-06;0.003570602439234921
5.61975e-06;0.0035854036280363946
5.62000e-06;0.003607131732948139
5.62025e-06;0.003628859837859884
5.62050e-06;0.003650587942771702
5.62075e-06;0.003677034062529204
5.62100e-06;0.0037058917909955956
5.62125e-06;0.0037347495194620848
5.62150e-06;0.0037636072479284763
5.62175e-06;0.0037939949434904908
5.62200e-06;0.003824927770313383
5.62225e-06;0.0038557395008528093
5.62250e-06;0.0038865512313922355
5.62275e-06;0.003917362961931767
5.62300e-06;0.003948174692471193
5.62325e-06;0.003978986423010723
5.62350e-06;0.004009798153550149
5.62375e-06;0.0040406098840895755
5.62400e-06;0.00406573225171589
5.62425e-06;0.004087946507011584
5.62450e-06;0.004110160762307278
5.62475e-06;0.004132375017603047
5.62500e-06;0.004154589272898741
5.62525e-06;0.004176803528194435
5.62550e-06;0.004199017783490204
5.62575e-06;0.004221232038785898
5.62600e-06;0.0042398335939251896
5.62625e-06;0.0042565885208864385
5.62650e-06;0.00427334344784763
5.62675e-06;0.004290098374808823
5.62700e-06;0.004306853301770072
5.62725e-06;0.004323608228731264
5.62750e-06;0.0043403631556925126
5.62775e-06;0.004357118082653705
5.62800e-06;0.004373873009614897
5.62825e-06;0.004390627936576146
5.62850e-06;0.0044073828635373385
5.62875e-06;0.00442413779049853
5.62900e-06;0.004440892717459779
5.62925e-06;0.004457647644420972
5.62950e-06;0.0044744025713821635
5.62975e-06;0.0044911574983434125
5.63000e-06;0.004507912425304605
5.63025e-06;0.004522316119832402
5.63050e-06;0.004535784498672267
5.63075e-06;0.004549252877512087
5.63100e-06;0.0045627212563519055
5.63125e-06;0.004576189635191771
5.63150e-06;0.00458965801403159
5.63175e-06;0.004603126392871456
5.63200e-06;0.004616594771711275
5.63225e-06;0.004630063150551094
5.63250e-06;0.004643531529390959
5.63275e-06;0.004656999908230779
5.63300e-06;0.004670468287070598
5.63325e-06;0.004683936665910464
5.63350e-06;0.0046974050447502825
5.63375e-06;0.004710873423590102
5.63400e-06;0.004724341802429967
5.63425e-06;0.004737810181269787
5.63450e-06;0.004741130721543639
5.63475e-06;0.004741404216849326
5.63500e-06;0.0047416777121550135
5.63525e-06;0.0047419512074607
5.63550e-06;0.004742224702766388
5.63575e-06;0.004742498198072075
5.63600e-06;0.004742771693377763
5.63625e-06;0.0047430451886834495
5.63650e-06;0.004743318683989137
5.63675e-06;0.004743592179294824
5.63700e-06;0.004743865674600512
5.63725e-06;0.004744139169906198
5.63750e-06;0.0047444126652118855
5.63775e-06;0.004729036586560541
5.63800e-06;0.004709625921237204
5.63825e-06;0.004690215255913802
5.63850e-06;0.004670804590590464
5.63875e-06;0.004651393925267128
5.63900e-06;0.004631983259943725
5.63925e-06;0.004612572594620388
5.63950e-06;0.004593161929297051
5.63975e-06;0.004573751263973648
5.64000e-06;0.004554340598650311
5.64025e-06;0.004534929933326908
5.64050e-06;0.0045155192680035715
5.64075e-06;0.004496108602680234
5.64100e-06;0.0044706684000303315
5.64125e-06;0.00444391354250155
5.64150e-06;0.004417158684972768
5.64175e-06;0.004390403827443896
5.64200e-06;0.004363648969915114
5.64225e-06;0.004336894112386332
5.64250e-06;0.00431013925485746
5.64275e-06;0.004283384397328678
5.64300e-06;0.004256629539799896
5.64325e-06;0.004229874682271024
5.64350e-06;0.004206068172745018
5.64375e-06;0.004188498373236654
5.64400e-06;0.00417092857372823
5.64425e-06;0.0041533587742198655
5.64450e-06;0.004135788974711441
5.64475e-06;0.004118219175203077
5.64500e-06;0.004100649375694713
5.64525e-06;0.004083079576186289
5.64550e-06;0.004065509776677924
5.64575e-06;0.00404793997716956
5.64600e-06;0.004030370177661136
5.64625e-06;0.004027561964403719
5.64650e-06;0.004027972305130094
5.64675e-06;0.004028382645856471
5.64700e-06;0.004028792986582847
5.64725e-06;0.0040292033273092226
5.64750e-06;0.0040296136680355995
5.64775e-06;0.004030024008761975
5.64800e-06;0.00403043434948835
5.64825e-06;0.004030844690214727
5.64850e-06;0.004031255030941103
5.64875e-06;0.00403166537166748
5.64900e-06;0.004032075712393855
5.64925e-06;0.004036718906563805
5.64950e-06;0.004050315955382917
5.64975e-06;0.004063913004201984
5.65000e-06;0.004077510053021051
5.65025e-06;0.004091107101840164
5.65050e-06;0.0041047041506592314
5.65075e-06;0.004118301199478298
