Time(s);Current(A)
1.22500e-05;-0.012726271348154121
1.22503e-05;-0.012712961258446837
1.22505e-05;-0.012699651168739463
1.22508e-05;-0.012686341079032088
1.22510e-05;-0.012672540788027892
1.22513e-05;-0.012658288758668552
1.22515e-05;-0.012644036729309211
1.22518e-05;-0.012630004581291042
1.22520e-05;-0.012616175061939718
1.22523e-05;-0.012602345542588395
1.22525e-05;-0.012588988016872683
1.22528e-05;-0.012576065450488606
1.22530e-05;-0.012563714074759456
1.22532e-05;-0.012551889072029645
1.22535e-05;-0.01254083688516676
1.22538e-05;-0.012530496876282092
1.22540e-05;-0.012521543767744522
1.22543e-05;-0.012513868738407168
1.22545e-05;-0.012507987494910937
1.22548e-05;-0.012503759290422169
1.22550e-05;-0.012501699203198019
1.22553e-05;-0.012501637115026379
1.22555e-05;-0.012501575026854736
1.22558e-05;-0.012505664511659851
1.22560e-05;-0.012513579822221517
1.22563e-05;-0.012521495132783183
1.22565e-05;-0.012529410443344796
1.22568e-05;-0.012537325753906462
1.22570e-05;-0.012545241064468127
1.22573e-05;-0.012558297090923896
1.22575e-05;-0.012576090474373233
1.22578e-05;-0.012593883857822568
1.22580e-05;-0.012611677241271784
1.22583e-05;-0.01262947062472112
1.22585e-05;-0.012647264008170456
1.22588e-05;-0.012668787252987937
1.22590e-05;-0.012693747700950404
1.22593e-05;-0.012718708148912872
1.22595e-05;-0.01274366859687517
1.22598e-05;-0.012768629044837637
1.22600e-05;-0.012793589492800106
1.22603e-05;-0.012818594713075232
1.22605e-05;-0.012845748067499928
1.22608e-05;-0.012872901421924625
1.22610e-05;-0.012900054776349137
1.22613e-05;-0.012927208130773835
1.22615e-05;-0.012954361485198532
1.22617e-05;-0.012981514839623044
1.22620e-05;-0.013007494781047018
1.22623e-05;-0.013032393379638506
1.22625e-05;-0.013057291978229992
1.22628e-05;-0.013080358340018375
1.22630e-05;-0.013101736228836956
1.22633e-05;-0.013123114117655538
1.22635e-05;-0.01314180447810642
1.22638e-05;-0.013158018183248759
1.22640e-05;-0.013174231888391098
1.22643e-05;-0.01318529325695585
1.22645e-05;-0.013191606559643099
1.22648e-05;-0.013197919862330347
1.22650e-05;-0.013204233165017553
1.22653e-05;-0.0132105464677048
1.22655e-05;-0.01321685977039205
1.22658e-05;-0.013223173073079256
1.22660e-05;-0.013222183416419958
1.22663e-05;-0.013214463816645044
1.22665e-05;-0.013206744216870183
1.22668e-05;-0.013199024617095271
1.22670e-05;-0.013191305017320357
1.22673e-05;-0.013183585417545496
1.22675e-05;-0.013175865817770584
1.22678e-05;-0.013162836523279998
1.22680e-05;-0.01314491415165422
1.22683e-05;-0.013126991780028319
1.22685e-05;-0.013109069408402419
1.22688e-05;-0.01309114703677664
1.22690e-05;-0.013070231112362914
1.22693e-05;-0.013046556519987158
1.22695e-05;-0.013022881927611562
1.22698e-05;-0.012999207335235808
1.22700e-05;-0.012975532742860053
1.22702e-05;-0.012950722748509103
1.22705e-05;-0.012924551077358898
1.22708e-05;-0.012898088788164633
1.22710e-05;-0.012871626498970367
1.22713e-05;-0.01284512818219432
1.22715e-05;-0.012818596664688674
1.22718e-05;-0.012792382852294799
1.22720e-05;-0.01276646181673699
1.22723e-05;-0.012741200182864069
1.22725e-05;-0.012716546211668848
1.22728e-05;-0.01269259889806792
1.22730e-05;-0.012669884406375072
1.22733e-05;-0.012648371350718115
1.22735e-05;-0.012628222303930561
1.22738e-05;-0.012609795049181463
1.22740e-05;-0.012593911017756339
1.22743e-05;-0.012581525829994599
1.22745e-05;-0.0125731214773897
1.22748e-05;-0.012569723522244022
1.22750e-05;-0.012569147033570337
1.22753e-05;-0.012572482607153811
1.22755e-05;-0.012579423288641155
1.22758e-05;-0.012591577225861383
1.22760e-05;-0.012608535368181737
1.22763e-05;-0.01262549351050209
1.22765e-05;-0.012651261963730301
1.22768e-05;-0.01268514943945929
1.22770e-05;-0.012719036915188279
1.22773e-05;-0.012752924390917037
1.22775e-05;-0.012786811866646026
1.22778e-05;-0.012829816873237388
1.22780e-05;-0.012881224016710664
1.22783e-05;-0.01293263116018429
1.22785e-05;-0.012984038303657915
1.22787e-05;-0.013035445447131191
1.22790e-05;-0.013093632561476696
1.22793e-05;-0.013158067666005758
1.22795e-05;-0.013222502770534822
1.22798e-05;-0.013286937875063447
1.22800e-05;-0.013351372979592512
1.22803e-05;-0.013415808084121574
1.22805e-05;-0.013482141745284114
1.22808e-05;-0.013550224995558375
1.22810e-05;-0.013618308245832635
1.22813e-05;-0.013686391496106435
1.22815e-05;-0.013754474746380696
1.22818e-05;-0.013822557996654956
1.22820e-05;-0.013887797248996218
1.22823e-05;-0.013950415653623064
1.22825e-05;-0.01401303405824991
1.22828e-05;-0.01407221998751212
1.22830e-05;-0.014128242765665539
1.22833e-05;-0.014180395163697393
1.22835e-05;-0.01422898086543089
1.22838e-05;-0.014272619479330482
1.22840e-05;-0.01431169917154521
1.22843e-05;-0.014343327535862352
1.22845e-05;-0.01436808923003537
1.22848e-05;-0.014392850924208389
1.22850e-05;-0.01440830005390153
1.22853e-05;-0.014415167316125917
1.22855e-05;-0.014422034578350304
1.22858e-05;-0.014419284414896797
1.22860e-05;-0.014407671443273031
1.22863e-05;-0.014396058471649266
1.22865e-05;-0.014372776225468769
1.22868e-05;-0.014338740317617392
1.22870e-05;-0.014304704409766016
1.22872e-05;-0.01427066850191487
1.22875e-05;-0.014236158823720858
1.22878e-05;-0.014178918082600413
1.22880e-05;-0.014121677341479968
1.22883e-05;-0.01406443660035991
1.22885e-05;-0.014007195859239468
1.22888e-05;-0.013942000184941322
1.22890e-05;-0.013869473749884492
1.22893e-05;-0.013796947314827168
1.22895e-05;-0.013720662540581598
1.22898e-05;-0.013640914319840389
1.22900e-05;-0.013559480880680031
1.22903e-05;-0.013475639482899284
1.22905e-05;-0.013390399508796657
1.22908e-05;-0.013304240523144396
1.22910e-05;-0.013217651470294748
1.22913e-05;-0.01313112032524799
1.22915e-05;-0.013045135139061451
1.22918e-05;-0.012960177585947535
1.22920e-05;-0.012876718278335943
1.22923e-05;-0.012795239803143106
1.22925e-05;-0.012716262266395988
1.22928e-05;-0.012640333067298818
1.22930e-05;-0.012568004926783892
1.22933e-05;-0.012499831088490468
1.22935e-05;-0.012436364719998871
1.22938e-05;-0.01237815954962296
1.22940e-05;-0.012325726055426532
1.22943e-05;-0.012279427479945603
1.22945e-05;-0.012239453155982818
1.22948e-05;-0.01220590484449241
1.22950e-05;-0.012178868227151408
1.22953e-05;-0.012158429470312235
1.22955e-05;-0.012144674702298661
1.22957e-05;-0.0121394720007421
1.22960e-05;-0.012139178168469806
1.22963e-05;-0.012145887904258223
1.22965e-05;-0.012159051683189082
1.22968e-05;-0.012182692729930064
1.22970e-05;-0.012215988960696622
1.22973e-05;-0.01224928519146318
1.22975e-05;-0.012282581422229514
1.22978e-05;-0.01231636794077601
1.22980e-05;-0.012373678013688121
1.22983e-05;-0.012430988086599842
1.22985e-05;-0.012488298159511952
1.22988e-05;-0.012545608232424062
1.22990e-05;-0.012610759285801831
1.22993e-05;-0.012683136088365498
1.22995e-05;-0.012755512890929166
1.22998e-05;-0.01283200556200231
1.23000e-05;-0.012912291155869612
1.23003e-05;-0.012992576749736914
1.23005e-05;-0.01307485613906924
1.23008e-05;-0.013158972883567653
1.23010e-05;-0.013243089628066064
1.23013e-05;-0.013327128258950131
1.23015e-05;-0.0134110949052936
1.23018e-05;-0.013493772555840795
1.23020e-05;-0.013575262349796523
1.23023e-05;-0.013654351543572743
1.23025e-05;-0.013731228496816952
1.23028e-05;-0.013803371134987245
1.23030e-05;-0.01387115092932261
1.23033e-05;-0.013938930723657976
1.23035e-05;-0.013999001100132373
1.23038e-05;-0.014051966967155048
1.23040e-05;-0.01410493283417772
1.23042e-05;-0.014150531626147442
1.23045e-05;-0.014189341390035961
1.23048e-05;-0.014228151153924479
1.23050e-05;-0.014254708022943515
1.23053e-05;-0.014269973402904267
1.23055e-05;-0.01428523878286502
1.23058e-05;-0.014300504162825772
1.23060e-05;-0.01431576954278642
1.23063e-05;-0.014331034922747173
1.23065e-05;-0.014345703720789485
1.23068e-05;-0.014331749069892319
1.23070e-05;-0.014317794418995057
1.23073e-05;-0.014303839768097798
1.23075e-05;-0.014289885117200632
1.23078e-05;-0.01427593046630337
1.23080e-05;-0.014261975815406109
1.23083e-05;-0.014237006834277881
1.23085e-05;-0.014201887746532135
1.23088e-05;-0.014166768658786388
1.23090e-05;-0.01413164957104088
1.23093e-05;-0.014096530483295134
1.23095e-05;-0.014061411395549388
1.23098e-05;-0.014020397597630801
1.23100e-05;-0.013973951609512153
1.23103e-05;-0.013927505621393504
1.23105e-05;-0.013881059633275171
1.23108e-05;-0.013834613645156523
1.23110e-05;-0.013788167657037874
1.23113e-05;-0.013740586800088337
1.23115e-05;-0.013691960120161226
1.23118e-05;-0.013643755835359631
1.23120e-05;-0.01359594080305662
1.23123e-05;-0.013549358059458519
1.23125e-05;-0.013503910914801145
1.23127e-05;-0.01346614783165001
1.23130e-05;-0.013435465891147877
1.23133e-05;-0.013404783950645743
1.23135e-05;-0.013374102010143817
1.23138e-05;-0.013343420069641683
1.23140e-05;-0.013312738129139549
1.23143e-05;-0.013282056188637415
1.23145e-05;-0.01325137424813549
1.23148e-05;-0.013220692307633355
1.23150e-05;-0.013190010367131222
1.23153e-05;-0.013159328426629296
1.23155e-05;-0.013128646486127162
1.23158e-05;-0.013097964545625028
1.23160e-05;-0.013067282605123102
1.23163e-05;-0.01303687479500319
1.23165e-05;-0.013019619507257288
1.23168e-05;-0.013002364219511502
1.23170e-05;-0.012985108931765597
1.23173e-05;-0.012967853644019695
1.23175e-05;-0.012950598356273909
1.23178e-05;-0.012933343068528004
1.23180e-05;-0.012916087780782102
1.23183e-05;-0.012898832493036316
1.23185e-05;-0.012881577205290411
1.23188e-05;-0.012864321917544509
1.23190e-05;-0.012847066629798723
1.23193e-05;-0.012829811342052818
1.23195e-05;-0.012812556054306916
1.23198e-05;-0.01279530076656113
1.23200e-05;-0.01278041070242251
1.23203e-05;-0.012767700278016322
1.23205e-05;-0.01275498985361022
1.23208e-05;-0.012742279429204032
1.23210e-05;-0.012729569004797844
1.23212e-05;-0.012716858580391743
1.23215e-05;-0.012704148155985555
1.23218e-05;-0.012692768028693563
1.23220e-05;-0.012682613818662598
1.23223e-05;-0.012672459608631566
1.23225e-05;-0.012662305398600533
1.23228e-05;-0.0126521511885695
1.23230e-05;-0.012641996978538537
1.23233e-05;-0.012631842768507505
1.23235e-05;-0.012622968426207847
1.23238e-05;-0.012615273528655567
1.23240e-05;-0.012607578631103237
1.23243e-05;-0.01260328496346774
1.23245e-05;-0.012602125653126866
1.23248e-05;-0.012600966342785982
1.23250e-05;-0.012599807032445098
1.23253e-05;-0.012598647722104223
1.23255e-05;-0.01259748841176334
1.23258e-05;-0.012596329101422455
1.23260e-05;-0.012595376805419146
1.23263e-05;-0.012604356866036292
1.23265e-05;-0.012613336926653437
1.23268e-05;-0.012622316987270522
1.23270e-05;-0.012631297047887667
1.23273e-05;-0.012640277108504811
1.23275e-05;-0.012649257169121896
1.23278e-05;-0.012658237229739041
1.23280e-05;-0.012671665699100405
1.23283e-05;-0.012689193539200514
1.23285e-05;-0.012706721379300743
1.23288e-05;-0.012724249219400971
1.23290e-05;-0.012741777059501082
1.23293e-05;-0.012759304899601311
1.23295e-05;-0.01277683273970154
1.23297e-05;-0.012794360579801649
1.23300e-05;-0.012813620409552636
1.23303e-05;-0.012834476330873253
1.23305e-05;-0.01285533225219373
1.23308e-05;-0.012876188173514347
1.23310e-05;-0.012897044094834964
1.23313e-05;-0.012917900016155582
1.23315e-05;-0.012938755937476057
1.23318e-05;-0.012959611858796674
1.23320e-05;-0.012978183259837843
1.23323e-05;-0.012994649392202911
1.23325e-05;-0.013011115524568094
1.23328e-05;-0.013027581656933275
1.23330e-05;-0.013044047789298343
1.23333e-05;-0.013060513921663524
1.23335e-05;-0.013076980054028705
1.23338e-05;-0.013093446186393775
1.23340e-05;-0.013102920867601574
1.23343e-05;-0.013105952671827915
1.23345e-05;-0.013108984476054237
1.23348e-05;-0.013112016280280577
1.23350e-05;-0.01311504808450692
1.23353e-05;-0.01311807988873324
1.23355e-05;-0.013121111692959582
1.23358e-05;-0.013124143497185922
1.23360e-05;-0.013119001431913385
1.23363e-05;-0.013106326848074836
1.23365e-05;-0.013093652264236286
1.23368e-05;-0.013080977680397824
1.23370e-05;-0.013068303096559274
1.23373e-05;-0.013055628512720725
1.23375e-05;-0.013042710154541866
1.23378e-05;-0.013018095728735966
1.23380e-05;-0.012993481302930068
1.23382e-05;-0.012968866877124336
1.23385e-05;-0.012944252451318437
1.23388e-05;-0.012919638025512539
1.23390e-05;-0.012895023599706805
1.23393e-05;-0.012866679206901958
1.23395e-05;-0.012834897513602346
1.23398e-05;-0.012803115820302736
1.23400e-05;-0.012771334127003339
1.23403e-05;-0.012739552433703729
1.23405e-05;-0.012707770740404117
1.23408e-05;-0.012675311146953278
1.23410e-05;-0.012642226843812637
1.23413e-05;-0.012609142540671997
1.23415e-05;-0.01257605823753158
1.23418e-05;-0.01254297393439094
1.23420e-05;-0.0125098896312503
1.23423e-05;-0.012478038343828587
1.23425e-05;-0.012447323325317769
1.23428e-05;-0.012418288355347147
1.23430e-05;-0.01239080161132099
1.23433e-05;-0.012363314867294648
1.23435e-05;-0.012340546821001653
1.23438e-05;-0.012322127226601318
1.23440e-05;-0.01230370763220086
1.23443e-05;-0.0122852880378004
1.23445e-05;-0.012266868443400067
1.23448e-05;-0.012248448848999607
1.23450e-05;-0.012230029254599149
1.23453e-05;-0.012211609660198814
1.23455e-05;-0.012193190065798356
1.23458e-05;-0.012180516682229926
1.23460e-05;-0.012173138641313586
1.23463e-05;-0.012165760600397197
1.23465e-05;-0.012158382559480806
1.23467e-05;-0.012151004518564466
1.23470e-05;-0.012143626477648077
1.23473e-05;-0.012136248436731686
1.23475e-05;-0.012128870395815346
1.23478e-05;-0.012121492354898957
1.23480e-05;-0.012118223603934351
1.23483e-05;-0.012118741713387704
1.23485e-05;-0.012119259822841053
1.23488e-05;-0.012119777932294405
1.23490e-05;-0.012120296041747757
1.23493e-05;-0.012120814151201106
1.23495e-05;-0.01212133226065446
1.23498e-05;-0.012121850370107812
1.23500e-05;-0.012122368479561161
1.23503e-05;-0.012122952439932277
1.23505e-05;-0.01212669586651246
1.23508e-05;-0.01213043929309262
1.23510e-05;-0.012134182719672803
1.23513e-05;-0.012137926146252986
1.23515e-05;-0.012141669572833145
1.23518e-05;-0.012145412999413328
1.23520e-05;-0.01214915642599351
1.23523e-05;-0.01215289985257367
1.23525e-05;-0.012156643279153853
1.23528e-05;-0.012160027028319587
1.23530e-05;-0.012163079321642546
1.23533e-05;-0.012166131614965527
1.23535e-05;-0.012169183908288507
1.23538e-05;-0.012172236201611467
1.23540e-05;-0.012175288494934447
1.23543e-05;-0.012178340788257427
1.23545e-05;-0.012181393081580387
1.23548e-05;-0.012186731955055097
1.23550e-05;-0.01219417799545447
1.23552e-05;-0.012201624035853792
1.23555e-05;-0.012209070076253164
1.23558e-05;-0.012216516116652537
1.23560e-05;-0.012223962157051859
1.23563e-05;-0.012231408197451232
1.23565e-05;-0.012238854237850604
1.23568e-05;-0.012250033737400697
1.23570e-05;-0.012264653755592233
1.23573e-05;-0.012279273773783869
1.23575e-05;-0.012293893791975504
1.23578e-05;-0.012308513810167041
1.23580e-05;-0.012323133828358677
1.23583e-05;-0.012337753846550312
1.23585e-05;-0.01235237386474185
1.23588e-05;-0.012369441860189718
1.23590e-05;-0.012388765755875093
1.23593e-05;-0.012408089651560336
1.23595e-05;-0.01242741354724571
1.23598e-05;-0.012446737442931085
1.23600e-05;-0.01246606133861633
1.23603e-05;-0.012485385234301705
1.23605e-05;-0.01250470912998708
1.23608e-05;-0.012523329204535088
1.23610e-05;-0.012541300682260389
1.23613e-05;-0.01255927215998569
1.23615e-05;-0.012577243637710867
1.23618e-05;-0.012595215115436167
1.23620e-05;-0.012613186593161468
1.23623e-05;-0.012631158070886645
1.23625e-05;-0.012649129548611946
1.23628e-05;-0.012667101026337247
1.23630e-05;-0.012685072504062424
1.23633e-05;-0.012703043981787725
1.23635e-05;-0.01271366464314267
1.23637e-05;-0.012717511259372876
1.23640e-05;-0.01272135787560311
1.23643e-05;-0.012725204491833342
1.23645e-05;-0.012729051108063548
1.23648e-05;-0.012732897724293781
1.23650e-05;-0.012736744340524013
1.23653e-05;-0.012740590956754245
1.23655e-05;-0.012744437572984452
1.23658e-05;-0.012748284189214684
1.23660e-05;-0.012752130805444918
1.23663e-05;-0.012746927211688982
1.23665e-05;-0.012733383519670677
1.23668e-05;-0.012719839827652372
1.23670e-05;-0.012706296135634159
1.23673e-05;-0.012692752443615856
1.23675e-05;-0.01267920875159755
1.23678e-05;-0.012665665059579338
1.23680e-05;-0.012646540462016282
1.23683e-05;-0.012622272856643446
1.23685e-05;-0.012598005251270772
1.23688e-05;-0.012573737645897934
1.23690e-05;-0.012549470040525097
1.23693e-05;-0.012525202435152424
1.23695e-05;-0.012500934829779585
1.23698e-05;-0.01247386847155812
1.23700e-05;-0.012444222960609125
1.23703e-05;-0.01241457744965993
1.23705e-05;-0.012384931938710736
1.23708e-05;-0.012355286427761743
1.23710e-05;-0.012325640916812548
1.23713e-05;-0.012295995405863354
1.23715e-05;-0.01226634989491436
1.23718e-05;-0.01223850713630945
1.23720e-05;-0.012212325679676539
1.23723e-05;-0.012186144223043805
1.23725e-05;-0.012159962766410893
1.23728e-05;-0.01213378130977798
1.23730e-05;-0.012107599853145246
1.23733e-05;-0.012081418396512333
1.23735e-05;-0.012055236939879421
1.23738e-05;-0.012034859423410389
1.23740e-05;-0.01201983044928045
1.23743e-05;-0.012004801475150411
1.23745e-05;-0.01198977250102037
1.23748e-05;-0.011974743526890432
1.23750e-05;-0.011959714552760393
1.23753e-05;-0.011944685578630352
1.23755e-05;-0.011929656604500414
1.23758e-05;-0.011914627630370373
1.23760e-05;-0.011899598656240334
1.23763e-05;-0.011884766111231067
1.23765e-05;-0.011879358054086358
1.23768e-05;-0.011873949996941649
1.23770e-05;-0.011868541939796974
1.23773e-05;-0.011863133882652265
1.23775e-05;-0.011857725825507554
1.23778e-05;-0.011852317768362881
1.23780e-05;-0.011846909711218172
1.23783e-05;-0.011841501654073461
1.23785e-05;-0.011836093596928788
1.23788e-05;-0.011830685539784079
1.23790e-05;-0.01182799037299769
1.23793e-05;-0.01182779523352647
1.23795e-05;-0.011827600094055247
1.23798e-05;-0.011827404954584023
1.23800e-05;-0.011827209815112802
1.23803e-05;-0.01182701467564158
1.23805e-05;-0.011826819536170357
1.23808e-05;-0.011826624396699134
1.23810e-05;-0.011826456806176285
1.23813e-05;-0.011827610988764638
1.23815e-05;-0.011828765171352985
1.23818e-05;-0.011829919353941341
1.23820e-05;-0.011831073536529695
1.23823e-05;-0.01183222771911805
1.23825e-05;-0.011833381901706398
1.23828e-05;-0.011834536084294751
1.23830e-05;-0.011835690266883107
1.23833e-05;-0.011836405675148931
1.23835e-05;-0.011836716736888853
1.23838e-05;-0.011837027798628776
1.23840e-05;-0.011835987260591813
1.23843e-05;-0.011833701174111986
1.23845e-05;-0.011831415087632156
1.23848e-05;-0.01182712308878924
1.23850e-05;-0.011820982568613941
1.23853e-05;-0.011814842048438643
1.23855e-05;-0.011805663740718042
1.23858e-05;-0.011793686001085912
1.23860e-05;-0.011781708261453782
1.23863e-05;-0.011769730521821732
1.23865e-05;-0.011757752782189603
1.23868e-05;-0.011745775042557473
1.23870e-05;-0.011729668913623825
1.23873e-05;-0.01170975832352155
1.23875e-05;-0.011689847733419275
1.23878e-05;-0.011669937143317134
1.23880e-05;-0.01165002655321486
1.23883e-05;-0.011630115963112584
1.23885e-05;-0.011607174613267107
1.23888e-05;-0.011581440307885332
1.23890e-05;-0.011555706002503557
1.23893e-05;-0.011529971697121957
1.23895e-05;-0.011504237391740182
1.23898e-05;-0.01147845133525277
1.23900e-05;-0.011450182308485839
1.23903e-05;-0.011421913281718715
1.23905e-05;-0.01139364425495159
1.23908e-05;-0.011365375228184468
1.23910e-05;-0.011337106201417535
1.23913e-05;-0.011308914304224961
1.23915e-05;-0.011280793484745734
1.23918e-05;-0.011253187391167803
1.23920e-05;-0.011226055636262817
1.23923e-05;-0.011199661315876222
1.23925e-05;-0.011173946568268688
1.23928e-05;-0.011149291322374539
1.23930e-05;-0.01112561244591494
1.23933e-05;-0.011103749327271685
1.23935e-05;-0.011083559495617455
1.23938e-05;-0.011063369663963225
1.23940e-05;-0.011045318869010435
1.23943e-05;-0.01102923927431884
1.23945e-05;-0.011013159679627245
1.23948e-05;-0.01099904819257133
1.23950e-05;-0.010986750388414391
1.23953e-05;-0.010974452584257452
1.23955e-05;-0.01096559630274485
1.23958e-05;-0.010959911509749386
1.23960e-05;-0.010954226716753921
1.23963e-05;-0.010948541923758496
1.23965e-05;-0.010942857130763033
1.23968e-05;-0.01093717233776757
1.23970e-05;-0.010931487544772142
1.23973e-05;-0.010929694561495194
