Time(s);Current(A)
1.22500e-05;0.0006887126170466723
1.22503e-05;0.0006961313404221875
1.22505e-05;0.0006989857768395666
1.22508e-05;0.0006972358290042534
1.22510e-05;0.0006907557477785695
1.22513e-05;0.0006794119428510453
1.22515e-05;0.0006632394907497156
1.22518e-05;0.0006424061065891114
1.22520e-05;0.0006170985614193083
1.22523e-05;0.0005875035358756932
1.22525e-05;0.000553806503463134
1.22528e-05;0.0005161770355456837
1.22530e-05;0.0004747311992676931
1.22532e-05;0.00042958008734340946
1.22535e-05;0.00038094035073921536
1.22538e-05;0.00032911189639771044
1.22540e-05;0.0002744063842392049
1.22543e-05;0.0002171354172063711
1.22545e-05;0.00015760990540284017
1.22548e-05;9.613075477336672e-05
1.22550e-05;3.2965275533570786e-05
1.22553e-05;-3.162227918662848e-05
1.22555e-05;-9.732969526131804e-05
1.22558e-05;-0.0001638508798962159
1.22560e-05;-0.00023036843318399513
1.22563e-05;-0.000296865228809421
1.22565e-05;-0.0003631289790207944
1.22568e-05;-0.0004280605851961723
1.22570e-05;-0.0004925407776018845
1.22573e-05;-0.0005544405795505042
1.22575e-05;-0.0006156448571062619
1.22578e-05;-0.0006728733487478429
1.22580e-05;-0.0007291455696402798
1.22583e-05;-0.0007799515152881602
1.22585e-05;-0.0008295980080574396
1.22588e-05;-0.0008726167873088725
1.22590e-05;-0.0009146708284453575
1.22593e-05;-0.0009512101928186689
1.22595e-05;-0.000986886462141654
1.22598e-05;-0.0010176290710837454
1.22600e-05;-0.0010473994928814402
1.22603e-05;-0.0010716126574603993
1.22605e-05;-0.001094774421251316
1.22608e-05;-0.0011119261234467219
1.22610e-05;-0.0011281964481870109
1.22613e-05;-0.0011394286058905
1.22615e-05;-0.0011496945738065272
1.22617e-05;-0.0011544375668483893
1.22620e-05;-0.0011591805598902838
1.22623e-05;-0.0011627354464969633
1.22625e-05;-0.0011594988289144164
1.22628e-05;-0.0011562622113318914
1.22630e-05;-0.0011520601290757866
1.22633e-05;-0.001142339216872572
1.22635e-05;-0.001132618304669423
1.22638e-05;-0.001122145365518231
1.22640e-05;-0.001107373658162255
1.22643e-05;-0.0010926019508063788
1.22645e-05;-0.0010772737459355986
1.22648e-05;-0.0010587644664647078
1.22650e-05;-0.0010399630758488798
1.22653e-05;-0.0010194919071669006
1.22655e-05;-0.0009988504508174013
1.22658e-05;-0.0009772355889101103
1.22660e-05;-0.0009555204749430271
1.22663e-05;-0.0009332322959179732
1.22665e-05;-0.0009109212238033324
1.22668e-05;-0.0008884792892419755
1.22670e-05;-0.0008661530464674481
1.22673e-05;-0.0008444881259717719
1.22675e-05;-0.0008230631170830256
1.22678e-05;-0.0008030095010566092
1.22680e-05;-0.0007833890655060758
1.22683e-05;-0.0007662447944887131
1.22685e-05;-0.0007491005234713505
1.22688e-05;-0.0007326067692261751
1.22690e-05;-0.00071983152643187
1.22693e-05;-0.0007070562836375649
1.22695e-05;-0.0006949690959847486
1.22698e-05;-0.0006868149981954709
1.22700e-05;-0.0006786609004061933
1.22702e-05;-0.0006711140508860506
1.22705e-05;-0.0006670383795727063
1.22708e-05;-0.0006635748763255351
1.22710e-05;-0.0006636106740369971
1.22713e-05;-0.0006636464717484588
1.22715e-05;-0.0006643626863491937
1.22718e-05;-0.000668968328713875
1.22720e-05;-0.000673573971078525
1.22723e-05;-0.0006788090470215242
1.22725e-05;-0.0006876421177728038
1.22728e-05;-0.0006964751885240235
1.22730e-05;-0.0007058520514067957
1.22733e-05;-0.0007183373618420908
1.22735e-05;-0.0007308226722773013
1.22738e-05;-0.0007438956384604381
1.22740e-05;-0.0007603277872529086
1.22743e-05;-0.0007767599360452678
1.22745e-05;-0.0007931920848377383
1.22748e-05;-0.0008096242336302087
1.22750e-05;-0.0008260563824225679
1.22753e-05;-0.0008428319015608942
1.22755e-05;-0.0008615702087749259
1.22758e-05;-0.0008803085159888305
1.22760e-05;-0.0008990468232028621
1.22763e-05;-0.0009177851304168938
1.22765e-05;-0.0009365234376307984
1.22768e-05;-0.0009552135348780955
1.22770e-05;-0.000973478615246863
1.22773e-05;-0.0009908894773510914
1.22775e-05;-0.0010083003394554377
1.22778e-05;-0.0010253532466012565
1.22780e-05;-0.0010403599964918994
1.22783e-05;-0.0010553667463826441
1.22785e-05;-0.0010697867664182254
1.22787e-05;-0.0010808528964701605
1.22790e-05;-0.0010919190265221708
1.22793e-05;-0.0011020163869994882
1.22795e-05;-0.0011065760259094941
1.22798e-05;-0.001111135664819469
1.22800e-05;-0.001114683824654053
1.22803e-05;-0.0011124501250690472
1.22805e-05;-0.0011102164254840566
1.22808e-05;-0.0011069245275294097
1.22810e-05;-0.001097583711351961
1.22813e-05;-0.0010882428951745754
1.22815e-05;-0.0010778046262514183
1.22818e-05;-0.0010610930515827328
1.22820e-05;-0.0010443814769141603
1.22823e-05;-0.001026723330980048
1.22825e-05;-0.0010036543543915008
1.22828e-05;-0.00098058537780311
1.22830e-05;-0.0009566574098479801
1.22833e-05;-0.0009278192391556554
1.22835e-05;-0.0008989810684635263
1.22838e-05;-0.0008695490771105771
1.22840e-05;-0.000836722663011614
1.22843e-05;-0.0008035503045570701
1.22845e-05;-0.0007684004443612545
1.22848e-05;-0.0007329959088339983
1.22850e-05;-0.0006961355874186598
1.22853e-05;-0.0006591027423269355
1.22855e-05;-0.0006210837101093734
1.22858e-05;-0.0005830190563799426
1.22860e-05;-0.000544693619035332
1.22863e-05;-0.0005064179112189469
1.22865e-05;-0.00046850379806929934
1.22868e-05;-0.00043113753021887044
1.22870e-05;-0.0003945070735694951
1.22872e-05;-0.0003588854108722378
1.22875e-05;-0.0003247517109168191
1.22878e-05;-0.0002909516746023463
1.22880e-05;-0.00025933087555396673
1.22883e-05;-0.0002295735647610107
1.22885e-05;-0.00020191588893873292
1.22888e-05;-0.00017641024260754557
1.22890e-05;-0.00015238244085422547
1.22893e-05;-0.00012865542702328032
1.22895e-05;-0.00010466526917586624
1.22898e-05;-8.053518984474705e-05
1.22900e-05;-5.652801853961775e-05
1.22903e-05;-3.260619392311324e-05
1.22905e-05;-9.263495532410814e-06
1.22908e-05;1.351082646684441e-05
1.22910e-05;3.6080818228983185e-05
1.22913e-05;5.9125499253054805e-05
1.22915e-05;8.297557329975035e-05
1.22918e-05;0.0001076039513140634
1.22920e-05;0.0001323182537065865
1.22923e-05;0.0001575237206610897
1.22925e-05;0.00018275695897442
1.22928e-05;0.00020814894510219075
1.22930e-05;0.00023354093123013355
1.22933e-05;0.00025914502907815385
1.22935e-05;0.00028596160890166476
1.22938e-05;0.0003127781887253574
1.22940e-05;0.0003396639215978103
1.22943e-05;0.0003669449500490234
1.22945e-05;0.0003942259785004214
1.22948e-05;0.0004214657621235331
1.22950e-05;0.0004484697803164609
1.22953e-05;0.00047548378038201906
1.22955e-05;0.000502554839248587
1.22957e-05;0.0005295874331309148
1.22960e-05;0.0005563406636133316
1.22963e-05;0.0005826689806118034
1.22965e-05;0.0006084039887696524
1.22968e-05;0.0006334056962553965
1.22970e-05;0.0006576458095164754
1.22973e-05;0.0006811734275281405
1.22975e-05;0.0007039434184569019
1.22978e-05;0.0007258074502212915
1.22980e-05;0.0007466004372281032
1.22983e-05;0.000766157279010003
1.22985e-05;0.0007843155779403637
1.22988e-05;0.0008009495704837982
1.22990e-05;0.0008160856831741773
1.22993e-05;0.0008297832659913646
1.22995e-05;0.0008418530319353985
1.22998e-05;0.0008535176122917418
1.23000e-05;0.0008628660536727492
1.23003e-05;0.0008717739319941975
1.23005e-05;0.0008781634451402864
1.23008e-05;0.0008840226139862126
1.23010e-05;0.0008868502063355198
1.23013e-05;0.0008896777986848078
1.23015e-05;0.000891953082425624
1.23018e-05;0.000891071236362781
1.23020e-05;0.000890189390299944
1.23023e-05;0.0008887726036966375
1.23025e-05;0.0008842979673741191
1.23028e-05;0.0008798233310516312
1.23030e-05;0.0008747230672777644
1.23033e-05;0.0008660465654330652
1.23035e-05;0.0008573700635884248
1.23038e-05;0.0008486935617437256
1.23040e-05;0.0008400170598990265
1.23042e-05;0.000831340558054386
1.23045e-05;0.0008221397092663357
1.23048e-05;0.0008099415663261572
1.23050e-05;0.0007977434233860614
1.23053e-05;0.0007855452804458829
1.23055e-05;0.0007733471375057044
1.23058e-05;0.0007611489945655259
1.23060e-05;0.0007488270896960808
1.23063e-05;0.0007357977316567812
1.23065e-05;0.0007227683736174815
1.23068e-05;0.0007098066909545333
1.23070e-05;0.0006972318571367533
1.23073e-05;0.0006846570233189732
1.23075e-05;0.0006723190281434869
1.23078e-05;0.0006613348600216296
1.23080e-05;0.0006503506918997723
1.23083e-05;0.0006393665237779894
1.23085e-05;0.0006296167397781063
1.23088e-05;0.0006205348645379422
1.23090e-05;0.0006114529892978396
1.23093e-05;0.0006021997713228862
1.23095e-05;0.000591967116767496
1.23098e-05;0.000581734462212175
1.23100e-05;0.0005713156353718403
1.23103e-05;0.0005598326026498142
1.23105e-05;0.0005483495699278658
1.23108e-05;0.0005366439936672985
1.23110e-05;0.0005236663046283363
1.23113e-05;0.0005106886155894621
1.23115e-05;0.0004973342702970864
1.23118e-05;0.0004818268666135481
1.23120e-05;0.00046631946293011496
1.23123e-05;0.0004505625680469278
1.23125e-05;0.00043337952102611994
1.23127e-05;0.0004161964740054285
1.23130e-05;0.0003987384542407112
1.23133e-05;0.0003797086236582713
1.23135e-05;0.0003606787930759604
1.23138e-05;0.00034142210871591173
1.23140e-05;0.00032086867320650815
1.23143e-05;0.0003003152376971046
1.23145e-05;0.00027966620084506397
1.23148e-05;0.0002584706835576074
1.23150e-05;0.00023727516627015084
1.23153e-05;0.0002160796489828379
1.23155e-05;0.00019473636798202507
1.23158e-05;0.0001733131340096949
1.23160e-05;0.00015188990003750988
1.23163e-05;0.00013057427166529096
1.23165e-05;0.00010987374297143987
1.23168e-05;8.928554880112245e-05
1.23170e-05;6.941907337526845e-05
1.23173e-05;5.009613358582611e-05
1.23175e-05;3.138672544055015e-05
1.23178e-05;1.3416726377924433e-05
1.23180e-05;-3.67897629880651e-06
1.23183e-05;-1.9765523490828964e-05
1.23185e-05;-3.470885169449293e-05
1.23188e-05;-4.838718339757752e-05
1.23190e-05;-6.073435031442343e-05
1.23193e-05;-7.174778211144777e-05
1.23195e-05;-8.142500509628768e-05
1.23198e-05;-8.97387229393188e-05
1.23200e-05;-9.665621488332427e-05
1.23203e-05;-0.00010214479732664774
1.23205e-05;-0.00010617228066960855
1.23208e-05;-0.00010871418499976231
1.23210e-05;-0.00010978085023133631
1.23212e-05;-0.00010942247228644949
1.23215e-05;-0.00010768928962761867
1.23218e-05;-0.00010461600425626033
1.23220e-05;-0.00010023392353465457
1.23223e-05;-9.457435296579522e-05
1.23225e-05;-8.766892724103234e-05
1.23228e-05;-7.955408918996042e-05
1.23230e-05;-7.028812974240724e-05
1.23233e-05;-5.995427059759861e-05
1.23235e-05;-4.863575723738201e-05
1.23238e-05;-3.6406107827566845e-05
1.23240e-05;-2.333669238992309e-05
1.23243e-05;-9.49890126647115e-06
1.23245e-05;5.035689652687424e-06
1.23248e-05;2.0192487044534158e-05
1.23250e-05;3.588323463052657e-05
1.23253e-05;5.202212205133152e-05
1.23255e-05;6.85543492154659e-05
1.23258e-05;8.512907643496565e-05
1.23260e-05;0.0001019467442668289
1.23263e-05;0.0001187644120988061
1.23265e-05;0.00013551565111502323
1.23268e-05;0.0001518871669272646
1.23270e-05;0.0001682586827396169
1.23273e-05;0.0001844652138223911
1.23275e-05;0.00019972865222170314
1.23278e-05;0.00021484224661752016
1.23280e-05;0.00022897715007584007
1.23283e-05;0.0002422750037477195
1.23285e-05;0.0002546193558169758
1.23288e-05;0.000265834167887515
1.23290e-05;0.00027551936545824906
1.23293e-05;0.00028316080807300046
1.23295e-05;0.0002885101236536062
1.23297e-05;0.0002915683870832323
1.23300e-05;0.00029237509659321145
1.23303e-05;0.0002909697708519306
1.23305e-05;0.0002873891520798912
1.23308e-05;0.000281632655824737
1.23310e-05;0.00027355944116187986
1.23313e-05;0.00026295712844461353
1.23315e-05;0.0002497799463212641
1.23318e-05;0.0002341382884150204
1.23320e-05;0.00021616667851555494
1.23323e-05;0.00019599959087164166
1.23325e-05;0.0001737697793915501
1.23328e-05;0.00014958662671699148
1.23330e-05;0.00012347161980189774
1.23333e-05;9.540148380818862e-05
1.23335e-05;6.545724683903448e-05
1.23338e-05;3.381782949866605e-05
1.23340e-05;6.771902790603198e-07
1.23343e-05;-3.377071851977557e-05
1.23345e-05;-6.933304395859621e-05
1.23348e-05;-0.00010583159370023665
1.23350e-05;-0.0001431871915293232
1.23353e-05;-0.00018142411684929824
1.23355e-05;-0.00021976937123271143
1.23358e-05;-0.00025873386078521424
1.23360e-05;-0.00029769835033745305
1.23363e-05;-0.0003365212173352723
1.23365e-05;-0.0003745345355007881
1.23368e-05;-0.00041254785366604636
1.23370e-05;-0.00045024346286500497
1.23373e-05;-0.0004861229706422861
1.23375e-05;-0.0005215986426710176
1.23378e-05;-0.0005547658917284596
1.23380e-05;-0.0005873783809464945
1.23382e-05;-0.0006168197285248353
1.23385e-05;-0.0006456108395567265
1.23388e-05;-0.0006706850409599122
1.23390e-05;-0.0006953211912028775
1.23393e-05;-0.0007174533348915761
1.23395e-05;-0.0007395854785802747
1.23398e-05;-0.0007612775618788315
1.23400e-05;-0.000780454153376858
1.23403e-05;-0.0007996307448750144
1.23405e-05;-0.0008182532828699391
1.23408e-05;-0.0008337087168134537
1.23410e-05;-0.000849164150757073
1.23413e-05;-0.000864002858529815
1.23415e-05;-0.0008753162100994355
1.23418e-05;-0.0008866295616691328
1.23420e-05;-0.00089794291323883
1.23423e-05;-0.0009092562648084507
1.23425e-05;-0.0009205696163781478
1.23428e-05;-0.0009318829679478451
1.23430e-05;-0.0009431963195174657
1.23433e-05;-0.000954509671087163
1.23435e-05;-0.0009658230226568603
1.23438e-05;-0.0009764402050334916
1.23440e-05;-0.0009830779156457588
1.23443e-05;-0.000989715626258026
1.23445e-05;-0.0009963533368702482
1.23448e-05;-0.0010029910474825155
1.23450e-05;-0.001009628758094783
1.23453e-05;-0.0010162664687070051
1.23455e-05;-0.0010229041793192724
1.23458e-05;-0.0010295418899315396
1.23460e-05;-0.001036179600543762
1.23463e-05;-0.0010424248374524192
1.23465e-05;-0.0010464265995883048
1.23467e-05;-0.0010504283617241634
1.23470e-05;-0.001054430123860049
1.23473e-05;-0.0010584318859959347
1.23475e-05;-0.0010624336481317932
1.23478e-05;-0.001066435410267679
1.23480e-05;-0.0010704371724035646
1.23483e-05;-0.0010743607847334194
1.23485e-05;-0.0010778376738389095
1.23488e-05;-0.0010813145629444232
1.23490e-05;-0.0010847914520499369
1.23493e-05;-0.001088268341155427
1.23495e-05;-0.0010917452302609406
1.23498e-05;-0.0010952221193664543
1.23500e-05;-0.0010986990084719446
1.23503e-05;-0.0011025760977586027
1.23505e-05;-0.0011087408282360928
1.23508e-05;-0.001114905558713541
1.23510e-05;-0.0011210702891910308
1.23513e-05;-0.0011272350196685208
1.23515e-05;-0.001133399750145969
1.23518e-05;-0.0011395644806234588
1.23520e-05;-0.0011457292111009486
1.23523e-05;-0.0011518939415783968
1.23525e-05;-0.0011580586720558869
1.23528e-05;-0.0011663273721955099
1.23530e-05;-0.00117573450221646
1.23533e-05;-0.0011851416322374735
1.23535e-05;-0.0011945487622584874
1.23538e-05;-0.0012039558922794372
1.23540e-05;-0.0012133630223004508
1.23543e-05;-0.0012227701523214647
1.23545e-05;-0.0012321772823424147
1.23548e-05;-0.0012415844123634283
1.23550e-05;-0.001251106756589954
1.23552e-05;-0.00126128769312796
1.23555e-05;-0.0012714686296660352
1.23558e-05;-0.0012816495662041104
1.23560e-05;-0.0012918305027421165
1.23563e-05;-0.0013020114392801917
1.23565e-05;-0.001312192375818267
1.23568e-05;-0.001322373312356342
1.23570e-05;-0.0013325542488943482
1.23573e-05;-0.0013427351854324234
1.23575e-05;-0.0013505703493445153
1.23578e-05;-0.0013571362470209765
1.23580e-05;-0.001363702144697482
1.23583e-05;-0.0013702680423739876
1.23585e-05;-0.0013768339400504486
1.23588e-05;-0.001383399837726954
1.23590e-05;-0.0013899657354034597
1.23593e-05;-0.0013965316330799206
1.23595e-05;-0.001403097530756426
1.23598e-05;-0.0014085201817937599
1.23600e-05;-0.0014074077580661479
1.23603e-05;-0.0014062953343385285
1.23605e-05;-0.0014051829106109094
1.23608e-05;-0.0014040704868832975
1.23610e-05;-0.0014029580631556783
1.23613e-05;-0.001401845639428059
1.23615e-05;-0.0014007332157004472
1.23618e-05;-0.0013996207919728279
1.23620e-05;-0.0013937543559141498
1.23623e-05;-0.001385315587281922
1.23625e-05;-0.0013768768186496368
1.23628e-05;-0.0013684380500173516
1.23630e-05;-0.0013599992813851235
1.23633e-05;-0.0013515605127528384
1.23635e-05;-0.0013431217441205532
1.23637e-05;-0.0013346829754883253
1.23640e-05;-0.001325594721636722
1.23643e-05;-0.0013127938529196997
1.23645e-05;-0.0012999929842027642
1.23648e-05;-0.001287192115485742
1.23650e-05;-0.0012743912467687198
1.23653e-05;-0.0012615903780516975
1.23655e-05;-0.001248789509334762
1.23658e-05;-0.0012359886406177398
1.23660e-05;-0.0012231950367624933
1.23663e-05;-0.0012104429606173183
1.23665e-05;-0.0011976908844720567
1.23668e-05;-0.0011849388083267952
1.23670e-05;-0.00117218673218162
1.23673e-05;-0.0011594346560363585
1.23675e-05;-0.001146682579891097
1.23678e-05;-0.001133930503745922
1.23680e-05;-0.0011215293336411065
1.23683e-05;-0.0011111340274785704
1.23685e-05;-0.0011009083373134682
1.23688e-05;-0.0010916522132826696
1.23690e-05;-0.0010820891407168636
1.23693e-05;-0.0010707714759595694
1.23695e-05;-0.0010588170918206432
1.23698e-05;-0.001043223065436389
1.23700e-05;-0.0010276290390522403
1.23703e-05;-0.0010114365307694858
1.23705e-05;-0.0009918229549582983
1.23708e-05;-0.0009722093791472438
1.23710e-05;-0.00095190255973328
1.23713e-05;-0.0009276329919307316
1.23715e-05;-0.000902557602973782
1.23718e-05;-0.0008728759450671603
1.23720e-05;-0.0008431942871605386
1.23723e-05;-0.0008127910715405642
1.23725e-05;-0.0007782632572143773
1.23728e-05;-0.0007437354428881902
1.23730e-05;-0.0007086025614158449
1.23733e-05;-0.0006700109695417074
1.23735e-05;-0.0006309480998226911
1.23738e-05;-0.0005891912917634011
1.23740e-05;-0.0005471155577892646
1.23743e-05;-0.0005032167660160198
1.23745e-05;-0.0004591367795334729
1.23748e-05;-0.00041402104019381603
1.23750e-05;-0.000368785852052933
1.23753e-05;-0.0003227960793454203
1.23755e-05;-0.0002763619203973093
1.23758e-05;-0.00022974125369212416
1.23760e-05;-0.00018321684988022182
1.23763e-05;-0.00013707145314332536
1.23765e-05;-9.158587898426254e-05
1.23768e-05;-4.7015163904121025e-05
1.23770e-05;-3.5136325693240583e-06
1.23773e-05;3.88294852834038e-05
1.23775e-05;7.983142777159296e-05
1.23778e-05;0.00011921191040049644
1.23780e-05;0.00015667504118011555
1.23783e-05;0.00019192499019955918
1.23785e-05;0.00022467630066639008
1.23788e-05;0.0002547900825265118
1.23790e-05;0.0002827126118559104
1.23793e-05;0.00030931576277622153
1.23795e-05;0.0003350162398228685
1.23798e-05;0.00035961302515991604
1.23800e-05;0.00038264749915730074
1.23803e-05;0.0004052284793797665
1.23805e-05;0.0004252171793123492
1.23808e-05;0.00044480061782519863
1.23810e-05;0.0004620674838777219
1.23813e-05;0.00047914301301465214
1.23815e-05;0.0004951248139851653
1.23818e-05;0.0005108233474581519
1.23820e-05;0.0005249026552850087
1.23823e-05;0.0005389819631118654
1.23825e-05;0.0005524666525834625
1.23828e-05;0.0005625523594735575
1.23830e-05;0.0005726380663636525
1.23833e-05;0.0005827237732536791
1.23835e-05;0.0005928094801437742
1.23838e-05;0.0006028951870338692
1.23840e-05;0.0006129808939238959
1.23843e-05;0.0006230666008139909
1.23845e-05;0.0006326187942825844
1.23848e-05;0.0006391212957744633
1.23850e-05;0.0006456237972663862
1.23853e-05;0.000652126298758309
1.23855e-05;0.0006586288002501878
1.23858e-05;0.0006651313017421107
1.23860e-05;0.0006716338032340336
1.23863e-05;0.0006781363047259124
1.23865e-05;0.0006843536129071849
1.23868e-05;0.0006889406870280244
1.23870e-05;0.0006935277611488328
1.23873e-05;0.0006980226562422341
1.23875e-05;0.000701990633681598
1.23878e-05;0.0007059586111209349
1.23880e-05;0.0007098670281049708
1.23883e-05;0.0007133968409467075
1.23885e-05;0.0007166507391288222
1.23888e-05;0.0007193726684499165
1.23890e-05;0.0007204936133089462
1.23893e-05;0.0007184490871811158
1.23895e-05;0.0007124862113777313
1.23898e-05;0.0007026715725640376
1.23900e-05;0.0006892015138470045
1.23903e-05;0.000672272427874515
1.23905e-05;0.0006520711652571584
1.23908e-05;0.0006286527423723606
1.23910e-05;0.0006015631503838115
1.23913e-05;0.0005700378423880982
1.23915e-05;0.000533820867483997
1.23918e-05;0.0004931695229194438
1.23920e-05;0.00044842241565745
1.23923e-05;0.0003999182009732102
1.23925e-05;0.00034798942716248425
1.23928e-05;0.0002928861492534944
1.23930e-05;0.0002345394771206964
1.23933e-05;0.000172686107499263
1.23935e-05;0.00010738128054921417
1.23938e-05;3.900178285801698e-05
1.23940e-05;-3.2024730946495534e-05
