Time(s);Current(A)
1.17500e-05;-0.002377825214029616
1.17503e-05;-0.0023770935119823006
1.17505e-05;-0.0023763618099349893
1.17508e-05;-0.0023755985601486866
1.17510e-05;-0.002374774884332451
1.17513e-05;-0.002373973923769888
1.17515e-05;-0.002373094977187627
1.17518e-05;-0.002371686158122733
1.17520e-05;-0.0023690485903398394
1.17523e-05;-0.002364764996712796
1.17525e-05;-0.002358575618587778
1.17528e-05;-0.0023507797501463685
1.17530e-05;-0.0023420920692008695
1.17533e-05;-0.0023314833737534246
1.17535e-05;-0.00231993617501412
1.17538e-05;-0.0023063673871785814
1.17540e-05;-0.0022912450571873884
1.17543e-05;-0.002272776309651172
1.17545e-05;-0.002254307562114831
1.17548e-05;-0.002234230215433168
1.17550e-05;-0.002210687855341125
1.17553e-05;-0.002187145495248922
1.17555e-05;-0.002162244291741239
1.17558e-05;-0.002134416062771059
1.17560e-05;-0.00210658783380069
1.17563e-05;-0.0020776241390025687
1.17565e-05;-0.0020462145866819437
1.17568e-05;-0.002014030250256269
1.17570e-05;-0.0019801769851098545
1.17572e-05;-0.0019463237199636694
1.17575e-05;-0.0019119876880644834
1.17578e-05;-0.00187661174931368
1.17580e-05;-0.0018409517903157221
1.17583e-05;-0.0018046800356634604
1.17585e-05;-0.0017683533962668354
1.17588e-05;-0.001731908532031017
1.17590e-05;-0.0016956842956094497
1.17593e-05;-0.0016599353039598518
1.17595e-05;-0.0016245084787468134
1.17598e-05;-0.0015900400394233927
1.17600e-05;-0.0015564462739698682
1.17603e-05;-0.0015238798324822098
1.17605e-05;-0.0014925543279918473
1.17608e-05;-0.0014627016229097236
1.17610e-05;-0.0014345535001418113
1.17613e-05;-0.0014083419640523185
1.17615e-05;-0.0013843077638144633
1.17618e-05;-0.001362709457858206
1.17620e-05;-0.0013437735300721836
1.17623e-05;-0.0013276247088745798
1.17625e-05;-0.0013147654626006842
1.17628e-05;-0.001304837389332334
1.17630e-05;-0.0012967531592695339
1.17633e-05;-0.0012926406716106615
1.17635e-05;-0.001290895659114893
1.17638e-05;-0.0012942503218337728
1.17640e-05;-0.0012976049845526527
1.17643e-05;-0.001303288877819516
1.17645e-05;-0.0013139900652401886
1.17648e-05;-0.0013260020088706897
1.17650e-05;-0.001341669008168274
1.17653e-05;-0.00135992721872821
1.17655e-05;-0.0013806799559770056
1.17657e-05;-0.0014038378555432242
1.17660e-05;-0.0014292988447420238
1.17663e-05;-0.0014569209005815317
1.17665e-05;-0.00148653099887161
1.17668e-05;-0.0015179492041210159
1.17670e-05;-0.0015509954956461137
1.17673e-05;-0.001585489974864967
1.17675e-05;-0.0016212547306337544
1.17678e-05;-0.0016581163779428698
1.17680e-05;-0.0016958937182950237
1.17683e-05;-0.0017343804074833886
1.17685e-05;-0.001773350861146611
1.17688e-05;-0.0018125749687890737
1.17690e-05;-0.0018518226823622203
1.17693e-05;-0.0018908642093936586
1.17695e-05;-0.0019294706829456713
1.17698e-05;-0.001967416404932516
1.17700e-05;-0.002004470754112297
1.17703e-05;-0.00204038702118321
1.17705e-05;-0.002074906758545313
1.17708e-05;-0.0021077687188445302
1.17710e-05;-0.00213871191030145
1.17713e-05;-0.0021674758237556226
1.17715e-05;-0.002193853247875664
1.17718e-05;-0.002217502539892017
1.17720e-05;-0.002238883377898607
1.17723e-05;-0.002258915092048339
1.17725e-05;-0.0022760407172116555
1.17728e-05;-0.002291713576041673
1.17730e-05;-0.0023042570941378816
1.17733e-05;-0.0023152488540486306
1.17735e-05;-0.0023228980391845396
1.17738e-05;-0.0023291033901380784
1.17740e-05;-0.0023321986407148234
1.17742e-05;-0.0023339995783595146
1.17745e-05;-0.0023330124928457405
1.17748e-05;-0.002330757595574378
1.17750e-05;-0.002325771760171191
1.17753e-05;-0.0023195474931425363
1.17755e-05;-0.002310655574446073
1.17758e-05;-0.0023006842311710037
1.17760e-05;-0.0022883877463877956
1.17763e-05;-0.002275196902330657
1.17765e-05;-0.0022600795578841767
1.17768e-05;-0.002244175815076684
1.17770e-05;-0.002226578125783359
1.17773e-05;-0.002208303770707892
1.17775e-05;-0.0021885718393196475
1.17778e-05;-0.00216835421300807
1.17780e-05;-0.002147090372399771
1.17783e-05;-0.0021255480480014
1.17785e-05;-0.002103405853789917
1.17788e-05;-0.0020811440721058955
1.17790e-05;-0.002058624692251846
1.17793e-05;-0.002036145765443909
1.17795e-05;-0.002013753976782429
1.17798e-05;-0.001991613432542562
1.17800e-05;-0.001970014082976758
1.17803e-05;-0.0019488869931983189
1.17805e-05;-0.0019287771776754267
1.17808e-05;-0.001909534949580428
1.17810e-05;-0.0018921615538071564
1.17813e-05;-0.0018747881580340024
1.17815e-05;-0.0018583476306691157
1.17818e-05;-0.0018439165545448052
1.17820e-05;-0.0018298901319155892
1.17823e-05;-0.0018167353557695747
1.17825e-05;-0.0018035805796235602
1.17827e-05;-0.0017911147848008128
1.17830e-05;-0.0017801330946622344
1.17833e-05;-0.001769151404523656
1.17835e-05;-0.001758169714385152
1.17838e-05;-0.0017478078306145677
1.17840e-05;-0.001738781044767768
1.17843e-05;-0.0017297542589209684
1.17845e-05;-0.00172072747307423
1.17848e-05;-0.0017121685691125774
1.17850e-05;-0.0017046175091578813
1.17853e-05;-0.0016970664492032361
1.17855e-05;-0.00168951538924854
1.17858e-05;-0.0016819643292938437
1.17860e-05;-0.00167541783563869
1.17863e-05;-0.0016690962767029153
1.17865e-05;-0.0016627747177671405
1.17868e-05;-0.0016564531588314085
1.17870e-05;-0.0016504705409766717
1.17873e-05;-0.0016452180213542267
1.17875e-05;-0.001639965501731817
1.17878e-05;-0.001634712982109372
1.17880e-05;-0.001629460462486927
1.17883e-05;-0.0016244780702954669
1.17885e-05;-0.0016200775478473445
1.17888e-05;-0.0016156770253992218
1.17890e-05;-0.0016112765029511291
1.17893e-05;-0.0016068759805030067
1.17895e-05;-0.001602709214653913
1.17898e-05;-0.0015990459737220096
1.17900e-05;-0.0015953827327900814
1.17903e-05;-0.0015918450464010405
1.17905e-05;-0.0015885778115888826
1.17908e-05;-0.0015853105767767023
1.17910e-05;-0.0015821489529587523
1.17912e-05;-0.0015792789333602005
1.17915e-05;-0.001576554987501054
1.17918e-05;-0.001573708585406204
1.17920e-05;-0.0015701748397091817
1.17923e-05;-0.001565808392025758
1.17925e-05;-0.0015608433979695956
1.17928e-05;-0.0015545891012197653
1.17930e-05;-0.0015483348044699776
1.17933e-05;-0.0015415821343104886
1.17935e-05;-0.0015337559396776902
1.17938e-05;-0.0015249172340869145
1.17940e-05;-0.0015138975227042275
1.17943e-05;-0.0015028778113215405
1.17945e-05;-0.001491858099938928
1.17948e-05;-0.001480838388556241
1.17950e-05;-0.0014685377181766165
1.17953e-05;-0.0014534777897669633
1.17955e-05;-0.0014384178613572082
1.17958e-05;-0.001423357932947453
1.17960e-05;-0.0014082980045377997
1.17963e-05;-0.0013923498364852309
1.17965e-05;-0.001374488350072646
1.17968e-05;-0.0013566268636601823
1.17970e-05;-0.0013383678719339905
1.17973e-05;-0.0013192526313104368
1.17975e-05;-0.0013001373906870127
1.17978e-05;-0.0012807918826627563
1.17980e-05;-0.0012609503656514317
1.17983e-05;-0.0012411088486402415
1.17985e-05;-0.0012212175896380525
1.17988e-05;-0.0012012191835780125
1.17990e-05;-0.0011813557932509144
1.17993e-05;-0.0011617832344381174
1.17995e-05;-0.0011424706122842294
1.17997e-05;-0.0011237179083755256
1.18000e-05;-0.0011053068223220702
1.18003e-05;-0.0010876316004244085
1.18005e-05;-0.001070298900670221
1.18008e-05;-0.0010539857078942514
1.18010e-05;-0.0010386010808035686
1.18013e-05;-0.001024271446437677
1.18015e-05;-0.001011357866886299
1.18018e-05;-0.000999815520557802
1.18020e-05;-0.0009892368683997491
1.18023e-05;-0.0009807340679165502
1.18025e-05;-0.0009732333384785539
1.18028e-05;-0.0009678911266713891
1.18030e-05;-0.0009638279379464441
1.18033e-05;-0.0009625198371827329
1.18035e-05;-0.0009612117364190215
1.18038e-05;-0.000961480086438104
1.18040e-05;-0.0009651442004849624
1.18043e-05;-0.0009688083145318208
1.18045e-05;-0.0009737294719263333
1.18048e-05;-0.0009813583716924655
1.18050e-05;-0.0009896879008719115
1.18053e-05;-0.000999969652674531
1.18055e-05;-0.001011633087866488
1.18058e-05;-0.0010246298060038175
1.18060e-05;-0.0010389061656650134
1.18063e-05;-0.0010543848108202998
1.18065e-05;-0.0010709691452842908
1.18068e-05;-0.0010885579729186625
1.18070e-05;-0.001107049890292164
1.18073e-05;-0.0011263437693997244
1.18075e-05;-0.0011463399643109808
1.18078e-05;-0.0011669425885033643
1.18080e-05;-0.001188052658032419
1.18082e-05;-0.0012095561458398071
1.18085e-05;-0.001231327079276165
1.18088e-05;-0.001253236592266266
1.18090e-05;-0.0012751557278569106
1.18093e-05;-0.0012969557363886365
1.18095e-05;-0.0013185086262469813
1.18098e-05;-0.001339688958475901
1.18100e-05;-0.0013603692528135196
1.18103e-05;-0.001380412721458813
1.18105e-05;-0.0013996750974979138
1.18108e-05;-0.0014180101576003077
1.18110e-05;-0.0014352718062235292
1.18113e-05;-0.0014513157762518834
1.18115e-05;-0.001466102167478792
1.18118e-05;-0.0014799585539481996
1.18120e-05;-0.0014934987254509985
1.18123e-05;-0.001507095922393644
1.18125e-05;-0.001520744665517005
1.18128e-05;-0.0015343225654080354
1.18130e-05;-0.0015477071162383702
1.18133e-05;-0.0015607770983337148
1.18135e-05;-0.0015734766849626058
1.18138e-05;-0.0015859800952216054
1.18140e-05;-0.0015986409920954459
1.18143e-05;-0.0016116621205709133
1.18145e-05;-0.0016250321379934444
1.18148e-05;-0.0016386239760627045
1.18150e-05;-0.0016522397500813072
1.18153e-05;-0.0016659070834866793
1.18155e-05;-0.001679572903593882
1.18158e-05;-0.001693235463971152
1.18160e-05;-0.0017070667201948453
1.18163e-05;-0.0017212613568005253
1.18165e-05;-0.001735572092910683
1.18167e-05;-0.001750132913911071
1.18170e-05;-0.0017647028700657006
1.18173e-05;-0.0017792574765400286
1.18175e-05;-0.0017936954778613695
1.18178e-05;-0.0018080350124459108
1.18180e-05;-0.001822364582181947
1.18183e-05;-0.0018367133700350328
1.18185e-05;-0.0018510175216625696
1.18188e-05;-0.001865184572075688
1.18190e-05;-0.0018791218859016494
1.18193e-05;-0.0018927373672484372
1.18195e-05;-0.0019059547886085735
1.18198e-05;-0.0019187545508908075
1.18200e-05;-0.0019311611613707642
1.18203e-05;-0.0019431619976329753
1.18205e-05;-0.001954686160458342
1.18208e-05;-0.001965644830642421
1.18210e-05;-0.0019759491350127296
1.18213e-05;-0.0019855098597303298
1.18215e-05;-0.0019942133168216448
1.18218e-05;-0.0020018674399818327
1.18220e-05;-0.0020082417990782944
1.18223e-05;-0.0020129764983286167
1.18225e-05;-0.0020162409003679767
1.18228e-05;-0.002018153963969151
1.18230e-05;-0.0020171561682457775
1.18233e-05;-0.002016158372522397
1.18235e-05;-0.0020151605767990168
1.18238e-05;-0.0020122696449500132
1.18240e-05;-0.0020053007909547854
1.18243e-05;-0.001998331936959558
1.18245e-05;-0.0019913630829643775
1.18248e-05;-0.001982816781624816
1.18250e-05;-0.0019708725696053727
1.18252e-05;-0.0019589283575860103
1.18255e-05;-0.001945813566299663
1.18258e-05;-0.0019301772811535856
1.18260e-05;-0.001914540996007614
1.18263e-05;-0.0018978887463853632
1.18265e-05;-0.0018790480518957847
1.18268e-05;-0.0018602073574062062
1.18270e-05;-0.0018407395976390358
1.18273e-05;-0.001819921103844386
1.18275e-05;-0.0017987472064164896
1.18278e-05;-0.001776807749488117
1.18280e-05;-0.001754620702200081
1.18283e-05;-0.0017319003312927445
1.18285e-05;-0.001709088738028149
1.18288e-05;-0.0016860806466529172
1.18290e-05;-0.0016631503240444542
1.18293e-05;-0.0016403875197524662
1.18295e-05;-0.0016178618788257073
1.18298e-05;-0.0015958471011839638
1.18300e-05;-0.0015742192296162286
1.18303e-05;-0.001553424775585536
1.18305e-05;-0.0015331973839412714
1.18308e-05;-0.0015141914767075957
1.18310e-05;-0.0014957284190880206
1.18313e-05;-0.0014788566420469937
1.18315e-05;-0.0014632286180408635
1.18318e-05;-0.0014483711802890692
1.18320e-05;-0.0014333445786558316
1.18323e-05;-0.001417724785680452
1.18325e-05;-0.0014018045845451829
1.18328e-05;-0.0013852372872653481
1.18330e-05;-0.0013685645020238802
1.18333e-05;-0.001351664489754264
1.18335e-05;-0.0013346220613543493
1.18337e-05;-0.0013172728605655814
1.18340e-05;-0.0012992034712914421
1.18343e-05;-0.001279582755340516
1.18345e-05;-0.001259962039389723
1.18348e-05;-0.0012396277633229759
1.18350e-05;-0.0012177564384615537
1.18352e-05;-0.0011958851136002798
1.18355e-05;-0.0011740137887388577
1.18358e-05;-0.0011514055153063855
1.18360e-05;-0.0011272098130255363
1.18363e-05;-0.001103014110744851
1.18365e-05;-0.0010788184084640018
1.18368e-05;-0.001054130515151049
1.18370e-05;-0.001028382414553812
1.18373e-05;-0.0010025574217953502
1.18375e-05;-0.0009765667989787429
1.18378e-05;-0.0009505267263733928
1.18380e-05;-0.0009243209329486058
1.18383e-05;-0.0008979620340967819
1.18385e-05;-0.0008715738562034264
1.18388e-05;-0.0008453185076038248
1.18390e-05;-0.0008193580781789434
1.18393e-05;-0.0007938542120500847
1.18395e-05;-0.0007689474153435305
1.18398e-05;-0.0007447040028191359
1.18400e-05;-0.0007211338365035694
1.18403e-05;-0.0006982979159562395
1.18405e-05;-0.0006763352119342078
1.18408e-05;-0.0006554087058881686
1.18410e-05;-0.0006356813608135405
1.18413e-05;-0.0006173175394321988
1.18415e-05;-0.0006005570482235265
1.18418e-05;-0.0005858917851918255
1.18420e-05;-0.0005739591751973395
1.18422e-05;-0.0005651324417230002
1.18425e-05;-0.000559458862241716
1.18428e-05;-0.0005568916349511139
1.18430e-05;-0.0005573840403973998
1.18433e-05;-0.0005608901839091932
1.18435e-05;-0.0005674114438309373
1.18437e-05;-0.0005771071049561846
1.18440e-05;-0.0005902275849020817
1.18443e-05;-0.0006068577970874693
1.18445e-05;-0.0006268784020123689
1.18448e-05;-0.000650111189116839
1.18450e-05;-0.0006763779421552528
1.18453e-05;-0.0007055011390835736
1.18455e-05;-0.0007373327573491181
1.18458e-05;-0.0007718236671634496
1.18460e-05;-0.000808981908484506
1.18463e-05;-0.0008487117118432246
1.18465e-05;-0.0008907894857166501
1.18468e-05;-0.000934954811872682
1.18470e-05;-0.0009809471897304662
1.18473e-05;-0.0010285065673128419
1.18475e-05;-0.001077391422815218
1.18478e-05;-0.0011274221513687234
1.18480e-05;-0.0011784550605664177
1.18483e-05;-0.0012302814482862089
1.18485e-05;-0.0012826123724054249
1.18488e-05;-0.001335135998873498
1.18490e-05;-0.001387540445356719
1.18493e-05;-0.0014395142156770628
1.18495e-05;-0.0014907572784135232
1.18498e-05;-0.0015410084505425958
1.18500e-05;-0.0015900290614085746
1.18503e-05;-0.0016375398234882456
1.18505e-05;-0.001683211156930063
1.18507e-05;-0.001726699097053639
1.18510e-05;-0.0017676597047168072
1.18513e-05;-0.0018057494383045569
1.18515e-05;-0.0018406384127960178
1.18518e-05;-0.0018720634021471255
1.18520e-05;-0.0018998738820197635
1.18522e-05;-0.0019239957153012615
1.18525e-05;-0.0019443664211821247
1.18528e-05;-0.001960918938750628
1.18530e-05;-0.0019723147337304394
1.18533e-05;-0.0019782867621299335
1.18535e-05;-0.0019842587905294674
1.18538e-05;-0.00198706649996217
1.18540e-05;-0.0019830580876010386
1.18543e-05;-0.001976642645171883
1.18545e-05;-0.001965042324013077
1.18548e-05;-0.0019511706528938643
1.18550e-05;-0.0019324063656605116
1.18553e-05;-0.0019115085677924026
1.18555e-05;-0.0018860150675039996
1.18558e-05;-0.0018585776248701742
1.18560e-05;-0.0018269528206192782
1.18563e-05;-0.0017936483844830466
1.18565e-05;-0.0017567259263894333
1.18568e-05;-0.001718396986746354
1.18570e-05;-0.0016770384063994836
1.18573e-05;-0.001634547823588668
1.18575e-05;-0.0015896188435287463
1.18578e-05;-0.0015440276662960358
1.18580e-05;-0.001496684203085156
1.18583e-05;-0.0014484031901575217
1.18585e-05;-0.0013994687519255234
1.18588e-05;-0.001350163808844067
1.18590e-05;-0.001300771451752633
1.18592e-05;-0.0012515744903779846
1.18595e-05;-0.0012028580285343142
1.18598e-05;-0.0011549174768303563
1.18600e-05;-0.0011080653390759601
1.18603e-05;-0.0010626260618788717
1.18605e-05;-0.001018925619512888
1.18607e-05;-0.0009772894353986816
1.18610e-05;-0.0009380428108545897
1.18613e-05;-0.0009015107206985553
1.18615e-05;-0.0008679963004691773
1.18618e-05;-0.000837710245176597
1.18620e-05;-0.0008107355478918911
1.18623e-05;-0.0007871069268606886
1.18625e-05;-0.0007668817062493708
1.18628e-05;-0.0007501315183903089
1.18630e-05;-0.0007369280197572992
1.18633e-05;-0.000727342581471962
1.18635e-05;-0.0007214329847481834
1.18638e-05;-0.0007197564461289861
1.18640e-05;-0.0007217611761785001
1.18643e-05;-0.0007254065983653982
1.18645e-05;-0.0007336416527202055
1.18648e-05;-0.000745178113995193
1.18650e-05;-0.0007599286919970056
1.18653e-05;-0.0007778059062974484
1.18655e-05;-0.0007987137886303636
1.18658e-05;-0.0008225200356406399
1.18660e-05;-0.0008490422578451488
1.18663e-05;-0.0008780791814796685
1.18665e-05;-0.0009094383519646021
1.18668e-05;-0.0009429329653041204
1.18670e-05;-0.0009783761876751185
1.18673e-05;-0.0010155812236117162
1.18675e-05;-0.001054355741139798
1.18678e-05;-0.0010944849320529786
1.18680e-05;-0.0011357224420833422
1.18683e-05;-0.001177810039201161
1.18685e-05;-0.001220495292291605
1.18688e-05;-0.001263529188981868
1.18690e-05;-0.001306662643078846
1.18692e-05;-0.0013496465570170726
1.18695e-05;-0.0013922287555607298
1.18698e-05;-0.0014341425515630077
1.18700e-05;-0.001475101731125008
1.18703e-05;-0.0015148126691665452
1.18705e-05;-0.0015529854034514658
1.18708e-05;-0.00158933203888862
1.18710e-05;-0.001623153782999504
1.18713e-05;-0.0016545124036170427
1.18715e-05;-0.0016846489620699063
1.18718e-05;-0.0017115124507794024
1.18720e-05;-0.0017362558782933358
1.18723e-05;-0.0017594052978692654
1.18725e-05;-0.001781775110472986
1.18728e-05;-0.0018018847205476124
1.18730e-05;-0.001819780705941732
1.18733e-05;-0.0018356037018613588
1.18735e-05;-0.001850437720458292
1.18738e-05;-0.0018626062351891895
1.18740e-05;-0.0018731890414798108
1.18743e-05;-0.0018824216987684368
1.18745e-05;-0.0018903194993848112
1.18748e-05;-0.0018968275748026029
1.18750e-05;-0.0019016477419769545
1.18753e-05;-0.0019049317017903816
1.18755e-05;-0.0019075083976705636
1.18758e-05;-0.0019081829503346539
1.18760e-05;-0.0019077386047571308
1.18763e-05;-0.0019062175390483613
1.18765e-05;-0.0019037842259915264
1.18768e-05;-0.0019007875784298797
1.18770e-05;-0.0018965774765236979
1.18773e-05;-0.0018918188409078646
1.18775e-05;-0.0018858786326963234
1.18777e-05;-0.0018795548587404306
1.18780e-05;-0.001872404862504464
1.18783e-05;-0.0018650336663545114
1.18785e-05;-0.0018571859930948359
1.18788e-05;-0.0018491696608986313
1.18790e-05;-0.0018407900278258676
1.18793e-05;-0.001832296122279604
1.18795e-05;-0.0018235560673705233
1.18798e-05;-0.0018148502093110913
1.18800e-05;-0.001806218013197624
1.18803e-05;-0.0017977667854102964
1.18805e-05;-0.0017897053736197466
1.18808e-05;-0.0017819830513686025
1.18810e-05;-0.001774991147139724
1.18813e-05;-0.0017679992429107984
1.18815e-05;-0.0017617169796005916
1.18818e-05;-0.001756963322915265
1.18820e-05;-0.0017522096662299063
1.18823e-05;-0.0017474560095445475
1.18825e-05;-0.0017427023528592208
1.18828e-05;-0.0017389199531429888
1.18830e-05;-0.0017372296958023169
1.18833e-05;-0.0017355394384616564
1.18835e-05;-0.0017338491811209845
1.18838e-05;-0.0017321589237803126
1.18840e-05;-0.0017314314784662728
1.18843e-05;-0.0017327779846446536
1.18845e-05;-0.0017341244908230344
1.18848e-05;-0.0017354709970014062
1.18850e-05;-0.0017368175031797872
1.18853e-05;-0.001738991510374515
1.18855e-05;-0.001742948001502104
1.18858e-05;-0.0017469044926297194
1.18860e-05;-0.001750860983757335
1.18862e-05;-0.0017548174748849238
1.18865e-05;-0.0017592328829373052
1.18868e-05;-0.0017646368239688506
1.18870e-05;-0.0017702415722975528
1.18873e-05;-0.0017762788708874566
1.18875e-05;-0.0017824407028512812
1.18878e-05;-0.0017889365229370937
1.18880e-05;-0.0017956250624644257
1.18883e-05;-0.0018024610329796253
1.18885e-05;-0.0018094013011591347
1.18888e-05;-0.0018164036820605104
1.18890e-05;-0.0018234260021138134
1.18893e-05;-0.0018304258804556707
1.18895e-05;-0.0018373603627258336
1.18898e-05;-0.0018441832690522689
1.18900e-05;-0.0018508446487830559
1.18903e-05;-0.001857293611363971
1.18905e-05;-0.0018634803877982445
1.18908e-05;-0.0018693560098312374
1.18910e-05;-0.0018748714240165304
1.18913e-05;-0.00187997651789848
1.18915e-05;-0.001884558466322441
1.18918e-05;-0.0018882909286759635
1.18920e-05;-0.0018907073834436743
1.18923e-05;-0.0018915312040004451
1.18925e-05;-0.0018904975408608577
1.18928e-05;-0.0018878634695815317
1.18930e-05;-0.0018842934786930748
1.18933e-05;-0.0018787074640982111
1.18935e-05;-0.0018721475497988378
