Time(s);Current(A)
1.25000e-06;0.01576991935375807
1.25025e-06;0.015724067907643018
1.25050e-06;0.01567750530378999
1.25075e-06;0.015621054582913534
1.25100e-06;0.015564403934767802
1.25125e-06;0.015504973447313865
1.25150e-06;0.015445434294905656
1.25175e-06;0.01538438423749441
1.25200e-06;0.015323315590190234
1.25225e-06;0.01526198846431304
1.25250e-06;0.015200733417231042
1.25275e-06;0.01514048057194372
1.25300e-06;0.015080398753671785
1.25325e-06;0.015022694938271184
1.25350e-06;0.01496526681567
1.25375e-06;0.014911671995468603
1.25400e-06;0.014858572759943666
1.25425e-06;0.014812364259081506
1.25450e-06;0.014766155758219384
1.25475e-06;0.01472104514415185
1.25500e-06;0.014691199825705293
1.25525e-06;0.01466135450725871
1.25550e-06;0.014631509188812154
1.25575e-06;0.014601663870365598
1.25600e-06;0.014571818551919016
1.25625e-06;0.014543514226248505
1.25650e-06;0.014536636253814534
1.25675e-06;0.01452975828138057
1.25700e-06;0.014522880308946605
1.25725e-06;0.014516002336512636
1.25750e-06;0.01450912436407867
1.25775e-06;0.014503907303780232
1.25800e-06;0.014521783985816295
1.25825e-06;0.01453966066785236
1.25850e-06;0.014557537349888438
1.25875e-06;0.014575414031924503
1.25900e-06;0.014593290713960582
1.25925e-06;0.014611167395996646
1.25950e-06;0.014629044078032725
1.25975e-06;0.01464692076006879
1.26000e-06;0.01467515188317114
1.26025e-06;0.01471128730863361
1.26050e-06;0.014747422734096051
1.26075e-06;0.014783558159558521
1.26100e-06;0.014819693585020962
1.26125e-06;0.014855829010483403
1.26150e-06;0.014891964435945874
1.26175e-06;0.014928099861408315
1.26200e-06;0.014964483602997444
1.26225e-06;0.015004319994804047
1.26250e-06;0.01504415638661065
1.26275e-06;0.015083868824968365
1.26300e-06;0.015121857783227787
1.26325e-06;0.015159846741487243
1.26350e-06;0.015197036251032196
1.26375e-06;0.01522311002349244
1.26400e-06;0.015249183795952663
1.26425e-06;0.015275257568412885
1.26450e-06;0.015301331340873128
1.26475e-06;0.01532740511333335
1.26500e-06;0.015353478885793595
1.26525e-06;0.015379552658253817
1.26550e-06;0.01540562643071404
1.26575e-06;0.015431700203174284
1.26600e-06;0.015456628682008885
1.26625e-06;0.015465632708660275
1.26650e-06;0.015474636735311657
1.26675e-06;0.01548364076196304
1.26700e-06;0.01549264478861443
1.26725e-06;0.015501648815265813
1.26750e-06;0.015510652841917202
1.26775e-06;0.015519656868568585
1.26800e-06;0.015528660895219976
1.26825e-06;0.015537664921871358
1.26850e-06;0.0155458668933414
1.26875e-06;0.015542916886753457
1.26900e-06;0.01553996688016552
1.26925e-06;0.015537016873577577
1.26950e-06;0.015534066866989639
1.26975e-06;0.0155311168604017
1.27000e-06;0.015528166853813759
1.27025e-06;0.01552521684722582
1.27050e-06;0.015522266840637879
1.27075e-06;0.01551931683404994
1.27100e-06;0.015516366827462
1.27125e-06;0.01551308107803361
1.27150e-06;0.015505127075252263
1.27175e-06;0.015497173072470909
1.27200e-06;0.015489219069689562
1.27225e-06;0.015481265066908213
1.27250e-06;0.015473311064126858
1.27275e-06;0.015465357061345511
1.27300e-06;0.015457403058564157
1.27325e-06;0.015449449055782808
1.27350e-06;0.015441495053001453
1.27375e-06;0.015433541050220106
1.27400e-06;0.015425611513953384
1.27425e-06;0.015418232776441844
1.27450e-06;0.015413782415698943
1.27475e-06;0.015409332054956041
1.27500e-06;0.015404881694213142
1.27525e-06;0.015400431333470242
1.27550e-06;0.01539598097272734
1.27575e-06;0.015391530611984441
1.27600e-06;0.015387080251241537
1.27625e-06;0.015382629890498638
1.27650e-06;0.01537817952975574
1.27675e-06;0.015373729169012838
1.27700e-06;0.015369278808269937
1.27725e-06;0.015364828447527035
1.27750e-06;0.015360786103090955
1.27775e-06;0.015362416920559308
1.27800e-06;0.015364047738027657
1.27825e-06;0.015365678555496006
1.27850e-06;0.015367309372964358
1.27875e-06;0.015368940190432707
1.27900e-06;0.015370571007901058
1.27925e-06;0.015372201825369409
1.27950e-06;0.015373832642837757
1.27975e-06;0.01537546346030611
1.28000e-06;0.015377094277774459
1.28025e-06;0.01537872509524281
1.28050e-06;0.01538035591271116
1.28075e-06;0.015382157585756258
1.28100e-06;0.01538633487794427
1.28125e-06;0.015390512170132278
1.28150e-06;0.01539468946232029
1.28175e-06;0.015398866754508298
1.28200e-06;0.015403044046696311
1.28225e-06;0.015407221338884319
1.28250e-06;0.015411398631072328
1.28275e-06;0.015415122560740235
1.28300e-06;0.015418500405630194
1.28325e-06;0.015421878250520157
1.28350e-06;0.015425256095410114
1.28375e-06;0.015428633940300073
1.28400e-06;0.015432011785190035
1.28425e-06;0.015435389630079994
1.28450e-06;0.015438573352746166
1.28475e-06;0.015439057950925823
1.28500e-06;0.015439542549105482
1.28525e-06;0.015439310236733865
1.28550e-06;0.015429109818775091
1.28575e-06;0.015418909400816309
1.28600e-06;0.015408708982857535
1.28625e-06;0.015398508564898753
1.28650e-06;0.015388308146939979
1.28675e-06;0.015378107728981205
1.28700e-06;0.015358676009625878
1.28725e-06;0.015332197362586394
1.28750e-06;0.015305718715546885
1.28775e-06;0.0152792400685074
1.28800e-06;0.015252761421467916
1.28825e-06;0.015226282774428408
1.28850e-06;0.015198729380423926
1.28875e-06;0.015156232432852254
1.28900e-06;0.01511373548528062
1.28925e-06;0.015071238537708984
1.28950e-06;0.015028741590137312
1.28975e-06;0.014986244642565677
1.29000e-06;0.014943747694994005
1.29025e-06;0.01490125074742237
1.29050e-06;0.01485816978820805
1.29075e-06;0.014806968583438737
1.29100e-06;0.014755767378669423
1.29125e-06;0.014704566173900067
1.29150e-06;0.014653364969130753
1.29175e-06;0.014602163764361397
1.29200e-06;0.014550962559592083
1.29225e-06;0.01449976135482277
1.29250e-06;0.014448671848232616
1.29275e-06;0.014399135421370534
1.29300e-06;0.014349598994508411
1.29325e-06;0.014300349903863595
1.29350e-06;0.014255096008640455
1.29375e-06;0.014209842113417276
1.29400e-06;0.01416548802369141
1.29425e-06;0.014133645057127385
1.29450e-06;0.014101802090563385
1.29475e-06;0.014069959123999358
1.29500e-06;0.014038116157435358
1.29525e-06;0.014006273190871358
1.29550e-06;0.013974430224307333
1.29575e-06;0.013942587257743333
1.29600e-06;0.013912066243465299
1.29625e-06;0.013899925988043899
1.29650e-06;0.013887785732622499
1.29675e-06;0.013875645477201088
1.29700e-06;0.013863505221779688
1.29725e-06;0.013851364966358278
1.29750e-06;0.013839224710936878
1.29775e-06;0.013827084455515478
1.29800e-06;0.013816325194817585
1.29825e-06;0.013824767633956474
1.29850e-06;0.01383321007309537
1.29875e-06;0.01384165251223426
1.29900e-06;0.013850094951373156
1.29925e-06;0.013858537390512045
1.29950e-06;0.013866979829650935
1.29975e-06;0.01387542226878983
1.30000e-06;0.01388386470792872
1.30025e-06;0.013892307147067616
1.30050e-06;0.013900749586206506
1.30075e-06;0.013909192025345395
1.30100e-06;0.013917634464484293
1.30125e-06;0.013926076903623182
1.30150e-06;0.013934950940714886
1.30175e-06;0.013949826024876644
1.30200e-06;0.013964701109038403
1.30225e-06;0.013979576193200175
1.30250e-06;0.013994451277361934
1.30275e-06;0.014009326361523704
1.30300e-06;0.014024201445685463
1.30325e-06;0.014039076529847233
1.30350e-06;0.014053951614008992
1.30375e-06;0.01406882669817075
1.30400e-06;0.014083701782332522
1.30425e-06;0.01409857686649428
1.30450e-06;0.014113451950656051
1.30475e-06;0.01412832703481781
1.30500e-06;0.014142288634727143
1.30525e-06;0.014143548918607262
1.30550e-06;0.014144809202487379
1.30575e-06;0.014146069486367497
1.30600e-06;0.014147329770247614
1.30625e-06;0.014148590054127733
1.30650e-06;0.014149850338007851
1.30675e-06;0.014151110621887968
1.30700e-06;0.014152370905768086
1.30725e-06;0.014153631189648205
1.30750e-06;0.014154891473528323
1.30775e-06;0.01415615175740844
1.30800e-06;0.014157412041288557
1.30825e-06;0.014158672325168676
1.30850e-06;0.014159932609048794
1.30875e-06;0.014161192892928913
1.30900e-06;0.01416245317680903
1.30925e-06;0.014163713460689146
1.30950e-06;0.014164973744569265
1.30975e-06;0.014166234028449383
1.31000e-06;0.014167494312329502
1.31025e-06;0.014164291279143513
1.31050e-06;0.014157681069521479
1.31075e-06;0.014151070859899438
1.31100e-06;0.014144460650277404
1.31125e-06;0.014137850440655363
1.31150e-06;0.01413124023103333
1.31175e-06;0.014124630021411295
1.31200e-06;0.014118019811789255
1.31225e-06;0.01411140960216722
1.31250e-06;0.014104799392545182
1.31275e-06;0.014098189182923148
1.31300e-06;0.014091578973301107
1.31325e-06;0.014084968763679073
1.31350e-06;0.014078358554057039
1.31375e-06;0.014071748344434998
1.31400e-06;0.014065138134812964
1.31425e-06;0.014058527925190923
1.31450e-06;0.01405191771556889
1.31475e-06;0.014045307505946856
1.31500e-06;0.014038697296324815
1.31525e-06;0.014032108251942219
1.31550e-06;0.01402581349440053
1.31575e-06;0.014019518736858848
1.31600e-06;0.014013223979317164
1.31625e-06;0.014006929221775476
1.31650e-06;0.014000634464233793
1.31675e-06;0.013994339706692104
1.31700e-06;0.013988044949150421
1.31725e-06;0.013981750191608733
1.31750e-06;0.013975455434067051
1.31775e-06;0.013969160676525368
1.31800e-06;0.013962865918983679
1.31825e-06;0.013956571161441996
1.31850e-06;0.013950276403900308
1.31875e-06;0.013943981646358624
1.31900e-06;0.013937686888816941
1.31925e-06;0.013931392131275254
1.31950e-06;0.013925097373733571
1.31975e-06;0.013918777801895856
1.32000e-06;0.013912113205811764
1.32025e-06;0.013905448609727672
1.32050e-06;0.013898784013643575
1.32075e-06;0.013892119417559485
1.32100e-06;0.013885454821475386
1.32125e-06;0.013878790225391296
1.32150e-06;0.0138721256293072
1.32175e-06;0.013865461033223107
1.32200e-06;0.013858796437139016
1.32225e-06;0.013852131841054919
1.32250e-06;0.013845467244970827
1.32275e-06;0.01383880264888673
1.32300e-06;0.013832138052802638
1.32325e-06;0.013825473456718548
1.32350e-06;0.013818808860634451
1.32375e-06;0.01381214426455036
1.32400e-06;0.013805479668466262
1.32425e-06;0.013799063149383924
1.32450e-06;0.013796095955661199
1.32475e-06;0.013793128761938472
1.32500e-06;0.013790161568215747
1.32525e-06;0.013787194374493019
1.32550e-06;0.013784227180770294
1.32575e-06;0.013781259987047568
1.32600e-06;0.013778292793324843
1.32625e-06;0.013775325599602118
1.32650e-06;0.01377235840587939
1.32675e-06;0.013769391212156664
1.32700e-06;0.013770652876903395
1.32725e-06;0.013775142738686923
1.32750e-06;0.01377963260047045
1.32775e-06;0.013784122462253981
1.32800e-06;0.013788612324037507
1.32825e-06;0.013793102185821039
1.32850e-06;0.013797592047604565
1.32875e-06;0.013802081909388092
1.32900e-06;0.013806571771171623
1.32925e-06;0.01381106163295515
1.32950e-06;0.013815916963554917
1.32975e-06;0.013825853864985206
1.33000e-06;0.013835790766415505
1.33025e-06;0.013845727667845793
1.33050e-06;0.013855664569276081
1.33075e-06;0.013865601470706378
1.33100e-06;0.013875538372136668
1.33125e-06;0.013885475273566966
1.33150e-06;0.013895412174997254
1.33175e-06;0.013905349076427544
1.33200e-06;0.013915285977857841
1.33225e-06;0.01392522287928813
1.33250e-06;0.013935011905149296
1.33275e-06;0.013942744831706759
1.33300e-06;0.01395047775826422
1.33325e-06;0.013958210684821688
1.33350e-06;0.01396594361137915
1.33375e-06;0.013973676537936618
1.33400e-06;0.013981409464494079
1.33425e-06;0.013989142391051547
1.33450e-06;0.013996875317609007
1.33475e-06;0.01400460824416647
1.33500e-06;0.014012341170723938
1.33525e-06;0.014020074097281399
1.33550e-06;0.014027287726427912
1.33575e-06;0.014027280913068025
1.33600e-06;0.014027274099708137
1.33625e-06;0.014027267286348248
1.33650e-06;0.01402726047298836
1.33675e-06;0.014027253659628473
1.33700e-06;0.014027246846268585
1.33725e-06;0.014027240032908696
1.33750e-06;0.01402723321954881
1.33775e-06;0.014027226406188921
1.33800e-06;0.014027219592829033
1.33825e-06;0.014027212779469144
1.33850e-06;0.014027205966109258
1.33875e-06;0.01402719915274937
1.33900e-06;0.014027192339389481
1.33925e-06;0.014027185526029592
1.33950e-06;0.014027178712669706
1.33975e-06;0.014027171899309817
1.34000e-06;0.014027165085949929
1.34025e-06;0.01402688089592892
1.34050e-06;0.014022739990677288
1.34075e-06;0.01401859908542566
1.34100e-06;0.014014458180174027
1.34125e-06;0.014010317274922399
1.34150e-06;0.014006176369670772
1.34175e-06;0.01400203546441914
1.34200e-06;0.013997894559167511
1.34225e-06;0.01399375365391588
1.34250e-06;0.01398961274866425
1.34275e-06;0.013985471843412619
1.34300e-06;0.01398133093816099
1.34325e-06;0.013977190032909361
1.34350e-06;0.01397304912765773
1.34375e-06;0.0139689082224061
1.34400e-06;0.013964767317154469
1.34425e-06;0.01396062641190284
1.34450e-06;0.013956485506651212
1.34475e-06;0.01395234460139958
1.34500e-06;0.0139480518949527
1.34525e-06;0.013941648506304498
1.34550e-06;0.0139352451176563
1.34575e-06;0.013928841729008103
1.34600e-06;0.0139224383403599
1.34625e-06;0.013916034951711702
1.34650e-06;0.013909631563063499
1.34675e-06;0.013903228174415302
1.34700e-06;0.013896824785767104
1.34725e-06;0.013890421397118902
1.34750e-06;0.013884018008470705
1.34775e-06;0.013877614619822502
1.34800e-06;0.013871211231174305
1.34825e-06;0.0138648078425261
1.34850e-06;0.013858404453877904
1.34875e-06;0.013849839809445309
1.34900e-06;0.01383962532036349
1.34925e-06;0.01382941083128168
1.34950e-06;0.01381919634219986
1.34975e-06;0.01380898185311805
1.35000e-06;0.013798767364036239
1.35025e-06;0.01378855287495442
1.35050e-06;0.01377833838587261
1.35075e-06;0.01376812389679079
1.35100e-06;0.01375790940770898
1.35125e-06;0.013747694918627169
1.35150e-06;0.01373748042954535
1.35175e-06;0.01372726594046354
1.35200e-06;0.01371705145138172
1.35225e-06;0.013706908008443075
1.35250e-06;0.013697752409042665
1.35275e-06;0.013688596809642264
1.35300e-06;0.013679441210241863
1.35325e-06;0.013670285610841455
1.35350e-06;0.013661130011441053
1.35375e-06;0.013651974412040645
1.35400e-06;0.013642818812640244
1.35425e-06;0.013633663213239843
1.35450e-06;0.013624507613839433
1.35475e-06;0.013615352014439032
1.35500e-06;0.013606196415038624
1.35525e-06;0.013597586681550188
1.35550e-06;0.013596566805720769
1.35575e-06;0.01359554692989135
1.35600e-06;0.01359452705406193
1.35625e-06;0.013593507178232512
1.35650e-06;0.013592487302403092
1.35675e-06;0.013591467426573673
1.35700e-06;0.013590447550744256
1.35725e-06;0.013589427674914837
1.35750e-06;0.013588407799085418
1.35775e-06;0.013587387923255999
1.35800e-06;0.01358636804742658
1.35825e-06;0.01358598407736962
1.35850e-06;0.013594441901957442
1.35875e-06;0.013602899726545272
1.35900e-06;0.013611357551133093
1.35925e-06;0.013619815375720924
1.35950e-06;0.013628273200308745
1.35975e-06;0.013636731024896568
1.36000e-06;0.013645188849484397
1.36025e-06;0.01365364667407222
1.36050e-06;0.013662104498660049
1.36075e-06;0.01367056232324787
1.36100e-06;0.0136790201478357
1.36125e-06;0.013687477972423522
1.36150e-06;0.013696901759167601
1.36175e-06;0.0137070629354915
1.36200e-06;0.01371722411181539
1.36225e-06;0.01372738528813929
1.36250e-06;0.01373754646446318
1.36275e-06;0.01374770764078707
1.36300e-06;0.013757868817110969
1.36325e-06;0.01376802999343486
1.36350e-06;0.013778191169758758
1.36375e-06;0.013788352346082649
1.36400e-06;0.013798513522406538
1.36425e-06;0.013808674698730438
1.36450e-06;0.013818748646485579
1.36475e-06;0.013827609746165852
1.36500e-06;0.013836470845846117
1.36525e-06;0.01384533194552639
1.36550e-06;0.013854193045206655
1.36575e-06;0.013863054144886922
1.36600e-06;0.013871915244567193
1.36625e-06;0.01388077634424746
1.36650e-06;0.013894265009111376
1.36675e-06;0.013911286233014079
1.36700e-06;0.01392830745691678
1.36725e-06;0.013945328680819494
1.36750e-06;0.013962349904722197
1.36775e-06;0.013979371128624912
1.36800e-06;0.013996392352527613
1.36825e-06;0.014014116485138462
1.36850e-06;0.014041614038151073
1.36875e-06;0.014069111591163662
1.36900e-06;0.014096609144176273
1.36925e-06;0.014124106697188861
1.36950e-06;0.014151604250201472
1.36975e-06;0.01417910180321406
1.37000e-06;0.014206599356226647
1.37025e-06;0.014234096909239258
1.37050e-06;0.014261594462251847
1.37075e-06;0.014289092015264458
1.37100e-06;0.014316764884175787
1.37125e-06;0.014346875389669993
1.37150e-06;0.014376985895164222
1.37175e-06;0.014407096400658426
1.37200e-06;0.014437206906152657
1.37225e-06;0.014467317411646861
1.37250e-06;0.014497427917141066
1.37275e-06;0.014527538422635296
1.37300e-06;0.0145576489281295
1.37325e-06;0.01458775943362373
1.37350e-06;0.014617869939117935
1.37375e-06;0.014647170423042128
1.37400e-06;0.01466520816225196
1.37425e-06;0.01468324590146179
1.37450e-06;0.014701283640671636
1.37475e-06;0.014719321379881467
1.37500e-06;0.014737359119091313
1.37525e-06;0.014755396858301144
1.37550e-06;0.014773434597510975
1.37575e-06;0.01479012719393163
1.37600e-06;0.014788116584908357
1.37625e-06;0.014786105975885084
1.37650e-06;0.01478409536686181
1.37675e-06;0.014782084757838538
1.37700e-06;0.014780074148815263
1.37725e-06;0.01477806353979199
1.37750e-06;0.014776052930768715
1.37775e-06;0.01477255305446879
1.37800e-06;0.014748346029411974
1.37825e-06;0.01472413900435518
1.37850e-06;0.014699931979298385
1.37875e-06;0.014675724954241569
1.37900e-06;0.014651517929184775
1.37925e-06;0.01462731090412796
1.37950e-06;0.014603103879071166
1.37975e-06;0.01457889685401437
1.38000e-06;0.014554689828957556
1.38025e-06;0.014530482803900761
1.38050e-06;0.014499236869498076
1.38075e-06;0.01446261762065375
1.38100e-06;0.014425998371809422
1.38125e-06;0.014389379122965064
1.38150e-06;0.014352759874120737
1.38175e-06;0.01431614062527638
1.38200e-06;0.014279521376432054
1.38225e-06;0.014242902127587696
1.38250e-06;0.014206282878743369
1.38275e-06;0.014169663629899042
1.38300e-06;0.014133236484054956
1.38325e-06;0.014099480386897163
1.38350e-06;0.014065724289739342
1.38375e-06;0.014031968192581548
1.38400e-06;0.013998212095423755
1.38425e-06;0.013968427438920147
1.38450e-06;0.013941674473602313
1.38475e-06;0.013914921508284456
1.38500e-06;0.01388816854296662
1.38525e-06;0.013861569750195448
1.38550e-06;0.013837114611493251
1.38575e-06;0.013812659472791075
1.38600e-06;0.01378820433408888
1.38625e-06;0.013763749195386704
1.38650e-06;0.01373929405668453
1.38675e-06;0.013714838917982333
1.38700e-06;0.013690383779280156
1.38725e-06;0.013664932761487565
1.38750e-06;0.01363876215798778
1.38775e-06;0.013612591554487971
1.38800e-06;0.013586420950988186
1.38825e-06;0.0135602503474884
1.38850e-06;0.013534079743988592
1.38875e-06;0.013507909140488807
1.38900e-06;0.013481507220084801
1.38925e-06;0.01345287489284789
1.38950e-06;0.013424242565610976
1.38975e-06;0.01339561023837404
1.39000e-06;0.013366977911137128
1.39025e-06;0.01333834558390019
1.39050e-06;0.013309713256663278
1.39075e-06;0.013281080929426366
1.39100e-06;0.013252448602189429
1.39125e-06;0.013223816274952517
1.39150e-06;0.01319518394771558
1.39175e-06;0.013166867594909204
1.39200e-06;0.013141597934826452
1.39225e-06;0.013116328274743723
1.39250e-06;0.013091058614660991
1.39275e-06;0.01306578895457824
1.39300e-06;0.01304051929449551
1.39325e-06;0.013015249634412758
1.39350e-06;0.012989979974330027
1.39375e-06;0.012964710314247297
1.39400e-06;0.012939440654164545
1.39425e-06;0.012914170994081814
1.39450e-06;0.012890174697946701
1.39475e-06;0.012878456448066924
1.39500e-06;0.012866738198187146
1.39525e-06;0.012855019948307359
1.39550e-06;0.012843301698427581
1.39575e-06;0.012831583448547793
1.39600e-06;0.012819865198668016
1.39625e-06;0.01280814694878823
1.39650e-06;0.012798154153433997
1.39675e-06;0.01280479855792727
1.39700e-06;0.012811442962420547
1.39725e-06;0.01281808736691382
1.39750e-06;0.012824731771407097
1.39775e-06;0.01283137617590037
1.39800e-06;0.012838020580393641
1.39825e-06;0.01284466498488692
1.39850e-06;0.012853043190373909
1.39875e-06;0.012878139074130806
1.39900e-06;0.012903234957887682
1.39925e-06;0.012928330841644558
1.39950e-06;0.012953426725401455
1.39975e-06;0.01297852260915833
1.40000e-06;0.013003618492915228
1.40025e-06;0.013028714376672103
1.40050e-06;0.013053810260429002
1.40075e-06;0.013078906144185878
1.40100e-06;0.013104002027942754
1.40125e-06;0.01312909791169965
1.40150e-06;0.013154534399907148
1.40175e-06;0.013183255068734665
1.40200e-06;0.01321197573756216
1.40225e-06;0.013240696406389654
