Time(s);Current(A)
4.75000e-06;0.008994654884188285
4.75025e-06;0.008978754387262656
4.75050e-06;0.008962853890336976
4.75075e-06;0.008946953393411347
4.75100e-06;0.008931052896485719
4.75125e-06;0.008915152399560037
4.75150e-06;0.008899251902634409
4.75175e-06;0.008883351405708726
4.75200e-06;0.0088674509087831
4.75225e-06;0.008851550411857471
4.75250e-06;0.00883564991493179
4.75275e-06;0.008819749418006161
4.75300e-06;0.008816322458410542
4.75325e-06;0.008817343507262921
4.75350e-06;0.008818364556115297
4.75375e-06;0.008819385604967672
4.75400e-06;0.008820406653820051
4.75425e-06;0.008821427702672427
4.75450e-06;0.008822448751524803
4.75475e-06;0.008823469800377182
4.75500e-06;0.008824490849229557
4.75525e-06;0.008825511898081931
4.75550e-06;0.00882653294693431
4.75575e-06;0.008827553995786686
4.75600e-06;0.008828575044639065
4.75625e-06;0.00882959609349144
4.75650e-06;0.008830617142343816
4.75675e-06;0.008831638191196195
4.75700e-06;0.008832659240048571
4.75725e-06;0.00883337158494246
4.75750e-06;0.008833090850886377
4.75775e-06;0.008832810116830295
4.75800e-06;0.008832529382774214
4.75825e-06;0.008832248648718132
4.75850e-06;0.00883196791466205
4.75875e-06;0.008831687180605969
4.75900e-06;0.008831406446549886
4.75925e-06;0.008831125712493806
4.75950e-06;0.008830844978437724
4.75975e-06;0.00883056424438164
4.76000e-06;0.008830283510325559
4.76025e-06;0.008830002776269478
4.76050e-06;0.008829722042213396
4.76075e-06;0.008829441308157314
4.76100e-06;0.008829160574101231
4.76125e-06;0.00882887984004515
4.76150e-06;0.008828599105989068
4.76175e-06;0.008828318371932986
4.76200e-06;0.008828037637876904
4.76225e-06;0.008822882474689412
4.76250e-06;0.008815989111552876
4.76275e-06;0.008809095748416365
4.76300e-06;0.008802202385279852
4.76325e-06;0.008795309022143316
4.76350e-06;0.008788415659006805
4.76375e-06;0.008781522295870292
4.76400e-06;0.008774628932733756
4.76425e-06;0.008767735569597245
4.76450e-06;0.00876084220646071
4.76475e-06;0.008753948843324196
4.76500e-06;0.008747055480187685
4.76525e-06;0.00874016211705115
4.76550e-06;0.008733268753914636
4.76575e-06;0.008726375390778125
4.76600e-06;0.00871948202764159
4.76625e-06;0.008712588664505076
4.76650e-06;0.008705695301368565
4.76675e-06;0.00869880193823203
4.76700e-06;0.00869215481371004
4.76725e-06;0.008686299821514077
4.76750e-06;0.008680444829318092
4.76775e-06;0.008674589837122128
4.76800e-06;0.008668734844926165
4.76825e-06;0.008662879852730182
4.76850e-06;0.008657024860534218
4.76875e-06;0.008651169868338233
4.76900e-06;0.008649556058830738
4.76925e-06;0.008661585836111724
4.76950e-06;0.008673615613392752
4.76975e-06;0.008685645390673739
4.77000e-06;0.008697675167954725
4.77025e-06;0.008709704945235751
4.77050e-06;0.008721734722516737
4.77075e-06;0.008733764499797724
4.77100e-06;0.008753545988180182
4.77125e-06;0.008798264186658404
4.77150e-06;0.008842982385136627
4.77175e-06;0.008887700583614998
4.77200e-06;0.008932418782093221
4.77225e-06;0.008977136980571444
4.77250e-06;0.009021855179049817
4.77275e-06;0.009066573377528038
4.77300e-06;0.009111291576006411
4.77325e-06;0.009156009774484634
4.77350e-06;0.009206310634759964
4.77375e-06;0.009274570525882774
4.77400e-06;0.009342830417005354
4.77425e-06;0.009411090308127933
4.77450e-06;0.009479350199250744
4.77475e-06;0.009547610090373323
4.77500e-06;0.009615869981495903
4.77525e-06;0.009684129872618713
4.77550e-06;0.009752389763741293
4.77575e-06;0.009820649654863872
4.77600e-06;0.009887989114150536
4.77625e-06;0.009952367608876031
4.77650e-06;0.010016746103601527
4.77675e-06;0.010081124598327239
4.77700e-06;0.010145503093052734
4.77725e-06;0.010209881587778448
4.77750e-06;0.010274260082503943
4.77775e-06;0.010338638577229437
4.77800e-06;0.01040301707195515
4.77825e-06;0.010443946976684732
4.77850e-06;0.01047651521755168
4.77875e-06;0.01050908345841874
4.77900e-06;0.010541651699285687
4.77925e-06;0.010574219940152636
4.77950e-06;0.010606788181019693
4.77975e-06;0.010639356421886641
4.78000e-06;0.01067192466275359
4.78025e-06;0.01069319159063733
4.78050e-06;0.0106781029885211
4.78075e-06;0.010663014386404868
4.78100e-06;0.010647925784288586
4.78125e-06;0.010632837182172356
4.78150e-06;0.010617748580056124
4.78175e-06;0.010602659977939844
4.78200e-06;0.010587571375823612
4.78225e-06;0.01057248277370733
4.78250e-06;0.0105573941715911
4.78275e-06;0.010513145323188726
4.78300e-06;0.01045849805946084
4.78325e-06;0.01040385079573314
4.78350e-06;0.010349203532005441
4.78375e-06;0.010294556268277556
4.78400e-06;0.010239909004549855
4.78425e-06;0.010185261740822156
4.78450e-06;0.010130614477094272
4.78475e-06;0.01007596721336657
4.78500e-06;0.010018018544052916
4.78525e-06;0.009949449484879401
4.78550e-06;0.00988088042570612
4.78575e-06;0.009812311366532838
4.78600e-06;0.009743742307359323
4.78625e-06;0.009675173248186042
4.78650e-06;0.009606604189012529
4.78675e-06;0.009538035129839247
4.78700e-06;0.009478112583761734
4.78725e-06;0.009421273346151055
4.78750e-06;0.009364434108540568
4.78775e-06;0.009307594870930082
4.78800e-06;0.009250755633319403
4.78825e-06;0.009193916395708917
4.78850e-06;0.00913707715809843
4.78875e-06;0.009087988965287895
4.78900e-06;0.00906383533911724
4.78925e-06;0.009039681712946586
4.78950e-06;0.00901552808677585
4.78975e-06;0.008991374460605196
4.79000e-06;0.00896722083443454
4.79025e-06;0.008943067208263804
4.79050e-06;0.00891891358209315
4.79075e-06;0.008894759955922414
4.79100e-06;0.008870606329751759
4.79125e-06;0.008846452703581104
4.79150e-06;0.008822299077410369
4.79175e-06;0.008798145451239714
4.79200e-06;0.00877399182506906
4.79225e-06;0.008749838198898323
4.79250e-06;0.008746708298744075
4.79275e-06;0.008751075366640161
4.79300e-06;0.008755442434536262
4.79325e-06;0.008759809502432348
4.79350e-06;0.008764176570328434
4.79375e-06;0.008768543638224536
4.79400e-06;0.00877291070612062
4.79425e-06;0.008777277774016707
4.79450e-06;0.008781644841912808
4.79475e-06;0.008786011909808895
4.79500e-06;0.008790378977704995
4.79525e-06;0.008794746045601081
4.79550e-06;0.008799113113497167
4.79575e-06;0.008803480181393267
4.79600e-06;0.008809225108737375
4.79625e-06;0.008819402513135384
4.79650e-06;0.008829579917533427
4.79675e-06;0.008839757321931435
4.79700e-06;0.008849934726329443
4.79725e-06;0.008860112130727486
4.79750e-06;0.008870289535125494
4.79775e-06;0.008880466939523502
4.79800e-06;0.008890644343921545
4.79825e-06;0.008900821748319554
4.79850e-06;0.008910999152717562
4.79875e-06;0.008918409772828973
4.79900e-06;0.008924833769856507
4.79925e-06;0.008931257766884063
4.79950e-06;0.008937681763911597
4.79975e-06;0.008944105760939132
4.80000e-06;0.008950529757966688
4.80025e-06;0.008956953754994222
4.80050e-06;0.008963377752021757
4.80075e-06;0.008969801749049313
4.80100e-06;0.008976225746076847
4.80125e-06;0.008982520956153846
4.80150e-06;0.008988401867657935
4.80175e-06;0.008994282779162003
4.80200e-06;0.009000163690666071
4.80225e-06;0.009006044602170159
4.80250e-06;0.009011925513674227
4.80275e-06;0.009017806425178295
4.80300e-06;0.009023687336682382
4.80325e-06;0.00902956824818645
4.80350e-06;0.009035449159690538
4.80375e-06;0.009041330071194606
4.80400e-06;0.009047210982698674
4.80425e-06;0.009053091894202763
4.80450e-06;0.009058972805706831
4.80475e-06;0.0090648537172109
4.80500e-06;0.009070734628714987
4.80525e-06;0.009075384198914849
4.80550e-06;0.009079594678232022
4.80575e-06;0.00908380515754921
4.80600e-06;0.009088015636866382
4.80625e-06;0.009092226116183556
4.80650e-06;0.009096436595500744
4.80675e-06;0.009100647074817917
4.80700e-06;0.009104857554135091
4.80725e-06;0.009109068033452279
4.80750e-06;0.00911327851276945
4.80775e-06;0.009117488992086639
4.80800e-06;0.009121699471403812
4.80825e-06;0.009125909950720986
4.80850e-06;0.009130120430038174
4.80875e-06;0.009134330909355347
4.80900e-06;0.009135766272975363
4.80925e-06;0.009128274284343941
4.80950e-06;0.009120782295712547
4.80975e-06;0.009113290307081152
4.81000e-06;0.00910579831844973
4.81025e-06;0.009098306329818336
4.81050e-06;0.00909081434118694
4.81075e-06;0.009083322352555519
4.81100e-06;0.009075830363924125
4.81125e-06;0.00906833837529273
4.81150e-06;0.009060846386661308
4.81175e-06;0.009053354398029914
4.81200e-06;0.009045862409398493
4.81225e-06;0.00903502928508327
4.81250e-06;0.0090134479619823
4.81275e-06;0.008991866638881256
4.81300e-06;0.008970285315780285
4.81325e-06;0.008948703992679316
4.81350e-06;0.008927122669578272
4.81375e-06;0.008905541346477301
4.81400e-06;0.008883960023376332
4.81425e-06;0.008862378700275288
4.81450e-06;0.008840797377174317
4.81475e-06;0.008819216054073348
4.81500e-06;0.008797634730972304
4.81525e-06;0.008776053407871333
4.81550e-06;0.008754130181804407
4.81575e-06;0.008731107077914115
4.81600e-06;0.0087080839740239
4.81625e-06;0.008685060870133607
4.81650e-06;0.00866203776624339
4.81675e-06;0.008639014662353176
4.81700e-06;0.008615991558462884
4.81725e-06;0.008592968454572669
4.81750e-06;0.008569945350682453
4.81775e-06;0.00854692224679216
4.81800e-06;0.008523899142901945
4.81825e-06;0.00850087603901173
4.81850e-06;0.00849233695880273
4.81875e-06;0.008488962817607184
4.81900e-06;0.008485588676411639
4.81925e-06;0.008482214535216082
4.81950e-06;0.008478840394020536
4.81975e-06;0.008475466252824991
4.82000e-06;0.008472092111629434
4.82025e-06;0.008468717970433888
4.82050e-06;0.008465343829238331
4.82075e-06;0.008461969688042786
4.82100e-06;0.00845859554684724
4.82125e-06;0.00846286917546701
4.82150e-06;0.008491745142333822
4.82175e-06;0.008520621109200632
4.82200e-06;0.00854949707606754
4.82225e-06;0.008578373042934353
4.82250e-06;0.008607249009801164
4.82275e-06;0.008636124976668073
4.82300e-06;0.008665000943534883
4.82325e-06;0.008693876910401695
4.82350e-06;0.008722752877268604
4.82375e-06;0.008751628844135415
4.82400e-06;0.008780504811002227
4.82425e-06;0.00881293940443924
4.82450e-06;0.008856821849561046
4.82475e-06;0.008900704294682999
4.82500e-06;0.008944586739804803
4.82525e-06;0.008988469184926608
4.82550e-06;0.009032351630048561
4.82575e-06;0.009076234075170367
4.82600e-06;0.009120116520292171
4.82625e-06;0.009163998965414125
4.82650e-06;0.00920788141053593
4.82675e-06;0.009251763855657735
4.82700e-06;0.009295646300779689
4.82725e-06;0.009335758159120357
4.82750e-06;0.009363740304668225
4.82775e-06;0.009391722450216185
4.82800e-06;0.009419704595764054
4.82825e-06;0.00944768674131192
4.82850e-06;0.009475668886859882
4.82875e-06;0.009503651032407748
4.82900e-06;0.00953163317795571
4.82925e-06;0.009559615323503577
4.82950e-06;0.009587597469051443
4.82975e-06;0.009615579614599405
4.83000e-06;0.009643561760147272
4.83025e-06;0.009671543905695138
4.83050e-06;0.0096995260512431
4.83075e-06;0.009727508196790966
4.83100e-06;0.009752584605780736
4.83125e-06;0.009768313464390783
4.83150e-06;0.009784042323000777
4.83175e-06;0.009799771181610772
4.83200e-06;0.00981550004022082
4.83225e-06;0.009831228898830813
4.83250e-06;0.009846957757440808
4.83275e-06;0.009862686616050855
4.83300e-06;0.00987841547466085
4.83325e-06;0.009894144333270898
4.83350e-06;0.009909873191880891
4.83375e-06;0.009925602050490886
4.83400e-06;0.009941330909100933
4.83425e-06;0.009957059767710927
4.83450e-06;0.009972788626320922
4.83475e-06;0.009987036790843128
4.83500e-06;0.009996521666503803
4.83525e-06;0.010006006542164478
4.83550e-06;0.010015491417825186
4.83575e-06;0.010024976293485862
4.83600e-06;0.010034461169146537
4.83625e-06;0.010043946044807244
4.83650e-06;0.01005343092046792
4.83675e-06;0.010062915796128596
4.83700e-06;0.010072400671789303
4.83725e-06;0.010081885547449978
4.83750e-06;0.010091370423110686
4.83775e-06;0.01010085529877136
4.83800e-06;0.010110340174432037
4.83825e-06;0.010119825050092743
4.83850e-06;0.01012930992575342
4.83875e-06;0.010138794801414094
4.83900e-06;0.010148279677074802
4.83925e-06;0.010157764552735477
4.83950e-06;0.010167249428396153
4.83975e-06;0.010176721453913249
4.84000e-06;0.010186188897125735
4.84025e-06;0.01019565634033822
4.84050e-06;0.010205123783550738
4.84075e-06;0.010214591226763223
4.84100e-06;0.01022405866997571
4.84125e-06;0.010233526113188226
4.84150e-06;0.010242993556400713
4.84175e-06;0.01025246099961323
4.84200e-06;0.010261928442825715
4.84225e-06;0.0102713958860382
4.84250e-06;0.010280863329250718
4.84275e-06;0.010290330772463205
4.84300e-06;0.01029979821567569
4.84325e-06;0.010309265658888208
4.84350e-06;0.010318733102100693
4.84375e-06;0.010328200545313177
4.84400e-06;0.010337667988525695
4.84425e-06;0.010347135431738182
4.84450e-06;0.010357137758167418
4.84475e-06;0.010368860766328895
4.84500e-06;0.010380583774490333
4.84525e-06;0.01039230678265177
4.84550e-06;0.010404029790813247
4.84575e-06;0.010415752798974684
4.84600e-06;0.01042747580713616
4.84625e-06;0.010439198815297599
4.84650e-06;0.010450921823459036
4.84675e-06;0.010462644831620512
4.84700e-06;0.010474367839781949
4.84725e-06;0.010486090847943387
4.84750e-06;0.010497813856104864
4.84775e-06;0.0105095368642663
4.84800e-06;0.010511536958419443
4.84825e-06;0.010510444257422947
4.84850e-06;0.010509351556426454
4.84875e-06;0.01050825885542996
4.84900e-06;0.010507166154433464
4.84925e-06;0.010506073453436971
4.84950e-06;0.01050498075244048
4.84975e-06;0.010503888051443982
4.85000e-06;0.01050279535044749
4.85025e-06;0.010501702649450993
4.85050e-06;0.0105006099484545
4.85075e-06;0.010499517247458009
4.85100e-06;0.01049842454646151
4.85125e-06;0.010487503572898245
4.85150e-06;0.010458477770833795
4.85175e-06;0.010429451968769248
4.85200e-06;0.010400426166704798
4.85225e-06;0.010371400364640349
4.85250e-06;0.010342374562575802
4.85275e-06;0.010313348760511352
4.85300e-06;0.010284322958446902
4.85325e-06;0.010255297156382355
4.85350e-06;0.010226271354317905
4.85375e-06;0.010197245552253455
4.85400e-06;0.010168219750188907
4.85425e-06;0.010139193948124459
4.85450e-06;0.010098234734509388
4.85475e-06;0.010057179177088189
4.85500e-06;0.01001612361966699
4.85525e-06;0.00997506806224565
4.85550e-06;0.00993401250482445
4.85575e-06;0.009892956947403251
4.85600e-06;0.009851901389981911
4.85625e-06;0.009810845832560712
4.85650e-06;0.009769790275139512
4.85675e-06;0.009728734717718172
4.85700e-06;0.009687679160296973
4.85725e-06;0.009646623602875774
4.85750e-06;0.009614817260367715
4.85775e-06;0.009584182521862827
4.85800e-06;0.009553547783357942
4.85825e-06;0.00952291304485295
4.85850e-06;0.009492278306348065
4.85875e-06;0.009461643567843073
4.85900e-06;0.009431008829338188
4.85925e-06;0.0094003740908333
4.85950e-06;0.00936973935232831
4.85975e-06;0.009339104613823423
4.86000e-06;0.009308172541992168
4.86025e-06;0.009277202806757087
4.86050e-06;0.00924623307152211
4.86075e-06;0.009215263336287135
4.86100e-06;0.009184293601052055
4.86125e-06;0.00915332386581708
4.86150e-06;0.009122354130582103
4.86175e-06;0.009091384395347022
4.86200e-06;0.009060414660112046
4.86225e-06;0.00902944492487707
4.86250e-06;0.00899168896866214
4.86275e-06;0.008953073397470462
4.86300e-06;0.008914457826278652
4.86325e-06;0.008875842255086976
4.86350e-06;0.008837226683895298
4.86375e-06;0.008798611112703488
4.86400e-06;0.00875999554151181
4.86425e-06;0.008721379970320133
4.86450e-06;0.008682764399128325
4.86475e-06;0.008644148827936647
4.86500e-06;0.00860553325674497
4.86525e-06;0.008566917685553161
4.86550e-06;0.008528302114361484
4.86575e-06;0.008494140343454835
4.86600e-06;0.008460542738295072
4.86625e-06;0.008426945133135423
4.86650e-06;0.008393347527975773
4.86675e-06;0.00835974992281601
4.86700e-06;0.008326152317656361
4.86725e-06;0.008292554712496597
4.86750e-06;0.008258957107336947
4.86775e-06;0.008225359502177298
4.86800e-06;0.008191761897017535
4.86825e-06;0.008158164291857886
4.86850e-06;0.008124566686698236
4.86875e-06;0.008090969081538472
4.86900e-06;0.008080436559835516
4.86925e-06;0.00807282570709007
4.86950e-06;0.008065214854344598
4.86975e-06;0.00805760400159915
4.87000e-06;0.008049993148853705
4.87025e-06;0.008042382296108232
4.87050e-06;0.008034771443362787
4.87075e-06;0.00802716059061734
4.87100e-06;0.008019549737871869
4.87125e-06;0.008011938885126422
4.87150e-06;0.00800432803238095
4.87175e-06;0.00802084042824433
4.87200e-06;0.008040408531525264
4.87225e-06;0.008059976634806265
4.87250e-06;0.0080795447380872
4.87275e-06;0.008099112841368133
4.87300e-06;0.008118680944649135
4.87325e-06;0.00813824904793007
4.87350e-06;0.008157817151211003
4.87375e-06;0.008177385254492004
4.87400e-06;0.008196953357772938
4.87425e-06;0.008216521461053873
4.87450e-06;0.008247480109956285
4.87475e-06;0.008279881606598795
4.87500e-06;0.008312283103241303
4.87525e-06;0.00834468459988392
4.87550e-06;0.00837708609652643
4.87575e-06;0.008409487593169047
4.87600e-06;0.008441889089811557
4.87625e-06;0.008474290586454065
4.87650e-06;0.008506692083096684
4.87675e-06;0.008536676597342628
4.87700e-06;0.008562841859991567
4.87725e-06;0.008589007122640595
4.87750e-06;0.008615172385289534
4.87775e-06;0.008641337647938471
4.87800e-06;0.008667502910587498
4.87825e-06;0.008693668173236437
4.87850e-06;0.008719833435885376
4.87875e-06;0.008745998698534404
4.87900e-06;0.00877216396118334
4.87925e-06;0.008783796963883312
4.87950e-06;0.008793589155868933
4.87975e-06;0.008803381347854522
4.88000e-06;0.008813173539840144
4.88025e-06;0.008822965731825732
4.88050e-06;0.008832757923811323
4.88075e-06;0.008842550115796944
4.88100e-06;0.008852342307782533
4.88125e-06;0.008862134499768122
4.88150e-06;0.008871926691753743
4.88175e-06;0.008881718883739332
4.88200e-06;0.00889151107572492
4.88225e-06;0.008901303267710542
4.88250e-06;0.008911095459696131
4.88275e-06;0.00892088765168172
4.88300e-06;0.008930679843667343
4.88325e-06;0.008940472035652932
4.88350e-06;0.00895026422763852
4.88375e-06;0.008960056419624142
4.88400e-06;0.008960688209478177
4.88425e-06;0.008960837909060852
4.88450e-06;0.008960987608643526
4.88475e-06;0.0089611373082262
4.88500e-06;0.008961287007808875
4.88525e-06;0.00896143670739155
4.88550e-06;0.008961586406974222
4.88575e-06;0.008961736106556897
4.88600e-06;0.008961885806139571
4.88625e-06;0.008962035505722245
4.88650e-06;0.00896218520530492
4.88675e-06;0.008962334904887594
4.88700e-06;0.008962484604470267
4.88725e-06;0.008962634304052943
4.88750e-06;0.008962784003635616
4.88775e-06;0.00896293370321829
4.88800e-06;0.008963083402800965
4.88825e-06;0.008963233102383639
4.88850e-06;0.008963271314183686
4.88875e-06;0.008954456301666254
4.88900e-06;0.008945641289148824
4.88925e-06;0.008936826276631362
4.88950e-06;0.008928011264113932
4.88975e-06;0.008919196251596501
4.89000e-06;0.00891038123907904
4.89025e-06;0.00890156622656161
4.89050e-06;0.008892751214044177
4.89075e-06;0.008883936201526717
4.89100e-06;0.008875121189009287
4.89125e-06;0.008857580302020933
4.89150e-06;0.00883173707624654
4.89175e-06;0.008805893850472233
4.89200e-06;0.008780050624697926
4.89225e-06;0.008754207398923531
4.89250e-06;0.008728364173149225
4.89275e-06;0.00870252094737483
4.89300e-06;0.008676677721600523
4.89325e-06;0.008650834495826216
4.89350e-06;0.008624991270051823
4.89375e-06;0.008599020384717009
4.89400e-06;0.008562912077176592
4.89425e-06;0.008526803769636052
4.89450e-06;0.008490695462095636
4.89475e-06;0.008454587154555219
4.89500e-06;0.00841847884701468
4.89525e-06;0.008382370539474264
4.89550e-06;0.008346262231933847
4.89575e-06;0.008310153924393307
4.89600e-06;0.00827404561685289
4.89625e-06;0.008238002927108704
4.89650e-06;0.008207170934482408
4.89675e-06;0.008176338941856218
4.89700e-06;0.008145506949229924
4.89725e-06;0.008114674956603733
4.89750e-06;0.008083842963977543
4.89775e-06;0.008053010971351249
4.89800e-06;0.008022178978725059
4.89825e-06;0.007991346986098867
4.89850e-06;0.007960514993472573
4.89875e-06;0.0079300203434607
4.89900e-06;0.007926314008315815
4.89925e-06;0.00792260767317092
4.89950e-06;0.007918901338026037
4.89975e-06;0.007915195002881152
4.90000e-06;0.007911488667736256
4.90025e-06;0.007907782332591371
4.90050e-06;0.007904075997446488
4.90075e-06;0.007900369662301593
4.90100e-06;0.007914776065014178
4.90125e-06;0.007946416051192746
4.90150e-06;0.007978056037371208
4.90175e-06;0.008009696023549668
4.90200e-06;0.008041336009728235
