Time(s);Current(A)
9.50000e-06;0.009413234351143414
9.50025e-06;0.009408370156816483
9.50050e-06;0.009403505962489586
9.50075e-06;0.009398641768162654
9.50100e-06;0.009393777573835724
9.50125e-06;0.009388913379508826
9.50150e-06;0.009384049185181896
9.50175e-06;0.009379184990854965
9.50200e-06;0.009374320796528068
9.50225e-06;0.009376190227740049
9.50250e-06;0.009380424020164257
9.50275e-06;0.009384657812588437
9.50300e-06;0.009388891605012646
9.50325e-06;0.009393125397436855
9.50350e-06;0.009397359189861064
9.50375e-06;0.009401592982285243
9.50400e-06;0.009405826774709452
9.50425e-06;0.009415219800554438
9.50450e-06;0.00944093942390961
9.50475e-06;0.009466659047264955
9.50500e-06;0.0094923786706203
9.50525e-06;0.009518098293975472
9.50550e-06;0.009543817917330817
9.50575e-06;0.009569537540686162
9.50600e-06;0.009595257164041334
9.50625e-06;0.009620976787396679
9.50650e-06;0.009662233089855149
9.50675e-06;0.009708944747860961
9.50700e-06;0.00975565640586709
9.50725e-06;0.009802368063873218
9.50750e-06;0.00984907972187903
9.50775e-06;0.00989579137988516
9.50800e-06;0.00994250303789129
9.50825e-06;0.009989214695897102
9.50850e-06;0.010035926353903232
9.50875e-06;0.01008263801190936
9.50900e-06;0.010129349669915173
9.50925e-06;0.010176138412758355
9.50950e-06;0.010223171093606726
9.50975e-06;0.010270203774454778
9.51000e-06;0.010317236455303148
9.51025e-06;0.010364269136151518
9.51050e-06;0.01041130181699957
9.51075e-06;0.010458334497847941
9.51100e-06;0.010505367178696311
9.51125e-06;0.010552399859544363
9.51150e-06;0.010599432540392733
9.51175e-06;0.010646465221241104
9.51200e-06;0.010693497902089474
9.51225e-06;0.010718097205030355
9.51250e-06;0.010734819531698773
9.51275e-06;0.010751541858367191
9.51300e-06;0.010768264185035495
9.51325e-06;0.010784986511703913
9.51350e-06;0.010801708838372332
9.51375e-06;0.010818431165040636
9.51400e-06;0.010835153491709054
9.51425e-06;0.010851875818377472
9.51450e-06;0.010868598145045776
9.51475e-06;0.010885320471714194
9.51500e-06;0.010902042798382612
9.51525e-06;0.010918765125050916
9.51550e-06;0.010912610139229997
9.51575e-06;0.010898422299488092
9.51600e-06;0.010884234459746284
9.51625e-06;0.010870046620004379
9.51650e-06;0.010855858780262474
9.51675e-06;0.010841670940520664
9.51700e-06;0.01082748310077876
9.51725e-06;0.010813295261036854
9.51750e-06;0.010799107421295046
9.51775e-06;0.010784919581553141
9.51800e-06;0.010770731741811236
9.51825e-06;0.010756543902069426
9.51850e-06;0.010742356062327521
9.51875e-06;0.010719780894220519
9.51900e-06;0.01069426070433369
9.51925e-06;0.010668740514446688
9.51950e-06;0.010643220324559687
9.51975e-06;0.010617700134672859
9.52000e-06;0.010592179944785857
9.52025e-06;0.010566659754898856
9.52050e-06;0.010541139565011855
9.52075e-06;0.010515619375125025
9.52100e-06;0.010490099185238024
9.52125e-06;0.01046659021008894
9.52150e-06;0.01044944580325382
9.52175e-06;0.01043230139641858
9.52200e-06;0.010415156989583342
9.52225e-06;0.010398012582748221
9.52250e-06;0.010380868175912982
9.52275e-06;0.010363723769077744
9.52300e-06;0.010346579362242623
9.52325e-06;0.010329434955407384
9.52350e-06;0.010312290548572146
9.52375e-06;0.010295146141737025
9.52400e-06;0.010291849963024497
9.52425e-06;0.010293416278263625
9.52450e-06;0.010294982593502741
9.52475e-06;0.010296548908741869
9.52500e-06;0.010298115223980995
9.52525e-06;0.010299681539220113
9.52550e-06;0.01030124785445924
9.52575e-06;0.010302814169698367
9.52600e-06;0.010304380484937484
9.52625e-06;0.01030594680017661
9.52650e-06;0.010307513115415739
9.52675e-06;0.010309079430654856
9.52700e-06;0.010310645745893982
9.52725e-06;0.01031221206113311
9.52750e-06;0.010313778376372226
9.52775e-06;0.010315344691611354
9.52800e-06;0.010319265549325387
9.52825e-06;0.010330637449511713
9.52850e-06;0.010342009349698117
9.52875e-06;0.010353381249884521
9.52900e-06;0.010364753150070924
9.52925e-06;0.01037612505025725
9.52950e-06;0.010387496950443654
9.52975e-06;0.010398868850630058
9.53000e-06;0.010410240750816384
9.53025e-06;0.010421612651002788
9.53050e-06;0.01043298455118919
9.53075e-06;0.010444356451375517
9.53100e-06;0.010455728351561921
9.53125e-06;0.010467100251748325
9.53150e-06;0.010478472151934651
9.53175e-06;0.010489844052121054
9.53200e-06;0.010501215952307458
9.53225e-06;0.01050294879133152
9.53250e-06;0.010501297090745435
9.53275e-06;0.010499645390159353
9.53300e-06;0.010497993689573281
9.53325e-06;0.010496341988987197
9.53350e-06;0.010494690288401113
9.53375e-06;0.010493038587815041
9.53400e-06;0.010491386887228959
9.53425e-06;0.010470713977350962
9.53450e-06;0.010443362197487885
9.53475e-06;0.010416010417624624
9.53500e-06;0.010388658637761363
9.53525e-06;0.010361306857898286
9.53550e-06;0.010333955078035025
9.53575e-06;0.010306603298171763
9.53600e-06;0.010279251518308687
9.53625e-06;0.010232848856736669
9.53650e-06;0.01017975690637687
9.53675e-06;0.01012666495601743
9.53700e-06;0.010073573005657633
9.53725e-06;0.010020481055297834
9.53750e-06;0.009967389104938036
9.53775e-06;0.009914297154578597
9.53800e-06;0.009861205204218798
9.53825e-06;0.009808113253858998
9.53850e-06;0.00975502130349956
9.53875e-06;0.009700140470800372
9.53900e-06;0.009639598649422754
9.53925e-06;0.009579056828045546
9.53950e-06;0.009518515006667928
9.53975e-06;0.00945797318529031
9.54000e-06;0.009397431363913102
9.54025e-06;0.009336889542535485
9.54050e-06;0.009276347721157867
9.54075e-06;0.009215805899780658
9.54100e-06;0.00915526407840304
9.54125e-06;0.009094722257025423
9.54150e-06;0.00905219741737041
9.54175e-06;0.0090159988357694
9.54200e-06;0.008979800254168389
9.54225e-06;0.008943601672567622
9.54250e-06;0.00890740309096661
9.54275e-06;0.0088712045093656
9.54300e-06;0.008835005927764834
9.54325e-06;0.008798807346163822
9.54350e-06;0.00876260876456281
9.54375e-06;0.008726410182962045
9.54400e-06;0.008690211601361034
9.54425e-06;0.008654013019760022
9.54450e-06;0.008617814438159257
9.54475e-06;0.008581615856558245
9.54500e-06;0.008550063599112636
9.54525e-06;0.008533214817613382
9.54550e-06;0.008516366036114012
9.54575e-06;0.008499517254614643
9.54600e-06;0.008482668473115273
9.54625e-06;0.008465819691616019
9.54650e-06;0.008448970910116649
9.54675e-06;0.00843212212861728
9.54700e-06;0.008415273347118024
9.54725e-06;0.008398424565618654
9.54750e-06;0.008381575784119286
9.54775e-06;0.00836472700262003
9.54800e-06;0.008347878221120661
9.54825e-06;0.008331029439621291
9.54850e-06;0.008314180658122037
9.54875e-06;0.008303936867053784
9.54900e-06;0.008296012269875593
9.54925e-06;0.008288087672697453
9.54950e-06;0.00828016307551926
9.54975e-06;0.008272238478341068
9.55000e-06;0.008264313881162928
9.55025e-06;0.008256389283984736
9.55050e-06;0.008248464686806543
9.55075e-06;0.008240540089628403
9.55100e-06;0.008232615492450211
9.55125e-06;0.008224690895272018
9.55150e-06;0.008216766298093878
9.55175e-06;0.008208841700915686
9.55200e-06;0.008200917103737493
9.55225e-06;0.008192992506559353
9.55250e-06;0.008185067909381161
9.55275e-06;0.008177143312202968
9.55300e-06;0.008172391242221197
9.55325e-06;0.00817767875961554
9.55350e-06;0.008182966277009882
9.55375e-06;0.008188253794404188
9.55400e-06;0.00819354131179853
9.55425e-06;0.008198828829192872
9.55450e-06;0.008204116346587215
9.55475e-06;0.008209403863981522
9.55500e-06;0.008214691381375865
9.55525e-06;0.008219978898770207
9.55550e-06;0.008225266416164513
9.55575e-06;0.008230553933558857
9.55600e-06;0.008235841450953199
9.55625e-06;0.008241128968347505
9.55650e-06;0.008246416485741847
9.55675e-06;0.00825170400313619
9.55700e-06;0.008256991520530497
9.55725e-06;0.00826227903792484
9.55750e-06;0.008275313682090708
9.55775e-06;0.008291068555644513
9.55800e-06;0.008306823429198425
9.55825e-06;0.008322578302752338
9.55850e-06;0.008338333176306141
9.55875e-06;0.008354088049860054
9.55900e-06;0.008369842923413966
9.55925e-06;0.008385597796967771
9.55950e-06;0.008401352670521682
9.55975e-06;0.008417107544075595
9.56000e-06;0.008432338949321612
9.56025e-06;0.00844591381847182
9.56050e-06;0.008459488687622026
9.56075e-06;0.008473063556772142
9.56100e-06;0.008486638425922349
9.56125e-06;0.008500213295072556
9.56150e-06;0.00851378816422267
9.56175e-06;0.008527363033372877
9.56200e-06;0.008540937902523084
9.56225e-06;0.0085545127716732
9.56250e-06;0.008568087640823407
9.56275e-06;0.008582585748568728
9.56300e-06;0.008597408030789634
9.56325e-06;0.00861223031301064
9.56350e-06;0.008627052595231647
9.56375e-06;0.008641874877452653
9.56400e-06;0.008656697159673559
9.56425e-06;0.008671519441894565
9.56450e-06;0.008686341724115572
9.56475e-06;0.008701164006336477
9.56500e-06;0.008715986288557484
9.56525e-06;0.00873080857077849
9.56550e-06;0.008748031178367977
9.56575e-06;0.008772849710212903
9.56600e-06;0.00879766824205783
9.56625e-06;0.008822486773902589
9.56650e-06;0.008847305305747516
9.56675e-06;0.008872123837592442
9.56700e-06;0.008896942369437201
9.56725e-06;0.008921760901282128
9.56750e-06;0.008946579433127055
9.56775e-06;0.008971397964971813
9.56800e-06;0.00899621649681674
9.56825e-06;0.009021035028661667
9.56850e-06;0.00904761019458881
9.56875e-06;0.009074802163080268
9.56900e-06;0.009101994131571726
9.56925e-06;0.009129186100063
9.56950e-06;0.009156378068554459
9.56975e-06;0.009183570037045917
9.57000e-06;0.009210762005537191
9.57025e-06;0.00923795397402865
9.57050e-06;0.009265145942520108
9.57075e-06;0.009292337911011382
9.57100e-06;0.00931952987950284
9.57125e-06;0.009346721847994299
9.57150e-06;0.009373913816485573
9.57175e-06;0.009386434981412301
9.57200e-06;0.009393804823506033
9.57225e-06;0.009401174665599766
9.57250e-06;0.009408544507693448
9.57275e-06;0.00941591434978718
9.57300e-06;0.009423284191880913
9.57325e-06;0.009430654033974594
9.57350e-06;0.009438023876068328
9.57375e-06;0.00944539371816206
9.57400e-06;0.00945276356025574
9.57425e-06;0.009460133402349474
9.57450e-06;0.009467503244443206
9.57475e-06;0.009474873086536887
9.57500e-06;0.009458032625355063
9.57525e-06;0.009432691260489562
9.57550e-06;0.009407349895624232
9.57575e-06;0.00938200853075873
9.57600e-06;0.009356667165893229
9.57625e-06;0.009331325801027898
9.57650e-06;0.009305984436162396
9.57675e-06;0.009280643071296895
9.57700e-06;0.009255301706431565
9.57725e-06;0.009229960341566062
9.57750e-06;0.009204618976700562
9.57775e-06;0.009179277611835231
9.57800e-06;0.009142419196922671
9.57825e-06;0.009101516828819206
9.57850e-06;0.009060614460716019
9.57875e-06;0.009019712092612554
9.57900e-06;0.00897880972450909
9.57925e-06;0.008937907356405903
9.57950e-06;0.008897004988302438
9.57975e-06;0.008856102620198973
9.58000e-06;0.008815200252095787
9.58025e-06;0.008774297883992322
9.58050e-06;0.008733395515888857
9.58075e-06;0.008692493147785394
9.58100e-06;0.00865926546231733
9.58125e-06;0.008628732569109947
9.58150e-06;0.008598199675902562
9.58175e-06;0.008567666782695384
9.58200e-06;0.008537133889488001
9.58225e-06;0.008506600996280617
9.58250e-06;0.00847606810307344
9.58275e-06;0.008445535209866056
9.58300e-06;0.008415002316658671
9.58325e-06;0.008403499038277721
9.58350e-06;0.008398677581308934
9.58375e-06;0.008393856124340146
9.58400e-06;0.00838903466737139
9.58425e-06;0.008384213210402603
9.58450e-06;0.008379391753433815
9.58475e-06;0.00837457029646506
9.58500e-06;0.008369748839496271
9.58525e-06;0.008364927382527483
9.58550e-06;0.0083814047458165
9.58575e-06;0.00840536071098819
9.58600e-06;0.008429316676159879
9.58625e-06;0.008453272641331408
9.58650e-06;0.008477228606503096
9.58675e-06;0.008501184571674786
9.58700e-06;0.008525140536846313
9.58725e-06;0.008549096502018003
9.58750e-06;0.008573052467189693
9.58775e-06;0.00859700843236122
9.58800e-06;0.00862096439753291
9.58825e-06;0.008648169535249842
9.58850e-06;0.008685656807584746
9.58875e-06;0.008723144079919903
9.58900e-06;0.00876063135225506
9.58925e-06;0.008798118624590217
9.58950e-06;0.00883560589692512
9.58975e-06;0.008873093169260278
9.59000e-06;0.008910580441595435
9.59025e-06;0.008948067713930339
9.59050e-06;0.008985554986265496
9.59075e-06;0.009023042258600655
9.59100e-06;0.009060529530935557
9.59125e-06;0.00908853022856201
9.59150e-06;0.009113199928760751
9.59175e-06;0.009137869628959324
9.59200e-06;0.009162539329158064
9.59225e-06;0.009187209029356805
9.59250e-06;0.00921187872955538
9.59275e-06;0.009236548429754118
9.59300e-06;0.009261218129952859
9.59325e-06;0.009285887830151433
9.59350e-06;0.009290122217583772
9.59375e-06;0.00928718120437342
9.59400e-06;0.009284240191163088
9.59425e-06;0.009281299177952736
9.59450e-06;0.009278358164742385
9.59475e-06;0.009275417151532054
9.59500e-06;0.009272476138321701
9.59525e-06;0.009269535125111349
9.59550e-06;0.009266594111901017
9.59575e-06;0.009245347493697825
9.59600e-06;0.009217673273855196
9.59625e-06;0.009189999054012755
9.59650e-06;0.009162324834170125
9.59675e-06;0.009134650614327496
9.59700e-06;0.009106976394485055
9.59725e-06;0.009079302174642426
9.59750e-06;0.009046176809113952
9.59775e-06;0.009007513021812052
9.59800e-06;0.008968849234510414
9.59825e-06;0.008930185447208512
9.59850e-06;0.008891521659906611
9.59875e-06;0.008852857872604973
9.59900e-06;0.008814194085303073
9.59925e-06;0.008773722343568546
9.59950e-06;0.00872788230244773
9.59975e-06;0.008682042261326604
9.60000e-06;0.008636202220205476
9.60025e-06;0.008590362179084661
9.60050e-06;0.008544522137963535
9.60075e-06;0.008498682096842408
9.60100e-06;0.008458310573146877
9.60125e-06;0.008421372597940955
9.60150e-06;0.008384434622735033
9.60175e-06;0.008347496647529361
9.60200e-06;0.008310558672323439
9.60225e-06;0.008273620697117517
9.60250e-06;0.008236682721911847
9.60275e-06;0.008219049641060721
9.60300e-06;0.008201877915429947
9.60325e-06;0.00818470618979929
9.60350e-06;0.008167534464168517
9.60375e-06;0.008150362738537743
9.60400e-06;0.008133191012907087
9.60425e-06;0.008116019287276312
9.60450e-06;0.008098847561645538
9.60475e-06;0.008081675836014882
9.60500e-06;0.008064504110384108
9.60525e-06;0.008047332384753334
9.60550e-06;0.008030160659122678
9.60575e-06;0.008012988933491904
9.60600e-06;0.00799581720786113
9.60625e-06;0.007978645482230358
9.60650e-06;0.0079614737565997
9.60675e-06;0.007944302030968926
9.60700e-06;0.007934002599387487
9.60725e-06;0.00793124849226985
9.60750e-06;0.007928494385152194
9.60775e-06;0.00792574027803454
9.60800e-06;0.007922986170916904
9.60825e-06;0.007920232063799248
9.60850e-06;0.007917477956681594
9.60875e-06;0.007914723849563958
9.60900e-06;0.007911969742446302
9.60925e-06;0.007909215635328646
9.60950e-06;0.007906461528211011
9.60975e-06;0.007903707421093356
9.61000e-06;0.0079009533139757
9.61025e-06;0.007898199206858064
9.61050e-06;0.00789544509974041
9.61075e-06;0.007892690992622754
9.61100e-06;0.007889936885505117
9.61125e-06;0.007887182778387463
9.61150e-06;0.0078849667211106
9.61175e-06;0.007882763522339931
9.61200e-06;0.00788056032356925
9.61225e-06;0.007878357124798566
9.61250e-06;0.007876153926027899
9.61275e-06;0.007873950727257216
9.61300e-06;0.007871747528486532
9.61325e-06;0.007869544329715865
9.61350e-06;0.007867341130945182
9.61375e-06;0.0078651379321745
9.61400e-06;0.007862934733403833
9.61425e-06;0.00786073153463315
9.61450e-06;0.007858528335862466
9.61475e-06;0.007856325137091783
9.61500e-06;0.007854121938321116
9.61525e-06;0.007851918739550432
9.61550e-06;0.007849715540779751
9.61575e-06;0.007847512342009083
9.61600e-06;0.0078453091432384
9.61625e-06;0.007843105944467717
9.61650e-06;0.00784090274569705
9.61675e-06;0.007836187987859384
9.61700e-06;0.007831413207891064
9.61725e-06;0.007826638427922777
9.61750e-06;0.007821863647954458
9.61775e-06;0.007817088867986138
9.61800e-06;0.00781231408801785
9.61825e-06;0.007807539308049529
9.61850e-06;0.007802764528081209
9.61875e-06;0.007797989748112921
9.61900e-06;0.0077932149681446015
9.61925e-06;0.007788440188176282
9.61950e-06;0.007783665408207994
9.61975e-06;0.007778890628239674
9.62000e-06;0.007774115848271354
9.62025e-06;0.007769341068303066
9.62050e-06;0.007764566288334746
9.62075e-06;0.0077597915083664265
9.62100e-06;0.007755016728398139
9.62125e-06;0.007750241948429819
9.62150e-06;0.007745467168461499
9.62175e-06;0.007740692388493211
9.62200e-06;0.007742532123562079
9.62225e-06;0.007744529934660976
9.62250e-06;0.00774652774575986
9.62275e-06;0.007748525556858756
9.62300e-06;0.0077505233679576535
9.62325e-06;0.007752521179056551
9.62350e-06;0.007754518990155434
9.62375e-06;0.007768105311118516
9.62400e-06;0.0077944150496751085
9.62425e-06;0.007820724788231521
9.62450e-06;0.007847034526788112
9.62475e-06;0.007873344265344704
9.62500e-06;0.007899654003901118
9.62525e-06;0.00792596374245771
9.62550e-06;0.0079522734810143
9.62575e-06;0.00800779930166735
9.62600e-06;0.008064023338629146
9.62625e-06;0.00812024737559094
9.62650e-06;0.008176471412552351
9.62675e-06;0.008232695449514146
9.62700e-06;0.00828891948647594
9.62725e-06;0.008345143523437352
9.62750e-06;0.008401367560399147
9.62775e-06;0.00845759159736094
9.62800e-06;0.008513815634322353
9.62825e-06;0.008585082205921872
9.62850e-06;0.008656708269358142
9.62875e-06;0.008728334332793927
9.62900e-06;0.008799960396230197
9.62925e-06;0.008871586459666465
9.62950e-06;0.00894321252310225
9.62975e-06;0.00901483858653852
9.63000e-06;0.00908646464997479
9.63025e-06;0.009158090713410574
9.63050e-06;0.009229716776846844
9.63075e-06;0.009287317017007257
9.63100e-06;0.009344582063059551
9.63125e-06;0.009401847109112235
9.63150e-06;0.009459112155164918
9.63175e-06;0.009516377201217601
9.63200e-06;0.009573642247269896
9.63225e-06;0.009630907293322579
9.63250e-06;0.009688172339375262
9.63275e-06;0.009708314948048863
9.63300e-06;0.00972757039152502
9.63325e-06;0.009746825835001176
9.63350e-06;0.009766081278477202
9.63375e-06;0.00978533672195336
9.63400e-06;0.009804592165429516
9.63425e-06;0.009823847608905542
9.63450e-06;0.0098431030523817
9.63475e-06;0.009813592756645692
9.63500e-06;0.009782917039947709
9.63525e-06;0.00975224132324952
9.63550e-06;0.009721565606551328
9.63575e-06;0.009690889889853345
9.63600e-06;0.009660214173155155
9.63625e-06;0.009629538456456964
9.63650e-06;0.009598862739758981
9.63675e-06;0.009568187023060792
9.63700e-06;0.0095375113063626
9.63725e-06;0.009470608638708971
9.63750e-06;0.00940284020650897
9.63775e-06;0.00933507177430897
9.63800e-06;0.009267303342109427
9.63825e-06;0.009199534909909426
9.63850e-06;0.009131766477709425
9.63875e-06;0.009063998045509884
9.63900e-06;0.008996229613309883
9.63925e-06;0.008928461181109883
9.63950e-06;0.00886069274891034
9.63975e-06;0.008789227922491111
9.64000e-06;0.00871767475832937
9.64025e-06;0.008646121594167628
9.64050e-06;0.008574568430006372
9.64075e-06;0.00850301526584463
9.64100e-06;0.008431462101682888
9.64125e-06;0.00835990893752163
9.64150e-06;0.008288355773359889
9.64175e-06;0.008242811054986502
9.64200e-06;0.008197887895692976
9.64225e-06;0.008152964736399145
9.64250e-06;0.008108041577105315
9.64275e-06;0.00806311841781179
9.64300e-06;0.00801819525851796
9.64325e-06;0.007973272099224129
9.64350e-06;0.007928348939930602
9.64375e-06;0.007928499050006874
9.64400e-06;0.007929726337092309
9.64425e-06;0.007930953624177735
9.64450e-06;0.00793218091126317
9.64475e-06;0.007933408198348604
9.64500e-06;0.00793463548543403
9.64525e-06;0.007935862772519465
9.64550e-06;0.0079370900596049
9.64575e-06;0.007938317346690326
9.64600e-06;0.00796004582472331
9.64625e-06;0.008004283254881788
9.64650e-06;0.008048520685039966
9.64675e-06;0.008092758115198443
9.64700e-06;0.00813699554535692
9.64725e-06;0.008181232975515098
9.64750e-06;0.008225470405673575
9.64775e-06;0.008269707835832052
9.64800e-06;0.008313945265990231
9.64825e-06;0.008358182696148709
9.64850e-06;0.00842111278401514
9.64875e-06;0.008484489595658583
9.64900e-06;0.008547866407301595
9.64925e-06;0.008611243218945037
9.64950e-06;0.008674620030588477
9.64975e-06;0.008737996842231489
9.65000e-06;0.008801373653874931
9.65025e-06;0.008864750465518373
9.65050e-06;0.008928127277161385
9.65075e-06;0.008979130397805807
9.65100e-06;0.009029837807585038
9.65125e-06;0.009080545217363924
9.65150e-06;0.009131252627143156
9.65175e-06;0.009181960036922386
9.65200e-06;0.009232667446701273
