Time(s);Current(A)
1.07500e-05;-0.004285590003894615
1.07503e-05;-0.004252951335460296
1.07505e-05;-0.004222634457350126
1.07508e-05;-0.004192666294829206
1.07510e-05;-0.004165845136002854
1.07513e-05;-0.004139595399409002
1.07515e-05;-0.004118502495298396
1.07518e-05;-0.0040974095911876455
1.07520e-05;-0.004077123094779761
1.07523e-05;-0.004064114070616761
1.07525e-05;-0.004051105046453674
1.07528e-05;-0.00403930454996348
1.07530e-05;-0.004038410480291853
1.07533e-05;-0.00403751641062022
1.07535e-05;-0.004036622340948587
1.07538e-05;-0.00403572827127696
1.07540e-05;-0.004034834201605327
1.07543e-05;-0.004043062825169939
1.07545e-05;-0.004057379454449621
1.07548e-05;-0.0040716960837294
1.07550e-05;-0.004086012713009179
1.07553e-05;-0.00410032934228886
1.07555e-05;-0.0041156558209801165
1.07558e-05;-0.004140095743203605
1.07560e-05;-0.004164535665426928
1.07563e-05;-0.004189456978055078
1.07565e-05;-0.004218722625809151
1.07567e-05;-0.004248293649383162
1.07570e-05;-0.004280620554439996
1.07573e-05;-0.0043131845972458095
1.07575e-05;-0.004347888703174115
1.07578e-05;-0.004382758480362533
1.07580e-05;-0.0044191233672722565
1.07582e-05;-0.004455569452376671
1.07585e-05;-0.004492748315216608
1.07588e-05;-0.004529920047665858
1.07590e-05;-0.0045670274314981935
1.07593e-05;-0.004604039820874535
1.07595e-05;-0.004640194927374326
1.07598e-05;-0.0046761651314628306
1.07600e-05;-0.004710466673208261
1.07603e-05;-0.00474456856401468
1.07605e-05;-0.004776702023568433
1.07608e-05;-0.004807139699216683
1.07610e-05;-0.004835630925831094
1.07613e-05;-0.004861757807456821
1.07615e-05;-0.004884203612827477
1.07618e-05;-0.004905913338909588
1.07620e-05;-0.0049209802755217176
1.07623e-05;-0.004935046712254999
1.07625e-05;-0.004940084080840688
1.07628e-05;-0.0049451214494263766
1.07630e-05;-0.004948638168648896
1.07633e-05;-0.0049384317010733834
1.07635e-05;-0.004928225233497871
1.07638e-05;-0.004918018765922428
1.07640e-05;-0.004907812298346915
1.07643e-05;-0.004886436819086127
1.07645e-05;-0.004857607728789057
1.07648e-05;-0.004828778638491791
1.07650e-05;-0.004799949548194526
1.07652e-05;-0.004769777048937001
1.07655e-05;-0.00472748087899041
1.07658e-05;-0.0046851847090438195
1.07660e-05;-0.004641964236075649
1.07663e-05;-0.004590402337834208
1.07665e-05;-0.004538840439592767
1.07667e-05;-0.00448660763429851
1.07670e-05;-0.004428320190084483
1.07673e-05;-0.004370032745870458
1.07675e-05;-0.004311366523845079
1.07678e-05;-0.004249281999884552
1.07680e-05;-0.004187016614841326
1.07683e-05;-0.004123119038658246
1.07685e-05;-0.004059185856974235
1.07688e-05;-0.003994931351414433
1.07690e-05;-0.0039307431329393605
1.07693e-05;-0.00386724556562955
1.07695e-05;-0.003804706135549377
1.07698e-05;-0.003743440003057027
1.07700e-05;-0.0036837654560394153
1.07703e-05;-0.0036261971795724145
1.07705e-05;-0.003571978489661347
1.07708e-05;-0.0035185750914083973
1.07710e-05;-0.0034725293391661897
1.07713e-05;-0.003426483586923982
1.07715e-05;-0.0033811398646128752
1.07718e-05;-0.0033421316514057496
1.07720e-05;-0.0033033833142290477
1.07723e-05;-0.003266980243094012
1.07725e-05;-0.0032305771719587295
1.07728e-05;-0.0031946546705745537
1.07730e-05;-0.003163069098287327
1.07733e-05;-0.003131483525999887
1.07735e-05;-0.0031003310355261064
1.07737e-05;-0.003073086916552678
1.07740e-05;-0.0030458427975790653
1.07743e-05;-0.0030185986786054526
1.07745e-05;-0.002991354559632024
1.07748e-05;-0.0029644743321337852
1.07750e-05;-0.0029408780639865553
1.07752e-05;-0.002917281795839485
1.07755e-05;-0.0028936855276922545
1.07758e-05;-0.0028700892595450245
1.07760e-05;-0.0028468047735369017
1.07763e-05;-0.0028263339832047185
1.07765e-05;-0.0028058631928725352
1.07768e-05;-0.002785392402540352
1.07770e-05;-0.0027649216122083075
1.07773e-05;-0.0027444508218761243
1.07775e-05;-0.002723980031543941
1.07778e-05;-0.0027035092412118966
1.07780e-05;-0.002683439030189239
1.07783e-05;-0.002666983869968154
1.07785e-05;-0.0026505287097471804
1.07788e-05;-0.0026340735495260954
1.07790e-05;-0.0026176183893050105
1.07793e-05;-0.0026011632290840374
1.07795e-05;-0.0025847080688629525
1.07798e-05;-0.0025682529086418675
1.07800e-05;-0.002552070012633948
1.07803e-05;-0.0025383441805292653
1.07805e-05;-0.0025247108576951518
1.07808e-05;-0.0025119870384990597
1.07810e-05;-0.002500021245471398
1.07813e-05;-0.0024889291271575974
1.07815e-05;-0.0024790499377974487
1.07818e-05;-0.002471266387347208
1.07820e-05;-0.002466556668130519
1.07822e-05;-0.002465249768359247
1.07825e-05;-0.0024674048714989037
1.07828e-05;-0.0024738403104895184
1.07830e-05;-0.0024808768390914854
1.07833e-05;-0.002493337935139883
1.07835e-05;-0.002506667816259455
1.07837e-05;-0.002527838097753969
1.07840e-05;-0.002549008379248626
1.07843e-05;-0.0025712656311238876
1.07845e-05;-0.002603332309131114
1.07848e-05;-0.0026353989871385577
1.07850e-05;-0.002668223174315672
1.07853e-05;-0.0027078835461556722
1.07855e-05;-0.0027481120963246744
1.07858e-05;-0.002793468204200379
1.07860e-05;-0.002839253854242684
1.07863e-05;-0.0028891661692702197
1.07865e-05;-0.0029415546245694295
1.07868e-05;-0.0029960946774487515
1.07870e-05;-0.003052461994821185
1.07873e-05;-0.0031103366797722905
1.07875e-05;-0.003169453223553477
1.07878e-05;-0.0032296801356918895
1.07880e-05;-0.003290909888926622
1.07883e-05;-0.003352874663060647
1.07885e-05;-0.003415202651922377
1.07888e-05;-0.003477518066853803
1.07890e-05;-0.0035394451191956442
1.07893e-05;-0.003600610853864083
1.07895e-05;-0.0036606768527865166
1.07898e-05;-0.0037193883923940397
1.07900e-05;-0.003776505589315091
1.07903e-05;-0.0038316883188872822
1.07905e-05;-0.0038845313866825437
1.07907e-05;-0.003934626943090959
1.07910e-05;-0.003981376036454264
1.07913e-05;-0.004023224783513967
1.07915e-05;-0.00406414169457818
1.07918e-05;-0.004096649198604275
1.07920e-05;-0.00412915670263037
1.07922e-05;-0.004160560939346636
1.07925e-05;-0.004182008677358314
1.07928e-05;-0.004203456415369991
1.07930e-05;-0.004223239694554693
1.07933e-05;-0.004228001970207156
1.07935e-05;-0.00423276424585962
1.07938e-05;-0.004237526521512084
1.07940e-05;-0.004242288797164515
1.07943e-05;-0.004247051072816979
1.07945e-05;-0.0042402417014077865
1.07948e-05;-0.004225710021279058
1.07950e-05;-0.004211178341150231
1.07953e-05;-0.004196646661021404
1.07955e-05;-0.004182114980892676
1.07958e-05;-0.004166346710421572
1.07960e-05;-0.004139418759939999
1.07963e-05;-0.004112490809458607
1.07965e-05;-0.004084910145647357
1.07968e-05;-0.004051439033197393
1.07970e-05;-0.004017967920747656
1.07973e-05;-0.003984007877177202
1.07975e-05;-0.003945635446847681
1.07978e-05;-0.003907263016518419
1.07980e-05;-0.003868636919250482
1.07983e-05;-0.0038277215902411876
1.07985e-05;-0.00378680626123217
1.07988e-05;-0.0037458386272072853
1.07990e-05;-0.0037043989635884822
1.07992e-05;-0.003663029430962218
1.07995e-05;-0.003622292799471928
1.07998e-05;-0.0035817463310878176
1.08000e-05;-0.0035429160004927067
1.08003e-05;-0.0035043917657234303
1.08005e-05;-0.0034686299101807706
1.08007e-05;-0.003433406015904276
1.08010e-05;-0.0034030369837299273
1.08013e-05;-0.0033726679515555785
1.08015e-05;-0.003342971963227513
1.08018e-05;-0.003319349897444966
1.08020e-05;-0.003295727831662419
1.08023e-05;-0.003273138464773104
1.08025e-05;-0.0032598687478994034
1.08028e-05;-0.0032465990310256124
1.08030e-05;-0.003233329314151822
1.08033e-05;-0.003220059597278121
1.08035e-05;-0.0032067898804043304
1.08038e-05;-0.00319352016353054
1.08040e-05;-0.0031816026792923745
1.08043e-05;-0.00318188849553822
1.08045e-05;-0.0031821743117840663
1.08048e-05;-0.0031824601280299103
1.08050e-05;-0.003182745944275756
1.08053e-05;-0.003183031760521602
1.08055e-05;-0.003183317576767446
1.08058e-05;-0.0031843744451684453
1.08060e-05;-0.0031923897176864445
1.08063e-05;-0.003200404990204389
1.08065e-05;-0.0032087566762572495
1.08068e-05;-0.0032201443454281456
1.08070e-05;-0.003231532014598965
1.08073e-05;-0.00324319009667449
1.08075e-05;-0.0032572885354192334
1.08077e-05;-0.0032713869741638818
1.08080e-05;-0.0032856249626282085
1.08083e-05;-0.0033011223254902394
1.08085e-05;-0.003316619688352165
1.08088e-05;-0.003332166182005897
1.08090e-05;-0.00334815605928947
1.08092e-05;-0.003364145936572935
1.08095e-05;-0.003380075774573555
1.08098e-05;-0.003395463784643283
1.08100e-05;-0.003410851794712907
1.08103e-05;-0.0034260502184562847
1.08105e-05;-0.0034395377095920807
1.08108e-05;-0.0034530252007278764
1.08110e-05;-0.0034662885994013208
1.08113e-05;-0.0034775296628769296
1.08115e-05;-0.0034887642346776515
1.08118e-05;-0.0034999402219882832
1.08120e-05;-0.0035113546941567208
1.08123e-05;-0.0035249213865164663
1.08125e-05;-0.0035387613330980718
1.08128e-05;-0.003555067277980405
1.08130e-05;-0.0035713732228627383
1.08133e-05;-0.0035876791677449615
1.08135e-05;-0.003604448831893594
1.08138e-05;-0.0036254033569917987
1.08140e-05;-0.003646357882089861
1.08143e-05;-0.0036673124071880656
1.08145e-05;-0.0036888391674273495
1.08148e-05;-0.003715530096313503
1.08150e-05;-0.003742221025199837
1.08153e-05;-0.003768911954086171
1.08155e-05;-0.0037956028829723245
1.08158e-05;-0.003825291632361228
1.08160e-05;-0.003856980969505523
1.08162e-05;-0.003888670306649604
1.08165e-05;-0.003920359643793899
1.08168e-05;-0.0039523264932652255
1.08170e-05;-0.003986797768549878
1.08173e-05;-0.004021337792878253
1.08175e-05;-0.004056498246868355
1.08177e-05;-0.004091726822798941
1.08180e-05;-0.00412757016906688
1.08183e-05;-0.004163426939979121
1.08185e-05;-0.004199404862358848
1.08188e-05;-0.004235306556914257
1.08190e-05;-0.004270520329121756
1.08193e-05;-0.004305579694693764
1.08195e-05;-0.004339245608782023
1.08198e-05;-0.004372720186850191
1.08200e-05;-0.004404468042096258
1.08203e-05;-0.004435953675483738
1.08205e-05;-0.004465072872762953
1.08208e-05;-0.004493937466321045
1.08210e-05;-0.00452018973108035
1.08213e-05;-0.004543602482114252
1.08215e-05;-0.004566483450006536
1.08218e-05;-0.004584565310623217
1.08220e-05;-0.0046018611327677756
1.08223e-05;-0.004612063305911423
1.08225e-05;-0.004622265479055003
1.08228e-05;-0.0046311725874472465
1.08230e-05;-0.004628392310165239
1.08233e-05;-0.00462561203288325
1.08235e-05;-0.004622831755601244
1.08238e-05;-0.004620051478319237
1.08240e-05;-0.004615647469406044
1.08243e-05;-0.004596590001826177
1.08245e-05;-0.004577532534246309
1.08247e-05;-0.004558475066666571
1.08250e-05;-0.0045394175990867034
1.08253e-05;-0.004519219265905034
1.08255e-05;-0.004488725126065035
1.08258e-05;-0.004458230986224829
1.08260e-05;-0.004427019611149953
1.08262e-05;-0.0043893355058135415
1.08265e-05;-0.004351651400476875
1.08268e-05;-0.004313437075884598
1.08270e-05;-0.004270437757394463
1.08273e-05;-0.004227438438904038
1.08275e-05;-0.0041840940590547795
1.08278e-05;-0.004137635653301803
1.08280e-05;-0.004091177247549141
1.08283e-05;-0.0040445839527664465
1.08285e-05;-0.003996773344245343
1.08288e-05;-0.00394898187397179
1.08290e-05;-0.0039013631179010567
1.08293e-05;-0.003853871036588063
1.08295e-05;-0.0038075221388481325
1.08298e-05;-0.00376140352717736
1.08300e-05;-0.003717363145268943
1.08303e-05;-0.0036736705615198844
1.08305e-05;-0.0036331167020848625
1.08308e-05;-0.00359290079297295
1.08310e-05;-0.003556151979801971
1.08313e-05;-0.0035231686087453546
1.08315e-05;-0.0034908776520409497
1.08318e-05;-0.003464835428133119
1.08320e-05;-0.003439596046728268
1.08323e-05;-0.0034216019632641224
1.08325e-05;-0.0034044266553585286
1.08328e-05;-0.0033946404341597576
1.08330e-05;-0.003385895106768994
1.08332e-05;-0.0033865433848911395
1.08335e-05;-0.003387191663013289
1.08338e-05;-0.003389333407651188
1.08340e-05;-0.0034049530260035848
1.08343e-05;-0.0034205726443560873
1.08345e-05;-0.00343619226270859
1.08347e-05;-0.003453346314419244
1.08350e-05;-0.0034843479474524533
1.08353e-05;-0.0035153495804856622
1.08355e-05;-0.0035463512135186608
1.08358e-05;-0.0035782070534162874
1.08360e-05;-0.0036180799877077573
1.08363e-05;-0.00366101587584883
1.08365e-05;-0.003706742096951852
1.08368e-05;-0.003754984050784478
1.08370e-05;-0.0038054664380511257
1.08373e-05;-0.0038579161925770327
1.08375e-05;-0.003912071652897529
1.08378e-05;-0.003967693564866507
1.08380e-05;-0.004024526831175986
1.08383e-05;-0.004082257184894935
1.08385e-05;-0.004140541062037771
1.08388e-05;-0.004199031777205336
1.08390e-05;-0.004257384555237592
1.08393e-05;-0.004315253733821345
1.08395e-05;-0.004372302356570255
1.08398e-05;-0.004428207069884201
1.08400e-05;-0.004482634749259935
1.08403e-05;-0.0045352150127283735
1.08405e-05;-0.0045855589402112075
1.08408e-05;-0.004633276680306488
1.08410e-05;-0.004677977729002108
1.08413e-05;-0.0047192726552470225
1.08415e-05;-0.0047567695976529515
1.08418e-05;-0.004789891889794562
1.08420e-05;-0.004817057637973521
1.08423e-05;-0.0048430844436672055
1.08425e-05;-0.004858832797963024
1.08428e-05;-0.004874581152258949
1.08430e-05;-0.004888554294769943
1.08432e-05;-0.00488650693731009
1.08435e-05;-0.004884459579850224
1.08438e-05;-0.004882412222390358
1.08440e-05;-0.004880364864930506
1.08443e-05;-0.004865967750602843
1.08445e-05;-0.004843329057978736
1.08448e-05;-0.004820690365354628
1.08450e-05;-0.004798051672730674
1.08453e-05;-0.004773905357972838
1.08455e-05;-0.0047361534213086545
1.08458e-05;-0.004698401484644726
1.08460e-05;-0.004659652222331081
1.08463e-05;-0.0046119025378284
1.08465e-05;-0.004564152853326043
1.08468e-05;-0.004515648911300721
1.08470e-05;-0.004460338129255595
1.08473e-05;-0.004405027347210844
1.08475e-05;-0.004349216632651516
1.08478e-05;-0.0042888942486119545
1.08480e-05;-0.004228571864572803
1.08483e-05;-0.004168051540579239
1.08485e-05;-0.0041057448961842455
1.08488e-05;-0.0040434456144406005
1.08490e-05;-0.003981212777359645
1.08493e-05;-0.003919074284405076
1.08495e-05;-0.0038578979471013165
1.08498e-05;-0.0037978694653758136
1.08500e-05;-0.0037393690465368093
1.08503e-05;-0.00368279659844491
1.08505e-05;-0.0036287145852376716
1.08508e-05;-0.003578464144401719
1.08510e-05;-0.0035289104960237786
1.08513e-05;-0.0034856450909127638
1.08515e-05;-0.003443125380661702
1.08517e-05;-0.0034073352361960805
1.08520e-05;-0.0033722445784071073
1.08523e-05;-0.0033434664780208454
1.08525e-05;-0.0033156247349597303
1.08528e-05;-0.003296233201972374
1.08530e-05;-0.003276841668985018
1.08533e-05;-0.0032586246994673403
1.08535e-05;-0.0032510076449602386
1.08538e-05;-0.003243390590453085
1.08540e-05;-0.0032368227795097153
1.08543e-05;-0.0032397239269398503
1.08545e-05;-0.0032426250743700052
1.08548e-05;-0.0032465141176816503
1.08550e-05;-0.003259318483708908
1.08553e-05;-0.0032721228497362524
1.08555e-05;-0.003285676096460358
1.08558e-05;-0.003305987659735975
1.08560e-05;-0.003326787840578979
1.08563e-05;-0.003351997578520602
1.08565e-05;-0.0033776312495408713
1.08568e-05;-0.0034070907288057863
1.08570e-05;-0.0034368304649393796
1.08573e-05;-0.003469263858671048
1.08575e-05;-0.0035033200756213185
1.08578e-05;-0.00353873414555052
1.08580e-05;-0.0035751934346044526
1.08583e-05;-0.0036124346695964845
1.08585e-05;-0.003650237289658383
1.08588e-05;-0.0036883822243802384
1.08590e-05;-0.0037266505897315064
1.08593e-05;-0.0037648219217405908
1.08595e-05;-0.0038026580013250546
1.08598e-05;-0.0038398684043240935
1.08600e-05;-0.0038761334236229773
1.08602e-05;-0.003911077079339457
1.08605e-05;-0.003943917143134904
1.08608e-05;-0.003976359461198409
1.08610e-05;-0.004005212300221089
1.08613e-05;-0.004033727479246849
1.08615e-05;-0.004059055884395211
1.08618e-05;-0.004083122244342254
1.08620e-05;-0.004107163870944502
1.08623e-05;-0.004131217458951405
1.08625e-05;-0.004155378993335298
1.08628e-05;-0.004179433773151696
1.08630e-05;-0.004202525140287142
1.08633e-05;-0.004225616507422586
1.08635e-05;-0.004248653997914608
1.08638e-05;-0.004271205275566991
1.08640e-05;-0.004293908861769883
1.08643e-05;-0.00431798696517297
1.08645e-05;-0.00434206506857622
1.08648e-05;-0.004366205529994008
1.08650e-05;-0.004390908744870194
1.08653e-05;-0.004415611959746548
1.08655e-05;-0.0044403151746229014
1.08658e-05;-0.00446513764354053
1.08660e-05;-0.0044910363273567245
1.08663e-05;-0.004516935011172919
1.08665e-05;-0.004542833694988938
1.08668e-05;-0.004568782577993931
1.08670e-05;-0.004595184486441276
1.08673e-05;-0.004621586394888442
1.08675e-05;-0.004647960494038108
1.08678e-05;-0.004674083626594785
1.08680e-05;-0.0047002067591512845
1.08683e-05;-0.004726287078396114
1.08685e-05;-0.004751981026466323
1.08687e-05;-0.004777674974536357
1.08690e-05;-0.004803188827984481
1.08693e-05;-0.004827077407243798
1.08695e-05;-0.004850965986502952
1.08698e-05;-0.004874670251745088
1.08700e-05;-0.004896711164626581
1.08703e-05;-0.0049186214310998795
1.08705e-05;-0.004939243787990843
1.08708e-05;-0.004958758376604812
1.08710e-05;-0.004977002122586976
1.08713e-05;-0.004993792578793658
1.08715e-05;-0.005008722014980066
1.08718e-05;-0.005020842989707958
1.08720e-05;-0.00502892725787015
1.08723e-05;-0.005031392235894522
1.08725e-05;-0.005032867250922241
1.08728e-05;-0.00502540828842218
1.08730e-05;-0.005017949325922068
1.08733e-05;-0.005009173965236055
1.08735e-05;-0.0049885186940380865
1.08738e-05;-0.004967863422839979
1.08740e-05;-0.00494720815164187
1.08743e-05;-0.004917263299484962
1.08745e-05;-0.004881119069502381
1.08748e-05;-0.004844974839519801
1.08750e-05;-0.00480761035162414
1.08753e-05;-0.004759233576587884
1.08755e-05;-0.004710856801551629
1.08758e-05;-0.004661447629565883
1.08760e-05;-0.004602721532419213
1.08763e-05;-0.004543995435272543
1.08765e-05;-0.004484470904699743
1.08768e-05;-0.004417740866126398
1.08770e-05;-0.004351010827553054
1.08772e-05;-0.004283847027421109
1.08775e-05;-0.0042127687213570995
1.08778e-05;-0.004141446309737609
1.08780e-05;-0.004067920953609296
1.08783e-05;-0.003994292659723888
1.08785e-05;-0.0039197353981824026
1.08788e-05;-0.0038452100956555997
1.08790e-05;-0.003771052781452593
1.08793e-05;-0.0036977339763916615
1.08795e-05;-0.0036256541244021117
1.08798e-05;-0.003555131022360959
1.08800e-05;-0.003486470001134548
1.08803e-05;-0.0034200811274836774
1.08805e-05;-0.0033570264967844273
1.08808e-05;-0.0033021232847810175
1.08810e-05;-0.0032472200727776076
1.08813e-05;-0.0031923168607745694
1.08815e-05;-0.0031384164905997216
1.08818e-05;-0.0030935663237126767
1.08820e-05;-0.0030490104925380984
1.08823e-05;-0.0030071109107878643
1.08825e-05;-0.00296521132903763
1.08828e-05;-0.002923860152521244
1.08830e-05;-0.00288745809031875
1.08833e-05;-0.002851056028116257
1.08835e-05;-0.0028150705634380595
1.08838e-05;-0.002782844706880571
1.08840e-05;-0.00275073302947723
1.08843e-05;-0.002719651768364155
1.08845e-05;-0.002688570507250869
1.08848e-05;-0.00265781916025373
1.08850e-05;-0.0026300451420184136
1.08853e-05;-0.002602271123782909
1.08855e-05;-0.0025744971055474044
1.08857e-05;-0.0025469573566444872
1.08860e-05;-0.0025215317846961974
1.08863e-05;-0.0024961062127479075
1.08865e-05;-0.00247068064079979
1.08868e-05;-0.002445504377037075
1.08870e-05;-0.0024225780092177658
1.08873e-05;-0.0023996516413984565
1.08875e-05;-0.0023767252735793025
1.08878e-05;-0.0023537989057599933
1.08880e-05;-0.002331128098573005
1.08883e-05;-0.002310763612892086
1.08885e-05;-0.002290399127211029
1.08888e-05;-0.002270034641529972
1.08890e-05;-0.002249670155849053
1.08893e-05;-0.002229582790747958
1.08895e-05;-0.0022119963161306355
1.08898e-05;-0.0021944098415134323
1.08900e-05;-0.0021770317021560658
1.08903e-05;-0.0021615336962379716
1.08905e-05;-0.0021460356903199827
1.08908e-05;-0.0021305376844018885
1.08910e-05;-0.0021168550559302096
1.08913e-05;-0.0021043839149027413
1.08915e-05;-0.0020919127738751888
1.08918e-05;-0.002079581204686412
1.08920e-05;-0.002068509209519691
1.08923e-05;-0.0020574372143528957
1.08925e-05;-0.0020463652191861
1.08928e-05;-0.0020352932240193795
1.08930e-05;-0.0020242212288525837
1.08933e-05;-0.0020131492336857883
1.08935e-05;-0.0020020997926513363
1.08938e-05;-0.001991253892670289
1.08940e-05;-0.0019804079926892416
1.08942e-05;-0.0019695620927082675
1.08945e-05;-0.00195871619272722
1.08948e-05;-0.0019478702927461728
1.08950e-05;-0.001937024392765199
1.08953e-05;-0.001926133493630906
