Time(s);Current(A)
4.75000e-06;0.010962199847231712
4.75025e-06;0.01095297558496578
4.75050e-06;0.010943751322699815
4.75075e-06;0.010934527060433881
4.75100e-06;0.010925302798167948
4.75125e-06;0.010917526183599365
4.75150e-06;0.01091182835208787
4.75175e-06;0.010906130520576353
4.75200e-06;0.010900432689064857
4.75225e-06;0.01089473485755336
4.75250e-06;0.010889037026041845
4.75275e-06;0.010883339194530347
4.75300e-06;0.010877641363018851
4.75325e-06;0.010871943531507335
4.75350e-06;0.01086624569999584
4.75375e-06;0.010860547868484342
4.75400e-06;0.010862649567179165
4.75425e-06;0.010865517813557133
4.75450e-06;0.010868386059935101
4.75475e-06;0.01087125430631308
4.75500e-06;0.010874122552691047
4.75525e-06;0.010876990799069015
4.75550e-06;0.010879859045446992
4.75575e-06;0.01088272729182496
4.75600e-06;0.010885595538202938
4.75625e-06;0.010888463784580906
4.75650e-06;0.010891332030958874
4.75675e-06;0.010894200277336851
4.75700e-06;0.010897068523714819
4.75725e-06;0.010899936770092787
4.75750e-06;0.010902805016470766
4.75775e-06;0.010905673262848734
4.75800e-06;0.010908541509226702
4.75825e-06;0.010911409755604678
4.75850e-06;0.010914278001982646
4.75875e-06;0.010917146248360614
4.75900e-06;0.010921709517603718
4.75925e-06;0.010928706793973836
4.75950e-06;0.010935704070343956
4.75975e-06;0.0109427013467141
4.76000e-06;0.010949698623084217
4.76025e-06;0.01095669589945436
4.76050e-06;0.010963693175824478
4.76075e-06;0.010970690452194598
4.76100e-06;0.01097768772856474
4.76125e-06;0.010984685004934859
4.76150e-06;0.010991682281304978
4.76175e-06;0.01099867955767512
4.76200e-06;0.01100567683404524
4.76225e-06;0.01101267411041536
4.76250e-06;0.011019671386785501
4.76275e-06;0.01102666866315562
4.76300e-06;0.011033665939525738
4.76325e-06;0.011040663215895882
4.76350e-06;0.011047660492266
4.76375e-06;0.011054657768636119
4.76400e-06;0.011061655045006261
4.76425e-06;0.011068327087637251
4.76450e-06;0.011074967165885479
4.76475e-06;0.011081607244133684
4.76500e-06;0.01108824732238189
4.76525e-06;0.011094887400630117
4.76550e-06;0.011101527478878322
4.76575e-06;0.011108167557126528
4.76600e-06;0.011114807635374754
4.76625e-06;0.011121447713622959
4.76650e-06;0.011128087791871164
4.76675e-06;0.011134727870119392
4.76700e-06;0.011141367948367597
4.76725e-06;0.011148008026615802
4.76750e-06;0.01115464810486403
4.76775e-06;0.011161288183112234
4.76800e-06;0.011167928261360439
4.76825e-06;0.011174568339608667
4.76850e-06;0.011181208417856872
4.76875e-06;0.011187803402944991
4.76900e-06;0.011194333635471152
4.76925e-06;0.011200863867997311
4.76950e-06;0.011207394100523493
4.76975e-06;0.011213924333049654
4.77000e-06;0.011220454565575813
4.77025e-06;0.011226984798101997
4.77050e-06;0.011233515030628156
4.77075e-06;0.011240045263154317
4.77100e-06;0.011246575495680498
4.77125e-06;0.011253105728206658
4.77150e-06;0.011259635960732818
4.77175e-06;0.011266166193259
4.77200e-06;0.01127269642578516
4.77225e-06;0.01127922665831132
4.77250e-06;0.011285756890837502
4.77275e-06;0.011292287123363663
4.77300e-06;0.011298817355889845
4.77325e-06;0.011305347588416004
4.77350e-06;0.011314249287681658
4.77375e-06;0.011323384057694508
4.77400e-06;0.011332518827707326
4.77425e-06;0.011341653597720146
4.77450e-06;0.011350788367732996
4.77475e-06;0.011359923137745814
4.77500e-06;0.011369057907758632
4.77525e-06;0.011378192677771484
4.77550e-06;0.011387327447784302
4.77575e-06;0.01139646221779712
4.77600e-06;0.01140559698780997
4.77625e-06;0.01141473175782279
4.77650e-06;0.011423866527835608
4.77675e-06;0.011437593184781339
4.77700e-06;0.011451771138175899
4.77725e-06;0.011465949091570508
4.77750e-06;0.011480127044965066
4.77775e-06;0.011494304998359626
4.77800e-06;0.011508482951754235
4.77825e-06;0.011522660905148793
4.77850e-06;0.011536838858543353
4.77875e-06;0.011551016811937962
4.77900e-06;0.01156519476533252
4.77925e-06;0.01157937271872708
4.77950e-06;0.01159355067212169
4.77975e-06;0.011607728625516248
4.78000e-06;0.011622309073132282
4.78025e-06;0.011636929078388931
4.78050e-06;0.011651549083645532
4.78075e-06;0.011666169088902131
4.78100e-06;0.011680789094158782
4.78125e-06;0.01169540909941538
4.78150e-06;0.011710029104671981
4.78175e-06;0.01172464910992863
4.78200e-06;0.01173926911518523
4.78225e-06;0.011751186036973
4.78250e-06;0.011762837296302583
4.78275e-06;0.011774488555632167
4.78300e-06;0.01178613981496179
4.78325e-06;0.011797791074291374
4.78350e-06;0.011809442333620959
4.78375e-06;0.011821093592950582
4.78400e-06;0.011832744852280166
4.78425e-06;0.01184439611160975
4.78450e-06;0.011856011849921987
4.78475e-06;0.011867624097183723
4.78500e-06;0.01187923634444546
4.78525e-06;0.011890848591707234
4.78550e-06;0.01190246083896897
4.78575e-06;0.011914073086230707
4.78600e-06;0.011925685333492482
4.78625e-06;0.011937297580754219
4.78650e-06;0.011948909828015995
4.78675e-06;0.01196052207527773
4.78700e-06;0.011972134322539466
4.78725e-06;0.011983746569801243
4.78750e-06;0.011995358817062977
4.78775e-06;0.012006971064324714
4.78800e-06;0.01201858331158649
4.78825e-06;0.012030195558848225
4.78850e-06;0.012041807806109962
4.78875e-06;0.012053420053371738
4.78900e-06;0.012064510744687205
4.78925e-06;0.01207555017682541
4.78950e-06;0.012086589608963652
4.78975e-06;0.012097629041101857
4.79000e-06;0.012108668473240061
4.79025e-06;0.012119707905378302
4.79050e-06;0.012130747337516507
4.79075e-06;0.01214178676965475
4.79100e-06;0.012152826201792954
4.79125e-06;0.012163865633931159
4.79150e-06;0.0121749050660694
4.79175e-06;0.012185944498207604
4.79200e-06;0.012196983930345809
4.79225e-06;0.012208023362484052
4.79250e-06;0.012219062794622256
4.79275e-06;0.01223010222676046
4.79300e-06;0.012241141658898703
4.79325e-06;0.012252181091036908
4.79350e-06;0.012263429618539053
4.79375e-06;0.012274698696197742
4.79400e-06;0.012285967773856394
4.79425e-06;0.012297236851515046
4.79450e-06;0.012308505929173737
4.79475e-06;0.012319775006832389
4.79500e-06;0.012331044084491078
4.79525e-06;0.01234231316214973
4.79550e-06;0.012353582239808382
4.79575e-06;0.012364851317467071
4.79600e-06;0.012376120395125723
4.79625e-06;0.012387389472784375
4.79650e-06;0.012400362690815053
4.79675e-06;0.012415783008464895
4.79700e-06;0.01243120332611474
4.79725e-06;0.012446623643764634
4.79750e-06;0.012462043961414478
4.79775e-06;0.012477464279064321
4.79800e-06;0.012492884596714217
4.79825e-06;0.01250830491436406
4.79850e-06;0.012523725232013904
4.79875e-06;0.0125391455496638
4.79900e-06;0.012554565867313643
4.79925e-06;0.01256998618496354
4.79950e-06;0.012585406502613382
4.79975e-06;0.012600671062957482
4.80000e-06;0.012615920315276872
4.80025e-06;0.012631169567596209
4.80050e-06;0.012646418819915548
4.80075e-06;0.012661668072234938
4.80100e-06;0.012676917324554275
4.80125e-06;0.012692166576873613
4.80150e-06;0.012707415829193002
4.80175e-06;0.012722665081512341
4.80200e-06;0.012737914333831679
4.80225e-06;0.012753163586151068
4.80250e-06;0.012768412838470408
4.80275e-06;0.012779666076294768
4.80300e-06;0.012785181145064241
4.80325e-06;0.012790696213833696
4.80350e-06;0.012796211282603168
4.80375e-06;0.012801726351372623
4.80400e-06;0.012807241420142076
4.80425e-06;0.01281275648891155
4.80450e-06;0.012818271557681005
4.80475e-06;0.012823786626450458
4.80500e-06;0.012829301695219932
4.80525e-06;0.012834816763989385
4.80550e-06;0.01284033183275884
4.80575e-06;0.012845846901528313
4.80600e-06;0.012838140985978387
4.80625e-06;0.012829135695389226
4.80650e-06;0.012820130404800033
4.80675e-06;0.01281112511421087
4.80700e-06;0.012802119823621708
4.80725e-06;0.012793114533032515
4.80750e-06;0.012784109242443352
4.80775e-06;0.01277510395185416
4.80800e-06;0.012766098661264998
4.80825e-06;0.012757093370675836
4.80850e-06;0.012748088080086643
4.80875e-06;0.01273908278949748
4.80900e-06;0.012730077498908319
4.80925e-06;0.012721072208319126
4.80950e-06;0.012708746887086545
4.80975e-06;0.01269609526904864
4.81000e-06;0.012683443651010692
4.81025e-06;0.012670792032972788
4.81050e-06;0.012658140414934882
4.81075e-06;0.012645488796896934
4.81100e-06;0.01263283717885903
4.81125e-06;0.012620185560821125
4.81150e-06;0.012607533942783177
4.81175e-06;0.01259488232474527
4.81200e-06;0.012582230706707323
4.81225e-06;0.012569579088669418
4.81250e-06;0.012556927470631514
4.81275e-06;0.012544275852593566
4.81300e-06;0.012534995696367079
4.81325e-06;0.012526046891666006
4.81350e-06;0.012517098086964901
4.81375e-06;0.012508149282263827
4.81400e-06;0.012499200477562753
4.81425e-06;0.012490251672861647
4.81450e-06;0.012481302868160574
4.81475e-06;0.0124723540634595
4.81500e-06;0.012461687694886278
4.81525e-06;0.01244855495091058
4.81550e-06;0.012435422206934882
4.81575e-06;0.01242228946295914
4.81600e-06;0.012409156718983442
4.81625e-06;0.012396023975007699
4.81650e-06;0.012382891231032
4.81675e-06;0.012369758487056303
4.81700e-06;0.01235662574308056
4.81725e-06;0.012338989353030865
4.81750e-06;0.012320910338956449
4.81775e-06;0.012302831324881972
4.81800e-06;0.012284752310807556
4.81825e-06;0.01226667329673314
4.81850e-06;0.012248594282658664
4.81875e-06;0.012230515268584248
4.81900e-06;0.012212436254509832
4.81925e-06;0.012194357240435355
4.81950e-06;0.012176278226360939
4.81975e-06;0.012158199212286523
4.82000e-06;0.012140120198212045
4.82025e-06;0.012122041184137629
4.82050e-06;0.012103962170063152
4.82075e-06;0.012085883155988736
4.82100e-06;0.012071362707691657
4.82125e-06;0.012061952263885746
4.82150e-06;0.012052541820079865
4.82175e-06;0.012043131376273986
4.82200e-06;0.012033720932468073
4.82225e-06;0.012024310488662194
4.82250e-06;0.012014900044856313
4.82275e-06;0.012005489601050402
4.82300e-06;0.011996079157244521
4.82325e-06;0.01198666871343864
4.82350e-06;0.011977258269632729
4.82375e-06;0.011967847825826848
4.82400e-06;0.011958437382020968
4.82425e-06;0.011949026938215056
4.82450e-06;0.011939616494409175
4.82475e-06;0.011930206050603263
4.82500e-06;0.011939030597506142
4.82525e-06;0.011949647302327726
4.82550e-06;0.011960264007149349
4.82575e-06;0.011970880711970933
4.82600e-06;0.011981497416792518
4.82625e-06;0.011992114121614139
4.82650e-06;0.012002730826435725
4.82675e-06;0.01201334753125731
4.82700e-06;0.01202396423607893
4.82725e-06;0.012034580940900517
4.82750e-06;0.012045197645722101
4.82775e-06;0.012055814350543722
4.82800e-06;0.012070913870984442
4.82825e-06;0.01209245059376372
4.82850e-06;0.01211398731654307
4.82875e-06;0.012135524039322346
4.82900e-06;0.012157060762101695
4.82925e-06;0.012178597484880973
4.82950e-06;0.01220013420766025
4.82975e-06;0.012221670930439599
4.83000e-06;0.012243207653218876
4.83025e-06;0.012264744375998154
4.83050e-06;0.012286281098777503
4.83075e-06;0.01230781782155678
4.83100e-06;0.012329354544336056
4.83125e-06;0.012349338350689455
4.83150e-06;0.01236916953445507
4.83175e-06;0.012389000718220687
4.83200e-06;0.01240883190198637
4.83225e-06;0.012428663085751985
4.83250e-06;0.0124484942695176
4.83275e-06;0.012468325453283283
4.83300e-06;0.01248627738813431
4.83325e-06;0.012504044628028557
4.83350e-06;0.012521811867922743
4.83375e-06;0.012539579107816928
4.83400e-06;0.012557346347711175
4.83425e-06;0.012575113587605359
4.83450e-06;0.012592880827499545
4.83475e-06;0.01261535307448532
4.83500e-06;0.012638287735510416
4.83525e-06;0.012661222396535513
4.83550e-06;0.012684157057560687
4.83575e-06;0.012707091718585783
4.83600e-06;0.01273002637961088
4.83625e-06;0.012752961040636054
4.83650e-06;0.01277589570166115
4.83675e-06;0.012798830362686246
4.83700e-06;0.01282176502371142
4.83725e-06;0.01284733875253578
4.83750e-06;0.012876702111550068
4.83775e-06;0.012906065470564257
4.83800e-06;0.012935428829578446
4.83825e-06;0.012964792188592734
4.83850e-06;0.012994155547606922
4.83875e-06;0.013023518906621111
4.83900e-06;0.013052882265635399
4.83925e-06;0.013082245624649587
4.83950e-06;0.013111608983663776
4.83975e-06;0.013140972342678064
4.84000e-06;0.013169151777702628
4.84025e-06;0.01319721485518223
4.84050e-06;0.013225277932661924
4.84075e-06;0.013253341010141525
4.84100e-06;0.013281404087621126
4.84125e-06;0.013309467165100822
4.84150e-06;0.013337530242580423
4.84175e-06;0.01336559332006012
4.84200e-06;0.01339365639753972
4.84225e-06;0.013421719475019321
4.84250e-06;0.013439494751924979
4.84275e-06;0.013456258930797087
4.84300e-06;0.013473023109669196
4.84325e-06;0.01348978728854136
4.84350e-06;0.01350655146741347
4.84375e-06;0.013523315646285578
4.84400e-06;0.013540079825157742
4.84425e-06;0.013556844004029851
4.84450e-06;0.01357360818290196
4.84475e-06;0.013590372361774124
4.84500e-06;0.013591935222319987
4.84525e-06;0.013592004078102335
4.84550e-06;0.013592072933884685
4.84575e-06;0.013592141789667035
4.84600e-06;0.013592210645449385
4.84625e-06;0.013592279501231735
4.84650e-06;0.013592348357014086
4.84675e-06;0.013592417212796436
4.84700e-06;0.013592486068578786
4.84725e-06;0.013592554924361136
4.84750e-06;0.013592623780143486
4.84775e-06;0.013592692635925836
4.84800e-06;0.013592761491708186
4.84825e-06;0.013592830347490537
4.84850e-06;0.013592899203272885
4.84875e-06;0.01358493314838777
4.84900e-06;0.01357617741233475
4.84925e-06;0.01356742167628176
4.84950e-06;0.013558665940228769
4.84975e-06;0.01354991020417575
4.85000e-06;0.013541154468122759
4.85025e-06;0.01353239873206974
4.85050e-06;0.01352364299601675
4.85075e-06;0.01351488725996376
4.85100e-06;0.01350613152391074
4.85125e-06;0.01349737578785775
4.85150e-06;0.01348862005180476
4.85175e-06;0.01347986431575174
4.85200e-06;0.013471108579698752
4.85225e-06;0.013462352843645761
4.85250e-06;0.013458503304435085
4.85275e-06;0.013455135952446134
4.85300e-06;0.013451768600457183
4.85325e-06;0.01344840124846822
4.85350e-06;0.013445033896479268
4.85375e-06;0.013441666544490317
4.85400e-06;0.013438299192501354
4.85425e-06;0.013434931840512403
4.85450e-06;0.01343156448852344
4.85475e-06;0.01343765434831136
4.85500e-06;0.013444673674816093
4.85525e-06;0.01345169300132085
4.85550e-06;0.013458712327825586
4.85575e-06;0.013465731654330319
4.85600e-06;0.013472750980835077
4.85625e-06;0.01347977030733981
4.85650e-06;0.013486789633844544
4.85675e-06;0.013493808960349301
4.85700e-06;0.013500828286854035
4.85725e-06;0.01350784761335877
4.85750e-06;0.013514866939863526
4.85775e-06;0.013521886266368261
4.85800e-06;0.013528905592872995
4.85825e-06;0.013535924919377752
4.85850e-06;0.013542944245882486
4.85875e-06;0.013549963572387243
4.85900e-06;0.013556982898891977
4.85925e-06;0.013567863840511096
4.85950e-06;0.013579124306540381
4.85975e-06;0.013590384772569627
4.86000e-06;0.013601645238598874
4.86025e-06;0.01361290570462816
4.86050e-06;0.013624166170657405
4.86075e-06;0.013635426636686652
4.86100e-06;0.013646687102715938
4.86125e-06;0.013657947568745183
4.86150e-06;0.01366920803477443
4.86175e-06;0.013680468500803716
4.86200e-06;0.013691728966832961
4.86225e-06;0.013702989432862208
4.86250e-06;0.013714249898891494
4.86275e-06;0.01372551036492074
4.86300e-06;0.013736770830950025
4.86325e-06;0.013748031296979272
4.86350e-06;0.013759291763008517
4.86375e-06;0.013761937904487131
4.86400e-06;0.013763737419270412
4.86425e-06;0.013765536934053692
4.86450e-06;0.013767336448836978
4.86475e-06;0.013769135963620258
4.86500e-06;0.013770935478403539
4.86525e-06;0.013772734993186824
4.86550e-06;0.013774534507970105
4.86575e-06;0.013776334022753385
4.86600e-06;0.013778133537536671
4.86625e-06;0.013779933052319952
4.86650e-06;0.013781732567103232
4.86675e-06;0.013783532081886518
4.86700e-06;0.013785331596669798
4.86725e-06;0.013779480558652336
4.86750e-06;0.013772877614644395
4.86775e-06;0.013766274670636453
4.86800e-06;0.01375967172662849
4.86825e-06;0.013753068782620548
4.86850e-06;0.013746465838612606
4.86875e-06;0.013739862894604642
4.86900e-06;0.0137332599505967
4.86925e-06;0.013726657006588759
4.86950e-06;0.013720054062580795
4.86975e-06;0.013713451118572853
4.87000e-06;0.013706848174564912
4.87025e-06;0.013700245230556947
4.87050e-06;0.013693642286549006
4.87075e-06;0.013688033327480597
4.87100e-06;0.013682522058507226
4.87125e-06;0.013677010789533876
4.87150e-06;0.013671499520560505
4.87175e-06;0.013665988251587154
4.87200e-06;0.013660476982613802
4.87225e-06;0.013654965713640433
4.87250e-06;0.013649454444667081
4.87275e-06;0.01364394317569373
4.87300e-06;0.01363843190672036
4.87325e-06;0.01363292063774701
4.87350e-06;0.013627409368773657
4.87375e-06;0.013624838664866466
4.87400e-06;0.01362649053309061
4.87425e-06;0.013628142401314753
4.87450e-06;0.013629794269538902
4.87475e-06;0.013631446137763046
4.87500e-06;0.01363309800598719
4.87525e-06;0.01363474987421134
4.87550e-06;0.013636401742435484
4.87575e-06;0.013638053610659633
4.87600e-06;0.013639705478883777
4.87625e-06;0.01364135734710792
4.87650e-06;0.01364300921533207
4.87675e-06;0.013644661083556213
4.87700e-06;0.013651517107231953
4.87725e-06;0.013658884601877098
4.87750e-06;0.013666252096522218
4.87775e-06;0.013673619591167337
4.87800e-06;0.013680987085812482
4.87825e-06;0.013688354580457602
4.87850e-06;0.013695722075102723
4.87875e-06;0.013703089569747867
4.87900e-06;0.013710457064392986
4.87925e-06;0.013717824559038107
4.87950e-06;0.013725192053683251
4.87975e-06;0.013732559548328372
4.88000e-06;0.013739927042973516
4.88025e-06;0.013747602116632196
4.88050e-06;0.013755376355943774
4.88075e-06;0.01376315059525538
4.88100e-06;0.01377092483456696
4.88125e-06;0.013778699073878539
4.88150e-06;0.013786473313190144
4.88175e-06;0.013794247552501724
4.88200e-06;0.013802021791813304
4.88225e-06;0.013809796031124909
4.88250e-06;0.013817570270436487
4.88275e-06;0.013825344509748067
4.88300e-06;0.013833118749059672
4.88325e-06;0.013840892988371252
4.88350e-06;0.013849966034685966
4.88375e-06;0.013859898190806028
4.88400e-06;0.013869830346926057
4.88425e-06;0.01387976250304612
4.88450e-06;0.01388969465916615
4.88475e-06;0.013899626815286179
4.88500e-06;0.013909558971406243
4.88525e-06;0.013919491127526272
4.88550e-06;0.0139294232836463
4.88575e-06;0.013939355439766364
4.88600e-06;0.013950063929891615
4.88625e-06;0.013967616167317145
4.88650e-06;0.013985168404742733
4.88675e-06;0.014002720642168263
4.88700e-06;0.01402027287959379
4.88725e-06;0.014037825117019379
4.88750e-06;0.014055377354444908
4.88775e-06;0.014072929591870438
4.88800e-06;0.014090481829296024
4.88825e-06;0.014108034066721554
4.88850e-06;0.014125586304147142
4.88875e-06;0.01414521496836634
4.88900e-06;0.014166217107331172
4.88925e-06;0.014187219246296075
4.88950e-06;0.014208221385260907
4.88975e-06;0.014229223524225738
4.89000e-06;0.014250225663190641
4.89025e-06;0.014271227802155473
4.89050e-06;0.014292229941120305
4.89075e-06;0.01431123331872646
4.89100e-06;0.014328914594220856
4.89125e-06;0.014346595869715253
4.89150e-06;0.01436427714520971
4.89175e-06;0.014381958420704107
4.89200e-06;0.014399639696198504
4.89225e-06;0.01441732097169296
4.89250e-06;0.014435002247187356
4.89275e-06;0.014444843031208156
4.89300e-06;0.014449497638155687
4.89325e-06;0.014454152245103219
4.89350e-06;0.014458806852050764
4.89375e-06;0.014463461458998296
4.89400e-06;0.014468116065945827
4.89425e-06;0.014470424241570447
4.89450e-06;0.014452047527808525
4.89475e-06;0.014433670814046604
4.89500e-06;0.014415294100284621
4.89525e-06;0.0143969173865227
4.89550e-06;0.014378540672760778
4.89575e-06;0.014360163958998794
4.89600e-06;0.014325677902974045
4.89625e-06;0.014280536149945615
4.89650e-06;0.014235394396917032
4.89675e-06;0.014190252643888603
4.89700e-06;0.01414511089086002
4.89725e-06;0.01409996913783159
4.89750e-06;0.01405482738480316
4.89775e-06;0.014009685631774578
4.89800e-06;0.013962623365472075
4.89825e-06;0.013898630876561917
4.89850e-06;0.013834638387651544
4.89875e-06;0.013770645898741387
4.89900e-06;0.013706653409831229
4.89925e-06;0.013642660920920854
4.89950e-06;0.013578668432010697
4.89975e-06;0.01351467594310054
4.90000e-06;0.013450683454190166
4.90025e-06;0.013385136993191368
4.90050e-06;0.013318562640708412
4.90075e-06;0.013251988288225233
4.90100e-06;0.01318757427403779
4.90125e-06;0.01312458923875719
4.90150e-06;0.013061604203476802
4.90175e-06;0.013002618279123513
4.90200e-06;0.0129462776095311
