Time(s);Current(A)
1.25000e-06;0.014978087306319976
1.25025e-06;0.015020232860710194
1.25050e-06;0.01506240932169814
1.25075e-06;0.015104685033592176
1.25100e-06;0.015146960745486247
1.25125e-06;0.015189236457380281
1.25150e-06;0.015231512169274318
1.25175e-06;0.01527167853167646
1.25200e-06;0.015305071102589298
1.25225e-06;0.015338463673502166
1.25250e-06;0.015371856244415004
1.25275e-06;0.015405248815327842
1.25300e-06;0.015433845790137546
1.25325e-06;0.01544704258200287
1.25350e-06;0.015460239373868204
1.25375e-06;0.01547343616573353
1.25400e-06;0.015486632957598853
1.25425e-06;0.015499829749464187
1.25450e-06;0.015513026541329512
1.25475e-06;0.015526223333194845
1.25500e-06;0.015539420125060169
1.25525e-06;0.015552616916925504
1.25550e-06;0.015565813708790828
1.25575e-06;0.015579010500656153
1.25600e-06;0.015592207292521486
1.25625e-06;0.01560540408438681
1.25650e-06;0.015618600876252145
1.25675e-06;0.01563179766811747
1.25700e-06;0.015644994459982794
1.25725e-06;0.015658191251848128
1.25750e-06;0.01567138804371345
1.25775e-06;0.015680916032763042
1.25800e-06;0.01567866233016643
1.25825e-06;0.01567640862756981
1.25850e-06;0.015674154924973198
1.25875e-06;0.01567190122237658
1.25900e-06;0.015669647519779967
1.25925e-06;0.01566739381718335
1.25950e-06;0.015665140114586737
1.25975e-06;0.01566288641199012
1.26000e-06;0.015660632709393506
1.26025e-06;0.01565837900679689
1.26050e-06;0.015656125304200276
1.26075e-06;0.015653871601603662
1.26100e-06;0.015651617899007046
1.26125e-06;0.015649364196410432
1.26150e-06;0.015647110493813815
1.26175e-06;0.0156448567912172
1.26200e-06;0.015642603088620585
1.26225e-06;0.01564034938602397
1.26250e-06;0.01563706830344267
1.26275e-06;0.015630487977268678
1.26300e-06;0.01562390765109469
1.26325e-06;0.015617327324920698
1.26350e-06;0.01561074699874671
1.26375e-06;0.015604166672572719
1.26400e-06;0.015597586346398733
1.26425e-06;0.015588596143859098
1.26450e-06;0.01557186706254343
1.26475e-06;0.015555137981227776
1.26500e-06;0.015538408899912108
1.26525e-06;0.015521679818596455
1.26550e-06;0.015504950737280802
1.26575e-06;0.015488221655965135
1.26600e-06;0.015468421505374594
1.26625e-06;0.015438759175474933
1.26650e-06;0.015409096845575298
1.26675e-06;0.015379434515675661
1.26700e-06;0.015349772185776
1.26725e-06;0.015320109855876365
1.26750e-06;0.015290447525976704
1.26775e-06;0.015260785196077067
1.26800e-06;0.015231122866177406
1.26825e-06;0.01520146053627777
1.26850e-06;0.015166116634553342
1.26875e-06;0.015128750012180631
1.26900e-06;0.015091383389807953
1.26925e-06;0.015054016767435242
1.26950e-06;0.015016650145062562
1.26975e-06;0.014979283522689884
1.27000e-06;0.014941916900317173
1.27025e-06;0.014904550277944495
1.27050e-06;0.014867183655571783
1.27075e-06;0.014830494371088238
1.27100e-06;0.014795980233798495
1.27125e-06;0.014761466096508722
1.27150e-06;0.014726951959218979
1.27175e-06;0.014692437821929206
1.27200e-06;0.014657923684639463
1.27225e-06;0.014629477191177378
1.27250e-06;0.014603190865505902
1.27275e-06;0.014576904539834448
1.27300e-06;0.014550618214162972
1.27325e-06;0.014524331888491518
1.27350e-06;0.014499110770220472
1.27375e-06;0.014480074523375958
1.27400e-06;0.014469914846886334
1.27425e-06;0.014459755170396703
1.27450e-06;0.014449595493907081
1.27475e-06;0.01443943581741745
1.27500e-06;0.014429276140927826
1.27525e-06;0.014419116464438204
1.27550e-06;0.014408956787948573
1.27575e-06;0.01439879711145895
1.27600e-06;0.014388637434969319
1.27625e-06;0.014378477758479696
1.27650e-06;0.014368318081990072
1.27675e-06;0.014358158405500442
1.27700e-06;0.01434799872901082
1.27725e-06;0.014337839052521189
1.27750e-06;0.014327679376031565
1.27775e-06;0.014317519699541934
1.27800e-06;0.014307360023052312
1.27825e-06;0.014297200346562688
1.27850e-06;0.014287040670073057
1.27875e-06;0.014276880993583435
1.27900e-06;0.014266721317093804
1.27925e-06;0.01425656164060418
1.27950e-06;0.014248133135924544
1.27975e-06;0.014245263974025866
1.28000e-06;0.01424239481212719
1.28025e-06;0.014239525650228513
1.28050e-06;0.014236656488329837
1.28075e-06;0.014233787326431163
1.28100e-06;0.014230918164532485
1.28125e-06;0.01422804900263381
1.28150e-06;0.014225179840735132
1.28175e-06;0.014222310678836456
1.28200e-06;0.014219441516937778
1.28225e-06;0.014216572355039104
1.28250e-06;0.014213703193140428
1.28275e-06;0.01421083403124175
1.28300e-06;0.014207964869343077
1.28325e-06;0.014205095707444399
1.28350e-06;0.014202226545545723
1.28375e-06;0.014199357383647047
1.28400e-06;0.01419648822174837
1.28425e-06;0.014193619059849696
1.28450e-06;0.014190749897951018
1.28475e-06;0.014187880736052342
1.28500e-06;0.014185011574153668
1.28525e-06;0.014180250260417991
1.28550e-06;0.014169412645881707
1.28575e-06;0.014158575031345412
1.28600e-06;0.014147737416809126
1.28625e-06;0.014136899802272831
1.28650e-06;0.014126062187736547
1.28675e-06;0.01411522457320026
1.28700e-06;0.014104386958663966
1.28725e-06;0.01409354934412768
1.28750e-06;0.014082711729591387
1.28775e-06;0.0140718741150551
1.28800e-06;0.014061036500518815
1.28825e-06;0.01405019888598252
1.28850e-06;0.014039361271446235
1.28875e-06;0.01402852365690994
1.28900e-06;0.014017154565855717
1.28925e-06;0.014004078734819944
1.28950e-06;0.01399100290378416
1.28975e-06;0.013977927072748387
1.29000e-06;0.013964851241712603
1.29025e-06;0.013951775410676829
1.29050e-06;0.013938699579641046
1.29075e-06;0.013925623748605273
1.29100e-06;0.0139125479175695
1.29125e-06;0.013899472086533715
1.29150e-06;0.013886396255497943
1.29175e-06;0.013873320424462158
1.29200e-06;0.013860244593426385
1.29225e-06;0.013847168762390612
1.29250e-06;0.01383409293135483
1.29275e-06;0.01382294061618058
1.29300e-06;0.013817965321655601
1.29325e-06;0.013812990027130628
1.29350e-06;0.013808014732605655
1.29375e-06;0.013803039438080679
1.29400e-06;0.013798064143555704
1.29425e-06;0.013793088849030728
1.29450e-06;0.013788113554505755
1.29475e-06;0.013783138259980777
1.29500e-06;0.013778162965455804
1.29525e-06;0.013773187670930831
1.29550e-06;0.013770775657365482
1.29575e-06;0.013776595153471499
1.29600e-06;0.013782414649577522
1.29625e-06;0.01378823414568354
1.29650e-06;0.013794053641789558
1.29675e-06;0.01379987313789558
1.29700e-06;0.013805692634001597
1.29725e-06;0.01381151213010762
1.29750e-06;0.013817331626213639
1.29775e-06;0.013823151122319657
1.29800e-06;0.013828970618425678
1.29825e-06;0.013836200059678075
1.29850e-06;0.013847957282820603
1.29875e-06;0.01385971450596312
1.29900e-06;0.013871471729105649
1.29925e-06;0.013883228952248167
1.29950e-06;0.013894986175390684
1.29975e-06;0.013906743398533213
1.30000e-06;0.01391850062167573
1.30025e-06;0.013930257844818258
1.30050e-06;0.013941738043805522
1.30075e-06;0.013952328630202905
1.30100e-06;0.013962919216600297
1.30125e-06;0.01397350980299768
1.30150e-06;0.013984100389395073
1.30175e-06;0.013994690975792456
1.30200e-06;0.014005281562189838
1.30225e-06;0.01401587214858723
1.30250e-06;0.014026462734984613
1.30275e-06;0.014034655601920168
1.30300e-06;0.01403514862976313
1.30325e-06;0.014035641657606093
1.30350e-06;0.014036134685449054
1.30375e-06;0.014036627713292015
1.30400e-06;0.014037120741134978
1.30425e-06;0.01403761376897794
1.30450e-06;0.014025412667708669
1.30475e-06;0.014008692275325606
1.30500e-06;0.013991971882942543
1.30525e-06;0.013975251490559466
1.30550e-06;0.013958531098176402
1.30575e-06;0.013941810705793325
1.30600e-06;0.01392043335643292
1.30625e-06;0.013884101038421467
1.30650e-06;0.013847768720409982
1.30675e-06;0.013811436402398528
1.30700e-06;0.013775104084387044
1.30725e-06;0.01373877176637559
1.30750e-06;0.013702439448364105
1.30775e-06;0.01366610713035265
1.30800e-06;0.013629774812341197
1.30825e-06;0.01358361490637934
1.30850e-06;0.013533956238864036
1.30875e-06;0.013484297571348692
1.30900e-06;0.013434638903833387
1.30925e-06;0.013384980236318084
1.30950e-06;0.013335321568802738
1.30975e-06;0.013285662901287435
1.31000e-06;0.01323600423377209
1.31025e-06;0.013186063806942365
1.31050e-06;0.01313521856142209
1.31075e-06;0.013084373315901773
1.31100e-06;0.013034260511043226
1.31125e-06;0.012986499805890039
1.31150e-06;0.01293873910073689
1.31175e-06;0.012893022670066437
1.31200e-06;0.012853871054349207
1.31225e-06;0.01281471943863201
1.31250e-06;0.01277556782291478
1.31275e-06;0.01273641620719758
1.31300e-06;0.01269726459148035
1.31325e-06;0.012663622805946911
1.31350e-06;0.012631942598586039
1.31375e-06;0.01260026239122514
1.31400e-06;0.012568582183864268
1.31425e-06;0.012536901976503369
1.31450e-06;0.012505904851459738
1.31475e-06;0.012477101320793174
1.31500e-06;0.012448297790126586
1.31525e-06;0.012419494259460023
1.31550e-06;0.012390690728793435
1.31575e-06;0.012361887198126871
1.31600e-06;0.01233308366746031
1.31625e-06;0.012304280136793721
1.31650e-06;0.012275476606127158
1.31675e-06;0.012246641009066864
1.31700e-06;0.012217702436626982
1.31725e-06;0.012188763864187074
1.31750e-06;0.012159825291747191
1.31775e-06;0.01213088671930731
1.31800e-06;0.012101948146867403
1.31825e-06;0.01207300957442752
1.31850e-06;0.012044071001987613
1.31875e-06;0.01201513242954773
1.31900e-06;0.011986570269016011
1.31925e-06;0.011959216886730083
1.31950e-06;0.011931863504444178
1.31975e-06;0.01190451012215825
1.32000e-06;0.011877156739872346
1.32025e-06;0.01184980335758644
1.32050e-06;0.011822449975300513
1.32075e-06;0.011795096593014608
1.32100e-06;0.01176774321072868
1.32125e-06;0.011745227709842095
1.32150e-06;0.011724434563771768
1.32175e-06;0.011703641417701456
1.32200e-06;0.011682848271631146
1.32225e-06;0.011662055125560816
1.32250e-06;0.011641261979490506
1.32275e-06;0.011620468833420177
1.32300e-06;0.011599675687349865
1.32325e-06;0.011582724696897069
1.32350e-06;0.011578112089015638
1.32375e-06;0.011573499481134212
1.32400e-06;0.011568886873252781
1.32425e-06;0.011564274265371354
1.32450e-06;0.011559661657489928
1.32475e-06;0.011555049049608496
1.32500e-06;0.011550436441727069
1.32525e-06;0.011550500827941658
1.32550e-06;0.01156558452836013
1.32575e-06;0.011580668228778616
1.32600e-06;0.011595751929197089
1.32625e-06;0.011610835629615561
1.32650e-06;0.011625919330034045
1.32675e-06;0.011641003030452518
1.32700e-06;0.011656086730871002
1.32725e-06;0.011675314503434042
1.32750e-06;0.011707850208473388
1.32775e-06;0.011740385913512763
1.32800e-06;0.01177292161855211
1.32825e-06;0.011805457323591484
1.32850e-06;0.01183799302863083
1.32875e-06;0.011870528733670177
1.32900e-06;0.011903064438709551
1.32925e-06;0.011935600143748898
1.32950e-06;0.011968135848788272
1.32975e-06;0.012000671553827618
1.33000e-06;0.012033207258866991
1.33025e-06;0.012065109848945035
1.33050e-06;0.012095043411943457
1.33075e-06;0.012124976974941902
1.33100e-06;0.012154910537940322
1.33125e-06;0.012184844100938768
1.33150e-06;0.01221477766393719
1.33175e-06;0.01224471122693561
1.33200e-06;0.012274644789934055
1.33225e-06;0.012304578352932477
1.33250e-06;0.012334511915930923
1.33275e-06;0.012364445478929342
1.33300e-06;0.012394379041927764
1.33325e-06;0.012418741591315709
1.33350e-06;0.012426315546108756
1.33375e-06;0.012433889500901811
1.33400e-06;0.012441463455694858
1.33425e-06;0.012449037410487912
1.33450e-06;0.012456611365280961
1.33475e-06;0.012464185320074008
1.33500e-06;0.012471759274867062
1.33525e-06;0.01247933322966011
1.33550e-06;0.012486907184453165
1.33575e-06;0.012494481139246214
1.33600e-06;0.01250205509403926
1.33625e-06;0.012509629048832314
1.33650e-06;0.012517203003625363
1.33675e-06;0.012524776958418417
1.33700e-06;0.012532350913211466
1.33725e-06;0.012538521187652817
1.33750e-06;0.012529474028103463
1.33775e-06;0.012520426868554117
1.33800e-06;0.012511379709004762
1.33825e-06;0.012502332549455417
1.33850e-06;0.012493285389906062
1.33875e-06;0.012484238230356716
1.33900e-06;0.01247519107080737
1.33925e-06;0.012466143911258016
1.33950e-06;0.01245709675170867
1.33975e-06;0.012448049592159316
1.34000e-06;0.01243900243260997
1.34025e-06;0.012429955273060624
1.34050e-06;0.01242090811351127
1.34075e-06;0.012411860953961924
1.34100e-06;0.012402813794412569
1.34125e-06;0.012393766634863223
1.34150e-06;0.012383903506843806
1.34175e-06;0.012373969182072632
1.34200e-06;0.012364034857301465
1.34225e-06;0.012354100532530292
1.34250e-06;0.012344166207759126
1.34275e-06;0.012334231882987951
1.34300e-06;0.012324297558216785
1.34325e-06;0.01231436323344562
1.34350e-06;0.012304428908674446
1.34375e-06;0.01229449458390328
1.34400e-06;0.012279938998656379
1.34425e-06;0.012264980188595164
1.34450e-06;0.012250021378533947
1.34475e-06;0.012235062568472718
1.34500e-06;0.012220103758411502
1.34525e-06;0.012205144948350273
1.34550e-06;0.012190186138289056
1.34575e-06;0.01217522732822784
1.34600e-06;0.01216026851816661
1.34625e-06;0.012145309708105394
1.34650e-06;0.012121869532230085
1.34675e-06;0.01209768932077934
1.34700e-06;0.012073509109328598
1.34725e-06;0.012049328897877834
1.34750e-06;0.01202514868642709
1.34775e-06;0.012000968474976326
1.34800e-06;0.011976788263525582
1.34825e-06;0.011952608052074818
1.34850e-06;0.011928427840624076
1.34875e-06;0.011904247629173331
1.34900e-06;0.011880067417722568
1.34925e-06;0.011855121103441486
1.34950e-06;0.01182911574269819
1.34975e-06;0.011803110381954918
1.35000e-06;0.011777105021211645
1.35025e-06;0.01175109966046835
1.35050e-06;0.011725094299725076
1.35075e-06;0.011699088938981783
1.35100e-06;0.01167308357823851
1.35125e-06;0.011647078217495237
1.35150e-06;0.011621072856751942
1.35175e-06;0.011595067496008669
1.35200e-06;0.011569062135265373
1.35225e-06;0.011548101509329589
1.35250e-06;0.011527581058161353
1.35275e-06;0.011507060606993132
1.35300e-06;0.011493178096111665
1.35325e-06;0.011479874774014987
1.35350e-06;0.011466571451918322
1.35375e-06;0.0114722987706007
1.35400e-06;0.011479686594384135
1.35425e-06;0.01148707441816757
1.35450e-06;0.011494462241951012
1.35475e-06;0.011501850065734447
1.35500e-06;0.011509237889517887
1.35525e-06;0.01152918497688059
1.35550e-06;0.011566493759219684
1.35575e-06;0.011603802541558808
1.35600e-06;0.011641111323897902
1.35625e-06;0.011678420106237028
1.35650e-06;0.01171572888857612
1.35675e-06;0.011753037670915246
1.35700e-06;0.011817379328019172
1.35725e-06;0.011884079719490558
1.35750e-06;0.011950780110962001
1.35775e-06;0.012017480502433387
1.35800e-06;0.012084180893904829
1.35825e-06;0.012150881285376215
1.35850e-06;0.0122175816768476
1.35875e-06;0.012284282068319044
1.35900e-06;0.01235098245979043
1.35925e-06;0.012428978599527822
1.35950e-06;0.012507960341790662
1.35975e-06;0.012586942084053502
1.36000e-06;0.01266592382631641
1.36025e-06;0.01274490556857925
1.36050e-06;0.012823887310842157
1.36075e-06;0.012902869053104997
1.36100e-06;0.012981850795367905
1.36125e-06;0.013060832537630745
1.36150e-06;0.013131965703559942
1.36175e-06;0.013202414047512498
1.36200e-06;0.013272862391464994
1.36225e-06;0.013323824797715059
1.36250e-06;0.013373086972253262
1.36275e-06;0.013422349146791466
1.36300e-06;0.01347161132132971
1.36325e-06;0.013520873495867915
1.36350e-06;0.01357013567040616
1.36375e-06;0.013619397844944365
1.36400e-06;0.013635660683224492
1.36425e-06;0.013649044187759973
1.36450e-06;0.013662427692295444
1.36475e-06;0.013675811196830926
1.36500e-06;0.013689194701366397
1.36525e-06;0.013702578205901879
1.36550e-06;0.01371596171043735
1.36575e-06;0.013694813503709557
1.36600e-06;0.013670652256939966
1.36625e-06;0.013646491010170398
1.36650e-06;0.013622329763400807
1.36675e-06;0.013598168516631237
1.36700e-06;0.013574007269861667
1.36725e-06;0.013549846023092078
1.36750e-06;0.013525684776322508
1.36775e-06;0.013489896716495376
1.36800e-06;0.013438035964144234
1.36825e-06;0.013386175211793094
1.36850e-06;0.013334314459441908
1.36875e-06;0.013282453707090768
1.36900e-06;0.013230592954739582
1.36925e-06;0.013178732202388441
1.36950e-06;0.013126871450037256
1.36975e-06;0.013075010697686114
1.37000e-06;0.013016178273940247
1.37025e-06;0.012956737541937938
1.37050e-06;0.01289729680993568
1.37075e-06;0.012838716086370409
1.37100e-06;0.012780210402233065
1.37125e-06;0.01272170471809572
1.37150e-06;0.012667870832778644
1.37175e-06;0.012614444581963247
1.37200e-06;0.012561018331147804
1.37225e-06;0.012511670501415172
1.37250e-06;0.012467960605974668
1.37275e-06;0.012424250710534126
1.37300e-06;0.012380540815093622
1.37325e-06;0.012342907235762084
1.37350e-06;0.012305803841094778
1.37375e-06;0.01226870044642744
1.37400e-06;0.012231597051760136
1.37425e-06;0.01219449365709283
1.37450e-06;0.012157390262425493
1.37475e-06;0.012120286867758187
1.37500e-06;0.012083853198641902
1.37525e-06;0.012048345345809423
1.37550e-06;0.012012837492976944
1.37575e-06;0.011977329640144436
1.37600e-06;0.011941821787311959
1.37625e-06;0.01190631393447945
1.37650e-06;0.011870806081646972
1.37675e-06;0.011835298228814493
1.37700e-06;0.011798830498229003
1.37725e-06;0.011762279014189154
1.37750e-06;0.011725727530149272
1.37775e-06;0.011689176046109423
1.37800e-06;0.01165262456206954
1.37825e-06;0.011616073078029691
1.37850e-06;0.01157952159398984
1.37875e-06;0.01154297010994996
1.37900e-06;0.01150641862591011
1.37925e-06;0.011469867141870229
1.37950e-06;0.011434792072696064
1.37975e-06;0.011401757972277063
1.38000e-06;0.011368723871858034
1.38025e-06;0.011335689771439034
1.38050e-06;0.011302655671020005
1.38075e-06;0.011269621570601006
1.38100e-06;0.011236587470182005
1.38125e-06;0.011203553369762977
1.38150e-06;0.011170519269343976
1.38175e-06;0.011137485168924948
1.38200e-06;0.011104451068505947
1.38225e-06;0.011078347941034367
1.38250e-06;0.011052849570704827
1.38275e-06;0.011027351200375289
1.38300e-06;0.011014145639886517
1.38325e-06;0.011002012679825285
1.38350e-06;0.010989879719764041
1.38375e-06;0.01097774675970281
1.38400e-06;0.010965613799641578
1.38425e-06;0.010953480839580334
1.38450e-06;0.010963293227614586
1.38475e-06;0.010975020441474154
1.38500e-06;0.010986747655333712
1.38525e-06;0.01099847486919327
1.38550e-06;0.011010202083052839
1.38575e-06;0.011021929296912397
1.38600e-06;0.011060519972632063
1.38625e-06;0.011101454600714709
1.38650e-06;0.011142389228797355
1.38675e-06;0.011183323856880036
1.38700e-06;0.011224258484962682
1.38725e-06;0.011265193113045363
1.38750e-06;0.011306127741128009
1.38775e-06;0.01134706236921069
1.38800e-06;0.011387996997293337
1.38825e-06;0.011448366426486998
1.38850e-06;0.011510431625504575
1.38875e-06;0.0115724968245221
1.38900e-06;0.011634562023539678
1.38925e-06;0.011696627222557203
1.38950e-06;0.011758692421574728
1.38975e-06;0.011820757620592304
1.39000e-06;0.01188282281960983
1.39025e-06;0.011944888018627406
1.39050e-06;0.012006132875548588
1.39075e-06;0.012067306154100418
1.39100e-06;0.012128479432652302
1.39125e-06;0.012189652711204133
1.39150e-06;0.012250825989756017
1.39175e-06;0.012311999268307847
1.39200e-06;0.012365564987110137
1.39225e-06;0.012408614155238374
1.39250e-06;0.012451663323366611
1.39275e-06;0.012494712491494885
1.39300e-06;0.012537761659623121
1.39325e-06;0.012580810827751393
1.39350e-06;0.01262385999587963
1.39375e-06;0.012639000174132345
1.39400e-06;0.012651705173214975
1.39425e-06;0.012664410172297592
1.39450e-06;0.012677115171380222
1.39475e-06;0.01268982017046284
1.39500e-06;0.012702525169545459
1.39525e-06;0.012715230168628088
1.39550e-06;0.012727935167710706
1.39575e-06;0.012740640166793335
1.39600e-06;0.012723859991708296
1.39625e-06;0.01270450710860777
1.39650e-06;0.012685154225507261
1.39675e-06;0.012665801342406751
1.39700e-06;0.012646448459306224
1.39725e-06;0.012627095576205715
1.39750e-06;0.01260774269310519
1.39775e-06;0.01258838981000468
1.39800e-06;0.01256903692690417
1.39825e-06;0.012531880270202963
1.39850e-06;0.012493170157829928
1.39875e-06;0.012454460045456861
1.39900e-06;0.012415749933083827
1.39925e-06;0.012377039820710792
1.39950e-06;0.012338329708337726
1.39975e-06;0.012299619595964692
1.40000e-06;0.012260909483591625
1.40025e-06;0.01222219937121859
1.40050e-06;0.012183189930986448
1.40075e-06;0.012144154373113728
1.40100e-06;0.01210511881524101
1.40125e-06;0.012066083257368257
1.40150e-06;0.012027047699495539
1.40175e-06;0.011988012141622786
1.40200e-06;0.011948976583750067
