Time(s);Current(A)
7.25000e-06;-0.0003584300960669812
7.25025e-06;-0.0003451704424123681
7.25050e-06;-0.0003275677071619763
7.25075e-06;-0.0003057469061862423
7.25100e-06;-0.00027983330995377494
7.25125e-06;-0.00024996410416024194
7.25150e-06;-0.00021631801426033712
7.25175e-06;-0.0001791267662167297
7.25200e-06;-0.00013864763141359753
7.25225e-06;-9.51380527927311e-05
7.25250e-06;-4.885319286854822e-05
7.25275e-06;-4.821033363510183e-08
7.25300e-06;5.102159949628896e-05
7.25325e-06;0.00010409348361841832
7.25350e-06;0.00015887867287571456
7.25375e-06;0.00021526956219164724
7.25400e-06;0.00027251065579181604
7.25425e-06;0.00033025575565682656
7.25450e-06;0.0003885309291417427
7.25475e-06;0.00044680610262646137
7.25500e-06;0.0005050812761113776
7.25525e-06;0.0005610960380724441
7.25550e-06;0.0006170819458303921
7.25575e-06;0.0006730678535885298
7.25600e-06;0.0007266899848321436
7.25625e-06;0.0007778260843327252
7.25650e-06;0.0008262974869150081
7.25675e-06;0.0008719663736566314
7.25700e-06;0.0009143835278492117
7.25725e-06;0.0009533807689123873
7.25750e-06;0.0009903059659818734
7.25775e-06;0.0010250519523224409
7.25800e-06;0.0010582924990468333
7.25825e-06;0.0010899497443674117
7.25850e-06;0.0011216069896879902
7.25875e-06;0.001150639653515513
7.25900e-06;0.0011769119917096646
7.25925e-06;0.0012031843299039053
7.25950e-06;0.0012275998213273711
7.25975e-06;0.0012500624293096292
7.26000e-06;0.0012725250372919632
7.26025e-06;0.0012921489274306552
7.26050e-06;0.0013087872803896486
7.26075e-06;0.0013254256333486984
7.26100e-06;0.001342063986307692
7.26125e-06;0.0013587023392666855
7.26150e-06;0.0013753406922257354
7.26175e-06;0.0013919790451847288
7.26200e-06;0.0014086173981437222
7.26225e-06;0.0014252557511027723
7.26250e-06;0.0014418941040617657
7.26275e-06;0.0014585324570207591
7.26300e-06;0.001472032614865015
7.26325e-06;0.0014822322692044044
7.26350e-06;0.0014924319235438284
7.26375e-06;0.0015026315778832178
7.26400e-06;0.001512831232222607
7.26425e-06;0.001523030886562031
7.26450e-06;0.0015332305409014205
7.26475e-06;0.0015434301952408098
7.26500e-06;0.0015536298495802336
7.26525e-06;0.0015638295039196231
7.26550e-06;0.0015740291582590125
7.26575e-06;0.0015819484571441497
7.26600e-06;0.0015874694599089132
7.26625e-06;0.001592990462673677
7.26650e-06;0.0015985114654384592
7.26675e-06;0.0016040324682032227
7.26700e-06;0.0016095534709679865
7.26725e-06;0.0016150744737327687
7.26750e-06;0.0016205954764975323
7.26775e-06;0.0016261164792623147
7.26800e-06;0.0016316374820270782
7.26825e-06;0.0016283974017200578
7.26850e-06;0.001625045485994294
7.26875e-06;0.0016216935702685414
7.26900e-06;0.0016183416545427888
7.26925e-06;0.001614989738817025
7.26950e-06;0.0016116378230912724
7.26975e-06;0.0016082859073655198
7.27000e-06;0.001604933991639756
7.27025e-06;0.0016015820759140034
7.27050e-06;0.0015935153661959202
7.27075e-06;0.0015804900119305884
7.27100e-06;0.0015674646576653009
7.27125e-06;0.0015544393034000134
7.27150e-06;0.0015414139491346816
7.27175e-06;0.001528388594869394
7.27200e-06;0.0015153632406040623
7.27225e-06;0.0015023378863387748
7.27250e-06;0.0014893125320734873
7.27275e-06;0.0014711158968255254
7.27300e-06;0.0014528532500618814
7.27325e-06;0.0014345906032982374
7.27350e-06;0.0014163279565345317
7.27375e-06;0.0013980653097708877
7.27400e-06;0.0013798026630072438
7.27425e-06;0.001361540016243538
7.27450e-06;0.001343277369479894
7.27475e-06;0.0013254351540022246
7.27500e-06;0.0013080351146422425
7.27525e-06;0.0012906350752823193
7.27550e-06;0.001273235035922396
7.27575e-06;0.0012558349965624137
7.27600e-06;0.0012384349572024905
7.27625e-06;0.0012210349178425083
7.27650e-06;0.0012036348784825852
7.27675e-06;0.0011904261346949898
7.27700e-06;0.0011772708928876406
7.27725e-06;0.0011641156510803356
7.27750e-06;0.0011509604092730307
7.27775e-06;0.0011378051674656815
7.27800e-06;0.0011246499256583767
7.27825e-06;0.0011114946838510719
7.27850e-06;0.001097678341346662
7.27875e-06;0.0010831667058196473
7.27900e-06;0.0010686550702926326
7.27925e-06;0.0010541434347655688
7.27950e-06;0.001039631799238554
7.27975e-06;0.0010251201637115394
7.28000e-06;0.0010106085281844754
7.28025e-06;0.0009960968926574607
7.28050e-06;0.0009815852571303967
7.28075e-06;0.000967073621603382
7.28100e-06;0.0009525619860763673
7.28125e-06;0.0009362221353012262
7.28150e-06;0.000917959513439259
7.28175e-06;0.0008996968915772918
7.28200e-06;0.0008814342697152628
7.28225e-06;0.0008631716478532956
7.28250e-06;0.0008449090259913285
7.28275e-06;0.0008266464041292994
7.28300e-06;0.0008083837822673322
7.28325e-06;0.000790121160405365
7.28350e-06;0.000771858538543336
7.28375e-06;0.0007535959166813687
7.28400e-06;0.0007351955232388142
7.28425e-06;0.0007166502326283088
7.28450e-06;0.0006981049420178662
7.28475e-06;0.0006795596514073608
7.28500e-06;0.0006610143607969183
7.28525e-06;0.0006424690701864757
7.28550e-06;0.0006254003809112752
7.28575e-06;0.0006098846632335032
7.28600e-06;0.0005943689455557311
7.28625e-06;0.0005788532278779065
7.28650e-06;0.0005633375102001344
7.28675e-06;0.0005478217925223624
7.28700e-06;0.0005337736922915778
7.28725e-06;0.0005212691151205203
7.28750e-06;0.0005087645379494628
7.28775e-06;0.0004944422482973688
7.28800e-06;0.0004782082335320093
7.28825e-06;0.0004600219678302174
7.28850e-06;0.0004397824801905205
7.28875e-06;0.0004183459201711904
7.28900e-06;0.0003949893923430823
7.28925e-06;0.0003701767226506392
7.28950e-06;0.00034341919830842564
7.28975e-06;0.0003140462127411923
7.29000e-06;0.0002818141043591391
7.29025e-06;0.00024690023331620965
7.29050e-06;0.00020958785227536536
7.29075e-06;0.0001701601720783486
7.29100e-06;0.0001288969855722581
7.29125e-06;8.594835596717543e-05
7.29150e-06;4.115400685270344e-05
7.29175e-06;-5.760237021108536e-06
7.29200e-06;-5.4801092015142135e-05
7.29225e-06;-0.00010571155067479814
7.29250e-06;-0.0001581683120908325
7.29275e-06;-0.0002120280808032484
7.29300e-06;-0.0002666191178452217
7.29325e-06;-0.00032198856034165214
7.29350e-06;-0.0003781766676546195
7.29375e-06;-0.00043436477496758687
7.29400e-06;-0.00049087069678559
7.29425e-06;-0.0005477108705693021
7.29450e-06;-0.0006045510443530141
7.29475e-06;-0.0006613912181369188
7.29500e-06;-0.000716443425566462
7.29525e-06;-0.0007696151924883399
7.29550e-06;-0.000822786959410398
7.29575e-06;-0.0008759587263322758
7.29600e-06;-0.0009266330385076544
7.29625e-06;-0.0009746807268318216
7.29650e-06;-0.001020221995434472
7.29675e-06;-0.0010631272115397543
7.29700e-06;-0.0011028022564267379
7.29725e-06;-0.0011390800646757346
7.29750e-06;-0.0011713544442564891
7.29775e-06;-0.0011994183366433428
7.29800e-06;-0.0012231119172776634
7.29825e-06;-0.001242209152331506
7.29850e-06;-0.0012568467946966013
7.29875e-06;-0.0012667941929084083
7.29900e-06;-0.001272194476446176
7.29925e-06;-0.0012728124671820943
7.29950e-06;-0.0012687648693992515
7.29975e-06;-0.001259810377467276
7.30000e-06;-0.0012463263319986457
7.30025e-06;-0.0012280784631329173
7.30050e-06;-0.001205611098356994
7.30075e-06;-0.0011787060040836057
7.30100e-06;-0.0011478924644827422
7.30125e-06;-0.0011129683335958309
7.30150e-06;-0.001074427346025149
7.30175e-06;-0.0010320824368636762
7.30200e-06;-0.0009865717851478485
7.30225e-06;-0.0009377316577281683
7.30250e-06;-0.0008862857582390837
7.30275e-06;-0.0008320993153721622
7.30300e-06;-0.0007754686591175732
7.30325e-06;-0.0007162673740295587
7.30350e-06;-0.0006570660889417448
7.30375e-06;-0.0005960014437634366
7.30400e-06;-0.0005329770649546973
7.30425e-06;-0.0004699526861461716
7.30450e-06;-0.0004069283073376459
7.30475e-06;-0.0003439039285289067
7.30500e-06;-0.00028087954972038097
7.30525e-06;-0.00021845728765412044
7.30550e-06;-0.00015731142163644525
7.30575e-06;-9.767246499919041e-05
7.30600e-06;-3.993804768856038e-05
7.30625e-06;1.5477040884613967e-05
7.30650e-06;6.81545881310675e-05
7.30675e-06;0.0001176764161140037
7.30700e-06;0.00016362812291112217
7.30725e-06;0.00020574746466965935
7.30750e-06;0.00024416625950359264
7.30775e-06;0.0002792477154770364
7.30800e-06;0.00031115653181108225
7.30825e-06;0.0003398041686611131
7.30850e-06;0.0003650330869926722
7.30875e-06;0.0003866857903268602
7.30900e-06;0.00040460716748027723
7.30925e-06;0.00041873743862513667
7.30950e-06;0.0004292636673212293
7.30975e-06;0.00043651783042367837
7.31000e-06;0.0004407075490692099
7.31025e-06;0.00044188179123165727
7.31050e-06;0.00044004631873578644
7.31075e-06;0.00043520692324386715
7.31100e-06;0.00042737088585223943
7.31125e-06;0.0004166052271662588
7.31150e-06;0.0004031315725405321
7.31175e-06;0.00038726228407956367
7.31200e-06;0.00036923181355066014
7.31225e-06;0.0003491752427883878
7.31250e-06;0.00032720056192240724
7.31275e-06;0.0003034157603489491
7.31300e-06;0.0002779297927835805
7.31325e-06;0.00025060744555048
7.31350e-06;0.00022224048042516508
7.31375e-06;0.0001930128670765141
7.31400e-06;0.00016288009252175335
7.31425e-06;0.00013222812133158136
7.31450e-06;0.00010103010050103563
7.31475e-06;6.98320796705956e-05
7.31500e-06;3.8554478230899695e-05
7.31525e-06;7.316715979133261e-06
7.31550e-06;-2.3523726043332455e-05
7.31575e-06;-5.3674710455283215e-05
7.31600e-06;-8.287469804397925e-05
7.31625e-06;-0.00011090117390269869
7.31650e-06;-0.00013754227464947525
7.31675e-06;-0.0001625861497728103
7.31700e-06;-0.00018582331430758639
7.31725e-06;-0.00020713914763736168
7.31750e-06;-0.000226660683850315
7.31775e-06;-0.0002446461031096091
7.31800e-06;-0.0002612143812878249
7.31825e-06;-0.00027631907910942335
7.31850e-06;-0.00028986955232751597
7.31875e-06;-0.0003017751716141516
7.31900e-06;-0.00031194679707531803
7.31925e-06;-0.0003199816697497064
7.31950e-06;-0.0003267283014474808
7.31975e-06;-0.00033213119406049494
7.32000e-06;-0.0003361208490029106
7.32025e-06;-0.0003388274912170604
7.32050e-06;-0.0003401847629023254
7.32075e-06;-0.00034023082190680993
7.32100e-06;-0.00033889785191997175
7.32125e-06;-0.00033632911263634156
7.32150e-06;-0.00033246068969969343
7.32175e-06;-0.00032763562451117075
7.32200e-06;-0.0003218044392485205
7.32225e-06;-0.0003151365821053777
7.32250e-06;-0.0003075887801627876
7.32275e-06;-0.000299096840122344
7.32300e-06;-0.0002896119308802928
7.32325e-06;-0.0002801270216382737
7.32350e-06;-0.0002698705146013151
7.32375e-06;-0.0002588025025015645
7.32400e-06;-0.0002477344904018514
7.32425e-06;-0.0002363033927682515
7.32450e-06;-0.00022449043070875343
7.32475e-06;-0.00021267746864929538
7.32500e-06;-0.00020086450658983733
7.32525e-06;-0.0001891451861039886
7.32550e-06;-0.00017742706095490746
7.32575e-06;-0.0001657089358058263
7.32600e-06;-0.000154458130741257
7.32625e-06;-0.00014369881569524086
7.32650e-06;-0.00013333782852459661
7.32675e-06;-0.0001237140487500929
7.32700e-06;-0.00011478122063979605
7.32725e-06;-0.0001066647465738713
7.32750e-06;-9.90128365917842e-05
7.32775e-06;-9.159794699770903e-05
7.32800e-06;-8.455587447737766e-05
7.32825e-06;-7.787875845227653e-05
7.32850e-06;-7.144882736159751e-05
7.32875e-06;-6.530364061022167e-05
7.32900e-06;-5.967987931294301e-05
7.32925e-06;-5.449688082635856e-05
7.32950e-06;-4.966748384037401e-05
7.32975e-06;-4.505993063561027e-05
7.33000e-06;-4.0612334890517434e-05
7.33025e-06;-3.6337512688534884e-05
7.33050e-06;-3.226760566415944e-05
7.33075e-06;-2.8434748175886465e-05
7.33100e-06;-2.487043961616723e-05
7.33125e-06;-2.1581412371264372e-05
7.33150e-06;-1.851325567784293e-05
7.33175e-06;-1.5583631791195972e-05
7.33200e-06;-1.2753973628351774e-05
7.33225e-06;-1.0032512260185298e-05
7.33250e-06;-7.439582283891176e-06
7.33275e-06;-4.995511085645942e-06
7.33300e-06;-2.720226520949724e-06
7.33325e-06;-6.181409321133005e-07
7.33350e-06;1.3446315144992586e-06
7.33375e-06;3.2194657351745775e-06
7.33400e-06;5.030315909950948e-06
7.33425e-06;6.771820888921232e-06
7.33450e-06;8.431038703882926e-06
7.33475e-06;9.995033542901097e-06
7.33500e-06;1.1451120630340834e-05
7.33525e-06;1.2796333731902327e-05
7.33550e-06;1.4051697341886033e-05
7.33575e-06;1.524918843851654e-05
7.33600e-06;1.640360387980355e-05
7.33625e-06;1.7511378820207776e-05
7.33650e-06;1.8564200432304926e-05
7.33675e-06;1.9553758640070964e-05
7.33700e-06;2.0466776859839685e-05
7.33725e-06;2.1100340929790764e-05
7.33750e-06;2.0804069690025607e-05
7.33775e-06;1.8781244615955752e-05
7.33800e-06;1.4649954548992686e-05
7.33825e-06;8.425437278093263e-06
7.33850e-06;2.2173051867172073e-07
7.33875e-06;-9.84713120857935e-06
7.33900e-06;-2.1670228362186837e-05
7.33925e-06;-3.525543176886585e-05
7.33950e-06;-5.08908814020442e-05
7.33975e-06;-6.895634846435315e-05
7.34000e-06;-8.957174619261452e-05
7.34025e-06;-0.0001126082057112634
7.34050e-06;-0.0001378749784672949
7.34075e-06;-0.00016518132168567737
7.34100e-06;-0.00019433846058847313
7.34125e-06;-0.0002252320593235693
7.34150e-06;-0.0002579233132829742
7.34175e-06;-0.00029253081082676564
7.34200e-06;-0.0003293879947910507
7.34225e-06;-0.00036755907997096344
7.34250e-06;-0.00040700798613754334
7.34275e-06;-0.00044780080257253023
7.34300e-06;-0.0004898336879621236
7.34325e-06;-0.000533170779041296
7.34350e-06;-0.0005765078701204684
7.34375e-06;-0.0006198449611997877
7.34400e-06;-0.00066318205227896
7.34425e-06;-0.0007073231152703452
7.34450e-06;-0.0007514744409804797
7.34475e-06;-0.0007956257666906141
7.34500e-06;-0.0008397770924008981
7.34525e-06;-0.0008825680872027867
7.34550e-06;-0.0009239283943772111
7.34575e-06;-0.0009652887015517755
7.34600e-06;-0.0010044864449637702
7.34625e-06;-0.0010414097761722973
7.34650e-06;-0.0010783331073809495
7.34675e-06;-0.001112547143755832
7.34700e-06;-0.0011439117597624449
7.34725e-06;-0.0011721356273361545
7.34750e-06;-0.001197056306033681
7.34775e-06;-0.0012176650304235397
7.34800e-06;-0.0012337387849465436
7.34825e-06;-0.001245313909419836
7.34850e-06;-0.001252157733359421
7.34875e-06;-0.0012545597527069158
7.34900e-06;-0.0012522902360078997
7.34925e-06;-0.001245436978738505
7.34950e-06;-0.001233762908473361
7.34975e-06;-0.0012171803726313875
7.35000e-06;-0.0011954355039132262
7.35025e-06;-0.0011690743256654998
7.35050e-06;-0.0011378580809865554
7.35075e-06;-0.0011024701725078966
7.35100e-06;-0.0010626948405375923
7.35125e-06;-0.001019067888695506
7.35150e-06;-0.0009713901100564453
7.35175e-06;-0.0009200663385636353
7.35200e-06;-0.0008649080023824417
7.35225e-06;-0.0008066956170182716
7.35250e-06;-0.0007452712261397433
7.35275e-06;-0.0006814801528280865
7.35300e-06;-0.0006151999915646653
7.35325e-06;-0.0005471624399006011
7.35350e-06;-0.00047727660508165845
7.35375e-06;-0.00040602580319540674
7.35400e-06;-0.0003333394377390864
7.35425e-06;-0.00026065307228251977
7.35450e-06;-0.00018776590628407134
7.35475e-06;-0.00011466755427976307
7.35500e-06;-4.207770217341012e-05
7.35525e-06;2.937758488632263e-05
7.35550e-06;9.943292794265088e-05
7.35575e-06;0.00016772095712923102
7.35600e-06;0.00023381944224483466
7.35625e-06;0.00029726012122571657
7.35650e-06;0.0003575639230114703
7.35675e-06;0.0004142518478333432
7.35700e-06;0.0004668460694944886
7.35725e-06;0.000514922637241789
7.35750e-06;0.000558224504786075
7.35775e-06;0.0005966653067329271
7.35800e-06;0.0006301930181099229
7.35825e-06;0.0006587168354257878
7.35850e-06;0.0006821295073970747
7.35875e-06;0.0007003239035573706
7.35900e-06;0.000713193601227534
7.35925e-06;0.0007206659763850387
7.35950e-06;0.0007227728980993468
7.35975e-06;0.0007196532244770849
7.36000e-06;0.0007114672696622895
7.36025e-06;0.0006983510815712752
7.36050e-06;0.0006804304215237105
7.36075e-06;0.0006578310718728035
7.36100e-06;0.0006306792776986604
7.36125e-06;0.0005991224629037735
7.36150e-06;0.0005633735316275041
7.36175e-06;0.0005237122377541457
7.36200e-06;0.000480431936628176
7.36225e-06;0.0004338107312352699
7.36250e-06;0.00038412018868362146
7.36275e-06;0.000331631934289044
7.36300e-06;0.0002766178501667659
7.36325e-06;0.00021936304357832867
7.36350e-06;0.00016019365002001876
7.36375e-06;9.947771190992725e-05
7.36400e-06;3.75916598928434e-05
7.36425e-06;-2.5162712956262442e-05
7.36450e-06;-8.830194033040883e-05
7.36475e-06;-0.0001514411677045552
7.36500e-06;-0.0002141493640310178
7.36525e-06;-0.00027640423998758667
7.36550e-06;-0.0003374209316358025
7.36575e-06;-0.00039713539971562395
7.36600e-06;-0.00045540166263832564
7.36625e-06;-0.0005109057798435539
7.36650e-06;-0.0005636631583443488
7.36675e-06;-0.0006132541194384026
7.36700e-06;-0.000659268321145092
7.36725e-06;-0.0007011575683286893
7.36750e-06;-0.0007407475088989842
7.36775e-06;-0.0007791400579243269
7.36800e-06;-0.000816273285958108
7.36825e-06;-0.0008518325840466488
7.36850e-06;-0.0008857365480658337
7.36875e-06;-0.0009196405120849038
7.36900e-06;-0.0009502645854786249
7.36925e-06;-0.000977439131329854
7.36950e-06;-0.0010046136771809909
7.36975e-06;-0.0010317882230321278
7.37000e-06;-0.0010589627688833568
7.37025e-06;-0.0010861373147344937
7.37050e-06;-0.001113311860585723
7.37075e-06;-0.0011380903507416927
7.37100e-06;-0.0011603488604904411
7.37125e-06;-0.0011826073702392648
7.37150e-06;-0.001204865879988013
7.37175e-06;-0.0012271243897367615
7.37200e-06;-0.0012493828994855852
7.37225e-06;-0.0012716414092343337
7.37250e-06;-0.0012902756374169712
7.37275e-06;-0.0013050981351148344
7.37300e-06;-0.0013199206328126478
7.37325e-06;-0.001334743130510461
7.37350e-06;-0.0013495656282083244
7.37375e-06;-0.0013643881259061375
7.37400e-06;-0.0013792106236039507
7.37425e-06;-0.001394033121301814
7.37450e-06;-0.0014088556189996273
7.37475e-06;-0.0014236781166974905
7.37500e-06;-0.0014385006143953038
7.37525e-06;-0.001453323112093117
7.37550e-06;-0.0014681456097909804
7.37575e-06;-0.0014829681074887936
7.37600e-06;-0.0014977906051866067
7.37625e-06;-0.00151261310288447
7.37650e-06;-0.0015274356005822833
7.37675e-06;-0.0015422580982800964
7.37700e-06;-0.0015570805959779599
7.37725e-06;-0.001571903093675773
7.37750e-06;-0.0015867255913735862
7.37775e-06;-0.0015954131065874933
7.37800e-06;-0.0015976483362024382
7.37825e-06;-0.0015998835658173828
7.37850e-06;-0.001602118795432335
7.37875e-06;-0.0016043540250472797
7.37900e-06;-0.001606589254662232
7.37925e-06;-0.0016088244842771768
7.37950e-06;-0.0016110597138921214
7.37975e-06;-0.0016132949435070736
7.38000e-06;-0.0016155301731220182
7.38025e-06;-0.001617765402736963
7.38050e-06;-0.0016200006323519153
7.38075e-06;-0.00162223586196686
7.38100e-06;-0.0016244710915818046
7.38125e-06;-0.0016267063211967568
7.38150e-06;-0.0016289415508117017
7.38175e-06;-0.0016311767804266463
7.38200e-06;-0.0016334120100415985
7.38225e-06;-0.0016356472396565431
7.38250e-06;-0.001637882469271488
7.38275e-06;-0.0016401176988864402
7.38300e-06;-0.0016396061430867975
7.38325e-06;-0.0016362057373159314
7.38350e-06;-0.001632805331545077
7.38375e-06;-0.0016294049257742224
7.38400e-06;-0.0016260045200033563
7.38425e-06;-0.0016226041142325016
7.38450e-06;-0.0016192037084616473
7.38475e-06;-0.0016158033026907812
7.38500e-06;-0.0016124028969199265
7.38525e-06;-0.001609002491149072
7.38550e-06;-0.001605524695119324
7.38575e-06;-0.0016020459112012701
7.38600e-06;-0.0015985671272832163
7.38625e-06;-0.0015950883433651507
7.38650e-06;-0.0015916095594470968
7.38675e-06;-0.001588130775529043
7.38700e-06;-0.0015846519916109772
7.38725e-06;-0.0015811732076929234
7.38750e-06;-0.0015776944237748578
7.38775e-06;-0.0015691188659072697
7.38800e-06;-0.0015551829274297537
7.38825e-06;-0.0015412469889521901
7.38850e-06;-0.001527311050474674
7.38875e-06;-0.0015133751119971578
7.38900e-06;-0.0014994391735195945
7.38925e-06;-0.0014855032350420782
7.38950e-06;-0.0014715672965645622
7.38975e-06;-0.0014576313580869987
7.39000e-06;-0.0014436954196094826
7.39025e-06;-0.0014210518691529575
7.39050e-06;-0.0013892503464434207
7.39075e-06;-0.0013574488237339914
7.39100e-06;-0.0013256473010245622
7.39125e-06;-0.0012938457783150251
7.39150e-06;-0.0012620442556055959
7.39175e-06;-0.0012302427328960588
7.39200e-06;-0.0011984412101866296
7.39225e-06;-0.0011666396874772003
7.39250e-06;-0.0011348381647676633
7.39275e-06;-0.001098573531463907
7.39300e-06;-0.0010576149541625538
7.39325e-06;-0.0010166563768610618
7.39350e-06;-0.0009756977995597086
7.39375e-06;-0.0009347392222583554
7.39400e-06;-0.0008932718883083952
