Time(s);Current(A)
1.20000e-05;0.001575178223690103
1.20003e-05;0.0015228140686608458
1.20005e-05;0.0014736679597663982
1.20008e-05;0.001429642401409259
1.20010e-05;0.0013856168430518216
1.20013e-05;0.0013448742805977861
1.20015e-05;0.0013093556166626635
1.20018e-05;0.0012738369527273002
1.20020e-05;0.0012401985673722027
1.20023e-05;0.0012095520786810407
1.20025e-05;0.0011789055899896709
1.20028e-05;0.0011506830590117963
1.20030e-05;0.0011263175261791204
1.20033e-05;0.0011019519933462792
1.20035e-05;0.0010792023499558564
1.20038e-05;0.001059023907600748
1.20040e-05;0.0010406684092189695
1.20043e-05;0.0010280530467301598
1.20045e-05;0.001010948928143752
1.20048e-05;0.0009985870970624943
1.20050e-05;0.0009862252659812365
1.20052e-05;0.0009738634349000624
1.20055e-05;0.0009615016038188047
1.20058e-05;0.0009491397727375468
1.20060e-05;0.0009367779416563727
1.20063e-05;0.0009254917382609128
1.20065e-05;0.0009189834670212144
1.20068e-05;0.0009124751957815159
1.20070e-05;0.0009059669245418616
1.20073e-05;0.0008994586533021632
1.20075e-05;0.0008929503820624648
1.20078e-05;0.0008864421108228105
1.20080e-05;0.0008808499182944788
1.20083e-05;0.0008776139215936555
1.20085e-05;0.0008743779248928542
1.20088e-05;0.0008711419281920309
1.20090e-05;0.0008679059314912076
1.20093e-05;0.0008646699347904062
1.20095e-05;0.0008618561908720554
1.20098e-05;0.0008601285001846523
1.20100e-05;0.0008584008094972609
1.20103e-05;0.0008566731188098579
1.20105e-05;0.0008549454281224548
1.20108e-05;0.0008532177374350634
1.20110e-05;0.0008509457182285394
1.20113e-05;0.0008472736614817856
1.20115e-05;0.0008436016047350568
1.20118e-05;0.000839929547988303
1.20120e-05;0.0008362574912415491
1.20123e-05;0.0008325854344948203
1.20125e-05;0.0008232357585299261
1.20128e-05;0.0008122842517093341
1.20130e-05;0.0008013327448888163
1.20133e-05;0.0007903812380682243
1.20135e-05;0.0007794297312476323
1.20137e-05;0.0007665437261007552
1.20140e-05;0.0007486821038702949
1.20143e-05;0.0007308204816398346
1.20145e-05;0.0007116880462405906
1.20148e-05;0.0006892870219635791
1.20150e-05;0.0006668859976865675
1.20153e-05;0.0006433941639062691
1.20155e-05;0.0006170967188078883
1.20158e-05;0.0005907992737093292
1.20160e-05;0.0005634584738292768
1.20163e-05;0.0005334341183192304
1.20165e-05;0.0005034097628089807
1.20168e-05;0.000472767705592189
1.20170e-05;0.00044053689168246446
1.20173e-05;0.0004083060777725216
1.20175e-05;0.0003756985327682515
1.20178e-05;0.00034212201837119686
1.20180e-05;0.0003085455039739147
1.20183e-05;0.00027496898957663255
1.20185e-05;0.00024139247517957795
1.20188e-05;0.0002078159607822958
1.20190e-05;0.00017458909939086317
1.20193e-05;0.00014226156132593557
1.20195e-05;0.00011026217661338542
1.20198e-05;7.936996842225361e-05
1.20200e-05;4.9475342793613126e-05
1.20203e-05;2.0786940510442944e-05
1.20205e-05;-6.478962349513719e-06
1.20208e-05;-3.2105191665169126e-05
1.20210e-05;-5.585284842597677e-05
1.20213e-05;-7.725335664736477e-05
1.20215e-05;-9.523083541397073e-05
1.20218e-05;-0.0001085069150063616
1.20220e-05;-0.00011650361919029778
1.20222e-05;-0.00011924628111402849
1.20225e-05;-0.00011685971548068807
1.20228e-05;-0.00010946817329294864
1.20230e-05;-9.718230078643564e-05
1.20233e-05;-7.996889132416701e-05
1.20235e-05;-5.7414337784964234e-05
1.20238e-05;-2.8978264115338743e-05
1.20240e-05;5.440944728685574e-06
1.20243e-05;4.556698460507016e-05
1.20245e-05;9.106125388173946e-05
1.20248e-05;0.00014158551957234387
1.20250e-05;0.00019681009734490236
1.20253e-05;0.00025649541748718634
1.20255e-05;0.00032064019732664793
1.20258e-05;0.0003893225397622839
1.20260e-05;0.00046234571777547644
1.20263e-05;0.0005392762545435659
1.20265e-05;0.0006200089112528282
1.20268e-05;0.0007039143522408473
1.20270e-05;0.0007893025353330582
1.20273e-05;0.0008785043981016387
1.20275e-05;0.0009677062608702192
1.20278e-05;0.0010579714863708054
1.20280e-05;0.0011509717288574015
1.20283e-05;0.0012439719713439976
1.20285e-05;0.0013369722138299634
1.20288e-05;0.0014299724563165595
1.20290e-05;0.0015194231501781399
1.20293e-05;0.0016078724072930634
1.20295e-05;0.0016963216644085865
1.20298e-05;0.0017847709215241096
1.20300e-05;0.001870069889073182
1.20303e-05;0.0019472661695451626
1.20305e-05;0.0020244624500171432
1.20307e-05;0.002098281783722674
1.20310e-05;0.002163415457792913
1.20313e-05;0.00222529482376347
1.20315e-05;0.0022788039622876396
1.20318e-05;0.002332313100812172
1.20320e-05;0.0023829089599385466
1.20323e-05;0.0024260117328449692
1.20325e-05;0.0024691145057511
1.20328e-05;0.0025087450042014206
1.20330e-05;0.002539444655889758
1.20333e-05;0.002570144307577887
1.20335e-05;0.002597959837648364
1.20338e-05;0.0026183572766265194
1.20340e-05;0.0026387547156045367
1.20343e-05;0.0026547843321517843
1.20345e-05;0.0026595797120884833
1.20348e-05;0.00266437509202515
1.20350e-05;0.002669170471961849
1.20353e-05;0.002673965851898548
1.20355e-05;0.002678761231835215
1.20358e-05;0.002683556611771914
1.20360e-05;0.002688351991708613
1.20363e-05;0.0026886830699874745
1.20365e-05;0.002677531762724975
1.20368e-05;0.0026663804554624758
1.20370e-05;0.0026552291482000523
1.20373e-05;0.0026440778409375534
1.20375e-05;0.002632926533675054
1.20378e-05;0.0026217752264126306
1.20380e-05;0.0026106239191501313
1.20383e-05;0.0025980005649526316
1.20385e-05;0.002581591039537814
1.20388e-05;0.002565181514122885
1.20390e-05;0.0025487719887079562
1.20392e-05;0.0025323624632931385
1.20395e-05;0.0025159529378782097
1.20398e-05;0.002499543412463281
1.20400e-05;0.0024831338870484635
1.20403e-05;0.002467291732491938
1.20405e-05;0.0024529088814146944
1.20408e-05;0.0024385260303374508
1.20410e-05;0.0024241431792603046
1.20413e-05;0.002409760328183061
1.20415e-05;0.0023953774771058173
1.20418e-05;0.002380994626028671
1.20420e-05;0.0023666117749514275
1.20423e-05;0.0023493843570018195
1.20425e-05;0.0023248405845504062
1.20428e-05;0.002300296812098827
1.20430e-05;0.0022757530396472474
1.20433e-05;0.002251209267195834
1.20435e-05;0.0022266654947442543
1.20438e-05;0.002202121722292675
1.20440e-05;0.0021775779498412616
1.20443e-05;0.0021530341773896822
1.20445e-05;0.0021284904049381024
1.20448e-05;0.0020996210497293603
1.20450e-05;0.0020596261002544295
1.20453e-05;0.0020196311507794987
1.20455e-05;0.001979636201304839
1.20458e-05;0.0019396412518299083
1.20460e-05;0.0018996463023549775
1.20463e-05;0.0018596513528803178
1.20465e-05;0.001819656403405387
1.20468e-05;0.0017796614539304562
1.20470e-05;0.0017396665044557965
1.20473e-05;0.0016979932390220492
1.20475e-05;0.0016520032691215505
1.20477e-05;0.0016060132992213633
1.20480e-05;0.0015600233293208646
1.20483e-05;0.0015140333594203658
1.20485e-05;0.0014680433895201785
1.20488e-05;0.0014229772780172043
1.20490e-05;0.0013802873720496409
1.20493e-05;0.0013375974660820775
1.20495e-05;0.0012949075601148034
1.20498e-05;0.00125221765414724
1.20500e-05;0.0012095277481796766
1.20503e-05;0.0011688853452054625
1.20505e-05;0.0011335092124291227
1.20508e-05;0.0010981330796527827
1.20510e-05;0.0010647036849704007
1.20513e-05;0.0010362813886127492
1.20515e-05;0.0010078590922550977
1.20518e-05;0.0009803803010332943
1.20520e-05;0.0009553282476450863
1.20523e-05;0.0009302761942568781
1.20525e-05;0.0009062643750932823
1.20528e-05;0.0008849280853497
1.20530e-05;0.0008635917956061176
1.20533e-05;0.0008432486465785639
1.20535e-05;0.0008254599003395674
1.20538e-05;0.0008076711541005708
1.20540e-05;0.0007909065480496886
1.20543e-05;0.0007767760768302155
1.20545e-05;0.0007626456056107426
1.20548e-05;0.0007485151343913653
1.20550e-05;0.0007343846631718922
1.20553e-05;0.0007202541919524193
1.20555e-05;0.000706123720733042
1.20558e-05;0.000691993249513569
1.20560e-05;0.0006778627782940959
1.20562e-05;0.0006671313476842878
1.20565e-05;0.0006573588908853662
1.20568e-05;0.0006475864340864445
1.20570e-05;0.0006378139772875892
1.20573e-05;0.0006280415204886675
1.20575e-05;0.0006182690636897459
1.20578e-05;0.0006084966068908243
1.20580e-05;0.0005987241500919689
1.20583e-05;0.0005896059464502747
1.20585e-05;0.0005821705114867205
1.20588e-05;0.0005747350765232168
1.20590e-05;0.0005672996415596627
1.20593e-05;0.0005598642065961085
1.20595e-05;0.0005528730117055058
1.20598e-05;0.0005470244223522424
1.20600e-05;0.000541175832998979
1.20603e-05;0.0005353272436457553
1.20605e-05;0.0005294786542924919
1.20608e-05;0.0005239481335180687
1.20610e-05;0.0005192356994981912
1.20613e-05;0.0005149539347989627
1.20615e-05;0.0005125530193557115
1.20618e-05;0.0005131383742625592
1.20620e-05;0.000517281782869096
1.20623e-05;0.0005249217383809006
1.20625e-05;0.0005358914851709804
1.20628e-05;0.0005500242070570502
1.20630e-05;0.0005671667643356742
1.20633e-05;0.000587323824969233
1.20635e-05;0.0006109288536661262
1.20638e-05;0.0006385883290466623
1.20640e-05;0.0006704667219728257
1.20643e-05;0.000706818065449087
1.20645e-05;0.000747136096545918
1.20647e-05;0.0007892364702820008
1.20650e-05;0.0008359211098103945
1.20653e-05;0.0008842732913667116
1.20655e-05;0.000936914466355176
1.20658e-05;0.0009912875580796333
1.20660e-05;0.0010501152178933205
1.20663e-05;0.0011105831522132336
1.20665e-05;0.001175269946667648
1.20668e-05;0.0012399567411225008
1.20670e-05;0.0013061253374398974
1.20673e-05;0.0013761051950928027
1.20675e-05;0.0014460850527461822
1.20678e-05;0.0015160649103995616
1.20680e-05;0.0015860447680524667
1.20683e-05;0.0016560955299529936
1.20685e-05;0.0017263286607805397
1.20688e-05;0.0017965617916076099
1.20690e-05;0.001866794922435156
1.20693e-05;0.0019370280532627021
1.20695e-05;0.0020033435093366973
1.20698e-05;0.0020595825289504103
1.20700e-05;0.0021158215485641233
1.20703e-05;0.0021720605681774556
1.20705e-05;0.0022282995877911686
1.20708e-05;0.0022845386074048816
1.20710e-05;0.0023407776270182134
1.20713e-05;0.0023970166466319265
1.20715e-05;0.002447227542350501
1.20718e-05;0.0024819338310660905
1.20720e-05;0.002516640119781915
1.20723e-05;0.0025513464084977394
1.20725e-05;0.002586052697213329
1.20728e-05;0.0026207589859291534
1.20730e-05;0.002655465274644978
1.20732e-05;0.002690171563360567
1.20735e-05;0.0027203585400993224
1.20738e-05;0.002738921642254005
1.20740e-05;0.002757484744408561
1.20743e-05;0.002776047846563243
1.20745e-05;0.002794610948717925
1.20748e-05;0.0028131740508726072
1.20750e-05;0.0028317371530271634
1.20753e-05;0.0028503002551818453
1.20755e-05;0.0028688633573365277
1.20758e-05;0.002887426459491084
1.20760e-05;0.002905989561645766
1.20763e-05;0.002924552663800448
1.20765e-05;0.002940133302013983
1.20768e-05;0.0029480429082248704
1.20770e-05;0.002955952514435758
1.20773e-05;0.002963862120646592
1.20775e-05;0.0029717717268574794
1.20778e-05;0.002979681333068367
1.20780e-05;0.0029875909392792005
1.20783e-05;0.002995500545490088
1.20785e-05;0.0030034101517009753
1.20788e-05;0.0030113197579118094
1.20790e-05;0.003019229364122697
1.20793e-05;0.0030271389703335843
1.20795e-05;0.0030339235794372347
1.20798e-05;0.003037814645153978
1.20800e-05;0.0030417057108707217
1.20803e-05;0.0030455967765874387
1.20805e-05;0.003049487842304182
1.20808e-05;0.0030533789080209256
1.20810e-05;0.0030572699737376426
1.20813e-05;0.003061161039454386
1.20815e-05;0.0030650521051711296
1.20817e-05;0.0030689431708878466
1.20820e-05;0.00307283423660459
1.20823e-05;0.0030767253023213335
1.20825e-05;0.003080616368038051
1.20828e-05;0.0030845074337547945
1.20830e-05;0.003088398499471538
1.20833e-05;0.0030922895651882814
1.20835e-05;0.0030961806309049984
1.20838e-05;0.003100071696621742
1.20840e-05;0.0031039627623384853
1.20843e-05;0.0031078538280552024
1.20845e-05;0.003111744893771946
1.20848e-05;0.0031156359594886893
1.20850e-05;0.0031195270252054063
1.20853e-05;0.0031237579435252345
1.20855e-05;0.003128862978094918
1.20858e-05;0.0031339680126645664
1.20860e-05;0.00313907304723425
1.20863e-05;0.003144178081803933
1.20865e-05;0.003149283116373582
1.20868e-05;0.003154388150943265
1.20870e-05;0.0031594931855129485
1.20873e-05;0.0031645982200825973
1.20875e-05;0.0031697032546522804
1.20878e-05;0.0031748082892219635
1.20880e-05;0.0031799133237916124
1.20883e-05;0.003185018358361296
1.20885e-05;0.003190123392930979
1.20888e-05;0.003195228427500628
1.20890e-05;0.003200333462070311
1.20893e-05;0.0032054384966399944
1.20895e-05;0.003210543531209643
1.20898e-05;0.0032156485657793264
1.20900e-05;0.0032207536003490095
1.20902e-05;0.0032258586349186583
1.20905e-05;0.0032309636694883414
1.20908e-05;0.003236068704058025
1.20910e-05;0.003237796764718109
1.20913e-05;0.0032308390959070185
1.20915e-05;0.003223881427095928
1.20918e-05;0.0032169237582848377
1.20920e-05;0.0032099660894737946
1.20923e-05;0.003203008420662704
1.20925e-05;0.0031960507518516137
1.20928e-05;0.0031890930830405706
1.20930e-05;0.00318213541422948
1.20933e-05;0.0031751777454183897
1.20935e-05;0.0031682200766073466
1.20938e-05;0.003161262407796256
1.20940e-05;0.0031543047389851657
1.20943e-05;0.0031286221458103184
1.20945e-05;0.0030976566760327006
1.20948e-05;0.003066691206255083
1.20950e-05;0.0030357257364776753
1.20953e-05;0.0030047602667000574
1.20955e-05;0.00297379479692244
1.20958e-05;0.002942829327145032
1.20960e-05;0.0029118638573674143
1.20963e-05;0.002880898387589797
1.20965e-05;0.002849932917812389
1.20968e-05;0.002818967448034771
1.20970e-05;0.0027880019782571537
1.20973e-05;0.0027542396500129756
1.20975e-05;0.0027132836754256034
1.20978e-05;0.0026723277008382307
1.20980e-05;0.002631371726251136
1.20983e-05;0.0025904157516637638
1.20985e-05;0.002549459777076391
1.20987e-05;0.0025085038024892964
1.20990e-05;0.0024686890039449616
1.20993e-05;0.0024318093617436403
1.20995e-05;0.002394929719542569
1.20998e-05;0.002358050077341247
1.21000e-05;0.002321170435139926
1.21003e-05;0.002284290792938604
1.21005e-05;0.0022474111507375326
1.21008e-05;0.002214643637030406
1.21010e-05;0.002192452703604185
1.21013e-05;0.002170261770178114
1.21015e-05;0.002148070836751893
1.21018e-05;0.002125879903325672
1.21020e-05;0.002103688969899601
1.21023e-05;0.0020814980364733796
1.21025e-05;0.0020593071030471583
1.21028e-05;0.0020371161696210874
1.21030e-05;0.0020149252361948665
1.21033e-05;0.001992734302768645
1.21035e-05;0.001980517124236977
1.21038e-05;0.0019711138484675957
1.21040e-05;0.001961710572698214
1.21043e-05;0.0019523072969288967
1.21045e-05;0.0019429040211595154
1.21048e-05;0.001933500745390134
1.21050e-05;0.0019240974696208167
1.21053e-05;0.0019146941938514353
1.21055e-05;0.001905290918082054
1.21058e-05;0.0018958876423127364
1.21060e-05;0.0018884857367958978
1.21063e-05;0.001886231445995549
1.21065e-05;0.0018839771551952156
1.21068e-05;0.0018817228643948668
1.21070e-05;0.001879468573594518
1.21072e-05;0.0018772142827941844
1.21075e-05;0.0018749599919938356
1.21078e-05;0.0018727057011934869
1.21080e-05;0.0018704514103931532
1.21083e-05;0.0018681971195928045
1.21085e-05;0.0018681083114785615
1.21088e-05;0.0018686304525783227
1.21090e-05;0.0018691525936780802
1.21093e-05;0.0018696747347778414
1.21095e-05;0.0018701968758776026
1.21098e-05;0.0018707190169773601
1.21100e-05;0.0018712411580771213
1.21103e-05;0.0018717632991768825
1.21105e-05;0.0018722854402766402
1.21108e-05;0.0018716618765320778
1.21110e-05;0.0018680915081618857
1.21113e-05;0.001864521139791718
1.21115e-05;0.001860950771421526
1.21118e-05;0.001857380403051334
1.21120e-05;0.0018538100346811661
1.21123e-05;0.0018502396663109743
1.21125e-05;0.0018334669841281695
1.21128e-05;0.001812969523493603
1.21130e-05;0.0017924720628588978
1.21133e-05;0.0017719746022241926
1.21135e-05;0.001751477141589626
1.21138e-05;0.0017309796809549208
1.21140e-05;0.0017061680805702541
1.21143e-05;0.0016702603178244812
1.21145e-05;0.001634352555078465
1.21148e-05;0.0015961377427320042
1.21150e-05;0.0015519890945745877
1.21153e-05;0.0015078404464168719
1.21155e-05;0.0014614847368137542
1.21158e-05;0.0014094523654520565
1.21160e-05;0.0013574199940900062
1.21163e-05;0.0013036014153812714
1.21165e-05;0.001245188630671141
1.21168e-05;0.0011867758459606144
1.21170e-05;0.0011272112012896658
1.21173e-05;0.0010646839207559796
1.21175e-05;0.001002156640222717
1.21178e-05;0.0009396293596890307
1.21180e-05;0.0008767016621184735
1.21183e-05;0.0008127440738374244
1.21185e-05;0.0007487864855559419
1.21188e-05;0.0006848288972744594
1.21190e-05;0.0006215438254780736
1.21193e-05;0.0005599884964663204
1.21195e-05;0.0004992996961577981
1.21198e-05;0.00044083964682700607
1.21200e-05;0.0003832420116277875
1.21203e-05;0.00032858926744814697
1.21205e-05;0.0002766477486799836
1.21208e-05;0.00022782942062971474
1.21210e-05;0.00018252000088178315
1.21213e-05;0.0001407916465851741
1.21215e-05;0.00010183202995533809
1.21218e-05;6.436254751536392e-05
1.21220e-05;2.7825411130522258e-05
1.21223e-05;-7.624015068518316e-06
1.21225e-05;-4.170720756639142e-05
1.21228e-05;-7.414571342367904e-05
1.21230e-05;-0.00010467752999884168
1.21233e-05;-0.00013323706118524123
1.21235e-05;-0.00016031275734965295
1.21238e-05;-0.00018668508915751266
1.21240e-05;-0.00021268293691250668
1.21243e-05;-0.00023807259293211582
1.21245e-05;-0.0002627086652716059
1.21248e-05;-0.0002867773626801366
1.21250e-05;-0.0003093867461298731
1.21253e-05;-0.00033145210857494893
1.21255e-05;-0.0003521182244146041
1.21258e-05;-0.0003727843402542593
1.21260e-05;-0.0003926836216579499
1.21263e-05;-0.00041061057024413463
1.21265e-05;-0.00042853751883031936
1.21268e-05;-0.0004464644674163826
1.21270e-05;-0.00046439141600256733
1.21273e-05;-0.00048231836458875206
1.21275e-05;-0.0005002453131748154
1.21278e-05;-0.000518172261761
1.21280e-05;-0.0005360992103471847
1.21283e-05;-0.0005540261589332481
1.21285e-05;-0.000568152284889796
1.21288e-05;-0.0005812060819771831
1.21290e-05;-0.0005942598790644817
1.21293e-05;-0.0006073136761518686
1.21295e-05;-0.0006203674732392556
1.21298e-05;-0.0006334212703265542
1.21300e-05;-0.0006464750674139413
1.21303e-05;-0.0006595288645013283
1.21305e-05;-0.0006725826615886269
1.21308e-05;-0.0006845101493672797
1.21310e-05;-0.0006935407187120386
1.21313e-05;-0.0007025712880567365
1.21315e-05;-0.0007104769634995801
1.21318e-05;-0.0007154893609987255
1.21320e-05;-0.000720501758497837
1.21323e-05;-0.0007241836910546592
1.21325e-05;-0.0007244436076631921
1.21328e-05;-0.0007247035242717232
1.21330e-05;-0.0007236322046255656
1.21333e-05;-0.0007191368851808592
1.21335e-05;-0.0007146415657361832
1.21338e-05;-0.0007086970861534693
1.21340e-05;-0.0006990253012160876
1.21343e-05;-0.0006893535162787058
1.21345e-05;-0.0006783832161126359
1.21348e-05;-0.00066407307610515
1.21350e-05;-0.000649762936097664
1.21353e-05;-0.0006343055938793706
1.21355e-05;-0.0006158975957384693
1.21358e-05;-0.000597489597597568
1.21360e-05;-0.0005780910497007291
1.21363e-05;-0.0005561447630733271
1.21365e-05;-0.0005341984764459253
1.21368e-05;-0.0005115701840195278
1.21370e-05;-0.0004871877418611914
1.21373e-05;-0.0004628052997028549
1.21375e-05;-0.0004379711414460873
1.21378e-05;-0.00041197514897276075
1.21380e-05;-0.0003859791564994341
1.21383e-05;-0.00035998316402628363
1.21385e-05;-0.0003340325723838139
1.21388e-05;-0.0003081987537297498
1.21390e-05;-0.00028236493507586077
1.21393e-05;-0.0002565311164217967
1.21395e-05;-0.00023113262958931874
1.21398e-05;-0.00020685383587268005
1.21400e-05;-0.00018293240692632295
1.21403e-05;-0.00016023188919458745
1.21405e-05;-0.00013865717502004719
1.21408e-05;-0.00011837946564815756
1.21410e-05;-9.955048620138309e-05
1.21413e-05;-8.209129083177084e-05
1.21415e-05;-6.528165748793328e-05
1.21418e-05;-4.8093059610197646e-05
1.21420e-05;-3.0071685520002574e-05
1.21423e-05;-1.1309485595714267e-05
1.21425e-05;8.008794465989027e-06
1.21427e-05;2.7698434725568797e-05
1.21430e-05;4.758693085418951e-05
1.21433e-05;6.764627835078552e-05
1.21435e-05;8.825015171839702e-05
1.21438e-05;0.00010996529433185001
1.21440e-05;0.00013299841749755902
1.21443e-05;0.00015721435528707033
1.21445e-05;0.00018241982683172932
1.21448e-05;0.00020849034084947736
1.21450e-05;0.00023521087318202437
1.21453e-05;0.00026228994762248636
1.21455e-05;0.00029029120856619717
1.21458e-05;0.00031894430450235144
1.21460e-05;0.00034927394949260996
1.21463e-05;0.00037960359448307405
1.21465e-05;0.00041039265556885884
