Time(s);Current(A)
1.17500e-05;0.0021159064487043847
1.17503e-05;0.002102023310396083
1.17505e-05;0.002091890002912383
1.17508e-05;0.0020963578899180243
1.17510e-05;0.0021008257769236658
1.17513e-05;0.002105293663929277
1.17515e-05;0.0021097615509349183
1.17518e-05;0.0021142294379405597
1.17520e-05;0.0021186973249461708
1.17523e-05;0.002123165211951812
1.17525e-05;0.0021276330989574536
1.17528e-05;0.0021321009859630647
1.17530e-05;0.002136568872968706
1.17533e-05;0.002156179129849721
1.17535e-05;0.002182145711516332
1.17538e-05;0.002208112293183119
1.17540e-05;0.002234078874849906
1.17543e-05;0.002260045456516517
1.17545e-05;0.0022860120381833038
1.17548e-05;0.0023119786198500906
1.17550e-05;0.002337945201516702
1.17553e-05;0.0023639117831834888
1.17555e-05;0.0023898783648502757
1.17558e-05;0.0024177540148382394
1.17560e-05;0.002453063247609636
1.17563e-05;0.0024883724803810327
1.17565e-05;0.0025236817131521904
1.17568e-05;0.002558990945923587
1.17570e-05;0.0025943001786949836
1.17572e-05;0.002629609411466141
1.17575e-05;0.0026649186442375375
1.17578e-05;0.0026976379449823876
1.17580e-05;0.0027292700678763016
1.17583e-05;0.0027609021907704294
1.17585e-05;0.0027925343136645576
1.17588e-05;0.002824166436558686
1.17590e-05;0.0028557985594526
1.17593e-05;0.002887430682346728
1.17595e-05;0.0029161851088768983
1.17598e-05;0.0029337342820847626
1.17600e-05;0.002951283455292746
1.17603e-05;0.002968832628500729
1.17605e-05;0.002986381801708594
1.17608e-05;0.003003930974916577
1.17610e-05;0.0030214801481245604
1.17613e-05;0.0030390293213324246
1.17615e-05;0.0030533037284067974
1.17618e-05;0.00305482676095843
1.17620e-05;0.0030563497935100522
1.17623e-05;0.003057872826061685
1.17625e-05;0.0030593958586133175
1.17628e-05;0.0030609188911649397
1.17630e-05;0.0030624419237165724
1.17633e-05;0.003063964956268205
1.17635e-05;0.0030638052892423273
1.17638e-05;0.003055656605712577
1.17640e-05;0.0030419129804450207
1.17643e-05;0.003028169355177558
1.17645e-05;0.003014425729910002
1.17648e-05;0.0030006821046424464
1.17650e-05;0.002986938479374984
1.17653e-05;0.0029731948541074278
1.17655e-05;0.002959451228839872
1.17657e-05;0.002945707603572409
1.17660e-05;0.0029319639783048535
1.17663e-05;0.0029142064228669796
1.17665e-05;0.002894763936731528
1.17668e-05;0.002875321450595945
1.17670e-05;0.002855878964460362
1.17673e-05;0.0028364364783247786
1.17675e-05;0.002816993992189327
1.17678e-05;0.0027975515060537437
1.17680e-05;0.002778109019918161
1.17683e-05;0.0027586665337827093
1.17685e-05;0.0027400344927320103
1.17688e-05;0.0027245581850646565
1.17690e-05;0.0027090818773974077
1.17693e-05;0.0026936055697300543
1.17695e-05;0.0026781292620627005
1.17698e-05;0.002662652954395452
1.17700e-05;0.0026471766467280984
1.17703e-05;0.002631700339060745
1.17705e-05;0.002616224031393496
1.17708e-05;0.0026003672050769573
1.17710e-05;0.0025843506481408054
1.17713e-05;0.0025683340912047623
1.17715e-05;0.0025523175342686104
1.17718e-05;0.0025363009773324585
1.17720e-05;0.002520284420396415
1.17723e-05;0.0025042678634602635
1.17725e-05;0.0024882513065241116
1.17728e-05;0.002470991054636417
1.17730e-05;0.0024488880691053254
1.17733e-05;0.002426785083574234
1.17735e-05;0.002404682098043292
1.17738e-05;0.0023825791125122
1.17740e-05;0.002360476126981108
1.17742e-05;0.0023383731414501666
1.17745e-05;0.0023162701559190746
1.17748e-05;0.002294167170387983
1.17750e-05;0.002272064184857041
1.17753e-05;0.002249319360531277
1.17755e-05;0.002224075326635844
1.17758e-05;0.0021988312927404114
1.17760e-05;0.0021735872588451496
1.17763e-05;0.0021483432249497164
1.17765e-05;0.0021230991910542833
1.17768e-05;0.0020978551571590215
1.17770e-05;0.002072611123263589
1.17773e-05;0.0020473670893681557
1.17775e-05;0.002022123055472894
1.17778e-05;0.0019975159052911277
1.17780e-05;0.0019753886704484995
1.17783e-05;0.0019532614356060213
1.17785e-05;0.001931134200763393
1.17788e-05;0.0019090069659207648
1.17790e-05;0.0018868797310782864
1.17793e-05;0.0018665183216758673
1.17795e-05;0.0018530327319903127
1.17798e-05;0.0018395471423048495
1.17800e-05;0.0018260615526192949
1.17803e-05;0.0018125759629337402
1.17805e-05;0.001799090373248277
1.17808e-05;0.0017880870261664024
1.17810e-05;0.0017867491036777498
1.17813e-05;0.001785411181189106
1.17815e-05;0.0017858438378148412
1.17818e-05;0.0017931708241451252
1.17820e-05;0.0018004978104753594
1.17823e-05;0.0018097788463358518
1.17825e-05;0.0018266686140571472
1.17827e-05;0.001843558381778328
1.17830e-05;0.0018622351900446866
1.17833e-05;0.0018878704259875868
1.17835e-05;0.0019135056619303133
1.17838e-05;0.0019415898925101178
1.17840e-05;0.0019792100858351007
1.17843e-05;0.0020168302791600838
1.17845e-05;0.0020544504724848123
1.17848e-05;0.0020920706658097954
1.17850e-05;0.0021296908591347786
1.17853e-05;0.0021673110524595067
1.17855e-05;0.00220692049957695
1.17858e-05;0.002254275757882108
1.17860e-05;0.0023016310161869447
1.17863e-05;0.0023489862744921026
1.17865e-05;0.0023963415327972605
1.17868e-05;0.0024436967911020974
1.17870e-05;0.0024910520494072557
1.17873e-05;0.002537303873047652
1.17875e-05;0.0025792591124086084
1.17878e-05;0.002621214351769849
1.17880e-05;0.0026631695911310898
1.17883e-05;0.0027051248304920464
1.17885e-05;0.002747080069853287
1.17888e-05;0.0027890353092145277
1.17890e-05;0.0028309905485754843
1.17893e-05;0.002872945787936725
1.17895e-05;0.0029149010272979657
1.17898e-05;0.0029568562666589223
1.17900e-05;0.002983952591918364
1.17903e-05;0.0030048115788424558
1.17905e-05;0.0030256705657664066
1.17908e-05;0.0030465295526904985
1.17910e-05;0.0030673885396145903
1.17912e-05;0.003088247526538541
1.17915e-05;0.003109106513462633
1.17918e-05;0.003129965500386725
1.17920e-05;0.0031508244873106757
1.17923e-05;0.0031716834742347676
1.17925e-05;0.0031889242988217452
1.17928e-05;0.0031920766232753934
1.17930e-05;0.00319522894772902
1.17933e-05;0.0031983812721826676
1.17935e-05;0.0032015335966363153
1.17938e-05;0.003204685921089942
1.17940e-05;0.0032078382455435895
1.17943e-05;0.0032109905699972377
1.17945e-05;0.003214142894450864
1.17948e-05;0.003217295218904512
1.17950e-05;0.0032204475433581597
1.17953e-05;0.003223599867811786
1.17955e-05;0.0032200591771716506
1.17958e-05;0.0032137089541966275
1.17960e-05;0.0032073587312216475
1.17963e-05;0.0032010085082466245
1.17965e-05;0.003194658285271601
1.17968e-05;0.003188308062296621
1.17970e-05;0.003181957839321598
1.17973e-05;0.003175607616346575
1.17975e-05;0.003169257393371595
1.17978e-05;0.003162907170396572
1.17980e-05;0.0031565569474215484
1.17983e-05;0.0031501081207940085
1.17985e-05;0.0031432753485489983
1.17988e-05;0.0031364425763039886
1.17990e-05;0.0031296098040590253
1.17993e-05;0.0031227770318140156
1.17995e-05;0.003115944259569006
1.17997e-05;0.0031091114873240426
1.18000e-05;0.003102278715079033
1.18003e-05;0.003090969625089061
1.18005e-05;0.0030777815075949647
1.18008e-05;0.003064593390100779
1.18010e-05;0.003051405272606593
1.18013e-05;0.003038217155112407
1.18015e-05;0.0030250290376183106
1.18018e-05;0.003011840920124125
1.18020e-05;0.002995425885397106
1.18023e-05;0.0029664457914926347
1.18025e-05;0.002937465697587967
1.18028e-05;0.0029084856036832997
1.18030e-05;0.0028795055097788286
1.18033e-05;0.0028505254158741615
1.18035e-05;0.002821545321969494
1.18038e-05;0.002792565228065023
1.18040e-05;0.0027635851341603554
1.18043e-05;0.002731818840032573
1.18045e-05;0.0026892035627541075
1.18048e-05;0.002646588285475353
1.18050e-05;0.0026039730081965987
1.18053e-05;0.0025613577309181327
1.18055e-05;0.0025187424536393783
1.18058e-05;0.002476127176360624
1.18060e-05;0.0024335118990821583
1.18063e-05;0.002390896621803404
1.18065e-05;0.0023477244588225228
1.18068e-05;0.0023023838789600517
1.18070e-05;0.0022570432990972737
1.18073e-05;0.0022117027192344956
1.18075e-05;0.002166362139372025
1.18078e-05;0.002121021559509247
1.18080e-05;0.002075680979646469
1.18082e-05;0.0020358876969342864
1.18085e-05;0.0019984230076141897
1.18088e-05;0.0019609583182940934
1.18090e-05;0.0019234936289742506
1.18093e-05;0.001886028939654154
1.18095e-05;0.0018485642503340573
1.18098e-05;0.0018138212648031243
1.18100e-05;0.001789676124435892
1.18103e-05;0.0017655309840684964
1.18105e-05;0.0017413858437011005
1.18108e-05;0.0017172407033338684
1.18110e-05;0.0016930955629664726
1.18113e-05;0.001668950422599077
1.18115e-05;0.001644805282231845
1.18118e-05;0.0016206601418644491
1.18120e-05;0.0016029612069674223
1.18123e-05;0.0015879682009327148
1.18125e-05;0.0015729751948979059
1.18128e-05;0.001557982188863097
1.18130e-05;0.0015429891828283896
1.18133e-05;0.0015279961767935804
1.18135e-05;0.0015130031707587714
1.18138e-05;0.0014980101647240642
1.18140e-05;0.0014843560567924495
1.18143e-05;0.0014759153871664473
1.18145e-05;0.0014674747175405024
1.18148e-05;0.0014590340479145002
1.18150e-05;0.0014505933782884982
1.18153e-05;0.0014421527086625533
1.18155e-05;0.001433712039036551
1.18158e-05;0.001425271369410549
1.18160e-05;0.001416830699784604
1.18163e-05;0.001408390030158602
1.18165e-05;0.0013999493605325998
1.18167e-05;0.0013915086909066549
1.18170e-05;0.0013830680212806527
1.18173e-05;0.0013776773350929262
1.18175e-05;0.0013735669429098887
1.18178e-05;0.0013694565507268233
1.18180e-05;0.001365346158543758
1.18183e-05;0.0013612357663606925
1.18185e-05;0.0013571253741776548
1.18188e-05;0.0013530149819945894
1.18190e-05;0.001348904589811524
1.18193e-05;0.0013447941976284863
1.18195e-05;0.001340683805445421
1.18198e-05;0.0013365734132623555
1.18200e-05;0.001332463021079318
1.18203e-05;0.0013308177454379923
1.18205e-05;0.0013387712084755802
1.18208e-05;0.0013467246715131143
1.18210e-05;0.0013546781345507022
1.18213e-05;0.00136263159758829
1.18215e-05;0.001370585060625824
1.18218e-05;0.0013785385236634118
1.18220e-05;0.0013864919867009997
1.18223e-05;0.0013944454497385335
1.18225e-05;0.0014023989127761214
1.18228e-05;0.0014103523758137093
1.18230e-05;0.001421769034510677
1.18233e-05;0.0014466707798436204
1.18235e-05;0.0014715725251765641
1.18238e-05;0.001496474270509339
1.18240e-05;0.0015213760158422826
1.18243e-05;0.0015462777611752263
1.18245e-05;0.0015711795065080011
1.18248e-05;0.0015960812518409449
1.18250e-05;0.0016209829971738886
1.18252e-05;0.0016458847425066634
1.18255e-05;0.001670786487839607
1.18258e-05;0.0016971691789664507
1.18260e-05;0.001729318417611199
1.18263e-05;0.001761467656256165
1.18265e-05;0.0017936168949011311
1.18268e-05;0.001825766133546097
1.18270e-05;0.0018579153721908453
1.18273e-05;0.0018900646108358113
1.18275e-05;0.0019216258596835372
1.18278e-05;0.001950897577664907
1.18280e-05;0.0019801692956464756
1.18283e-05;0.002009441013628044
1.18285e-05;0.002038712731609414
1.18288e-05;0.0020679844495909826
1.18290e-05;0.002097256167572551
1.18293e-05;0.0021247879713133687
1.18295e-05;0.002145544849065183
1.18298e-05;0.0021663017268169966
1.18300e-05;0.00218705860456867
1.18303e-05;0.002207815482320484
1.18305e-05;0.002228572360072298
1.18308e-05;0.0022493292378239715
1.18310e-05;0.002270086115575785
1.18313e-05;0.0022908429933275994
1.18315e-05;0.0023115586593537205
1.18318e-05;0.0023321138540279875
1.18320e-05;0.002352669048702254
1.18323e-05;0.0023732242433763813
1.18325e-05;0.0023937794380506482
1.18328e-05;0.0024143346327249147
1.18330e-05;0.0024348898273990425
1.18333e-05;0.002455445022073309
1.18335e-05;0.002476000216747576
1.18337e-05;0.0024970971301252554
1.18340e-05;0.002520303402711081
1.18343e-05;0.0025435096752969063
1.18345e-05;0.0025667159478825747
1.18348e-05;0.0025899222204684
1.18350e-05;0.0026131284930542256
1.18352e-05;0.0026363347656398937
1.18355e-05;0.002659541038225719
1.18358e-05;0.0026827473108115446
1.18360e-05;0.00270595358339737
1.18363e-05;0.0027291598559830385
1.18365e-05;0.0027519460550033356
1.18368e-05;0.00277309656000423
1.18370e-05;0.0027942470650049816
1.18373e-05;0.002815397570005876
1.18375e-05;0.002836548075006771
1.18378e-05;0.002857698580007522
1.18380e-05;0.002878849085008417
1.18383e-05;0.0028999995900093117
1.18385e-05;0.002921150095010063
1.18388e-05;0.0029423006000109577
1.18390e-05;0.0029634511050118527
1.18393e-05;0.0029820267871663994
1.18395e-05;0.002990576553203374
1.18398e-05;0.0029991263192403494
1.18400e-05;0.003007676085277266
1.18403e-05;0.003016225851314241
1.18405e-05;0.0030247756173512157
1.18408e-05;0.0030333253833881328
1.18410e-05;0.0030418751494251076
1.18413e-05;0.0030504249154620824
1.18415e-05;0.0030589746814989995
1.18418e-05;0.0030675244475359743
1.18420e-05;0.003076074213572949
1.18422e-05;0.003084623979609866
1.18425e-05;0.003093173745646841
1.18428e-05;0.003101723511683816
1.18430e-05;0.0031009934052582755
1.18433e-05;0.003096367879290443
1.18435e-05;0.0030917423533226105
1.18437e-05;0.0030871168273548092
1.18440e-05;0.0030824913013869767
1.18443e-05;0.003077865775419144
1.18445e-05;0.0030732402494513117
1.18448e-05;0.003068614723483511
1.18450e-05;0.0030639891975156783
1.18453e-05;0.003059363671547846
1.18455e-05;0.0030547381455800445
1.18458e-05;0.003050112619612212
1.18460e-05;0.0030454870936443795
1.18463e-05;0.0030408615676765782
1.18465e-05;0.0030354669780732193
1.18468e-05;0.0030270777873025335
1.18470e-05;0.003018688596531905
1.18473e-05;0.003010299405761219
1.18475e-05;0.0030019102149905336
1.18478e-05;0.0029935210242199046
1.18480e-05;0.002985131833449219
1.18483e-05;0.0029767426426785333
1.18485e-05;0.0029683534519079043
1.18488e-05;0.002959964261137219
1.18490e-05;0.0029514974923064018
1.18493e-05;0.0029427286478882334
1.18495e-05;0.0029339598034700057
1.18498e-05;0.002925190959051778
1.18500e-05;0.00291642211463361
1.18503e-05;0.0029076532702153822
1.18505e-05;0.0028988844257971545
1.18507e-05;0.002890115581378986
1.18510e-05;0.0028813467369607584
1.18513e-05;0.002872577892542531
1.18515e-05;0.002861791528071295
1.18518e-05;0.002843149288443911
1.18520e-05;0.0028245070488165267
1.18522e-05;0.002805864809189269
1.18525e-05;0.002787222569561885
1.18528e-05;0.002768580329934501
1.18530e-05;0.002749938090307117
1.18533e-05;0.0027312958506798594
1.18535e-05;0.0027126536110524753
1.18538e-05;0.0026940113714250913
1.18540e-05;0.0026753691317978334
1.18543e-05;0.0026497365658809907
1.18545e-05;0.00262116966506287
1.18548e-05;0.0025926027642449423
1.18550e-05;0.0025640358634268215
1.18553e-05;0.0025354689626087006
1.18555e-05;0.002506902061790773
1.18558e-05;0.0024783351609726527
1.18560e-05;0.0024497682601545318
1.18563e-05;0.0024212013593366043
1.18565e-05;0.0023926344585184834
1.18568e-05;0.002364401610785513
1.18570e-05;0.002337469508157643
1.18573e-05;0.002310537405529591
1.18575e-05;0.0022836053029015387
1.18578e-05;0.002256673200273669
1.18580e-05;0.0022297410976456168
1.18583e-05;0.0022028089950175645
1.18585e-05;0.002175876892389695
1.18588e-05;0.0021489447897616427
1.18590e-05;0.00212201268713359
1.18592e-05;0.0020950805845057203
1.18595e-05;0.002068148481877668
1.18598e-05;0.002043460783512151
1.18600e-05;0.002027512408290917
1.18603e-05;0.0020115640330695753
1.18605e-05;0.0019956156578482334
1.18607e-05;0.0019796672826269996
1.18610e-05;0.0019637189074056577
1.18613e-05;0.0019477705321843159
1.18615e-05;0.001931822156962974
1.18618e-05;0.0019158737817417401
1.18620e-05;0.0018999254065203983
1.18623e-05;0.0018839770312990564
1.18625e-05;0.0018680286560778228
1.18628e-05;0.001853336093116515
1.18630e-05;0.0018435334465280676
1.18633e-05;0.0018337307999396865
1.18635e-05;0.001823928153351239
1.18638e-05;0.0018141255067627917
1.18640e-05;0.0018043228601744106
1.18643e-05;0.0017945202135859631
1.18645e-05;0.0017847175669975157
1.18648e-05;0.0017749149204091346
1.18650e-05;0.0017651122738206871
1.18653e-05;0.0017553096272322397
1.18655e-05;0.0017455069806438586
1.18658e-05;0.0017357043340554112
1.18660e-05;0.0017259016874669635
1.18663e-05;0.0017160990408785826
1.18665e-05;0.001706296394290135
1.18668e-05;0.0016964937477016875
1.18670e-05;0.0016866911011133065
1.18673e-05;0.001676888454524859
1.18675e-05;0.0016670858079364116
1.18678e-05;0.0016572831613480305
1.18680e-05;0.001647480514759583
1.18683e-05;0.0016411484018669274
1.18685e-05;0.0016362731177021628
1.18688e-05;0.0016313978335373654
1.18690e-05;0.001626522549372568
1.18692e-05;0.0016216472652078036
1.18695e-05;0.0016167719810430063
1.18698e-05;0.0016118966968782088
1.18700e-05;0.0016070214127134113
1.18703e-05;0.001602146128548647
1.18705e-05;0.0015972708443838495
1.18708e-05;0.001592395560219052
1.18710e-05;0.0015875202760542878
1.18713e-05;0.0015826449918894903
1.18715e-05;0.0015777697077246928
1.18718e-05;0.0015728944235599285
1.18720e-05;0.001568019139395131
1.18723e-05;0.0015631438552303335
1.18725e-05;0.0015582685710655692
1.18728e-05;0.0015533932869007717
1.18730e-05;0.0015485180027359745
1.18733e-05;0.00154364271857121
1.18735e-05;0.0015390879918224564
1.18738e-05;0.0015357814603716416
1.18740e-05;0.0015324749289208493
1.18743e-05;0.0015291683974700348
1.18745e-05;0.00152586186601922
1.18748e-05;0.0015225553345684277
1.18750e-05;0.0015192488031176132
1.18753e-05;0.0015159422716667984
1.18755e-05;0.0015126357402160061
1.18758e-05;0.0015093292087651916
1.18760e-05;0.0015060226773143768
1.18763e-05;0.0015027161458635845
1.18765e-05;0.00149940961441277
1.18768e-05;0.0014961030829619552
1.18770e-05;0.0014934425998931694
1.18773e-05;0.0014910533090747066
1.18775e-05;0.0014886640182562437
1.18777e-05;0.0014862747274377972
1.18780e-05;0.0014838854366193341
1.18783e-05;0.0014814961458008713
1.18785e-05;0.0014791068549824084
1.18788e-05;0.0014767175641639619
1.18790e-05;0.001474328273345499
1.18793e-05;0.001471938982527036
1.18795e-05;0.0014695496917085894
1.18798e-05;0.0014671604008901266
1.18800e-05;0.0014647711100716637
1.18803e-05;0.0014638024249010288
1.18805e-05;0.0014683653331413176
1.18808e-05;0.0014729282413816062
1.18810e-05;0.001477491149621864
1.18813e-05;0.0014820540578621526
1.18815e-05;0.0014866169661024414
1.18818e-05;0.0014911798743426992
1.18820e-05;0.0014957427825829878
1.18823e-05;0.0015003056908232766
1.18825e-05;0.0015048685990635342
1.18828e-05;0.001509431507303823
1.18830e-05;0.0015139944155441116
1.18833e-05;0.001520504821641758
1.18835e-05;0.0015345984485532077
1.18838e-05;0.001548692075464657
1.18840e-05;0.001562785702376011
1.18843e-05;0.0015768793292874606
1.18845e-05;0.00159097295619891
1.18848e-05;0.001605066583110264
1.18850e-05;0.0016191602100217133
1.18853e-05;0.0016332538369331628
1.18855e-05;0.0016473474638445166
1.18858e-05;0.0016614410907559662
1.18860e-05;0.0016755347176674155
1.18862e-05;0.0016901394210009012
1.18865e-05;0.0017067341677881984
1.18868e-05;0.0017233289145754955
1.18870e-05;0.0017399236613627926
1.18873e-05;0.0017565184081499772
1.18875e-05;0.0017731131549372744
1.18878e-05;0.0017897079017245715
1.18880e-05;0.001806302648511756
1.18883e-05;0.0018228973952990532
1.18885e-05;0.0018394921420863504
1.18888e-05;0.0018535895626820866
1.18890e-05;0.0018666386786481118
1.18893e-05;0.001879687794614137
1.18895e-05;0.0018927369105800737
1.18898e-05;0.001905786026546099
1.18900e-05;0.0019188351425121239
1.18903e-05;0.0019318842584780606
1.18905e-05;0.0019449333744440858
1.18908e-05;0.001957982490410111
1.18910e-05;0.0019724163045506493
1.18913e-05;0.0019922418945962053
1.18915e-05;0.002012067484641761
1.18918e-05;0.0020318930746871825
1.18920e-05;0.002051718664732738
1.18923e-05;0.0020715442547782938
1.18925e-05;0.0020913698448237154
1.18928e-05;0.002111195434869271
1.18930e-05;0.002131021024914827
1.18933e-05;0.002150846614960248
1.18935e-05;0.0021706722050058042
1.18938e-05;0.00219049779505136
1.18940e-05;0.0022174474844805347
1.18943e-05;0.002247387662855416
1.18945e-05;0.0022773278412302972
1.18947e-05;0.002307268019604976
1.18950e-05;0.0023372081979798572
1.18953e-05;0.0023671483763547385
1.18955e-05;0.00239708855472962
1.18958e-05;0.002427028733104298
1.18960e-05;0.00245696891147918
1.18963e-05;0.002486909089854061
1.18965e-05;0.0025168492682287394
1.18968e-05;0.0025462528100758555
1.18970e-05;0.0025735667818245745
1.18973e-05;0.0026008807535731083
1.18975e-05;0.0026281947253218273
1.18978e-05;0.002655508697070546
1.18980e-05;0.0026828226688190796
1.18983e-05;0.0027101366405677986
