Time(s);Current(A)
6.00000e-06;0.0037800213656649265
6.00025e-06;0.0037908532354114723
6.00050e-06;0.0038016851051579817
6.00075e-06;0.003812516974904491
6.00100e-06;0.0038216418244373654
6.00125e-06;0.003830540905739682
6.00150e-06;0.0038394399870419985
6.00175e-06;0.003848339068344345
6.00200e-06;0.0038572381496466616
6.00225e-06;0.003866137230948978
6.00250e-06;0.003875036312251325
6.00275e-06;0.0038839353935536418
6.00300e-06;0.0038928344748559583
6.00325e-06;0.003901733556158305
6.00350e-06;0.0039106326374606214
6.00375e-06;0.003919531718762968
6.00400e-06;0.003928430800065285
6.00425e-06;0.003937329881367601
6.00450e-06;0.003946228962669948
6.00475e-06;0.003955128043972265
6.00500e-06;0.003964027125274581
6.00525e-06;0.003972926206576928
6.00550e-06;0.003981825287879244
6.00575e-06;0.003977521531709844
6.00600e-06;0.003971471585759317
6.00625e-06;0.0039654216398088095
6.00650e-06;0.003959371693858302
6.00675e-06;0.003953321747907774
6.00700e-06;0.003947271801957267
6.00725e-06;0.003941221856006759
6.00750e-06;0.003935171910056231
6.00775e-06;0.003929121964105724
6.00800e-06;0.003923072018155197
6.00825e-06;0.003917022072204689
6.00850e-06;0.003910972126254182
6.00875e-06;0.0038967436873910844
6.00900e-06;0.003869350584745207
6.00925e-06;0.003841957482099329
6.00950e-06;0.0038145643794533584
6.00975e-06;0.003787171276807481
6.01000e-06;0.0037597781741616028
6.01025e-06;0.0037323850715156323
6.01050e-06;0.0037049919688697548
6.01075e-06;0.0036775988662238767
6.01100e-06;0.0036502057635779063
6.01125e-06;0.0036228126609320287
6.01150e-06;0.0035954195582861507
6.01175e-06;0.0035680264556401803
6.01200e-06;0.003534076914232922
6.01225e-06;0.0034992602269270437
6.01250e-06;0.003464443539621283
6.01275e-06;0.0034296268523155227
6.01300e-06;0.0033948101650096442
6.01325e-06;0.0033599934777038837
6.01350e-06;0.0033251767903981237
6.01375e-06;0.003292664628048456
6.01400e-06;0.0032638619873123463
6.01425e-06;0.0032350593465762367
6.01450e-06;0.0032062567058400294
6.01475e-06;0.00317745406510392
6.01500e-06;0.0031486514243678106
6.01525e-06;0.0031198487836316033
6.01550e-06;0.0030910461428954937
6.01575e-06;0.003073361038237751
6.01600e-06;0.0030571463241625676
6.01625e-06;0.003040931610087439
6.01650e-06;0.003035655311349762
6.01675e-06;0.003031825712922943
6.01700e-06;0.003027996114496124
6.01725e-06;0.003034955435640733
6.01750e-06;0.003043341684984287
6.01775e-06;0.003051727934327841
6.01800e-06;0.0030719719191442912
6.01825e-06;0.0030937841923337167
6.01850e-06;0.003115596465523142
6.01875e-06;0.003156570980575828
6.01900e-06;0.003200079868332444
6.01925e-06;0.00324358875608906
6.01950e-06;0.003287097643845823
6.01975e-06;0.003330606531602439
6.02000e-06;0.003374115419359055
6.02025e-06;0.003417624307115818
6.02050e-06;0.003461133194872434
6.02075e-06;0.003523012891439211
6.02100e-06;0.0035873222868232544
6.02125e-06;0.003651631682207298
6.02150e-06;0.003715941077591559
6.02175e-06;0.0037802504729756024
6.02200e-06;0.003844559868359646
6.02225e-06;0.0039088692637439075
6.02250e-06;0.003973178659127951
6.02275e-06;0.00403915159516147
6.02300e-06;0.004105344548875997
6.02325e-06;0.0041715375025903
6.02350e-06;0.004237730456304602
6.02375e-06;0.004303923410019129
6.02400e-06;0.004370116363733432
6.02425e-06;0.004436309317447734
6.02450e-06;0.004487711972610261
6.02475e-06;0.004537158482495198
6.02500e-06;0.004586604992380301
6.02525e-06;0.004636051502265238
6.02550e-06;0.004685498012150175
6.02575e-06;0.004734944522035278
6.02600e-06;0.0047843910319202146
6.02625e-06;0.004817584662016349
6.02650e-06;0.004848628707780089
6.02675e-06;0.004879672753543723
6.02700e-06;0.004910716799307357
6.02725e-06;0.004941760845071096
6.02750e-06;0.0049728048908347314
6.02775e-06;0.005003848936598366
6.02800e-06;0.005034892982362105
6.02825e-06;0.005065937028125739
6.02850e-06;0.005096981073889374
6.02875e-06;0.005128025119653113
6.02900e-06;0.005159069165416748
6.02925e-06;0.005190113211180488
6.02950e-06;0.005221157256944122
6.02975e-06;0.005252201302707756
6.03000e-06;0.005279277647730816
6.03025e-06;0.005299967309195197
6.03050e-06;0.005320656970659578
6.03075e-06;0.00534134663212403
6.03100e-06;0.005362036293588411
6.03125e-06;0.005382725955052792
6.03150e-06;0.0054034156165172435
6.03175e-06;0.005424105277981625
6.03200e-06;0.0054447949394460056
6.03225e-06;0.005465484600910457
6.03250e-06;0.005486174262374839
6.03275e-06;0.005506863923839219
6.03300e-06;0.005527553585303671
6.03325e-06;0.005548243246768053
6.03350e-06;0.0055689329082325035
6.03375e-06;0.005589622569696885
6.03400e-06;0.005603391554920824
6.03425e-06;0.0056162452206811354
6.03450e-06;0.005629098886441404
6.03475e-06;0.005641952552201672
6.03500e-06;0.005654806217961984
6.03525e-06;0.005667659883722252
6.03550e-06;0.00568051354948252
6.03575e-06;0.005693367215242832
6.03600e-06;0.0057062208810031
6.03625e-06;0.005719074546763368
6.03650e-06;0.00573192821252368
6.03675e-06;0.005744781878283948
6.03700e-06;0.0057576355440442165
6.03725e-06;0.005771533435986348
6.03750e-06;0.005787112186093374
6.03775e-06;0.005802690936200452
6.03800e-06;0.005818269686307478
6.03825e-06;0.005833848436414503
6.03850e-06;0.005849427186521581
6.03875e-06;0.005865005936628607
6.03900e-06;0.005880584686735632
6.03925e-06;0.00589616343684271
6.03950e-06;0.005911742186949735
6.03975e-06;0.005927320937056761
6.04000e-06;0.0059428996871638395
6.04025e-06;0.005958478437270864
6.04050e-06;0.00597405718737789
6.04075e-06;0.005993529469276367
6.04100e-06;0.00601351670452705
6.04125e-06;0.006033503939777734
6.04150e-06;0.006053491175028484
6.04175e-06;0.006073478410279168
6.04200e-06;0.006093465645529919
6.04225e-06;0.006113452880780602
6.04250e-06;0.006133440116031286
6.04275e-06;0.006153427351282037
6.04300e-06;0.006173414586532719
6.04325e-06;0.006193401821783403
6.04350e-06;0.006210906518215083
6.04375e-06;0.0062244151496984495
6.04400e-06;0.006237923781181816
6.04425e-06;0.006251432412665228
6.04450e-06;0.006264941044148594
6.04475e-06;0.00627844967563196
6.04500e-06;0.006291958307115372
6.04525e-06;0.006305466938598739
6.04550e-06;0.006318975570082105
6.04575e-06;0.006332484201565516
6.04600e-06;0.006345992833048882
6.04625e-06;0.006359501464532295
6.04650e-06;0.0063468928017957485
6.04675e-06;0.006330829900355757
6.04700e-06;0.006314766998915711
6.04725e-06;0.006298704097475719
6.04750e-06;0.006282641196035727
6.04775e-06;0.00626657829459568
6.04800e-06;0.0062505153931556885
6.04825e-06;0.0062344524917156965
6.04850e-06;0.006218389590275651
6.04875e-06;0.006202326688835659
6.04900e-06;0.006186263787395667
6.04925e-06;0.006141852361065749
6.04950e-06;0.006093691596423013
6.04975e-06;0.006045530831780275
6.05000e-06;0.005997370067137375
6.05025e-06;0.005949209302494637
6.05050e-06;0.005901048537851737
6.05075e-06;0.0058528877732090005
6.05100e-06;0.005804727008566263
6.05125e-06;0.005756566243923363
6.05150e-06;0.005708405479280625
6.05175e-06;0.005660244714637889
6.05200e-06;0.005602263243329014
6.05225e-06;0.005542982898378713
6.05250e-06;0.005483702553428411
6.05275e-06;0.0054244222084779085
6.05300e-06;0.005365141863527607
6.05325e-06;0.005305861518577306
6.05350e-06;0.005246581173626804
6.05375e-06;0.005194612049990638
6.05400e-06;0.0051436098987908884
6.05425e-06;0.0050926077475909656
6.05450e-06;0.005041605596391216
6.05475e-06;0.004990603445191294
6.05500e-06;0.004939601293991545
6.05525e-06;0.004888599142791794
6.05550e-06;0.004847517203054924
6.05575e-06;0.004807747297332121
6.05600e-06;0.0047679773916093175
6.05625e-06;0.004728207485886379
6.05650e-06;0.004688437580163575
6.05675e-06;0.004648667674440772
6.05700e-06;0.004608897768717833
6.05725e-06;0.00456912786299503
6.05750e-06;0.004529357957272226
6.05775e-06;0.004483442480068045
6.05800e-06;0.004436714197729001
6.05825e-06;0.004389985915389958
6.05850e-06;0.004343257633050757
6.05875e-06;0.004296529350711714
6.05900e-06;0.004249801068372513
6.05925e-06;0.00420307278603347
6.05950e-06;0.004156344503694427
6.05975e-06;0.004109616221355225
6.06000e-06;0.00405504762522127
6.06025e-06;0.0039994420795812675
6.06050e-06;0.003943836533941076
6.06075e-06;0.0038882309883010733
6.06100e-06;0.0038326254426610702
6.06125e-06;0.003777019897020879
6.06150e-06;0.003721414351380876
6.06175e-06;0.0036658088057408733
6.06200e-06;0.0036105007774550548
6.06225e-06;0.0035556716535320586
6.06250e-06;0.0035008425296090624
6.06275e-06;0.0034460134056858802
6.06300e-06;0.003391184281762884
6.06325e-06;0.0033363551578397023
6.06350e-06;0.0032815260339167057
6.06375e-06;0.0032266969099937095
6.06400e-06;0.0031718677860705273
6.06425e-06;0.0031326685250007706
6.06450e-06;0.003095536448865957
6.06475e-06;0.0030584043727310173
6.06500e-06;0.0030212722965962035
6.06525e-06;0.0029841402204613897
6.06550e-06;0.0029470081443264498
6.06575e-06;0.002909876068191636
6.06600e-06;0.002872743992056822
6.06625e-06;0.0028356119159218826
6.06650e-06;0.0028120850177384945
6.06675e-06;0.0028104579481836637
6.06700e-06;0.0028088308786288277
6.06725e-06;0.002807203809073997
6.06750e-06;0.002805576739519161
6.06775e-06;0.0028039496699643306
6.06800e-06;0.0028023226004094998
6.06825e-06;0.002800695530854664
6.06850e-06;0.0027990684612998334
6.06875e-06;0.0027974413917450027
6.06900e-06;0.0028235459740458355
6.06925e-06;0.002853318307846621
6.06950e-06;0.002883090641647407
6.06975e-06;0.002912862975448294
6.07000e-06;0.00294263530924908
6.07025e-06;0.0029724076430498662
6.07050e-06;0.003002179976850753
6.07075e-06;0.0030384928571570383
6.07100e-06;0.003085333850223678
6.07125e-06;0.003132174843290476
6.07150e-06;0.003179015836357115
6.07175e-06;0.0032258568294239133
6.07200e-06;0.0032726978224905524
6.07225e-06;0.003319538815557192
6.07250e-06;0.00336637980862399
6.07275e-06;0.003414419343483864
6.07300e-06;0.003462617395891918
6.07325e-06;0.003510815448300136
6.07350e-06;0.0035590135007081904
6.07375e-06;0.003607211553116245
6.07400e-06;0.0036554096055244627
6.07425e-06;0.0037036076579325173
6.07450e-06;0.003751805710340572
6.07475e-06;0.0037939756066590886
6.07500e-06;0.0038264421690143613
6.07525e-06;0.0038589087313696336
6.07550e-06;0.003891375293725016
6.07575e-06;0.003923841856080288
6.07600e-06;0.00395630841843567
6.07625e-06;0.003988774980790943
6.07650e-06;0.0040212415431462156
6.07675e-06;0.0040537081055015975
6.07700e-06;0.004070681263161535
6.07725e-06;0.004085605283662753
6.07750e-06;0.0041005293041640216
6.07775e-06;0.004115453324665241
6.07800e-06;0.004130377345166459
6.07825e-06;0.0041453013656677275
6.07850e-06;0.004160225386168946
6.07875e-06;0.004175149406670165
6.07900e-06;0.0041900734271714335
6.07925e-06;0.004204997447672652
6.07950e-06;0.004219921468173871
6.07975e-06;0.0042348454886751395
6.08000e-06;0.004249769509176358
6.08025e-06;0.0042599598977718384
6.08050e-06;0.004263526460168479
6.08075e-06;0.0042670930225651195
6.08100e-06;0.004270659584961773
6.08125e-06;0.0042742261473584136
6.08150e-06;0.004277792709755054
6.08175e-06;0.004281359272151707
6.08200e-06;0.004284925834548347
6.08225e-06;0.004288492396944988
6.08250e-06;0.0042920589593416405
6.08275e-06;0.004295625521738281
6.08300e-06;0.004299192084134922
6.08325e-06;0.004302758646531575
6.08350e-06;0.004306325208928216
6.08375e-06;0.0043068575731752155
6.08400e-06;0.004307231526580765
6.08425e-06;0.004307605479986314
6.08450e-06;0.004307979433391863
6.08475e-06;0.004308353386797412
6.08500e-06;0.0043087273402029605
6.08525e-06;0.00430910129360851
6.08550e-06;0.004309475247014059
6.08575e-06;0.00430501566993011
6.08600e-06;0.004294657555038881
6.08625e-06;0.004284299440147686
6.08650e-06;0.004273941325256492
6.08675e-06;0.004263583210365262
6.08700e-06;0.004253225095474067
6.08725e-06;0.004242866980582872
6.08750e-06;0.004232508865691643
6.08775e-06;0.004222150750800449
6.08800e-06;0.004190630202844252
6.08825e-06;0.004158004796647904
6.08850e-06;0.004125379390451667
6.08875e-06;0.004092753984255319
6.08900e-06;0.004060128578059082
6.08925e-06;0.004027503171862845
6.08950e-06;0.003994877765666497
6.08975e-06;0.00396225235947026
6.09000e-06;0.003929626953274023
6.09025e-06;0.003889417598254284
6.09050e-06;0.003839953267196764
6.09075e-06;0.0037904889361392445
6.09100e-06;0.0037410246050815573
6.09125e-06;0.0036915602740240374
6.09150e-06;0.003642095942966518
6.09175e-06;0.0035926316119088307
6.09200e-06;0.003543167280851311
6.09225e-06;0.003493702949793791
6.09250e-06;0.0034442386187361037
6.09275e-06;0.0033930874889467715
6.09300e-06;0.003341848293977262
6.09325e-06;0.003290609099007926
6.09350e-06;0.0032393699040385894
6.09375e-06;0.0031881307090690795
6.09400e-06;0.0031368915140997434
6.09425e-06;0.0030949793735505693
6.09450e-06;0.00305355418423664
6.09475e-06;0.0030121289949228505
6.09500e-06;0.0029707038056090616
6.09525e-06;0.0029292786162951317
6.09550e-06;0.0028878534269813428
6.09575e-06;0.0028624923975122635
6.09600e-06;0.002837970053240839
6.09625e-06;0.0028134477089694966
6.09650e-06;0.0028061364455821097
6.09675e-06;0.0027997237463843585
6.09700e-06;0.0027933110471866293
6.09725e-06;0.002803919203504932
6.09750e-06;0.0028154159926374873
6.09775e-06;0.002826912781770043
6.09800e-06;0.0028570324795375926
6.09825e-06;0.0028881244508604867
6.09850e-06;0.002919216422183381
6.09875e-06;0.0029679685213237087
6.09900e-06;0.0030176426287064034
6.09925e-06;0.0030673167360890986
6.09950e-06;0.0031322482604078327
6.09975e-06;0.00319797635111132
6.10000e-06;0.0032637044418148075
6.10025e-06;0.0033489276057708938
6.10050e-06;0.003435168577661651
6.10075e-06;0.003521409549552408
6.10100e-06;0.0036076505214434574
6.10125e-06;0.0036938914933342146
6.10150e-06;0.003780132465225264
6.10175e-06;0.0038721577461465905
6.10200e-06;0.0039712418354418385
6.10225e-06;0.0040703259247374226
6.10250e-06;0.00416941001403267
6.10275e-06;0.0042684941033279186
6.10300e-06;0.004367578192623502
6.10325e-06;0.00446666228191875
6.10350e-06;0.004554003715046657
6.10375e-06;0.004640732082070121
6.10400e-06;0.004727460449093291
6.10425e-06;0.004814188816116461
6.10450e-06;0.004900917183139925
6.10475e-06;0.004987645550163095
6.10500e-06;0.005074373917186265
6.10525e-06;0.005161102284209729
6.10550e-06;0.005209707872149637
6.10575e-06;0.00525632312814638
6.10600e-06;0.005302938384142965
6.10625e-06;0.00534955364013955
6.10650e-06;0.005396168896136293
6.10675e-06;0.0054427841521328775
6.10700e-06;0.005489399408129462
6.10725e-06;0.005536014664126205
6.10750e-06;0.005536657461846418
6.10775e-06;0.005534900107888262
6.10800e-06;0.005533142753930099
6.10825e-06;0.005531385399971943
6.10850e-06;0.0055296280460137865
6.10875e-06;0.0055278706920556244
6.10900e-06;0.0055261133380974685
6.10925e-06;0.005524355984139312
6.10950e-06;0.0055225986301811495
6.10975e-06;0.0054843817336400836
6.11000e-06;0.005444261340188231
6.11025e-06;0.005404140946736513
6.11050e-06;0.005364020553284796
6.11075e-06;0.005323900159832942
6.11100e-06;0.005283779766381226
6.11125e-06;0.005243659372929509
6.11150e-06;0.005203538979477655
6.11175e-06;0.005163418586025938
6.11200e-06;0.005108470448447547
6.11225e-06;0.005052748177044694
6.11250e-06;0.00499702590564203
6.11275e-06;0.004941303634239365
6.11300e-06;0.0048855813628365125
6.11325e-06;0.004829859091433848
6.11350e-06;0.004774136820031184
6.11375e-06;0.004721833856708276
6.11400e-06;0.004673703602757511
6.11425e-06;0.004625573348806583
6.11450e-06;0.004577443094855816
6.11475e-06;0.004529312840905051
6.11500e-06;0.004481182586954123
6.11525e-06;0.0044330523330033565
6.11550e-06;0.004384922079052591
6.11575e-06;0.0043630841278652485
6.11600e-06;0.004342618857559575
6.11625e-06;0.004322153587253901
6.11650e-06;0.004301688316948159
6.11675e-06;0.004281223046642486
6.11700e-06;0.004260757776336813
6.11725e-06;0.00424029250603107
6.11750e-06;0.0042198272357253964
6.11775e-06;0.004199361965419724
6.11800e-06;0.004178896695113981
6.11825e-06;0.004158431424808307
6.11850e-06;0.004137966154502565
6.11875e-06;0.004144436508650468
6.11900e-06;0.0041523131305201706
6.11925e-06;0.0041601897523899
6.11950e-06;0.004168066374259604
6.11975e-06;0.004175942996129307
6.12000e-06;0.004183819617999037
6.12025e-06;0.00419169623986874
6.12050e-06;0.004199572861738443
6.12075e-06;0.004207449483608173
6.12100e-06;0.004215326105477876
6.12125e-06;0.004223202727347579
6.12150e-06;0.004231079349217309
6.12175e-06;0.0042503787253820105
6.12200e-06;0.004270274466063235
6.12225e-06;0.004290170206744527
6.12250e-06;0.004310065947425752
6.12275e-06;0.004329961688107043
6.12300e-06;0.004349857428788267
6.12325e-06;0.004369753169469492
6.12350e-06;0.004389648910150784
6.12375e-06;0.004409544650832008
6.12400e-06;0.004425484579135456
6.12425e-06;0.0044412179805300624
6.12450e-06;0.004456951381924615
6.12475e-06;0.0044726847833191676
6.12500e-06;0.004488418184713773
6.12525e-06;0.0045041515861083264
6.12550e-06;0.004519884987502879
6.12575e-06;0.0045356183888974845
6.12600e-06;0.004551351790292037
6.12625e-06;0.004553676970868888
6.12650e-06;0.0045553021287615975
6.12675e-06;0.0045569272866543015
6.12700e-06;0.004536939553069188
6.12725e-06;0.0045158234435042875
6.12750e-06;0.004494707333939387
6.12775e-06;0.004473591224374416
6.12800e-06;0.004452475114809515
6.12825e-06;0.004431359005244615
6.12850e-06;0.004410242895679642
6.12875e-06;0.004389126786114742
6.12900e-06;0.004368010676549842
6.12925e-06;0.00434689456698487
6.12950e-06;0.004297005052333738
6.12975e-06;0.004245613322248722
6.13000e-06;0.004194221592163533
6.13025e-06;0.004142829862078518
6.13050e-06;0.004091438131993502
6.13075e-06;0.0040400464019083124
6.13100e-06;0.003988654671823298
6.13125e-06;0.003937262941738108
6.13150e-06;0.003885871211653093
6.13175e-06;0.0038344794815680775
6.13200e-06;0.0037730475315874232
6.13225e-06;0.0037110913970956902
6.13250e-06;0.003649135262603957
6.13275e-06;0.003587179128112014
6.13300e-06;0.003525222993620281
6.13325e-06;0.003463266859128548
6.13350e-06;0.0034013107246366045
6.13375e-06;0.00334745870924703
6.13400e-06;0.0032940297975099964
6.13425e-06;0.003240600885772782
6.13450e-06;0.003187171974035749
6.13475e-06;0.0031337430622987157
6.13500e-06;0.0030803141505615014
6.13525e-06;0.003026885238824468
6.13550e-06;0.002996431901514741
6.13575e-06;0.0029671780837747953
6.13600e-06;0.0029379242660348497
6.13625e-06;0.002908670448294805
6.13650e-06;0.0028794166305548593
6.13675e-06;0.002850162812814914
6.13700e-06;0.0028209089950748693
6.13725e-06;0.0027916551773349237
6.13750e-06;0.002762401359594978
6.13775e-06;0.0027331475418549333
6.13800e-06;0.0027142341583508978
6.13825e-06;0.00270793959298689
6.13850e-06;0.0027016450276228605
6.13875e-06;0.0026953504622588527
6.13900e-06;0.002689055896894845
6.13925e-06;0.002682761331530816
6.13950e-06;0.002676466766166808
6.13975e-06;0.0026701722008027787
6.14000e-06;0.002663877635438771
6.14025e-06;0.002657583070074763
6.14050e-06;0.002651288504710734
6.14075e-06;0.002657450171320452
6.14100e-06;0.002664262158733057
6.14125e-06;0.0026710741461456844
6.14150e-06;0.002677886133558289
6.14175e-06;0.002684698120970893
6.14200e-06;0.0026915101083835207
6.14225e-06;0.0026983220957961253
6.14250e-06;0.00270513408320873
6.14275e-06;0.0027119460706213575
6.14300e-06;0.0027199526211773
6.14325e-06;0.0027294169417569404
6.14350e-06;0.0027388812623366124
6.14375e-06;0.0027483455829162523
6.14400e-06;0.0027578099034959247
6.14425e-06;0.0027672742240755646
6.14450e-06;0.0027767385446552046
6.14475e-06;0.0027862028652348766
6.14500e-06;0.002795667185814517
6.14525e-06;0.002805131506394157
6.14550e-06;0.002815969738803863
6.14575e-06;0.002826879701046911
6.14600e-06;0.0028377896632899597
6.14625e-06;0.002848699625533045
6.14650e-06;0.002859609587776094
6.14675e-06;0.0028705195500191424
6.14700e-06;0.002881429512262228
6.14725e-06;0.0028923394745052765
6.14750e-06;0.0029032494367483247
6.14775e-06;0.00291415939899141
6.14800e-06;0.0029250693612344588
6.14825e-06;0.0029359793234775074
6.14850e-06;0.002946889285720593
6.14875e-06;0.0029577992479636415
6.14900e-06;0.0029729708967760156
6.14925e-06;0.0029933432408927253
6.14950e-06;0.0030137155850094356
6.14975e-06;0.0030340879291262147
