Time(s);Current(A)
1.05000e-05;0.006251494317746353
1.05002e-05;0.0062567141572596255
1.05005e-05;0.006261933996772933
1.05008e-05;0.006267153836286241
1.05010e-05;0.006272373675799513
1.05013e-05;0.006277593515312821
1.05015e-05;0.006287747227732161
1.05017e-05;0.006299806881417931
1.05020e-05;0.006311866535103783
1.05023e-05;0.006323926188789634
1.05025e-05;0.006335985842475404
1.05028e-05;0.006348045496161255
1.05030e-05;0.0063601051498471065
1.05033e-05;0.0063721648035329585
1.05035e-05;0.006384224457218728
1.05038e-05;0.00639628411090458
1.05040e-05;0.006408343764590431
1.05043e-05;0.006417447411434976
1.05045e-05;0.0064254091611268315
1.05048e-05;0.006433370910818686
1.05050e-05;0.006441332660510487
1.05053e-05;0.006449294410202342
1.05055e-05;0.006457256159894197
1.05058e-05;0.006465217909585997
1.05060e-05;0.006473179659277852
1.05063e-05;0.006481141408969707
1.05065e-05;0.006489103158661508
1.05068e-05;0.0064970649083533625
1.05070e-05;0.00650445796361805
1.05073e-05;0.006511631333820331
1.05075e-05;0.006518804704022661
1.05078e-05;0.00652597807422499
1.05080e-05;0.006533151444427271
1.05083e-05;0.006540324814629601
1.05085e-05;0.00654749818483193
1.05087e-05;0.006554671555034211
1.05090e-05;0.00656184492523654
1.05093e-05;0.00656901829543887
1.05095e-05;0.006576191665641151
1.05098e-05;0.00658336503584348
1.05100e-05;0.00659053840604581
1.05102e-05;0.006597711776248091
1.05105e-05;0.00660488514645042
1.05108e-05;0.00661205851665275
1.05110e-05;0.006618192704016775
1.05113e-05;0.006623048798557341
1.05115e-05;0.0066279048930979086
1.05118e-05;0.006632760987638476
1.05120e-05;0.006637617082179009
1.05123e-05;0.006642473176719577
1.05125e-05;0.006647329271260144
1.05128e-05;0.006652185365800678
1.05130e-05;0.006657041460341245
1.05133e-05;0.006661897554881812
1.05135e-05;0.006666753649422346
1.05138e-05;0.006671609743962913
1.05140e-05;0.0066764658385034805
1.05143e-05;0.006681321933044014
1.05145e-05;0.006686178027584581
1.05148e-05;0.006691034122125149
1.05150e-05;0.006693358393165233
1.05153e-05;0.006683792616995522
1.05155e-05;0.006674226840825813
1.05158e-05;0.006664661064656167
1.05160e-05;0.006655095288486457
1.05163e-05;0.006645529512316747
1.05165e-05;0.0066359637361471015
1.05168e-05;0.006626397959977392
1.05170e-05;0.006616832183807681
1.05172e-05;0.006607266407638036
1.05175e-05;0.006597700631468326
1.05178e-05;0.006588134855298616
1.05180e-05;0.006578569079128971
1.05183e-05;0.0065690033029592605
1.05185e-05;0.006554891903521349
1.05187e-05;0.006530221761510592
1.05190e-05;0.006505551619499668
1.05193e-05;0.006480881477488744
1.05195e-05;0.006456211335477987
1.05198e-05;0.006431541193467063
1.05200e-05;0.0064068710514561394
1.05203e-05;0.0063822009094452155
1.05205e-05;0.006357530767434459
1.05208e-05;0.006332860625423535
1.05210e-05;0.006308190483412611
1.05213e-05;0.006283520341401855
1.05215e-05;0.006258850199390931
1.05218e-05;0.006234180057380007
1.05220e-05;0.006210262569330086
1.05223e-05;0.006187357808194477
1.05225e-05;0.0061644530470588675
1.05228e-05;0.0061415482859234136
1.05230e-05;0.006118643524787804
1.05233e-05;0.006095738763652195
1.05235e-05;0.006072834002516741
1.05238e-05;0.006049929241381132
1.05240e-05;0.006027024480245523
1.05243e-05;0.006004119719110069
1.05245e-05;0.005990366416362532
1.05248e-05;0.0059889267779266895
1.05250e-05;0.005987487139490856
1.05253e-05;0.005986047501055014
1.05255e-05;0.005984607862619171
1.05257e-05;0.005983168224183338
1.05260e-05;0.005981728585747496
1.05263e-05;0.005980288947311653
1.05265e-05;0.00597884930887582
1.05268e-05;0.005977409670439978
1.05270e-05;0.005989447748146979
1.05272e-05;0.006019620648221778
1.05275e-05;0.0060497935482967825
1.05278e-05;0.006079966448371787
1.05280e-05;0.006110139348446586
1.05283e-05;0.006140312248521591
1.05285e-05;0.006170485148596595
1.05288e-05;0.006200658048671599
1.05290e-05;0.006230830948746399
1.05293e-05;0.006261003848821403
1.05295e-05;0.0062911767488964074
1.05298e-05;0.006338340304082057
1.05300e-05;0.006386854892685008
1.05303e-05;0.00643536948128796
1.05305e-05;0.0064838840698905826
1.05308e-05;0.006532398658493534
1.05310e-05;0.0065809132470964855
1.05313e-05;0.006629427835699109
1.05315e-05;0.006677942424302061
1.05318e-05;0.006726457012905012
1.05320e-05;0.006774971601507635
1.05323e-05;0.006821345181304037
1.05325e-05;0.00686483794553858
1.05328e-05;0.006908330709772828
1.05330e-05;0.006951823474007371
1.05333e-05;0.006995316238241914
1.05335e-05;0.007038809002476162
1.05338e-05;0.0070823017667107045
1.05340e-05;0.007125794530945247
1.05342e-05;0.007156264562086882
1.05345e-05;0.007185699074145776
1.05348e-05;0.007215133586204669
1.05350e-05;0.007244568098263364
1.05353e-05;0.007274002610322258
1.05355e-05;0.0073034371223811515
1.05357e-05;0.007332871634439846
1.05360e-05;0.007357669729864134
1.05363e-05;0.007376229335678651
1.05365e-05;0.007394788941493042
1.05368e-05;0.007413348547307558
1.05370e-05;0.007431908153122075
1.05373e-05;0.007450467758936591
1.05375e-05;0.0074690273647509825
1.05378e-05;0.007487586970565499
1.05380e-05;0.007506146576380015
1.05383e-05;0.007524706182194406
1.05385e-05;0.007543265788008922
1.05388e-05;0.0075618253938234395
1.05390e-05;0.00758038499963783
1.05393e-05;0.007598944605452346
1.05395e-05;0.007617504211266863
1.05398e-05;0.007636063817081254
1.05400e-05;0.007654623422895771
1.05403e-05;0.007673183028710287
1.05405e-05;0.007691742634524677
1.05408e-05;0.007710302240339194
1.05410e-05;0.007725319656417435
1.05413e-05;0.007735570910260673
1.05415e-05;0.00774582216410398
1.05418e-05;0.0077560734179472875
1.05420e-05;0.007766324671790526
1.05423e-05;0.0077765759256338335
1.05425e-05;0.007786827179477141
1.05427e-05;0.0077970784333203785
1.05430e-05;0.007807329687163686
1.05433e-05;0.007817580941006994
1.05435e-05;0.007827832194850231
1.05438e-05;0.00783808344869354
1.05440e-05;0.007848334702536847
1.05442e-05;0.007858585956380084
1.05445e-05;0.007868837210223393
1.05448e-05;0.0078790884640667
1.05450e-05;0.007889339717909939
1.05453e-05;0.007899590971753245
1.05455e-05;0.007909842225596552
1.05458e-05;0.00792009347943986
1.05460e-05;0.00793088964996277
1.05463e-05;0.007942419028329963
1.05465e-05;0.007953948406697154
1.05468e-05;0.007965477785064269
1.05470e-05;0.007977007163431462
1.05473e-05;0.007988536541798655
1.05475e-05;0.008000065920165769
1.05478e-05;0.008011595298532962
1.05480e-05;0.008023124676900155
1.05483e-05;0.00803465405526727
1.05485e-05;0.008046183433634462
1.05488e-05;0.008057712812001655
1.05490e-05;0.00806924219036877
1.05493e-05;0.008080771568735963
1.05495e-05;0.008092300947103157
1.05498e-05;0.00810383032547027
1.05500e-05;0.008115359703837463
1.05503e-05;0.008128099402928702
1.05505e-05;0.008140935342202305
1.05508e-05;0.008153771281475996
1.05510e-05;0.008166607220749685
1.05512e-05;0.008179443160023288
1.05515e-05;0.008192279099296977
1.05518e-05;0.008205115038570668
1.05520e-05;0.00821795097784427
1.05523e-05;0.00823078691711796
1.05525e-05;0.00824362285639165
1.05527e-05;0.008256458795665252
1.05530e-05;0.008269294734938941
1.05533e-05;0.008282130674212632
1.05535e-05;0.008294966613486235
1.05538e-05;0.008307802552759924
1.05540e-05;0.008320638492033613
1.05543e-05;0.008326782137476067
1.05545e-05;0.008323921025829475
1.05548e-05;0.008321059914182865
1.05550e-05;0.008318198802536255
1.05553e-05;0.008315337690889664
1.05555e-05;0.008312476579243054
1.05558e-05;0.008309615467596444
1.05560e-05;0.008306754355949852
1.05563e-05;0.00830389324430324
1.05565e-05;0.00830103213265663
1.05568e-05;0.00829817102101004
1.05570e-05;0.008272011317590705
1.05573e-05;0.008243998997191384
1.05575e-05;0.008215986676792252
1.05578e-05;0.008187974356392933
1.05580e-05;0.008159962035993612
1.05583e-05;0.00813194971559448
1.05585e-05;0.00810393739519516
1.05588e-05;0.00807592507479584
1.05590e-05;0.008047912754396709
1.05593e-05;0.008019900433997388
1.05595e-05;0.0079852883562946
1.05597e-05;0.00794179603321315
1.05600e-05;0.007898303710131406
1.05603e-05;0.007854811387049661
1.05605e-05;0.0078113190639682115
1.05608e-05;0.007767826740886467
1.05610e-05;0.0077243344178047225
1.05612e-05;0.007680842094723273
1.05615e-05;0.007637349771641529
1.05618e-05;0.007593857448559785
1.05620e-05;0.007553641925766877
1.05623e-05;0.007513686961891432
1.05625e-05;0.007473731998015988
1.05628e-05;0.007433777034140544
1.05630e-05;0.00739382207026537
1.05633e-05;0.007353867106389926
1.05635e-05;0.007313912142514482
1.05638e-05;0.007273957178639308
1.05640e-05;0.007234002214763864
1.05643e-05;0.00719801302147674
1.05645e-05;0.007167359935917341
1.05648e-05;0.007136706850357734
1.05650e-05;0.007106053764798128
1.05653e-05;0.007075400679238729
1.05655e-05;0.007044747593679123
1.05658e-05;0.007014094508119516
1.05660e-05;0.006983441422560117
1.05663e-05;0.0069527883370005105
1.05665e-05;0.006922135251440904
1.05668e-05;0.006888770498392186
1.05670e-05;0.006851757085007629
1.05673e-05;0.006814743671623073
1.05675e-05;0.006777730258238766
1.05678e-05;0.00674071684485421
1.05680e-05;0.0067037034314696535
1.05682e-05;0.006666690018085347
1.05685e-05;0.0066296766047007905
1.05688e-05;0.006592663191316234
1.05690e-05;0.006555649777931927
1.05693e-05;0.006516109175136915
1.05695e-05;0.006473168134862143
1.05697e-05;0.0064302270945876625
1.05700e-05;0.006387286054312891
1.05703e-05;0.006344345014038119
1.05705e-05;0.006301403973763638
1.05708e-05;0.006258462933488866
1.05710e-05;0.006215521893214095
1.05713e-05;0.006172580852939323
1.05715e-05;0.006129639812664842
1.05718e-05;0.00608669877239007
1.05720e-05;0.006047453736904435
1.05723e-05;0.006013181828150015
1.05725e-05;0.005978909919395363
1.05728e-05;0.005944638010640711
1.05730e-05;0.005910366101886291
1.05733e-05;0.005876094193131638
1.05735e-05;0.005841822284376986
1.05738e-05;0.005807550375622567
1.05740e-05;0.005773278466867915
1.05743e-05;0.005739006558113262
1.05745e-05;0.005704734649358842
1.05748e-05;0.005683059617770223
1.05750e-05;0.0056783342034419405
1.05753e-05;0.0056736087891136894
1.05755e-05;0.005668883374785407
1.05758e-05;0.005664157960457125
1.05760e-05;0.005659432546128875
1.05763e-05;0.005654707131800592
1.05765e-05;0.005649981717472309
1.05767e-05;0.005645256303144059
1.05770e-05;0.0056405308888157766
1.05773e-05;0.005635805474487494
1.05775e-05;0.005631080060159244
1.05778e-05;0.005639480881809298
1.05780e-05;0.005665543594813976
1.05782e-05;0.005691606307818478
1.05785e-05;0.005717669020823156
1.05788e-05;0.005743731733827834
1.05790e-05;0.005769794446832336
1.05793e-05;0.005795857159837014
1.05795e-05;0.005821919872841692
1.05798e-05;0.0058479825858463695
1.05800e-05;0.005874045298850872
1.05803e-05;0.00590010801185555
1.05805e-05;0.005926170724860228
1.05808e-05;0.00595665589605287
1.05810e-05;0.00599309166695855
1.05813e-05;0.006029527437864231
1.05815e-05;0.006065963208769664
1.05818e-05;0.006102398979675344
1.05820e-05;0.006138834750581024
1.05823e-05;0.006175270521486457
1.05825e-05;0.006211706292392137
1.05828e-05;0.0062481420632978174
1.05830e-05;0.006280405673246101
1.05833e-05;0.006307055468718723
1.05835e-05;0.006333705264191345
1.05838e-05;0.006360355059663787
1.05840e-05;0.006387004855136409
1.05843e-05;0.006413654650609031
1.05845e-05;0.006440304446081471
1.05848e-05;0.006466954241554093
1.05850e-05;0.006493604037026715
1.05853e-05;0.006513240031670746
1.05855e-05;0.006523438668305679
1.05858e-05;0.006533637304940613
1.05860e-05;0.006543835941575477
1.05863e-05;0.00655403457821041
1.05865e-05;0.006564233214845344
1.05867e-05;0.006574431851480209
1.05870e-05;0.006584630488115142
1.05873e-05;0.006594829124750076
1.05875e-05;0.00660502776138494
1.05878e-05;0.006615226398019873
1.05880e-05;0.006625425034654807
1.05883e-05;0.00663562367128974
1.05885e-05;0.006645822307924605
1.05888e-05;0.0066560209445595386
1.05890e-05;0.006666219581194472
1.05893e-05;0.006676418217829336
1.05895e-05;0.0066866168544642696
1.05898e-05;0.006696815491099203
1.05900e-05;0.00669807275896098
1.05903e-05;0.006698619042578194
1.05905e-05;0.006699165326195407
1.05908e-05;0.006699711609812616
1.05910e-05;0.0067002578934298295
1.05913e-05;0.006700804177047042
1.05915e-05;0.006701350460664252
1.05918e-05;0.006701896744281465
1.05920e-05;0.006702443027898678
1.05923e-05;0.006702989311515888
1.05925e-05;0.006703535595133101
1.05928e-05;0.0067040818787503145
1.05930e-05;0.006704628162367524
1.05933e-05;0.0067051744459847365
1.05935e-05;0.00670572072960195
1.05938e-05;0.006706267013219159
1.05940e-05;0.006706813296836372
1.05943e-05;0.006707359580453586
1.05945e-05;0.006702943724692215
1.05948e-05;0.006691851105936543
1.05950e-05;0.0066807584871808705
1.05952e-05;0.0066696658684252735
1.05955e-05;0.006658573249669601
1.05958e-05;0.0066474806309139295
1.05960e-05;0.006636388012158332
1.05963e-05;0.00662529539340266
1.05965e-05;0.006614202774646988
1.05968e-05;0.006603110155891315
1.05970e-05;0.006592017537135718
1.05973e-05;0.006580924918380046
1.05975e-05;0.0065514405641308605
1.05978e-05;0.00652049376777603
1.05980e-05;0.00648954697142099
1.05983e-05;0.00645860017506595
1.05985e-05;0.006427653378711119
1.05988e-05;0.006396706582356079
1.05990e-05;0.006365759786001039
1.05993e-05;0.006334812989646208
1.05995e-05;0.006303866193291169
1.05998e-05;0.006272919396936128
1.06000e-05;0.0062419726005812975
1.06003e-05;0.006207369108811441
1.06005e-05;0.006167845382689194
1.06008e-05;0.006128321656567215
1.06010e-05;0.0060887979304449676
1.06013e-05;0.0060492742043227205
1.06015e-05;0.0060097504782007415
1.06018e-05;0.005970226752078495
1.06020e-05;0.005930703025956248
1.06023e-05;0.005891179299834269
1.06025e-05;0.005855121495776498
1.06028e-05;0.005823727232667926
1.06030e-05;0.005792332969559567
1.06033e-05;0.005760938706450996
1.06035e-05;0.005729544443342425
1.06037e-05;0.005698150180234066
1.06040e-05;0.005666755917125494
1.06043e-05;0.005635361654016923
1.06045e-05;0.005603967390908565
1.06048e-05;0.0055862184767098986
1.06050e-05;0.005586829941720278
1.06053e-05;0.005587441406730656
1.06055e-05;0.005588052871741031
1.06058e-05;0.005588664336751411
1.06060e-05;0.005589275801761789
1.06063e-05;0.005589887266772164
1.06065e-05;0.005590498731782544
1.06068e-05;0.005591110196792922
1.06070e-05;0.005608981962948065
1.06073e-05;0.005650078175497469
1.06075e-05;0.005691174388046873
1.06078e-05;0.0057322706005959985
1.06080e-05;0.005773366813145402
1.06083e-05;0.005814463025694806
1.06085e-05;0.005855559238243931
1.06088e-05;0.005896655450793336
1.06090e-05;0.005937751663342739
1.06093e-05;0.005990465472691673
1.06095e-05;0.006058811237234
1.06098e-05;0.006127157001776327
1.06100e-05;0.006195502766318191
1.06103e-05;0.006263848530860518
1.06105e-05;0.006332194295402846
1.06108e-05;0.0064005400599447095
1.06110e-05;0.0064688858244870365
1.06113e-05;0.006537231589029364
1.06115e-05;0.0066073962763179795
1.06118e-05;0.006677705597549681
1.06120e-05;0.006748014918781383
1.06122e-05;0.0068183242400126085
1.06125e-05;0.00688863356124431
1.06128e-05;0.006958942882476012
1.06130e-05;0.007029252203707237
1.06133e-05;0.0070995615249389386
1.06135e-05;0.007156866645238508
1.06138e-05;0.0071966740773479615
1.06140e-05;0.007236481509457144
1.06143e-05;0.007276288941566597
1.06145e-05;0.0073160963736760495
1.06148e-05;0.007355903805785232
1.06150e-05;0.007395711237894685
1.06153e-05;0.007435518670004138
1.06155e-05;0.007475326102113321
1.06158e-05;0.007515133534222774
1.06160e-05;0.0075549409663322265
1.06163e-05;0.0075543933792883355
1.06165e-05;0.007550636911857966
1.06168e-05;0.007546880444427597
1.06170e-05;0.007543123976997253
1.06173e-05;0.007539367509566883
1.06175e-05;0.007535611042136514
1.06178e-05;0.007531854574706171
1.06180e-05;0.007528098107275801
1.06183e-05;0.007524341639845431
1.06185e-05;0.007520585172415088
1.06188e-05;0.007503760728240239
1.06190e-05;0.007469352782890426
1.06193e-05;0.007434944837540847
1.06195e-05;0.007400536892191035
1.06198e-05;0.007366128946841222
1.06200e-05;0.007331721001491642
1.06203e-05;0.00729731305614183
1.06205e-05;0.007262905110792017
1.06207e-05;0.007228497165442438
1.06210e-05;0.007194089220092625
1.06213e-05;0.0071568480470779825
1.06215e-05;0.007115794649497279
1.06218e-05;0.0070747412519162976
1.06220e-05;0.007033687854335316
1.06222e-05;0.0069926344567546135
1.06225e-05;0.006951581059173632
1.06228e-05;0.006910527661592651
1.06230e-05;0.00686947426401167
1.06233e-05;0.006828420866430967
1.06235e-05;0.006787367468849986
1.06238e-05;0.006755925266541575
1.06240e-05;0.0067374153235034585
1.06243e-05;0.0067189053804652165
1.06245e-05;0.0067003954374269745
1.06248e-05;0.006681885494388858
1.06250e-05;0.006663375551350616
1.06253e-05;0.006644865608312374
1.06255e-05;0.006626355665274258
1.06258e-05;0.006607845722236016
1.06260e-05;0.006589335779197774
1.06263e-05;0.006570825836159658
1.06265e-05;0.006552315893121416
1.06268e-05;0.006533805950083174
1.06270e-05;0.0065152960070450575
1.06273e-05;0.0064967860640068155
1.06275e-05;0.006489205935456262
1.06278e-05;0.0064963323226649205
1.06280e-05;0.006503458709873627
1.06283e-05;0.006510585097082334
1.06285e-05;0.0065177114842909925
1.06288e-05;0.006524837871499699
1.06290e-05;0.006531964258708406
1.06292e-05;0.006539090645917064
1.06295e-05;0.00654621703312577
1.06298e-05;0.006553343420334477
1.06300e-05;0.006560469807543135
1.06303e-05;0.006567596194751842
1.06305e-05;0.006574722581960548
1.06307e-05;0.006581848969169207
1.06310e-05;0.006588975356377914
1.06313e-05;0.006598989119521467
1.06315e-05;0.006612887965960815
1.06318e-05;0.00662678681240007
1.06320e-05;0.006640685658839418
1.06323e-05;0.006654584505278767
1.06325e-05;0.00666848335171802
1.06328e-05;0.00668238219815737
1.06330e-05;0.006696281044596718
1.06333e-05;0.006710179891035972
1.06335e-05;0.00672407873747532
1.06338e-05;0.006737977583914669
1.06340e-05;0.006745746388439796
1.06343e-05;0.00674526696897809
1.06345e-05;0.006744787549516384
1.06348e-05;0.0067443081300546815
1.06350e-05;0.006743828710592975
1.06353e-05;0.006743349291131269
1.06355e-05;0.006742869871669566
1.06358e-05;0.00674239045220786
1.06360e-05;0.0067419110327461545
1.06363e-05;0.006741431613284451
1.06365e-05;0.006740952193822745
1.06368e-05;0.006728500992803381
1.06370e-05;0.006699941266394638
1.06373e-05;0.006671381539985702
1.06375e-05;0.006642821813576764
1.06377e-05;0.006614262087168021
1.06380e-05;0.006585702360759085
1.06383e-05;0.006557142634350148
1.06385e-05;0.006528582907941405
1.06388e-05;0.006500023181532468
1.06390e-05;0.006471463455123531
1.06392e-05;0.006442903728714788
1.06395e-05;0.00640714777982879
1.06398e-05;0.006361709017074588
1.06400e-05;0.0063162702543203865
1.06403e-05;0.0062708314915664925
1.06405e-05;0.006225392728812291
1.06408e-05;0.006179953966058089
1.06410e-05;0.006134515203304195
1.06413e-05;0.006089076440549993
1.06415e-05;0.006043637677795791
1.06418e-05;0.005998198915041897
1.06420e-05;0.005952760152287695
1.06423e-05;0.005910066532383513
1.06425e-05;0.005871066615300112
1.06428e-05;0.005832066698216448
1.06430e-05;0.005793066781132783
1.06433e-05;0.005754066864049382
1.06435e-05;0.005715066946965717
1.06438e-05;0.0056760670298820525
1.06440e-05;0.0056370671127986514
1.06443e-05;0.005598067195714987
1.06445e-05;0.005559067278631321
1.06448e-05;0.005537544068671288
1.06450e-05;0.005517410541185341
1.06453e-05;0.005497277013699392
1.06455e-05;0.005477143486213581
1.06458e-05;0.005457009958727633
1.06460e-05;0.005436876431241686
1.06462e-05;0.005416742903755874
1.06465e-05;0.005396609376269926
1.06468e-05;0.005376475848783978
1.06470e-05;0.0053637736780280856
1.06473e-05;0.005361070703969119
1.06475e-05;0.0053583677299101524
1.06477e-05;0.005355664755851204
1.06480e-05;0.005352961781792238
1.06483e-05;0.005350258807733272
1.06485e-05;0.005347555833674305
1.06488e-05;0.005344852859615358
1.06490e-05;0.005342149885556391
1.06493e-05;0.005339446911497425
1.06495e-05;0.005336743937438476
1.06498e-05;0.005334040963379511
1.06500e-05;0.005331337989320544
1.06503e-05;0.005328635015261596
1.06505e-05;0.005334180207988313
1.06508e-05;0.005340381264130967
1.06510e-05;0.005346582320273579
