Time(s);Current(A)
1.38000e-05;0.005890639911303838
1.38003e-05;0.005889821027051953
1.38005e-05;0.005889002142800062
1.38008e-05;0.00588818325854817
1.38010e-05;0.005887364374296284
1.38013e-05;0.005886545490044393
1.38015e-05;0.005885726605792502
1.38018e-05;0.005884907721540616
1.38020e-05;0.005884088837288725
1.38023e-05;0.0058832699530368335
1.38025e-05;0.005882451068784948
1.38028e-05;0.005881632184533057
1.38030e-05;0.005880813300281166
1.38033e-05;0.00587999441602928
1.38035e-05;0.005879175531777388
1.38038e-05;0.005878356647525497
1.38040e-05;0.005877537763273611
1.38043e-05;0.00587671887902172
1.38045e-05;0.005875073553633087
1.38048e-05;0.0058718032144123465
1.38050e-05;0.005867797357680544
1.38053e-05;0.005862345268330212
1.38055e-05;0.005856893178979917
1.38058e-05;0.005851441089629585
1.38060e-05;0.005845989000279253
1.38063e-05;0.0058405369109289585
1.38065e-05;0.005835084821578626
1.38068e-05;0.005829632732228294
1.38070e-05;0.005824180642877999
1.38073e-05;0.005818728553527668
1.38075e-05;0.0058132764641773355
1.38078e-05;0.0058017818654229674
1.38080e-05;0.005778406007462873
1.38083e-05;0.005755030149502779
1.38085e-05;0.005731654291542843
1.38088e-05;0.005708278433582749
1.38090e-05;0.005684902575622655
1.38093e-05;0.0056615267176625605
1.38095e-05;0.005638150859702625
1.38098e-05;0.005614775001742531
1.38100e-05;0.005591399143782437
1.38103e-05;0.005568023285822501
1.38105e-05;0.005538658121349174
1.38108e-05;0.005497516309394826
1.38110e-05;0.005456374497440757
1.38113e-05;0.00541523268548641
1.38115e-05;0.0053740908735320616
1.38118e-05;0.005332949061577993
1.38120e-05;0.005291807249623645
1.38123e-05;0.005250665437669297
1.38125e-05;0.0052095236257152285
1.38128e-05;0.00516838181376088
1.38130e-05;0.005124991175909627
1.38133e-05;0.005081162988497586
1.38135e-05;0.005037334801085249
1.38138e-05;0.004993506613672912
1.38140e-05;0.004949678426260871
1.38143e-05;0.0049058502388485345
1.38145e-05;0.004862022051436197
1.38148e-05;0.004818193864024157
1.38150e-05;0.0047743656766118196
1.38153e-05;0.004737117037774972
1.38155e-05;0.004712805626979749
1.38158e-05;0.00468849421618436
1.38160e-05;0.004664182805388972
1.38163e-05;0.004639871394593748
1.38165e-05;0.004615559983798359
1.38168e-05;0.004591248573002971
1.38170e-05;0.0045669371622077464
1.38173e-05;0.004542625751412358
1.38175e-05;0.004518314340616969
1.38178e-05;0.00449400292982158
1.38180e-05;0.004469691519026357
1.38183e-05;0.004445380108230968
1.38185e-05;0.00442106869743558
1.38188e-05;0.004404841038279835
1.38190e-05;0.004404508290028532
1.38193e-05;0.00440417554177723
1.38195e-05;0.00440384279352593
1.38198e-05;0.004403510045274628
1.38200e-05;0.0044031772970233255
1.38203e-05;0.004402844548772026
1.38205e-05;0.004402511800520723
1.38208e-05;0.0044021790522694206
1.38210e-05;0.004401846304018121
1.38213e-05;0.004401513555766819
1.38215e-05;0.0044011808075155165
1.38218e-05;0.0044008480592642165
1.38220e-05;0.004400515311012914
1.38223e-05;0.004403567826641801
1.38225e-05;0.004413276715470495
1.38228e-05;0.004422985604299255
1.38230e-05;0.004432694493128014
1.38233e-05;0.004442403381956709
1.38235e-05;0.004452112270785468
1.38238e-05;0.004461821159614228
1.38240e-05;0.004471530048442921
1.38243e-05;0.0044812389372716815
1.38245e-05;0.004490947826100441
1.38248e-05;0.004500656714929135
1.38250e-05;0.004510365603757894
1.38253e-05;0.004520074492586654
1.38255e-05;0.004525375003147631
1.38258e-05;0.004529817784357579
1.38260e-05;0.004534260565567528
1.38263e-05;0.0045387033467774755
1.38265e-05;0.004543146127987394
1.38268e-05;0.0045475889091973415
1.38270e-05;0.004552031690407289
1.38273e-05;0.0045564744716172076
1.38275e-05;0.004560917252827155
1.38278e-05;0.004565360034037104
1.38280e-05;0.004569802815247021
1.38283e-05;0.00457424559645697
1.38285e-05;0.004574634306481035
1.38288e-05;0.00456705158155885
1.38290e-05;0.004559468856636613
1.38293e-05;0.004551886131714376
1.38295e-05;0.004544303406792191
1.38298e-05;0.004536720681869954
1.38300e-05;0.004529137956947716
1.38303e-05;0.004521555232025531
1.38305e-05;0.004513972507103294
1.38308e-05;0.004506389782181057
1.38310e-05;0.004498807057258872
1.38313e-05;0.004491224332336634
1.38315e-05;0.0044836416074143974
1.38318e-05;0.004476058882492212
1.38320e-05;0.00446349858725612
1.38323e-05;0.00444996981610954
1.38325e-05;0.004436441044963052
1.38328e-05;0.004422912273816472
1.38330e-05;0.004409383502669892
1.38333e-05;0.004395854731523404
1.38335e-05;0.0043823259603768235
1.38338e-05;0.004368797189230243
1.38340e-05;0.004355268418083755
1.38343e-05;0.004341739646937175
1.38345e-05;0.004328210875790595
1.38348e-05;0.004314682104644015
1.38350e-05;0.004301153333497527
1.38353e-05;0.004288067989723287
1.38355e-05;0.004275854547869566
1.38358e-05;0.004263641106015926
1.38360e-05;0.004251427664162205
1.38363e-05;0.004239214222308483
1.38365e-05;0.004227000780454844
1.38368e-05;0.004214787338601121
1.38370e-05;0.0042025738967474
1.38373e-05;0.00419036045489376
1.38375e-05;0.004178147013040039
1.38378e-05;0.004165933571186316
1.38380e-05;0.004153720129332677
1.38383e-05;0.004137959879724494
1.38385e-05;0.004115225616588752
1.38388e-05;0.004092491353453165
1.38390e-05;0.004069757090317424
1.38393e-05;0.004047022827181683
1.38395e-05;0.004024288564046095
1.38398e-05;0.004001554300910355
1.38400e-05;0.003978820037774613
1.38403e-05;0.003956085774639026
1.38405e-05;0.003933351511503285
1.38408e-05;0.003910617248367544
1.38410e-05;0.003887882985231957
1.38413e-05;0.0038621589817896228
1.38415e-05;0.0038305563148312407
1.38418e-05;0.0037989536478730723
1.38420e-05;0.0037673509809146902
1.38423e-05;0.003735748313956308
1.38425e-05;0.00370414564699814
1.38428e-05;0.0036725429800397577
1.38430e-05;0.0036409403130813756
1.38433e-05;0.003609337646122993
1.38435e-05;0.003577734979164825
1.38438e-05;0.0035485229284117474
1.38440e-05;0.0035197760150774905
1.38443e-05;0.0034910291017434284
1.38445e-05;0.003462282188409172
1.38448e-05;0.0034335352750749152
1.38450e-05;0.003404788361740853
1.38453e-05;0.0033760414484065963
1.38455e-05;0.00334729453507234
1.38458e-05;0.003318547621738278
1.38460e-05;0.0032967568633852718
1.38463e-05;0.0032886438463456216
1.38465e-05;0.0032805308293060264
1.38468e-05;0.0032724178122663762
1.38470e-05;0.0032643047952267265
1.38473e-05;0.0032561917781871313
1.38475e-05;0.003248078761147481
1.38478e-05;0.003239965744107831
1.38480e-05;0.003231852727068236
1.38483e-05;0.003223739710028586
1.38485e-05;0.003215626692988936
1.38488e-05;0.003235040525755185
1.38490e-05;0.0032598102026931606
1.38493e-05;0.003284579879631136
1.38495e-05;0.0033093495565689433
1.38498e-05;0.0033341192335069186
1.38500e-05;0.003358888910444894
1.38503e-05;0.003383658587382702
1.38505e-05;0.003408428264320677
1.38508e-05;0.0034331979412586524
1.38510e-05;0.00345796761819646
1.38513e-05;0.0034897175286968977
1.38515e-05;0.0035351925257200182
1.38518e-05;0.0035806675227431388
1.38520e-05;0.0036261425197659514
1.38523e-05;0.003671617516789072
1.38525e-05;0.0037170925138121924
1.38528e-05;0.0037625675108350046
1.38530e-05;0.003808042507858125
1.38533e-05;0.0038542576695041347
1.38535e-05;0.003901928201288927
1.38538e-05;0.003949598733074043
1.38540e-05;0.003997269264859158
1.38543e-05;0.004044939796643951
1.38545e-05;0.004092610328429067
1.38548e-05;0.0041402808602141825
1.38550e-05;0.004187951391998975
1.38553e-05;0.004230060117367874
1.38555e-05;0.004261232779693401
1.38558e-05;0.004292405442018718
1.38560e-05;0.004323578104344245
1.38563e-05;0.004354750766669772
1.38565e-05;0.0043859234289950885
1.38568e-05;0.004417096091320616
1.38570e-05;0.004448268753646143
1.38573e-05;0.004479441415971459
1.38575e-05;0.0045106140782969865
1.38578e-05;0.004541786740622514
1.38580e-05;0.00457295940294783
1.38583e-05;0.004593099265822203
1.38585e-05;0.004611092498948345
1.38588e-05;0.004629085732074366
1.38590e-05;0.004647078965200509
1.38593e-05;0.004665072198326651
1.38595e-05;0.004683065431452672
1.38598e-05;0.004701058664578815
1.38600e-05;0.004719051897704957
1.38603e-05;0.004737045130831101
1.38605e-05;0.004755038363957121
1.38608e-05;0.0047730315970832635
1.38610e-05;0.004788042644877508
1.38613e-05;0.0047971898843398334
1.38615e-05;0.00480633712380222
1.38618e-05;0.004815484363264607
1.38620e-05;0.004824631602726932
1.38623e-05;0.004833778842189319
1.38625e-05;0.004842926081651706
1.38628e-05;0.004852073321114031
1.38630e-05;0.004861220560576418
1.38633e-05;0.004870367800038805
1.38635e-05;0.00487951503950113
1.38638e-05;0.0048886622789635166
1.38640e-05;0.004897809518425904
1.38643e-05;0.004906956757888229
1.38645e-05;0.004916103997350616
1.38648e-05;0.004925251236813003
1.38650e-05;0.004934398476275328
1.38653e-05;0.0049435457157377145
1.38655e-05;0.004952692955200102
1.38658e-05;0.004961840194662427
1.38660e-05;0.004970987434124814
1.38663e-05;0.0049801346735872006
1.38665e-05;0.004989281913049526
1.38668e-05;0.004998429152511912
1.38670e-05;0.0050075763919743
1.38673e-05;0.005016723631436625
1.38675e-05;0.005025870870899012
1.38678e-05;0.0050282101199985735
1.38680e-05;0.005029224752013301
1.38683e-05;0.005030239384028035
1.38685e-05;0.0050312540160427684
1.38688e-05;0.005032268648057502
1.38690e-05;0.005033283280072229
1.38693e-05;0.0050342979120869625
1.38695e-05;0.005035312544101696
1.38698e-05;0.005036327176116423
1.38700e-05;0.0050373418081311565
1.38703e-05;0.00503835644014589
1.38705e-05;0.005039371072160617
1.38708e-05;0.0050403857041753505
1.38710e-05;0.005041400336190084
1.38713e-05;0.005042414968204812
1.38715e-05;0.005043429600219545
1.38718e-05;0.005044444232234279
1.38720e-05;0.005045458864249006
1.38723e-05;0.005046473496263739
1.38725e-05;0.005047488128278473
1.38728e-05;0.0050485027602932
1.38730e-05;0.005049517392307933
1.38733e-05;0.005050532024322667
1.38735e-05;0.005051546656337394
1.38738e-05;0.0050525612883521274
1.38740e-05;0.005053575920366861
1.38743e-05;0.005054103577314391
1.38745e-05;0.005053673705423164
1.38748e-05;0.005053243833531939
1.38750e-05;0.005052813961640716
1.38753e-05;0.005052384089749489
1.38755e-05;0.005051954217858263
1.38758e-05;0.00505152434596704
1.38760e-05;0.005048181550237243
1.38763e-05;0.0050391111335908985
1.38765e-05;0.005030040716944615
1.38768e-05;0.005020970300298271
1.38770e-05;0.005011899883651927
1.38773e-05;0.005002829467005582
1.38775e-05;0.0049937590503593
1.38778e-05;0.00497439103661973
1.38780e-05;0.004934775074161445
1.38783e-05;0.004895159111703429
1.38785e-05;0.004855543149245145
1.38788e-05;0.0048159271867868605
1.38790e-05;0.004776311224328845
1.38793e-05;0.004736695261870561
1.38795e-05;0.004697079299412277
1.38798e-05;0.004657463336954261
1.38800e-05;0.004617847374495976
1.38803e-05;0.004550056645663355
1.38805e-05;0.004476784008817359
1.38808e-05;0.004403511371970867
1.38810e-05;0.004330238735124375
1.38813e-05;0.004256966098278379
1.38815e-05;0.004183693461431887
1.38818e-05;0.004110420824585395
1.38820e-05;0.0040371481877393995
1.38823e-05;0.003963875550892907
1.38825e-05;0.0038865054881299837
1.38828e-05;0.0038010787429106903
1.38830e-05;0.0037156519976908175
1.38833e-05;0.003630225252470945
1.38835e-05;0.0035447985072516513
1.38838e-05;0.003459371762031779
1.38840e-05;0.003373945016811906
1.38843e-05;0.003295854601888161
1.38845e-05;0.0032191916020954197
1.38848e-05;0.003142528602302679
1.38850e-05;0.0030658656025104574
1.38853e-05;0.0029892026027177167
1.38855e-05;0.0029125396029249756
1.38858e-05;0.0028418651418899497
1.38860e-05;0.0027829658187448003
1.38863e-05;0.002724066495599252
1.38865e-05;0.0026691918752302724
1.38868e-05;0.002622230943338394
1.38870e-05;0.002575270011446198
1.38873e-05;0.002531650400488662
1.38875e-05;0.002494600758656204
1.38878e-05;0.0024575511168234945
1.38880e-05;0.002424405979590337
1.38883e-05;0.0023989381876855036
1.38885e-05;0.0023734703957804977
1.38888e-05;0.0023509947901839997
1.38890e-05;0.002334402657635621
1.38893e-05;0.00231781052508713
1.38895e-05;0.0023040299152834853
1.38898e-05;0.0022957775435600695
1.38900e-05;0.002287525171836598
1.38903e-05;0.002283532600999544
1.38905e-05;0.002287915987112271
1.38908e-05;0.002292299373225028
1.38910e-05;0.002296682759337785
1.38913e-05;0.0023010661454505124
1.38915e-05;0.0023054495315632693
1.38918e-05;0.0023098329176760263
1.38920e-05;0.0023142163037887537
1.38923e-05;0.002322076622976822
1.38925e-05;0.0023367735625923675
1.38928e-05;0.002351470502207813
1.38930e-05;0.0023661674418233585
1.38933e-05;0.002380864381438904
1.38935e-05;0.0023955613210543494
1.38938e-05;0.0024102582606698943
1.38940e-05;0.0024249552002854396
1.38943e-05;0.002439612449951913
1.38945e-05;0.0024541916581056313
1.38948e-05;0.0024687708662594486
1.38950e-05;0.002483350074413266
1.38953e-05;0.002497929282566985
1.38955e-05;0.002512508490720802
1.38958e-05;0.0025270876988746195
1.38960e-05;0.002541666907028338
1.38963e-05;0.0025562461151821553
1.38965e-05;0.002570286463623728
1.38968e-05;0.0025832672635387023
1.38970e-05;0.0025962480634537646
1.38973e-05;0.0026092288633688264
1.38975e-05;0.0026222096632838006
1.38978e-05;0.0026351904631988624
1.38980e-05;0.0026481712631139247
1.38983e-05;0.002661152063028899
1.38985e-05;0.0026741328629439607
1.38988e-05;0.0026891954452209735
1.38990e-05;0.0027083513924019294
1.38993e-05;0.002727507339583015
1.38995e-05;0.0027466632867641006
1.38998e-05;0.0027658192339450566
1.39000e-05;0.0027849751811261426
1.39003e-05;0.002804131128307228
1.39005e-05;0.002823287075488184
1.39008e-05;0.00284244302266927
1.39010e-05;0.0028615989698503558
1.39013e-05;0.0028807549170313117
1.39015e-05;0.0028999108642123973
1.39018e-05;0.00292019960202574
1.39020e-05;0.0029427157222507785
1.39023e-05;0.0029652318424759697
1.39025e-05;0.0029877479627011608
1.39028e-05;0.003010264082926352
1.39030e-05;0.0030327802031513904
1.39033e-05;0.0030552963233765815
1.39035e-05;0.0030778124436017726
1.39038e-05;0.003100328563826811
1.39040e-05;0.003122844684052002
1.39043e-05;0.0031453608042771933
1.39045e-05;0.0031678769245022317
1.39048e-05;0.0031887877815926727
1.39050e-05;0.0032065422435193914
1.39053e-05;0.0032242967054459896
1.39055e-05;0.0032420511673727083
1.39058e-05;0.0032598056292994265
1.39060e-05;0.003277560091226025
1.39063e-05;0.0032959180034683472
1.39065e-05;0.0033154624673834765
1.39068e-05;0.003335006931298474
1.39070e-05;0.003354551395213603
1.39073e-05;0.0033740958591287327
1.39075e-05;0.0033936403230437296
1.39078e-05;0.0034194342078037896
1.39080e-05;0.003457516197427396
1.39083e-05;0.0034955981870507438
1.39085e-05;0.00353368017667435
1.39088e-05;0.0035717621662979563
1.39090e-05;0.0036098441559213046
1.39093e-05;0.003647926145544911
1.39095e-05;0.0036860081351685167
1.39098e-05;0.003724090124791865
1.39100e-05;0.0037621721144154713
1.39103e-05;0.0038079198696603952
1.39105e-05;0.003868740658736371
1.39108e-05;0.003929561447812759
1.39110e-05;0.003990382236889147
1.39113e-05;0.004051203025965535
1.39115e-05;0.00411202381504151
1.39118e-05;0.004172844604117898
1.39120e-05;0.004233665393194286
1.39123e-05;0.0042944861822702615
1.39125e-05;0.00435530697134665
1.39128e-05;0.004418049897767104
1.39130e-05;0.004484572282449944
1.39133e-05;0.004551094667133235
1.39135e-05;0.004617617051816526
1.39138e-05;0.0046841394364993665
1.39140e-05;0.004750661821182658
1.39143e-05;0.004817184205865949
1.39145e-05;0.004883706590548789
1.39148e-05;0.004938494692943483
1.39150e-05;0.0049909996794680654
1.39153e-05;0.0050435046659922916
1.39155e-05;0.005096009652516873
1.39158e-05;0.005148514639041455
1.39160e-05;0.005201019625565681
1.39163e-05;0.005253524612090263
1.39165e-05;0.005292102861636046
1.39168e-05;0.005303297260948909
1.39170e-05;0.005314491660261848
1.39173e-05;0.0053256860595747866
1.39175e-05;0.00533688045888765
1.39178e-05;0.005348074858200589
1.39180e-05;0.005359269257513528
1.39183e-05;0.005370463656826391
1.39185e-05;0.005381658056139329
1.39188e-05;0.005392852455452268
1.39190e-05;0.005359432578180342
1.39193e-05;0.005317332190211767
1.39195e-05;0.005275231802243191
1.39198e-05;0.005233131414274617
1.39200e-05;0.0051910310263063265
1.39203e-05;0.005148930638337751
1.39205e-05;0.0051068302503691765
1.39208e-05;0.005064729862400886
1.39210e-05;0.005022629474432311
1.39213e-05;0.00496946461060467
1.39215e-05;0.004894543900428949
1.39218e-05;0.004819623190252719
1.39220e-05;0.00474470248007649
1.39223e-05;0.004669781769900768
1.39225e-05;0.004594861059724538
1.39228e-05;0.004519940349548309
1.39230e-05;0.004442573555268434
1.39233e-05;0.004360397077220978
1.39235e-05;0.004278220599173522
1.39238e-05;0.004196044121126623
1.39240e-05;0.0041138676430791665
1.39243e-05;0.00403169116503171
1.39245e-05;0.003949514686984811
1.39248e-05;0.003873807042736556
1.39250e-05;0.0038108189304393776
1.39253e-05;0.003747830818142626
1.39255e-05;0.0036848427058454474
1.39258e-05;0.003621854593548269
1.39260e-05;0.0035588664812515173
1.39263e-05;0.003495878368954339
1.39265e-05;0.0034328902566571604
1.39268e-05;0.0033699021443604088
1.39270e-05;0.003341369698656722
1.39273e-05;0.003319541223193665
1.39275e-05;0.0032977127477307557
1.39278e-05;0.0032758842722676986
1.39280e-05;0.0032540557968046414
1.39283e-05;0.0032322273213415843
1.39285e-05;0.003210398845878675
1.39288e-05;0.0031885703704156183
1.39290e-05;0.0031764552829457804
1.39293e-05;0.0031834394261532196
1.39295e-05;0.0031904235693607057
1.39298e-05;0.0032019466458517707
1.39300e-05;0.003222394531469292
1.39303e-05;0.003242842417086952
1.39305e-05;0.0032694872068337027
1.39308e-05;0.003308316838936883
1.39310e-05;0.003347146471040326
1.39313e-05;0.0033859761031437693
1.39315e-05;0.003424805735246949
1.39318e-05;0.0034636353673503924
1.39320e-05;0.0035024649994538355
1.39323e-05;0.0035412946315570154
1.39325e-05;0.003591499759635129
1.39328e-05;0.003643918195248443
1.39330e-05;0.0036963366308614023
1.39333e-05;0.0037487550664747167
1.39335e-05;0.003801173502088031
1.39338e-05;0.0038535919377009897
1.39340e-05;0.0039060103733143045
1.39343e-05;0.0039560179799157736
1.39345e-05;0.004001285224095511
1.39348e-05;0.004046552468275554
1.39350e-05;0.004091819712455598
1.39353e-05;0.004137086956635334
1.39355e-05;0.004182354200815378
1.39358e-05;0.004227621444995422
1.39360e-05;0.004272888689175159
1.39363e-05;0.004318155933355202
1.39365e-05;0.004356336613284491
1.39368e-05;0.004380583130853317
1.39370e-05;0.004404829648421979
1.39373e-05;0.004429076165990806
1.39375e-05;0.0044533226835596325
1.39378e-05;0.004477569201128295
1.39380e-05;0.004501815718697122
1.39383e-05;0.004526062236265949
1.39385e-05;0.0045503087538346105
1.39388e-05;0.004568250961282819
1.39390e-05;0.004573797136226272
1.39393e-05;0.004579343311169688
1.39395e-05;0.004584889486113141
1.39398e-05;0.0045904356610565935
1.39400e-05;0.0045959818360000095
1.39403e-05;0.004601528010943463
1.39405e-05;0.004607074185886915
1.39408e-05;0.004612620360830331
1.39410e-05;0.004618166535773785
1.39413e-05;0.004623712710717237
1.39415e-05;0.004629258885660653
1.39418e-05;0.0046348050606041065
1.39420e-05;0.00463104957955384
1.39423e-05;0.0046254842938711965
1.39425e-05;0.004619919008188515
1.39428e-05;0.004614353722505834
1.39430e-05;0.00460878843682319
1.39433e-05;0.004603223151140509
1.39435e-05;0.004597657865457828
1.39438e-05;0.004592092579775184
1.39440e-05;0.004586527294092503
1.39443e-05;0.004580962008409822
1.39445e-05;0.004575396722727178
1.39448e-05;0.004569831437044497
1.39450e-05;0.004563778690979006
1.39453e-05;0.004556767461806657
1.39455e-05;0.004549756232634356
1.39458e-05;0.004542745003462007
1.39460e-05;0.004535733774289658
1.39463e-05;0.004528722545117356
1.39465e-05;0.0045217113159450074
1.39468e-05;0.0045147000867726585
1.39470e-05;0.00450323856851153
1.39473e-05;0.004483026540335938
1.39475e-05;0.004462814512160345
1.39478e-05;0.00444260248398489
1.39480e-05;0.004422390455809297
1.39483e-05;0.004402178427633705
1.39485e-05;0.00438196639945825
1.39488e-05;0.004361754371282657
1.39490e-05;0.004333776871089542
1.39493e-05;0.004290530286455849
1.39495e-05;0.004247283701821863
1.39498e-05;0.0042040371171878765
1.39500e-05;0.004160790532554184
