Time(s);Current(A)
9.80000e-06;0.007763052928083546
9.80025e-06;0.007732856264111172
9.80050e-06;0.007702659600138593
9.80075e-06;0.007672462936166015
9.80100e-06;0.007642266272193641
9.80125e-06;0.007612069608221062
9.80150e-06;0.007581872944248484
9.80175e-06;0.007551698325379066
9.80200e-06;0.007525945785681619
9.80225e-06;0.007500193245984173
9.80250e-06;0.007474440706286726
9.80275e-06;0.007448688166589454
9.80300e-06;0.007422935626892008
9.80325e-06;0.007397183087194562
9.80350e-06;0.00737143054749729
9.80375e-06;0.007345678007799844
9.80400e-06;0.007319925468102398
9.80425e-06;0.007297379507664743
9.80450e-06;0.007277977126494064
9.80475e-06;0.007258574745323386
9.80500e-06;0.0072391723641528375
9.80525e-06;0.007219769982982158
9.80550e-06;0.00720036760181148
9.80575e-06;0.007180965220640932
9.80600e-06;0.0071615628394702535
9.80625e-06;0.007142160458299574
9.80650e-06;0.007122758077129027
9.80675e-06;0.007103355695958348
9.80700e-06;0.007083953314787669
9.80725e-06;0.007064550933617121
9.80750e-06;0.007045141275015325
9.80775e-06;0.007024271819335627
9.80800e-06;0.0070034023636560685
9.80825e-06;0.006982532907976369
9.80850e-06;0.0069616634522966705
9.80875e-06;0.006940793996617112
9.80900e-06;0.006919924540937413
9.80925e-06;0.0068990550852577135
9.80950e-06;0.006878185629578156
9.80975e-06;0.006857316173898457
9.81000e-06;0.006836446718218757
9.81025e-06;0.0068155772625392
9.81050e-06;0.006794707806859501
9.81075e-06;0.006773838351179801
9.81100e-06;0.006753375370791973
9.81125e-06;0.0067333108796343785
9.81150e-06;0.006713246388476648
9.81175e-06;0.006693181897318918
9.81200e-06;0.0066731174061613234
9.81225e-06;0.006653052915003593
9.81250e-06;0.006634889456885147
9.81275e-06;0.00661858968201498
9.81300e-06;0.006602289907144704
9.81325e-06;0.006585990132274427
9.81350e-06;0.006569690357404262
9.81375e-06;0.0065533905825339855
9.81400e-06;0.006546507273620554
9.81425e-06;0.006548855424391941
9.81450e-06;0.006551203575163343
9.81475e-06;0.006553551725934747
9.81500e-06;0.0065558998767061335
9.81525e-06;0.006558248027477536
9.81550e-06;0.006560779078411223
9.81575e-06;0.006599998504832058
9.81600e-06;0.006639217931253158
9.81625e-06;0.006678437357674259
9.81650e-06;0.006717656784095094
9.81675e-06;0.006756876210516194
9.81700e-06;0.006796095636937295
9.81725e-06;0.0068565322066932955
9.81750e-06;0.006937769064395046
9.81775e-06;0.0070190059220967965
9.81800e-06;0.007100242779797996
9.81825e-06;0.007181479637499747
9.81850e-06;0.007262716495201497
9.81875e-06;0.007343953352902697
9.81900e-06;0.007425190210604447
9.81925e-06;0.007506563846816978
9.81950e-06;0.007615374207634326
9.81975e-06;0.007724184568450937
9.82000e-06;0.007832994929268285
9.82025e-06;0.007941805290085634
9.82050e-06;0.008050615650902244
9.82075e-06;0.008159426011719593
9.82100e-06;0.00826823637253694
9.82125e-06;0.008377046733353552
9.82150e-06;0.008483761917311573
9.82175e-06;0.008588423088564485
9.82200e-06;0.008693084259816686
9.82225e-06;0.008797745431069598
9.82250e-06;0.008902406602322508
9.82275e-06;0.00900706777357471
9.82300e-06;0.009111577265838024
9.82325e-06;0.009185661111040763
9.82350e-06;0.009259744956243002
9.82375e-06;0.00933382880144574
9.82400e-06;0.00940791264664848
9.82425e-06;0.009481996491850718
9.82450e-06;0.009556080337053456
9.82475e-06;0.009604586643245533
9.82500e-06;0.009628017934951091
9.82525e-06;0.009651449226656809
9.82550e-06;0.009674880518362525
9.82575e-06;0.009698311810068083
9.82600e-06;0.009721743101773801
9.82625e-06;0.009745174393479519
9.82650e-06;0.009768605685185077
9.82675e-06;0.009792036976890793
9.82700e-06;0.0098152058806978
9.82725e-06;0.0097857417754558
9.82750e-06;0.009756277670213604
9.82775e-06;0.009726813564971406
9.82800e-06;0.009697349459729207
9.82825e-06;0.009667885354487208
9.82850e-06;0.009638421249245011
9.82875e-06;0.009608957144002813
9.82900e-06;0.009579493038760814
9.82925e-06;0.009550028933518617
9.82950e-06;0.009505877926963134
9.82975e-06;0.009447328574145465
9.83000e-06;0.0093887792213274
9.83025e-06;0.009330229868509336
9.83050e-06;0.009271680515691667
9.83075e-06;0.009213131162873601
9.83100e-06;0.009154581810055537
9.83125e-06;0.009096032457237868
9.83150e-06;0.009037483104419803
9.83175e-06;0.008980401498970626
9.83200e-06;0.008924758803908313
9.83225e-06;0.008869116108845623
9.83250e-06;0.008813473413782932
9.83275e-06;0.008757830718720619
9.83300e-06;0.00870218802365793
9.83325e-06;0.008646545328595238
9.83350e-06;0.008590902633532925
9.83375e-06;0.008535259938470235
9.83400e-06;0.008495672638020963
9.83425e-06;0.008471825290209442
9.83450e-06;0.00844797794239776
9.83475e-06;0.008424130594586077
9.83500e-06;0.008400283246774555
9.83525e-06;0.008376435898962873
9.83550e-06;0.00835258855115119
9.83575e-06;0.00832874120333967
9.83600e-06;0.008304893855527986
9.83625e-06;0.008281229637312705
9.83650e-06;0.008294299818324878
9.83675e-06;0.008307369999336962
9.83700e-06;0.008320440180349133
9.83725e-06;0.008333510361361306
9.83750e-06;0.00834658054237339
9.83775e-06;0.008359650723385563
9.83800e-06;0.008372720904397734
9.83825e-06;0.008385791085409818
9.83850e-06;0.008398861266421991
9.83875e-06;0.008424801066448844
9.83900e-06;0.008463357634773148
9.83925e-06;0.008501914203097713
9.83950e-06;0.00854047077142228
9.83975e-06;0.008579027339746585
9.84000e-06;0.00861758390807115
9.84025e-06;0.008656140476395716
9.84050e-06;0.00869469704472002
9.84075e-06;0.008733253613044587
9.84100e-06;0.008771810181369152
9.84125e-06;0.008811409927269002
9.84150e-06;0.00885203235532858
9.84175e-06;0.008892654783388158
9.84200e-06;0.00893327721144746
9.84225e-06;0.008973899639507038
9.84250e-06;0.009014522067566616
9.84275e-06;0.00905514449562592
9.84300e-06;0.009095766923685498
9.84325e-06;0.009136389351745076
9.84350e-06;0.009177011779804378
9.84375e-06;0.009205318754683103
9.84400e-06;0.00922155223934301
9.84425e-06;0.009237785724002807
9.84450e-06;0.009254019208662716
9.84475e-06;0.009270252693322623
9.84500e-06;0.00928648617798253
9.84525e-06;0.009302719662642327
9.84550e-06;0.009299402217574942
9.84575e-06;0.009276917961886389
9.84600e-06;0.009254433706197988
9.84625e-06;0.009231949450509435
9.84650e-06;0.009209465194820883
9.84675e-06;0.009186980939132483
9.84700e-06;0.00916449668344393
9.84725e-06;0.00912072586211254
9.84750e-06;0.009056086694459788
9.84775e-06;0.008991447526806598
9.84800e-06;0.008926808359153408
9.84825e-06;0.008862169191500657
9.84850e-06;0.008797530023847467
9.84875e-06;0.008732890856194277
9.84900e-06;0.008668251688541526
9.84925e-06;0.008603612520888336
9.84950e-06;0.008525810994677233
9.84975e-06;0.008435105712105605
9.85000e-06;0.008344400429533362
9.85025e-06;0.008253695146961119
9.85050e-06;0.008162989864389491
9.85075e-06;0.008072284581817248
9.85100e-06;0.007981579299245005
9.85125e-06;0.007890874016673377
9.85150e-06;0.007800168734101134
9.85175e-06;0.0077096436737039056
9.85200e-06;0.007619295294638925
9.85225e-06;0.007528946915573332
9.85250e-06;0.007442437049370994
9.85275e-06;0.0073596902803804015
9.85300e-06;0.00727694351138925
9.85325e-06;0.007206467362110892
9.85350e-06;0.007148020750433938
9.85375e-06;0.00708957413875738
9.85400e-06;0.007031127527080426
9.85425e-06;0.006972680915403473
9.85450e-06;0.006914234303726914
9.85475e-06;0.006855787692049961
9.85500e-06;0.006819268609317661
9.85525e-06;0.006804246243143118
9.85550e-06;0.006789223876968474
9.85575e-06;0.00677420151079383
9.85600e-06;0.006759179144619288
9.85625e-06;0.006744156778444643
9.85650e-06;0.006729134412269999
9.85675e-06;0.006738301754117027
9.85700e-06;0.006771183546337856
9.85725e-06;0.006804065338558685
9.85750e-06;0.006836947130779291
9.85775e-06;0.0068698289230001205
9.85800e-06;0.00690271071522095
9.85825e-06;0.006935592507441557
9.85850e-06;0.006968474299662386
9.85875e-06;0.007001356091883215
9.85900e-06;0.00705177694000869
9.85925e-06;0.0071193922524294
9.85950e-06;0.007187007564850111
9.85975e-06;0.007254622877270363
9.86000e-06;0.007322238189691074
9.86025e-06;0.007389853502111784
9.86050e-06;0.0074574688145320365
9.86075e-06;0.0075250841269527465
9.86100e-06;0.007592699439373457
9.86125e-06;0.007663392516069092
9.86150e-06;0.007737102887893919
9.86175e-06;0.007810813259718747
9.86200e-06;0.007884523631543076
9.86225e-06;0.007958234003367905
9.86250e-06;0.00803188117213321
9.86275e-06;0.0080928502891461
9.86300e-06;0.008153819406158579
9.86325e-06;0.008214788523171469
9.86350e-06;0.00827575764018436
9.86375e-06;0.008336726757196837
9.86400e-06;0.00838772052765848
9.86425e-06;0.008428934938212758
9.86450e-06;0.008470149348766758
9.86475e-06;0.008511363759321038
9.86500e-06;0.008552578169875317
9.86525e-06;0.008593792580429317
9.86550e-06;0.008635006990983596
9.86575e-06;0.008676221401537874
9.86600e-06;0.008717435812091874
9.86625e-06;0.008758650222646153
9.86650e-06;0.008799864633200432
9.86675e-06;0.008836794611761284
9.86700e-06;0.00886952433499806
9.86725e-06;0.008902254058234839
9.86750e-06;0.008934983781471395
9.86775e-06;0.008967713504708173
9.86800e-06;0.00900044322794495
9.86825e-06;0.009033172951181506
9.86850e-06;0.009065902674418284
9.86875e-06;0.00909863239765506
9.86900e-06;0.009131362120891617
9.86925e-06;0.009164091844128395
9.86950e-06;0.009193816969806496
9.86975e-06;0.00922059652955769
9.87000e-06;0.009247376089309067
9.87025e-06;0.009274155649060443
9.87050e-06;0.009300935208811638
9.87075e-06;0.009327714768563013
9.87100e-06;0.00935449432831439
9.87125e-06;0.009381273888065764
9.87150e-06;0.009408053447816958
9.87175e-06;0.009434833007568335
9.87200e-06;0.009461612567319711
9.87225e-06;0.009488392127070906
9.87250e-06;0.00951517168682228
9.87275e-06;0.009541951246573657
9.87300e-06;0.009568730806324852
9.87325e-06;0.00958455024516564
9.87350e-06;0.009589624897698382
9.87375e-06;0.009594699550231088
9.87400e-06;0.00959977420276383
9.87425e-06;0.00960484885529657
9.87450e-06;0.009609923507829278
9.87475e-06;0.009614998160362018
9.87500e-06;0.009620072812894759
9.87525e-06;0.009625147465427466
9.87550e-06;0.009630222117960207
9.87575e-06;0.009635296770492949
9.87600e-06;0.009640371423025654
9.87625e-06;0.009645446075558397
9.87650e-06;0.009650520728091137
9.87675e-06;0.009655595380623843
9.87700e-06;0.009645282892729075
9.87725e-06;0.009619885577107698
9.87750e-06;0.009594488261486494
9.87775e-06;0.009569090945865118
9.87800e-06;0.009543693630243742
9.87825e-06;0.009518296314622539
9.87850e-06;0.009492898999001163
9.87875e-06;0.009467501683379786
9.87900e-06;0.009442104367758582
9.87925e-06;0.009416707052137206
9.87950e-06;0.00939130973651583
9.87975e-06;0.009365912420894454
9.88000e-06;0.009340466257035964
9.88025e-06;0.009305221509039632
9.88050e-06;0.009269976761043302
9.88075e-06;0.009234732013047212
9.88100e-06;0.009199487265050882
9.88125e-06;0.009164242517054551
9.88150e-06;0.009128997769058459
9.88175e-06;0.009093753021062129
9.88200e-06;0.009058508273065799
9.88225e-06;0.009023263525069707
9.88250e-06;0.008988018777073377
9.88275e-06;0.008952774029077046
9.88300e-06;0.008917529281080956
9.88325e-06;0.008886665337799466
9.88350e-06;0.008860096129121389
9.88375e-06;0.008833526920443492
9.88400e-06;0.008806957711765413
9.88425e-06;0.008780388503087336
9.88450e-06;0.008753819294409439
9.88475e-06;0.008727250085731362
9.88500e-06;0.008700680877053285
9.88525e-06;0.008674089750270293
9.88550e-06;0.008643102018596156
9.88575e-06;0.008612114286922016
9.88600e-06;0.008581126555248089
9.88625e-06;0.008550138823573951
9.88650e-06;0.008519151091899812
9.88675e-06;0.008488163360225884
9.88700e-06;0.008457175628551746
9.88725e-06;0.008426187896877607
9.88750e-06;0.008389929406588408
9.88775e-06;0.008348503712808224
9.88800e-06;0.00830707801902804
9.88825e-06;0.008265652325247856
9.88850e-06;0.008224226631467954
9.88875e-06;0.00818280093768777
9.88900e-06;0.008141375243907586
9.88925e-06;0.008099949550127683
9.88950e-06;0.0080585238563475
9.88975e-06;0.008017098162567316
9.89000e-06;0.007975672468787411
9.89025e-06;0.007934246775007227
9.89050e-06;0.007892926561362689
9.89075e-06;0.007851709755475248
9.89100e-06;0.00781049294958753
9.89125e-06;0.00776927614369981
9.89150e-06;0.007728059337812371
9.89175e-06;0.007686842531924652
9.89200e-06;0.0076456257260369325
9.89225e-06;0.007604408920149493
9.89250e-06;0.007563192114261774
9.89275e-06;0.007521975308374055
9.89300e-06;0.007480758502486615
9.89325e-06;0.007439541696598897
9.89350e-06;0.007407828614770404
9.89375e-06;0.007385432536380854
9.89400e-06;0.007363036457991151
9.89425e-06;0.007340640379601449
9.89450e-06;0.007318244301211898
9.89475e-06;0.007295848222822195
9.89500e-06;0.0072734521444324934
9.89525e-06;0.0072510560660429425
9.89550e-06;0.007228659987653241
9.89575e-06;0.007206263909263538
9.89600e-06;0.007183867830873987
9.89625e-06;0.007161471752484285
9.89650e-06;0.007139075674094582
9.89675e-06;0.007116679595704879
9.89700e-06;0.007094283517315329
9.89725e-06;0.0070718874389256265
9.89750e-06;0.00704954369859142
9.89775e-06;0.007037698573649617
9.89800e-06;0.007025853448707733
9.89825e-06;0.00701400832376585
9.89850e-06;0.007002163198824046
9.89875e-06;0.006990318073882162
9.89900e-06;0.006978472948940278
9.89925e-06;0.006966627823998475
9.89950e-06;0.006954782699056592
9.89975e-06;0.006942937574114708
9.90000e-06;0.006931092449172904
9.90025e-06;0.00691924732423102
9.90050e-06;0.006907402199289137
9.90075e-06;0.006895557074347334
9.90100e-06;0.00688371194940545
9.90125e-06;0.006871866824463567
9.90150e-06;0.006860021699521763
9.90175e-06;0.006851183526677828
9.90200e-06;0.006845293228043059
9.90225e-06;0.00683940292940833
9.90250e-06;0.006833512630773561
9.90275e-06;0.0068276223321387915
9.90300e-06;0.006821732033504063
9.90325e-06;0.0068158417348692935
9.90350e-06;0.006809951436234524
9.90375e-06;0.006804061137599795
9.90400e-06;0.006798170838965026
9.90425e-06;0.006792280540330257
9.90450e-06;0.006786390241695528
9.90475e-06;0.0067804999430607586
9.90500e-06;0.006774609644425989
9.90525e-06;0.006768719345791221
9.90550e-06;0.006762829047156491
9.90575e-06;0.006756938748521722
9.90600e-06;0.006751048449886953
9.90625e-06;0.006745158151252224
9.90650e-06;0.006739267852617454
9.90675e-06;0.006733377553982686
9.90700e-06;0.006727487255347956
9.90725e-06;0.006721596956713187
9.90750e-06;0.006715706658078418
9.90775e-06;0.006709816359443689
9.90800e-06;0.006705320867574873
9.90825e-06;0.006702192778564158
9.90850e-06;0.006699064689553463
9.90875e-06;0.006695936600542748
9.90900e-06;0.006692808511532033
9.90925e-06;0.006689680422521338
9.90950e-06;0.006686552333510623
9.90975e-06;0.006683424244499908
9.91000e-06;0.006680296155489213
9.91025e-06;0.006677168066478498
9.91050e-06;0.006674039977467782
9.91075e-06;0.006670911888457087
9.91100e-06;0.006667783799446372
9.91125e-06;0.006664655710435657
9.91150e-06;0.006661527621424962
9.91175e-06;0.006658399532414247
9.91200e-06;0.006655271443403532
9.91225e-06;0.006652143354392837
9.91250e-06;0.006649015265382122
9.91275e-06;0.006645887176371406
9.91300e-06;0.006642759087360712
9.91325e-06;0.006639630998349996
9.91350e-06;0.006636502909339281
9.91375e-06;0.0066333748203285655
9.91400e-06;0.006630246731317871
9.91425e-06;0.00663112811265429
9.91450e-06;0.006635940189874292
9.91475e-06;0.006640752267094261
9.91500e-06;0.006645564344314263
9.91525e-06;0.006650376421534265
9.91550e-06;0.006655188498754234
9.91575e-06;0.006660000575974236
9.91600e-06;0.006664812653194237
9.91625e-06;0.006669624730414207
9.91650e-06;0.006674436807634208
9.91675e-06;0.00667924888485421
9.91700e-06;0.006684060962074179
9.91725e-06;0.006688873039294181
9.91750e-06;0.006693685116514183
9.91775e-06;0.0067042600689325915
9.91800e-06;0.006720484672766497
9.91825e-06;0.006736709276600401
9.91850e-06;0.006752933880434196
9.91875e-06;0.0067691584842681
9.91900e-06;0.006785383088102005
9.91925e-06;0.0068016076919358
9.91950e-06;0.006817832295769704
9.91975e-06;0.006834056899603609
9.92000e-06;0.0068502815034374035
9.92025e-06;0.006866506107271308
9.92050e-06;0.006882730711105213
9.92075e-06;0.006898955314939007
9.92100e-06;0.006915179918772912
9.92125e-06;0.006930967831705944
9.92150e-06;0.006946327633447587
9.92175e-06;0.006961687435189334
9.92200e-06;0.006977047236931081
9.92225e-06;0.006992407038672827
9.92250e-06;0.00700776684041447
9.92275e-06;0.007023126642156216
9.92300e-06;0.007038486443897964
9.92325e-06;0.007053846245639607
9.92350e-06;0.007069206047381353
9.92375e-06;0.0070845658491231
9.92400e-06;0.007099925650864742
9.92425e-06;0.0071152854526064895
9.92450e-06;0.00712568603144055
9.92475e-06;0.007131224821712345
9.92500e-06;0.007136763611984178
9.92525e-06;0.007142302402256009
9.92550e-06;0.007147841192527805
9.92575e-06;0.007153379982799637
9.92600e-06;0.007158918773071469
9.92625e-06;0.007164457563343264
9.92650e-06;0.007169996353615097
9.92675e-06;0.007175535143886929
9.92700e-06;0.007181073934158724
9.92725e-06;0.0071866127244305565
9.92750e-06;0.007192151514702388
9.92775e-06;0.007194299270627626
9.92800e-06;0.007193122616194796
9.92825e-06;0.007191945961761967
9.92850e-06;0.007190769307329145
9.92875e-06;0.007189592652896317
9.92900e-06;0.007188415998463487
9.92925e-06;0.007187239344030666
9.92950e-06;0.007186062689597837
9.92975e-06;0.007184886035165008
9.93000e-06;0.007183709380732186
9.93025e-06;0.007182532726299357
9.93050e-06;0.007181356071866528
9.93075e-06;0.007180179417433699
9.93100e-06;0.007177972449424059
9.93125e-06;0.007174755410510641
9.93150e-06;0.0071715383715972225
9.93175e-06;0.007168321332683826
9.93200e-06;0.007165104293770408
9.93225e-06;0.007161887254856989
9.93250e-06;0.007158670215943593
9.93275e-06;0.007155453177030174
9.93300e-06;0.007152236138116756
9.93325e-06;0.0071490190992033594
9.93350e-06;0.007145802060289941
9.93375e-06;0.007142585021376523
9.93400e-06;0.007139367982463126
9.93425e-06;0.007131971168841577
9.93450e-06;0.007120476700959984
9.93475e-06;0.0071089822330784695
9.93500e-06;0.007097487765196877
9.93525e-06;0.007085993297315284
9.93550e-06;0.007074498829433769
9.93575e-06;0.0070630043615521765
9.93600e-06;0.007051509893670583
9.93625e-06;0.007040015425789068
9.93650e-06;0.0070285209579074755
9.93675e-06;0.007017026490025883
9.93700e-06;0.0069973925675800575
9.93725e-06;0.006969779107239775
9.93750e-06;0.006942165646899492
9.93775e-06;0.0069145521865593956
9.93800e-06;0.006886938726219112
9.93825e-06;0.006859325265878829
9.93850e-06;0.006831711805538733
9.93875e-06;0.00680409834519845
9.93900e-06;0.006776484884858167
9.93925e-06;0.0067488714245178836
9.93950e-06;0.0067212579641777875
9.93975e-06;0.006689863856220573
9.94000e-06;0.0066547633794042755
9.94025e-06;0.006619662902588217
9.94050e-06;0.006584562425771921
9.94075e-06;0.006549461948955624
9.94100e-06;0.006514361472139565
9.94125e-06;0.006479260995323269
9.94150e-06;0.006444160518506972
9.94175e-06;0.006409060041690913
9.94200e-06;0.006373959564874617
9.94225e-06;0.006342881143798362
9.94250e-06;0.00631574575673552
9.94275e-06;0.006288610369672493
9.94300e-06;0.006261474982609467
9.94325e-06;0.006234339595546624
9.94350e-06;0.006207204208483598
9.94375e-06;0.006180068821420572
9.94400e-06;0.006152933434357729
9.94425e-06;0.006125798047294703
9.94450e-06;0.006098662660231676
9.94475e-06;0.0060793390085802914
9.94500e-06;0.006067673614402979
9.94525e-06;0.006056008220225667
9.94550e-06;0.006044342826048434
9.94575e-06;0.0060326774318711215
9.94600e-06;0.006021012037693809
9.94625e-06;0.0060093466435165764
9.94650e-06;0.005997681249339264
9.94675e-06;0.005986015855161952
9.94700e-06;0.005974350460984718
9.94725e-06;0.0059626850668074065
9.94750e-06;0.005951019672630094
9.94775e-06;0.005939354278452782
9.94800e-06;0.005927688884275548
9.94825e-06;0.005916023490098237
9.94850e-06;0.005904358095920924
9.94875e-06;0.005892692701743691
9.94900e-06;0.005881027307566379
9.94925e-06;0.005869405879185088
9.94950e-06;0.005866603655412491
9.94975e-06;0.005863801431639875
9.95000e-06;0.005860999207867259
9.95025e-06;0.005858196984094662
9.95050e-06;0.0058553947603220465
9.95075e-06;0.00585259253654943
9.95100e-06;0.005849790312776834
9.95125e-06;0.005846988089004217
