Time(s);Current(A)
3.00000e-07;0.0008030550704590467
3.00250e-07;0.0007711069342933154
3.00500e-07;0.0007372520617422174
3.00750e-07;0.0007025376530576955
3.01000e-07;0.000667823244373181
3.01250e-07;0.0006331088356886591
3.01500e-07;0.0005983944270041444
3.01750e-07;0.0005642792210675117
3.02000e-07;0.0005304341292468172
3.02250e-07;0.0004965890374261299
3.02500e-07;0.00046274394560543537
3.02750e-07;0.00043155848989226696
3.03000e-07;0.0004015719693616173
3.03250e-07;0.00037158544883096134
3.03500e-07;0.00034159892830030536
3.03750e-07;0.00031429179362542825
3.04000e-07;0.0002895769654914655
3.04250e-07;0.0002668239827529619
3.04500e-07;0.0002446740396466245
3.04750e-07;0.00022189396021006936
3.05000e-07;0.00019882982213333556
3.05250e-07;0.000174844722903855
3.05500e-07;0.00015044446435064063
3.05750e-07;0.00012574959451985783
3.06000e-07;0.00010093623542927712
3.06250e-07;7.607604467600281e-05
3.06500e-07;5.0660372769074444e-05
3.06750e-07;2.403548212894623e-05
3.07000e-07;-4.0221798717369e-06
3.07250e-07;-3.336379305107171e-05
3.07500e-07;-6.375646295759781e-05
3.07750e-07;-9.496732362666507e-05
3.08000e-07;-0.0001267638713880108
3.08250e-07;-0.00015934165758195521
3.08500e-07;-0.0001921996929927096
3.08750e-07;-0.00022650164664065754
3.09000e-07;-0.00026145450300811145
3.09250e-07;-0.000297721695592638
3.09500e-07;-0.0003345813767239562
3.09750e-07;-0.0003714410578552744
3.10000e-07;-0.0004089030170380842
3.10250e-07;-0.00044663647665043883
3.10500e-07;-0.0004843699362627935
3.10750e-07;-0.0005221033958751401
3.11000e-07;-0.0005598368554874947
3.11250e-07;-0.0005969032049138779
3.11500e-07;-0.0006336688282859183
3.11750e-07;-0.0006704344516579664
3.12000e-07;-0.0007072000750300145
3.12250e-07;-0.0007439656984020548
3.12500e-07;-0.000778286769017671
3.12750e-07;-0.0008115058616984333
3.13000e-07;-0.0008447249543791885
3.13250e-07;-0.0008750272897590194
3.13500e-07;-0.0009040147825041346
3.13750e-07;-0.000933002275249256
3.14000e-07;-0.0009578662800117703
3.14250e-07;-0.0009808714610039515
3.14500e-07;-0.0010038766419961376
3.14750e-07;-0.0010233651574719478
3.15000e-07;-0.0010412683981799575
3.15250e-07;-0.0010591716388879708
3.15500e-07;-0.001073484684967798
3.15750e-07;-0.001086179310151735
3.16000e-07;-0.001098873935335675
3.16250e-07;-0.0011077976324579961
3.16500e-07;-0.0011150214360079996
3.16750e-07;-0.0011222452395580045
3.17000e-07;-0.001126454510009256
3.17250e-07;-0.0011293048615539734
3.17500e-07;-0.0011321552130986916
3.17750e-07;-0.0011301629838803135
3.18000e-07;-0.0011259877716460547
3.18250e-07;-0.001121812559411796
3.18500e-07;-0.0011176373471775381
3.18750e-07;-0.0011134621349432794
3.19000e-07;-0.0011092869227090206
3.19250e-07;-0.0011051117104747628
3.19500e-07;-0.0010997088614113847
3.19750e-07;-0.0010890478256352463
3.20000e-07;-0.00107838678985911
3.20250e-07;-0.0010677257540829713
3.20500e-07;-0.0010570647183068328
3.20750e-07;-0.0010464036825306962
3.21000e-07;-0.0010357426467545578
3.21250e-07;-0.0010250816109784215
3.21500e-07;-0.001013192602804215
3.21750e-07;-0.0010007500379584525
3.22000e-07;-0.0009883074731126928
3.22250e-07;-0.0009758649082669302
3.22500e-07;-0.0009634223434211677
3.22750e-07;-0.000951317680744468
3.23000e-07;-0.0009406603131092883
3.23250e-07;-0.0009300029454741087
3.23500e-07;-0.0009193455778389313
3.23750e-07;-0.0009086882102037517
3.24000e-07;-0.0008980308425685721
3.24250e-07;-0.0008874328484936198
3.24500e-07;-0.0008768616193772495
3.24750e-07;-0.0008662903902608793
3.25000e-07;-0.0008514417541826857
3.25250e-07;-0.0008346649093235625
3.25500e-07;-0.0008146366881853383
3.25750e-07;-0.0007931427817972791
3.26000e-07;-0.0007688916340197475
3.26250e-07;-0.0007433975516545679
3.26500e-07;-0.0007140710953375967
3.26750e-07;-0.0006830170463057877
3.27000e-07;-0.0006473016955950781
3.27250e-07;-0.0006094850805183425
3.27500e-07;-0.0005686315780485041
3.27750e-07;-0.0005246705801743573
3.28000e-07;-0.00047840159418151463
3.28250e-07;-0.00042998236783647263
3.28500e-07;-0.00037922944427340585
3.28750e-07;-0.0003258792199777898
3.29000e-07;-0.0002699787026095028
3.29250e-07;-0.00021183568104965394
3.29500e-07;-0.00015181621127298916
3.29750e-07;-9.028629754257178e-05
3.30000e-07;-2.76116943500173e-05
3.30250e-07;3.5937809604268214e-05
3.30500e-07;0.00010030619011735194
3.30750e-07;0.0001657244072994279
3.31000e-07;0.00023150027485099306
3.31250e-07;0.00029724039994071227
3.31500e-07;0.0003628273952741454
3.31750e-07;0.00042841439060757857
3.32000e-07;0.0004924665225705636
3.32250e-07;0.0005558267547319216
3.32500e-07;0.0006170471332662083
3.32750e-07;0.0006773028889365642
3.33000e-07;0.0007346712895890936
3.33250e-07;0.0007907381018379822
3.33500e-07;0.0008427810006772409
3.33750e-07;0.0008930099628863166
3.34000e-07;0.0009381106707603535
3.34250e-07;0.0009808996170629612
3.34500e-07;0.0010183156488683966
3.34750e-07;0.0010533096289482785
3.35000e-07;0.0010831036377302301
3.35250e-07;0.0011105535557097686
3.35500e-07;0.0011324903550372272
3.35750e-07;0.0011519419001229851
3.36000e-07;0.0011655641700991932
3.36250e-07;0.0011765586659231715
3.36500e-07;0.0011819461991922806
3.36750e-07;0.0011848061744036027
3.37000e-07;0.001182543010755576
3.37250e-07;0.001177970391537196
3.37500e-07;0.001168454056261224
3.37750e-07;0.0011567091472727469
3.38000e-07;0.0011401979790809174
3.38250e-07;0.0011215382328065692
3.38500e-07;0.0010986269444853336
3.38750e-07;0.0010737991070069641
3.39000e-07;0.0010446072538858047
3.39250e-07;0.0010134481497273238
3.39500e-07;0.0009822890455688429
3.39750e-07;0.0009468656675129156
3.40000e-07;0.000909520000919354
3.40250e-07;0.0008721743343257925
3.40500e-07;0.0008317481449972874
3.40750e-07;0.0007899332893481514
3.41000e-07;0.0007481184336990243
3.41250e-07;0.0007063035780498883
3.41500e-07;0.0006636470862271994
3.41750e-07;0.0006206111939231754
3.42000e-07;0.0005775753016191424
3.42250e-07;0.0005345394093151093
3.42500e-07;0.0004927040288791822
3.42750e-07;0.000451409826205002
3.43000e-07;0.0004120624431786938
3.43250e-07;0.00037359266538694114
3.43500e-07;0.0003370843314852789
3.43750e-07;0.0003030327125518834
3.44000e-07;0.0002714611456827725
3.44250e-07;0.00024264382368938622
3.44500e-07;0.00021679493582368907
3.44750e-07;0.00019403807101056164
3.45000e-07;0.00017443961286980875
3.45250e-07;0.00015805295877657484
3.45500e-07;0.0001449311439658834
3.45750e-07;0.000135127201125603
3.46000e-07;0.0001286940917439892
3.46250e-07;0.00012567603479772944
3.46500e-07;0.00012607961255235318
3.46750e-07;0.00012985465455693369
3.47000e-07;0.00013691519587693375
3.47250e-07;0.0001471670989294101
3.47500e-07;0.00016051602915670627
3.47750e-07;0.00017686763095328358
3.48000e-07;0.00019612751508819547
3.48250e-07;0.00021819582677996276
3.48500e-07;0.00024294912760718478
3.48750e-07;0.0002702284580675614
3.49000e-07;0.00029985240627881504
3.49250e-07;0.0003316344915800098
3.49500e-07;0.0003659832697724514
3.49750e-07;0.0004011949174003266
3.50000e-07;0.00043852827376212824
3.50250e-07;0.0004768180734663366
3.50500e-07;0.0005171231499193812
3.50750e-07;0.0005583366913274507
3.51000e-07;0.0005995502327355114
3.51250e-07;0.0006407637741435809
3.51500e-07;0.0006824479292835123
3.51750e-07;0.0007243442320021726
3.52000e-07;0.0007662405347208418
3.52250e-07;0.0008081368374395108
3.52500e-07;0.0008482293097575221
3.52750e-07;0.0008875086348466291
3.53000e-07;0.0009267879599357277
3.53250e-07;0.0009626368136019254
3.53500e-07;0.0009969392478650554
3.53750e-07;0.0010312416821281782
3.54000e-07;0.0010607279461939346
3.54250e-07;0.001088043132841012
3.54500e-07;0.0011153583194880837
3.54750e-07;0.0011390201069631147
3.55000e-07;0.0011610349816176264
3.55250e-07;0.0011830498562721333
3.55500e-07;0.001201395523931726
3.55750e-07;0.001218087152775272
3.56000e-07;0.0012347787816188143
3.56250e-07;0.0012475911546805938
3.56500e-07;0.001258654801205736
3.56750e-07;0.0012697184477308806
3.57000e-07;0.001275372864011734
3.57250e-07;0.0012785888578210828
3.57500e-07;0.0012818048516304325
3.57750e-07;0.001285020845439782
3.58000e-07;0.0012882368392491308
3.58250e-07;0.0012914528330584805
3.58500e-07;0.00129466882686783
3.58750e-07;0.0012978848206771788
3.59000e-07;0.0012994933258055393
3.59250e-07;0.0012942166712324912
3.59500e-07;0.0012889400166594441
3.59750e-07;0.001283663362086396
3.60000e-07;0.0012783867075133479
3.60250e-07;0.0012731100529403008
3.60500e-07;0.0012678333983672527
3.60750e-07;0.0012625567437942057
3.61000e-07;0.0012572800892211575
3.61250e-07;0.0012499475999972142
3.61500e-07;0.0012416883627547831
3.61750e-07;0.0012334291255123504
3.62000e-07;0.0012251698882699176
3.62250e-07;0.0012169106510274868
3.62500e-07;0.001208651413785054
3.62750e-07;0.0012005891262198603
3.63000e-07;0.0011933704091239181
3.63250e-07;0.0011861516920279745
3.63500e-07;0.0011789329749320309
3.63750e-07;0.0011717142578360888
3.64000e-07;0.0011644955407401451
3.64250e-07;0.0011572768236442017
3.64500e-07;0.0011481303257801336
3.64750e-07;0.0011381148052025042
3.65000e-07;0.0011280992846248769
3.65250e-07;0.0011131182888291116
3.65500e-07;0.001095898910526617
3.65750e-07;0.001078679532224126
3.66000e-07;0.001058022019315567
3.66250e-07;0.001035814632523861
3.66500e-07;0.0010099803534170955
3.66750e-07;0.0009825111104941337
3.67000e-07;0.0009507001527276078
3.67250e-07;0.0009169319968827328
3.67500e-07;0.0008794987732317614
3.67750e-07;0.0008404133766662645
3.68000e-07;0.0007983624285175367
3.68250e-07;0.0007549746417994513
3.68500e-07;0.0007084635261797341
3.68750e-07;0.000660544447682518
3.69000e-07;0.0006094877370124567
3.69250e-07;0.0005570166157050054
3.69500e-07;0.0005022650354018165
3.69750e-07;0.00044648544885569344
3.70000e-07;0.0003892968496711448
3.70250e-07;0.00033147308283331696
3.70500e-07;0.00027257462476834734
3.70750e-07;0.00021319170752530391
3.71000e-07;0.00015315828232244588
3.71250e-07;9.283161516916938e-05
3.71500e-07;3.2618907774521756e-05
3.71750e-07;-2.7131340960234223e-05
3.72000e-07;-8.603400433168523e-05
3.72250e-07;-0.00014377719422806868
3.72500e-07;-0.0002001658337520957
3.72750e-07;-0.00025503162736215606
3.73000e-07;-0.00030809897430678784
3.73250e-07;-0.0003590025458469631
3.73500e-07;-0.00040735695810290517
3.73750e-07;-0.00045277695857654936
3.74000e-07;-0.0004948775586786793
3.74250e-07;-0.0005333932614719841
3.74500e-07;-0.0005683612877650723
3.74750e-07;-0.0005999863037608024
3.75000e-07;-0.0006283384782396056
3.75250e-07;-0.0006533309053727705
3.75500e-07;-0.0006748383844304776
3.75750e-07;-0.0006927357689417592
3.76000e-07;-0.0007068981531639265
3.76250e-07;-0.0007160415129017027
3.76500e-07;-0.0007234509406823615
3.76750e-07;-0.0007262331298339904
3.77000e-07;-0.0007269294098738372
3.77250e-07;-0.0007232590998158688
3.77500e-07;-0.0007176203781840283
3.77750e-07;-0.0007077193820367884
3.78000e-07;-0.0006958969986516356
3.78250e-07;-0.0006800594884386493
3.78500e-07;-0.0006624120024914166
3.78750e-07;-0.0006413953238390729
3.79000e-07;-0.000618859849566628
3.79250e-07;-0.0005934387454956405
3.79500e-07;-0.0005667168307311468
3.79750e-07;-0.0005374947322451283
3.80000e-07;-0.0005071455779869878
3.80250e-07;-0.0004744176339229037
3.80500e-07;-0.0004406173571504813
3.80750e-07;-0.0004068170803780517
3.81000e-07;-0.0003714541929589803
3.81250e-07;-0.00033538689756632315
3.81500e-07;-0.00029931960217365836
3.81750e-07;-0.0002632523067809936
3.82000e-07;-0.00022718501138833646
3.82250e-07;-0.0001911177159956717
3.82500e-07;-0.0001555923367102026
3.82750e-07;-0.00012095476916774612
3.83000e-07;-8.743173344962411e-05
3.83250e-07;-5.527260031336344e-05
3.83500e-07;-2.4720806631230154e-05
3.83750e-07;3.98022817402096e-06
3.84000e-07;3.058736528245954e-05
3.84250e-07;5.498319382869664e-05
3.84500e-07;7.735229801105912e-05
3.84750e-07;9.800823488942047e-05
3.85000e-07;0.000117074435537896
3.85250e-07;0.00013448821074017638
3.85500e-07;0.00015014333801106796
3.85750e-07;0.00016393358738220755
3.86000e-07;0.00017575293598808743
3.86250e-07;0.0001855741284293811
3.86500e-07;0.0001935590569241426
3.86750e-07;0.00019995038797244191
3.87000e-07;0.000204871693826552
3.87250e-07;0.00020832995122675398
3.87500e-07;0.00021030486123850502
3.87750e-07;0.00021077612846163258
3.88000e-07;0.00020972360342956032
3.88250e-07;0.00020717646352093105
3.88500e-07;0.0002032823728249142
3.88750e-07;0.00019823955965440578
3.89000e-07;0.0001921716653114855
3.89250e-07;0.00018512927786809376
3.89500e-07;0.00017714588678994594
3.89750e-07;0.00016825501064658856
3.90000e-07;0.0001584902272024264
3.90250e-07;0.0001477026296970485
3.90500e-07;0.00013657490381319815
3.90750e-07;0.00012480687835262475
3.91000e-07;0.00011275021277027524
3.91250e-07;0.00010025307380532194
3.91500e-07;8.755737420497431e-05
3.91750e-07;7.486167460462669e-05
3.92000e-07;6.200527091495213e-05
3.92250e-07;4.907642356046462e-05
3.92500e-07;3.627043914909902e-05
3.92750e-07;2.3742457249622057e-05
3.93000e-07;1.1613118693699013e-05
3.93250e-07;-2.2682713364918824e-08
3.93500e-07;-1.1076769309901451e-05
3.93750e-07;-2.1460967920008098e-05
3.94000e-07;-3.108696892523761e-05
3.94250e-07;-3.980354538197409e-05
3.94500e-07;-4.732960763339602e-05
3.94750e-07;-5.338082900370906e-05
3.95000e-07;-5.783100326182003e-05
3.95250e-07;-6.067417215705983e-05
3.95500e-07;-6.193034068808827e-05
3.95750e-07;-6.161952300031773e-05
3.96000e-07;-5.9761648618023473e-05
3.96250e-07;-5.633724228449882e-05
3.96500e-07;-5.1245488947087145e-05
3.96750e-07;-4.438355378174057e-05
3.97000e-07;-3.5747665499544966e-05
3.97250e-07;-2.5409373542903342e-05
3.97500e-07;-1.3456484548402097e-05
3.97750e-07;2.319168699456974e-08
3.98000e-07;1.4941903976193318e-05
3.98250e-07;3.1236588428582536e-05
3.98500e-07;4.889512730625347e-05
3.98750e-07;6.790667101439178e-05
3.99000e-07;8.819831779234475e-05
3.99250e-07;0.00010964999100910341
3.99500e-07;0.0001321314241803247
3.99750e-07;0.00015576356856829667
4.00000e-07;0.00017977587306152278
4.00250e-07;0.0002048263449542375
4.00500e-07;0.00023034481147870685
4.00750e-07;0.0002558632780031762
4.01000e-07;0.0002820105702261552
4.01250e-07;0.00030844133027075975
4.01500e-07;0.0003348720903153643
4.01750e-07;0.00036130285035996325
4.02000e-07;0.00038694845008553045
4.02250e-07;0.00041224010803393127
4.02500e-07;0.00043753176598232673
4.02750e-07;0.00046282342393072756
4.03000e-07;0.0004865421483363216
4.03250e-07;0.0005095518113183931
4.03500e-07;0.0005309075106199199
4.03750e-07;0.0005515176209884952
4.04000e-07;0.0005699470141067137
4.04250e-07;0.0005873933634816637
4.04500e-07;0.0006015723281478317
4.04750e-07;0.0006142783911371411
4.05000e-07;0.0006229887259848462
4.05250e-07;0.0006298978298161219
4.05500e-07;0.0006328349573614817
4.05750e-07;0.0006339815609699858
4.06000e-07;0.000631194684754621
4.06250e-07;0.0006266346383909985
4.06500e-07;0.0006189424765440221
4.06750e-07;0.0006076112933603734
4.07000e-07;0.0005930952809543625
4.07250e-07;0.000575518266301023
4.07500e-07;0.0005550295882231687
4.07750e-07;0.0005317786697351675
4.08000e-07;0.0005059147875033656
4.08250e-07;0.00047754915287853705
4.08500e-07;0.0004467157567205321
4.08750e-07;0.00041345090560714125
4.09000e-07;0.0003778911264481114
4.09250e-07;0.0003402476154697678
4.09500e-07;0.0003007475571726641
4.09750e-07;0.00025961815611801785
4.10000e-07;0.00021708654566745714
4.10250e-07;0.0001733559507902237
4.10500e-07;0.00012858127147709597
4.10750e-07;8.291884501224694e-05
4.11000e-07;3.6587727123693376e-05
4.11250e-07;-1.0160470012828358e-05
4.11500e-07;-5.70136207195666e-05
4.11750e-07;-0.00010354348226352021
4.12000e-07;-0.00014992761382851176
4.12250e-07;-0.00019560906710456286
4.12500e-07;-0.00024029539838388582
4.12750e-07;-0.00028383449574412214
4.13000e-07;-0.0003259557411887179
4.13250e-07;-0.0003663591827010127
4.13500e-07;-0.00040473866097654593
4.13750e-07;-0.00044078802180518825
4.14000e-07;-0.0004742018953181074
4.14250e-07;-0.0005044974052737494
4.14500e-07;-0.0005337696159415843
4.14750e-07;-0.0005621116626156645
4.15000e-07;-0.000590034401424803
4.15250e-07;-0.0006169238408949601
4.15500e-07;-0.0006433474802023795
4.15750e-07;-0.0006697711195097934
4.16000e-07;-0.0006938199316660573
4.16250e-07;-0.000716798197435837
4.16500e-07;-0.0007397764632056118
4.16750e-07;-0.0007627547289753915
4.17000e-07;-0.0007857329947451711
4.17250e-07;-0.000808711260514946
4.17500e-07;-0.0008316895262847257
4.17750e-07;-0.0008544060136594045
4.18000e-07;-0.0008760012576448541
4.18250e-07;-0.0008975965016303083
4.18500e-07;-0.0009191917456157626
4.18750e-07;-0.0009407869896012123
4.19000e-07;-0.0009623822335866665
4.19250e-07;-0.0009839774775721208
4.19500e-07;-0.0010055727215575704
4.19750e-07;-0.0010261436079217947
4.20000e-07;-0.001046252724952888
4.20250e-07;-0.0010663618419839854
4.20500e-07;-0.0010864709590150826
4.20750e-07;-0.0011065800760461759
4.21000e-07;-0.0011266891930772733
4.21250e-07;-0.0011467983101083707
4.21500e-07;-0.0011669074271394638
4.21750e-07;-0.0011845882980795611
4.22000e-07;-0.0012011745419530232
4.22250e-07;-0.0012177607858264818
4.22500e-07;-0.001234347029699944
4.22750e-07;-0.001250933273573406
4.23000e-07;-0.0012675195174468646
4.23250e-07;-0.0012841057613203267
4.23500e-07;-0.0013006920051937853
4.23750e-07;-0.001314213397073885
4.24000e-07;-0.0013263531868339977
4.24250e-07;-0.0013384929765941078
4.24500e-07;-0.00134611453750889
4.24750e-07;-0.0013516993297428945
4.25000e-07;-0.0013572841219768976
4.25250e-07;-0.001356671685945253
4.25500e-07;-0.00135326560645924
4.25750e-07;-0.0013498595269732282
4.26000e-07;-0.0013404792940824191
4.26250e-07;-0.0013284059774710687
4.26500e-07;-0.0013163326608597208
4.26750e-07;-0.0012984961490483166
4.27000e-07;-0.0012780616511927129
4.27250e-07;-0.0012531356854508092
4.27500e-07;-0.0012261850145789256
4.27750e-07;-0.0011944103498411145
4.28000e-07;-0.0011604610808593002
4.28250e-07;-0.0011265118118774858
4.28500e-07;-0.0010871861177781145
4.28750e-07;-0.0010454367894032518
4.29000e-07;-0.0010036874610283891
4.29250e-07;-0.0009574443243535271
4.29500e-07;-0.0009091754275154979
4.29750e-07;-0.0008609065306774686
4.30000e-07;-0.0008097725929946867
4.30250e-07;-0.0007573471258959341
4.30500e-07;-0.0007049216587971815
4.30750e-07;-0.000650765726103053
4.31000e-07;-0.0005958297182404085
4.31250e-07;-0.000540893710377764
4.31500e-07;-0.0004860896108882776
4.31750e-07;-0.0004318504984036096
4.32000e-07;-0.0003776113859189532
4.32250e-07;-0.0003233722734342852
4.32500e-07;-0.0002706813388858203
4.32750e-07;-0.00021968022702589346
4.33000e-07;-0.00017034019481105818
4.33250e-07;-0.00012300798390450736
4.33500e-07;-7.804139757786642e-05
4.33750e-07;-3.579819141901711e-05
4.34000e-07;3.3643058587549935e-06
4.34250e-07;3.9267039471606595e-05
4.34500e-07;7.216046614939124e-05
4.34750e-07;0.00010248157914631342
4.35000e-07;0.00013040156241515895
4.35250e-07;0.00015582934859905984
4.35500e-07;0.00017861235182369429
4.35750e-07;0.00019859803537928059
4.36000e-07;0.0002156341514616055
4.36250e-07;0.00022968013183998366
4.36500e-07;0.00024096443894583745
4.36750e-07;0.00024983237679206957
4.37000e-07;0.0002564626908549741
4.37250e-07;0.00026086990979646657
4.37500e-07;0.00026302997181749406
4.37750e-07;0.0002629188591891938
4.38000e-07;0.0002605127909621589
4.38250e-07;0.00025585786775516944
4.38500e-07;0.00024916876608519926
4.38750e-07;0.00024073331666117322
4.39000e-07;0.00023073499290908846
4.39250e-07;0.00021925435779217574
4.39500e-07;0.0002063478591768041
4.39750e-07;0.00019207195849406495
4.40000e-07;0.000176483217478483
4.40250e-07;0.0001596820255338793
4.40500e-07;0.0001418743283476912
4.40750e-07;0.000123311864665867
4.41000e-07;0.00010418101936285096
4.41250e-07;8.449804492679653e-05
4.41500e-07;6.463902256778202e-05
4.41750e-07;4.4504673522230575e-05
4.42000e-07;2.4246210185148716e-05
4.42250e-07;3.992805903050974e-06
4.42500e-07;-1.6066430254208677e-05
4.42750e-07;-3.56879983410253e-05
4.43000e-07;-5.4683790760469466e-05
4.43250e-07;-7.290610589948338e-05
4.43500e-07;-9.021671349132645e-05
4.43750e-07;-0.0001064774052007301
4.44000e-07;-0.0001215497619515819
