Time(s);Current(A)
1.05000e-05;-0.0023956868176924027
1.05002e-05;-0.00241269043959833
1.05005e-05;-0.002429694061504372
1.05008e-05;-0.002446697683410414
1.05010e-05;-0.002473569929060274
1.05013e-05;-0.0025014274636476577
1.05015e-05;-0.0025292849982350408
1.05017e-05;-0.002557142532822235
1.05020e-05;-0.0025850000674096187
1.05023e-05;-0.0026180938331430087
1.05025e-05;-0.002651710387134814
1.05028e-05;-0.00268735095611733
1.05030e-05;-0.0027231936038933377
1.05033e-05;-0.002760489537194883
1.05035e-05;-0.0027979305673393206
1.05038e-05;-0.0028360854327049993
1.05040e-05;-0.0028743115677800917
1.05043e-05;-0.0029124263513346884
1.05045e-05;-0.002950530017491219
1.05048e-05;-0.0029877116464873147
1.05050e-05;-0.003024801218775159
1.05053e-05;-0.0030602010423284288
1.05055e-05;-0.0030954321604188795
1.05058e-05;-0.0031281003941370017
1.05060e-05;-0.003160512748040057
1.05063e-05;-0.0031883859397817647
1.05065e-05;-0.003215805939023408
1.05068e-05;-0.003243225938265237
1.05070e-05;-0.003261197798468983
1.05073e-05;-0.0032782263511638658
1.05075e-05;-0.0032952549038588637
1.05078e-05;-0.0033122834565538616
1.05080e-05;-0.0033293120092487446
1.05083e-05;-0.0033463405619437426
1.05085e-05;-0.0033576354531512217
1.05087e-05;-0.00336065290247286
1.05090e-05;-0.003363670351794518
1.05093e-05;-0.003366687801116176
1.05095e-05;-0.003369705250437814
1.05098e-05;-0.0033727226997594725
1.05100e-05;-0.0033757401490811306
1.05102e-05;-0.0033677021739377654
1.05105e-05;-0.0033585604190056275
1.05108e-05;-0.0033494186640734896
1.05110e-05;-0.0033402769091414137
1.05113e-05;-0.0033311351542092754
1.05115e-05;-0.0033219933992771375
1.05118e-05;-0.0033094275599631134
1.05120e-05;-0.003291918516459966
1.05123e-05;-0.0032744094729566997
1.05125e-05;-0.003256900429453434
1.05128e-05;-0.0032393913859502864
1.05130e-05;-0.00322188234244702
1.05133e-05;-0.0032043732989437542
1.05135e-05;-0.003183983956270313
1.05138e-05;-0.0031633070429095585
1.05140e-05;-0.0031426301295488035
1.05143e-05;-0.0031215953106681635
1.05145e-05;-0.003100524758299205
1.05148e-05;-0.003079454205930246
1.05150e-05;-0.003059142791492109
1.05153e-05;-0.003038907169811293
1.05155e-05;-0.0030186715481304773
1.05158e-05;-0.003000052075922397
1.05160e-05;-0.002981593960985449
1.05163e-05;-0.002965023000282463
1.05165e-05;-0.0029486404541184787
1.05168e-05;-0.002935413679191264
1.05170e-05;-0.002922501978237224
1.05172e-05;-0.0029095902772832715
1.05175e-05;-0.0029013275375811263
1.05178e-05;-0.002893528952782154
1.05180e-05;-0.0028857303679832354
1.05183e-05;-0.002882792862731294
1.05185e-05;-0.0028803406903923205
1.05187e-05;-0.0028778885180533635
1.05190e-05;-0.002883289217081831
1.05193e-05;-0.0028894739511993637
1.05195e-05;-0.0028956586853168547
1.05198e-05;-0.0029018434194343873
1.05200e-05;-0.0029080281535519203
1.05203e-05;-0.002914212887669453
1.05205e-05;-0.0029245412429248466
1.05208e-05;-0.0029408515668143025
1.05210e-05;-0.0029571618907037584
1.05213e-05;-0.002973472214593104
1.05215e-05;-0.00298978253848256
1.05218e-05;-0.003006092862372016
1.05220e-05;-0.0030224031862613613
1.05223e-05;-0.00304353211501487
1.05225e-05;-0.003065142135985175
1.05228e-05;-0.003086752156955333
1.05230e-05;-0.003110142955469583
1.05233e-05;-0.0031337115478143043
1.05235e-05;-0.0031572801401588656
1.05238e-05;-0.003181584090039857
1.05240e-05;-0.003205961458430417
1.05243e-05;-0.003230338826820812
1.05245e-05;-0.0032544505181051407
1.05248e-05;-0.0032785356840379152
1.05250e-05;-0.003301802860856208
1.05253e-05;-0.003324988369181904
1.05255e-05;-0.0033468118324865006
1.05257e-05;-0.0033684993084507806
1.05260e-05;-0.003388230088404961
1.05263e-05;-0.0034077655107300955
1.05265e-05;-0.0034247116926676533
1.05268e-05;-0.003441399363390257
1.05270e-05;-0.003454092033706381
1.05272e-05;-0.0034663858409371877
1.05275e-05;-0.0034718274721890086
1.05278e-05;-0.003476584978341024
1.05280e-05;-0.0034813424844930075
1.05283e-05;-0.0034779536178619437
1.05285e-05;-0.0034737514127950544
1.05288e-05;-0.0034695492077281656
1.05290e-05;-0.0034567340543068233
1.05293e-05;-0.003443058979282426
1.05295e-05;-0.003429383904258029
1.05298e-05;-0.0034049643248772322
1.05300e-05;-0.0033794720081444284
1.05303e-05;-0.003353979691411624
1.05305e-05;-0.003328487374678993
1.05308e-05;-0.0032981107300690525
1.05310e-05;-0.003260682790180549
1.05313e-05;-0.0032232548502922984
1.05315e-05;-0.003185826910403795
1.05318e-05;-0.003148398970515291
1.05320e-05;-0.003103865585215454
1.05323e-05;-0.0030586227882529946
1.05325e-05;-0.0030133799912905345
1.05328e-05;-0.002965078802748269
1.05330e-05;-0.002916472262671834
1.05333e-05;-0.002866498914438991
1.05335e-05;-0.002815720994190857
1.05338e-05;-0.0027644766895709967
1.05340e-05;-0.00271306546373401
1.05342e-05;-0.002661787202549271
1.05345e-05;-0.0026109426386647285
1.05348e-05;-0.0025608211577474427
1.05350e-05;-0.0025116714171872904
1.05353e-05;-0.0024637216097874604
1.05355e-05;-0.0024172499333214724
1.05357e-05;-0.0023725808114945916
1.05360e-05;-0.002330045520378166
1.05363e-05;-0.0022899753991141676
1.05365e-05;-0.002252701765708766
1.05368e-05;-0.0022184814215606766
1.05370e-05;-0.0021872137966109876
1.05373e-05;-0.0021584985530985067
1.05375e-05;-0.002132147492611917
1.05378e-05;-0.0021082456133149235
1.05380e-05;-0.0020869233456773423
1.05383e-05;-0.0020683121118610106
1.05385e-05;-0.002053878705659027
1.05388e-05;-0.0020398377372781587
1.05390e-05;-0.0020307601676479853
1.05393e-05;-0.0020221781465382255
1.05395e-05;-0.002018795599280992
1.05398e-05;-0.0020159321704151284
1.05400e-05;-0.002013068741549246
1.05403e-05;-0.0020182300173471686
1.05405e-05;-0.002024192484168211
1.05408e-05;-0.0020301549509892935
1.05410e-05;-0.0020361174178103758
1.05413e-05;-0.002042079884631418
1.05415e-05;-0.002055797624953715
1.05418e-05;-0.0020702896561405537
1.05420e-05;-0.002084781687327294
1.05423e-05;-0.0020992737185141328
1.05425e-05;-0.0021137657497009715
1.05427e-05;-0.0021326579723991014
1.05430e-05;-0.0021519895126906096
1.05433e-05;-0.0021713210529821173
1.05435e-05;-0.0021921379858592742
1.05438e-05;-0.002213103221167087
1.05440e-05;-0.002234652734413629
1.05442e-05;-0.00225626058229778
1.05445e-05;-0.002278010265768652
1.05448e-05;-0.0022997741101841974
1.05450e-05;-0.0023210744486043674
1.05453e-05;-0.0023423285103256327
1.05455e-05;-0.0023623711479511264
1.05458e-05;-0.0023822928363140825
1.05460e-05;-0.0024004296190825963
1.05463e-05;-0.0024183881958735848
1.05465e-05;-0.0024340106135367816
1.05468e-05;-0.0024493997877596237
1.05470e-05;-0.0024610440085423057
1.05473e-05;-0.0024723143310688
1.05475e-05;-0.0024835846535952184
1.05478e-05;-0.002489832161667955
1.05480e-05;-0.002495578189122702
1.05483e-05;-0.0025013242165774097
1.05485e-05;-0.002501876027270027
1.05488e-05;-0.0025019092444418553
1.05490e-05;-0.002501942461613683
1.05493e-05;-0.0024950121724566197
1.05495e-05;-0.002487386642914044
1.05498e-05;-0.00247976111337152
1.05500e-05;-0.0024721355838289443
1.05503e-05;-0.0024645100542863684
1.05505e-05;-0.0024492591048980404
1.05508e-05;-0.0024332468293065475
1.05510e-05;-0.002417234553715055
1.05512e-05;-0.002401222278123671
1.05515e-05;-0.002385210002532178
1.05518e-05;-0.002364338877247662
1.05520e-05;-0.002342982641679085
1.05523e-05;-0.0023216264061103626
1.05525e-05;-0.0022980850204464007
1.05527e-05;-0.002274325468168937
1.05530e-05;-0.002249306542899548
1.05533e-05;-0.0022241618811228267
1.05535e-05;-0.002198357895563654
1.05538e-05;-0.0021722264278442953
1.05540e-05;-0.002145943724663313
1.05543e-05;-0.002119659750090958
1.05545e-05;-0.002093524658756826
1.05548e-05;-0.00206768756795119
1.05550e-05;-0.002042295160642209
1.05553e-05;-0.00201749790950811
1.05555e-05;-0.0019934576969407166
1.05558e-05;-0.0019703438552379176
1.05560e-05;-0.001948327091701898
1.05563e-05;-0.0019289280248907363
1.05565e-05;-0.0019097802267821786
1.05568e-05;-0.0018906324286737503
1.05570e-05;-0.0018747652665128541
1.05573e-05;-0.0018592256448890002
1.05575e-05;-0.0018436860232652517
1.05578e-05;-0.0018321309019797105
1.05580e-05;-0.0018209735954476454
1.05583e-05;-0.001809816288915656
1.05585e-05;-0.001798658982383591
1.05588e-05;-0.001787501675851526
1.05590e-05;-0.0017763443693195363
1.05593e-05;-0.0017651870627874713
1.05595e-05;-0.0017562224888298232
1.05597e-05;-0.0017504234691206328
1.05600e-05;-0.0017446244494114034
1.05603e-05;-0.001738825429702174
1.05605e-05;-0.0017330264099929837
1.05608e-05;-0.0017272273902837543
1.05610e-05;-0.001721428370574525
1.05612e-05;-0.0017156293508653346
1.05615e-05;-0.001713024696137332
1.05618e-05;-0.0017107389686047477
1.05620e-05;-0.001708453241072179
1.05623e-05;-0.0017061675135395945
1.05625e-05;-0.00170388178600701
1.05628e-05;-0.0017015960584744257
1.05630e-05;-0.001699310330941857
1.05633e-05;-0.0016970246034092725
1.05635e-05;-0.0016965698912673342
1.05638e-05;-0.0016962979887312937
1.05640e-05;-0.0016960260861952515
1.05643e-05;-0.0016957541836592092
1.05645e-05;-0.0016954822811231687
1.05648e-05;-0.0016952103785871264
1.05650e-05;-0.0016949384760510842
1.05653e-05;-0.0016946665735150439
1.05655e-05;-0.0016947648503930963
1.05658e-05;-0.0016949000861919523
1.05660e-05;-0.0016950353219908074
1.05663e-05;-0.001695126348836939
1.05665e-05;-0.0016951852298037837
1.05668e-05;-0.001695260500377834
1.05670e-05;-0.0016956204022822363
1.05673e-05;-0.0016966738880525786
1.05675e-05;-0.0016990114725438518
1.05678e-05;-0.0017014706298021322
1.05680e-05;-0.001705411545550078
1.05682e-05;-0.0017095004008985777
1.05685e-05;-0.0017148936144061237
1.05688e-05;-0.0017204170557655245
1.05690e-05;-0.001727958196549791
1.05693e-05;-0.001735700785578964
1.05695e-05;-0.0017434433746081372
1.05697e-05;-0.0017548141673366913
1.05700e-05;-0.0017665472019623408
1.05703e-05;-0.0017782802365879902
1.05705e-05;-0.00179001327121356
1.05708e-05;-0.0018017463058392095
1.05710e-05;-0.0018151624456450833
1.05713e-05;-0.0018310084124244562
1.05715e-05;-0.0018468543792037216
1.05718e-05;-0.0018627003459830945
1.05720e-05;-0.0018785463127624674
1.05723e-05;-0.001894392279541733
1.05725e-05;-0.0019124724230316036
1.05728e-05;-0.0019307756279803069
1.05730e-05;-0.0019490788329288864
1.05733e-05;-0.0019673820378775897
1.05735e-05;-0.0019856852428262934
1.05738e-05;-0.0020039884477748727
1.05740e-05;-0.0020221210619123958
1.05743e-05;-0.0020402366441674216
1.05745e-05;-0.0020583522264223243
1.05748e-05;-0.00207646780867735
1.05750e-05;-0.002094583390932376
1.05753e-05;-0.0021126989731872787
1.05755e-05;-0.0021287906463003
1.05758e-05;-0.002144680251186673
1.05760e-05;-0.002160569856072938
1.05763e-05;-0.002171800714700332
1.05765e-05;-0.0021825664414818857
1.05767e-05;-0.0021933321682633664
1.05770e-05;-0.00220409789504492
1.05773e-05;-0.0022148636218264736
1.05775e-05;-0.0022256293486079544
1.05778e-05;-0.002236395075389508
1.05780e-05;-0.002247160802171062
1.05782e-05;-0.0022579265289525427
1.05785e-05;-0.002263538519743361
1.05788e-05;-0.0022686359586350895
1.05790e-05;-0.0022737333975267836
1.05793e-05;-0.0022788308364185125
1.05795e-05;-0.0022839282753102414
1.05798e-05;-0.00228902571420197
1.05800e-05;-0.002294123153093664
1.05803e-05;-0.002299220591985393
1.05805e-05;-0.0023043180308771217
1.05808e-05;-0.0023056399126094996
1.05810e-05;-0.0023065848405921627
1.05813e-05;-0.0023075297685748257
1.05815e-05;-0.0023084746965574827
1.05818e-05;-0.0023094196245401458
1.05820e-05;-0.002310364552522809
1.05823e-05;-0.0023113094805054654
1.05825e-05;-0.002312254408488129
1.05828e-05;-0.002313199336470792
1.05830e-05;-0.0023141442644534485
1.05833e-05;-0.002315089192436112
1.05835e-05;-0.0023152399858036854
1.05838e-05;-0.002314244320986856
1.05840e-05;-0.0023132486561700197
1.05843e-05;-0.0023122529913531835
1.05845e-05;-0.002311257326536354
1.05848e-05;-0.002310261661719518
1.05850e-05;-0.0023092659969026815
1.05853e-05;-0.002308270332085852
1.05855e-05;-0.002307274667269016
1.05858e-05;-0.0023062790024521796
1.05860e-05;-0.0023052833376353502
1.05863e-05;-0.002304287672818514
1.05865e-05;-0.0023041019149238826
1.05867e-05;-0.0023039970185917947
1.05870e-05;-0.0023038921222597064
1.05873e-05;-0.0023037872259276176
1.05875e-05;-0.00230368232959553
1.05878e-05;-0.002303577433263442
1.05880e-05;-0.002303472536931353
1.05883e-05;-0.0023033676405992648
1.05885e-05;-0.0023032627442671773
1.05888e-05;-0.002304306889623111
1.05890e-05;-0.002307009857328026
1.05893e-05;-0.0023097128250329224
1.05895e-05;-0.0023124157927378376
1.05898e-05;-0.0023151187604427523
1.05900e-05;-0.002317821728147649
1.05903e-05;-0.0023205246958525635
1.05905e-05;-0.0023232276635574783
1.05908e-05;-0.002325930631262375
1.05910e-05;-0.00232863359896729
1.05913e-05;-0.002333478005482863
1.05915e-05;-0.002338536214453476
1.05918e-05;-0.002343594423424123
1.05920e-05;-0.00234865263239477
1.05923e-05;-0.002353710841365383
1.05925e-05;-0.0023587690503360298
1.05928e-05;-0.002363827259306677
1.05930e-05;-0.00236888546827729
1.05933e-05;-0.002373943677247937
1.05935e-05;-0.002379135046958508
1.05938e-05;-0.0023845186551349914
1.05940e-05;-0.0023899022633115112
1.05943e-05;-0.0023952858714880315
1.05945e-05;-0.002400669479664515
1.05948e-05;-0.002406053087841035
1.05950e-05;-0.0024114366960175547
1.05952e-05;-0.0024168203041940385
1.05955e-05;-0.0024222039123705584
1.05958e-05;-0.0024275875205470782
1.05960e-05;-0.0024319869352248994
1.05963e-05;-0.0024362880874703417
1.05965e-05;-0.0024405892397157845
1.05968e-05;-0.002443135054971166
1.05970e-05;-0.002445518509398588
1.05973e-05;-0.002447901963826026
1.05975e-05;-0.0024481115000533197
1.05978e-05;-0.00244813571420174
1.05980e-05;-0.0024481599283501607
1.05983e-05;-0.002448184142498581
1.05985e-05;-0.0024482083566470013
1.05988e-05;-0.0024482325707954216
1.05990e-05;-0.002448256784943842
1.05993e-05;-0.002448280999092262
1.05995e-05;-0.0024464219195298245
1.05998e-05;-0.0024416481561315376
1.06000e-05;-0.0024368743927332837
1.06003e-05;-0.002432100629334997
1.06005e-05;-0.0024273268659367104
1.06008e-05;-0.002422553102538456
1.06010e-05;-0.0024177793391401696
1.06013e-05;-0.002413005575741883
1.06015e-05;-0.002408231812343629
1.06018e-05;-0.0024007368526843312
1.06020e-05;-0.0023928120542739454
1.06023e-05;-0.0023848872558636133
1.06025e-05;-0.0023769624574532275
1.06028e-05;-0.0023690376590428416
1.06030e-05;-0.002361112860632509
1.06033e-05;-0.0023531880622221233
1.06035e-05;-0.0023452632638117374
1.06037e-05;-0.002336857355715465
1.06040e-05;-0.002328375451782476
1.06043e-05;-0.0023198935478494875
1.06045e-05;-0.002311411643916556
1.06048e-05;-0.0023029297399835675
1.06050e-05;-0.002294447836050579
1.06053e-05;-0.00228596593211759
1.06055e-05;-0.0022774840281846592
1.06058e-05;-0.002269862401251468
1.06060e-05;-0.0022623766632273523
1.06063e-05;-0.0022556133688775306
1.06065e-05;-0.0022489641913560634
1.06068e-05;-0.002243417378834328
1.06070e-05;-0.0022380446953167293
1.06073e-05;-0.002234860254077607
1.06075e-05;-0.0022320214664548472
1.06078e-05;-0.002232306264156916
1.06080e-05;-0.0022330844617782252
1.06083e-05;-0.0022338626593995346
1.06085e-05;-0.002238233504601367
1.06088e-05;-0.0022431718425532767
1.06090e-05;-0.002248110180505186
1.06093e-05;-0.002259101388688139
1.06095e-05;-0.0022710487051161646
1.06098e-05;-0.0022829960215441903
1.06100e-05;-0.002294943337972135
1.06103e-05;-0.00230689065440016
1.06105e-05;-0.002318837970828186
1.06108e-05;-0.0023376218939287793
1.06110e-05;-0.0023574857238767874
1.06113e-05;-0.0023773495538247954
1.06115e-05;-0.002397213383772669
1.06118e-05;-0.002417077213720677
1.06120e-05;-0.002436941043668685
1.06122e-05;-0.0024604816688946186
1.06125e-05;-0.002484603078797589
1.06128e-05;-0.0025087244887005587
1.06130e-05;-0.00253417577404485
1.06133e-05;-0.002559837125824947
1.06135e-05;-0.0025854984776050435
1.06138e-05;-0.002611670613617554
1.06140e-05;-0.002637923432842568
1.06143e-05;-0.002663961610091078
1.06145e-05;-0.0026899658826041698
1.06148e-05;-0.0027152351445824206
1.06150e-05;-0.0027403883046776354
1.06153e-05;-0.002764394864424355
1.06155e-05;-0.002788220307773972
1.06158e-05;-0.002809803454589553
1.06160e-05;-0.0028310324094064114
1.06163e-05;-0.002852261364223125
1.06165e-05;-0.0028699852708550366
1.06168e-05;-0.00288715552189172
1.06170e-05;-0.002904325772928288
1.06173e-05;-0.00292011340122123
1.06175e-05;-0.0029356826311419354
1.06178e-05;-0.002951251861062535
1.06180e-05;-0.0029657963500843527
1.06183e-05;-0.002980178971564712
1.06185e-05;-0.0029945615930449736
1.06188e-05;-0.0030089442145253323
1.06190e-05;-0.003023090537230021
1.06193e-05;-0.003036823250773634
1.06195e-05;-0.0030505559643173408
1.06198e-05;-0.0030642886778610473
1.06200e-05;-0.0030780213914046606
1.06203e-05;-0.003091785192568511
1.06205e-05;-0.0031055539043167335
1.06207e-05;-0.003119322616064863
1.06210e-05;-0.0031330913278130854
1.06213e-05;-0.003146860039561308
1.06215e-05;-0.003160628751309437
1.06218e-05;-0.0031744274559646255
1.06220e-05;-0.0031882308982838594
1.06222e-05;-0.003202034340603
1.06225e-05;-0.0032158377829222345
1.06228e-05;-0.003229641225241469
1.06230e-05;-0.0032434446675607027
1.06233e-05;-0.0032566079449856352
1.06235e-05;-0.0032696701022956074
1.06238e-05;-0.00328273225960558
1.06240e-05;-0.003295794416915464
1.06243e-05;-0.003308856574225436
1.06245e-05;-0.0033219187315354083
1.06248e-05;-0.0033341289004579114
1.06250e-05;-0.0033448477785299534
1.06253e-05;-0.003355566656601995
1.06255e-05;-0.003366285534673964
1.06258e-05;-0.0033770044127460056
1.06260e-05;-0.0033877232908180476
1.06263e-05;-0.0033984421688900168
1.06265e-05;-0.0034065147883763965
1.06268e-05;-0.003414169406227376
1.06270e-05;-0.003421824024078303
1.06273e-05;-0.003424694555442941
1.06275e-05;-0.003426809394984361
1.06278e-05;-0.003428924234525767
1.06280e-05;-0.003431039074067187
1.06283e-05;-0.003433153913608607
1.06285e-05;-0.0034352687531500133
1.06288e-05;-0.0034303036245781435
1.06290e-05;-0.003424220147910534
1.06292e-05;-0.0034181366712429653
1.06295e-05;-0.003412053194575356
1.06298e-05;-0.003405969717907746
1.06300e-05;-0.0033998862412401775
1.06303e-05;-0.003386741376263328
1.06305e-05;-0.0033724810980468984
1.06307e-05;-0.003358220819830565
1.06310e-05;-0.0033439605416141346
1.06313e-05;-0.0033297002633977044
1.06315e-05;-0.0033154399851812746
1.06318e-05;-0.003301179706964941
1.06320e-05;-0.003281898113448431
1.06323e-05;-0.0032618233555680325
1.06325e-05;-0.0032417485976877704
1.06328e-05;-0.003221673839807372
1.06330e-05;-0.0032015990819269737
1.06333e-05;-0.0031815243240467116
1.06335e-05;-0.0031614495661663137
1.06338e-05;-0.0031399923387383823
1.06340e-05;-0.0031183167371369286
1.06343e-05;-0.003096641135535328
1.06345e-05;-0.003075423034677698
1.06348e-05;-0.003054277200400768
1.06350e-05;-0.0030331313661236944
1.06353e-05;-0.0030133290800320243
1.06355e-05;-0.002993739020115979
1.06358e-05;-0.0029741489601998
1.06360e-05;-0.002960046590206526
1.06363e-05;-0.0029468110528713303
1.06365e-05;-0.0029335755155360447
1.06368e-05;-0.002920339978200759
1.06370e-05;-0.0029071044408655634
1.06373e-05;-0.0028938689035302775
1.06375e-05;-0.002880633366194992
1.06377e-05;-0.002867397828859796
1.06380e-05;-0.0028541622915245106
1.06383e-05;-0.002840926754189225
1.06385e-05;-0.002835332853254791
1.06388e-05;-0.0028309460212485155
1.06390e-05;-0.0028265591892422397
1.06392e-05;-0.002822172357235994
1.06395e-05;-0.0028177855252297184
1.06398e-05;-0.0028133986932234426
1.06400e-05;-0.0028090118612171667
1.06403e-05;-0.002804625029210921
1.06405e-05;-0.0028002381972046454
1.06408e-05;-0.0027958513651983696
1.06410e-05;-0.0027969130541148
1.06413e-05;-0.0027988353885744976
1.06415e-05;-0.002800757723034195
1.06418e-05;-0.002802680057493879
1.06420e-05;-0.0028046023919535766
1.06423e-05;-0.002806524726413274
1.06425e-05;-0.002808447060872958
1.06428e-05;-0.0028103693953326556
1.06430e-05;-0.002812291729792353
1.06433e-05;-0.002814214064252037
1.06435e-05;-0.0028161363987117345
1.06438e-05;-0.002819807436937927
1.06440e-05;-0.0028237546995054552
1.06443e-05;-0.0028277019620730104
1.06445e-05;-0.0028316492246405656
