Time(s);Current(A)
5.30000e-06;-0.010194848574730573
5.30025e-06;-0.010170314810626463
5.30050e-06;-0.010149227494451163
5.30075e-06;-0.01012814017827586
5.30100e-06;-0.010108293746940611
5.30125e-06;-0.010092712720267294
5.30150e-06;-0.010077131693593977
5.30175e-06;-0.010062854446019716
5.30200e-06;-0.01005305879517991
5.30225e-06;-0.010043263144340104
5.30250e-06;-0.010035537143530402
5.30275e-06;-0.010034925336239078
5.30300e-06;-0.010034313528947751
5.30325e-06;-0.010033701721656426
5.30350e-06;-0.010033089914365103
5.30375e-06;-0.010032478107073776
5.30400e-06;-0.010031866299782451
5.30425e-06;-0.0100389472532037
5.30450e-06;-0.01004894091755094
5.30475e-06;-0.010058934581898146
5.30500e-06;-0.010068928246245352
5.30525e-06;-0.010078921910592592
5.30550e-06;-0.010088915574939798
5.30575e-06;-0.010100551692696408
5.30600e-06;-0.010117833562743723
5.30625e-06;-0.010135115432790978
5.30650e-06;-0.010152397302838234
5.30675e-06;-0.010169679172885547
5.30700e-06;-0.010186961042932803
5.30725e-06;-0.010204242912980116
5.30750e-06;-0.010221524783027371
5.30775e-06;-0.010239851221179042
5.30800e-06;-0.010258573164279394
5.30825e-06;-0.010277295107379682
5.30850e-06;-0.010296017050479972
5.30875e-06;-0.010314738993580324
5.30900e-06;-0.010333460936680614
5.30925e-06;-0.010352182879780902
5.30950e-06;-0.010370159564390516
5.30975e-06;-0.010385574505204692
5.31000e-06;-0.010400989446018869
5.31025e-06;-0.010415541707069521
5.31050e-06;-0.010427128601661171
5.31075e-06;-0.010438715496252821
5.31100e-06;-0.0104484869724952
5.31125e-06;-0.010452018148559897
5.31150e-06;-0.010455549324624605
5.31175e-06;-0.0104590805006893
5.31200e-06;-0.010462611676753997
5.31225e-06;-0.010466142852818704
5.31250e-06;-0.0104696740288834
5.31275e-06;-0.010470588981673405
5.31300e-06;-0.010462510955753327
5.31325e-06;-0.010454432929833276
5.31350e-06;-0.010446354903913227
5.31375e-06;-0.010438276877993148
5.31400e-06;-0.010430198852073098
5.31425e-06;-0.010422120826153047
5.31450e-06;-0.010411936829303975
5.31475e-06;-0.01039451378985846
5.31500e-06;-0.010377090750412944
5.31525e-06;-0.01035966771096737
5.31550e-06;-0.010342244671521856
5.31575e-06;-0.010324821632076282
5.31600e-06;-0.010307398592630766
5.31625e-06;-0.010286161027233058
5.31650e-06;-0.010263479167409613
5.31675e-06;-0.010240797307586244
5.31700e-06;-0.010218115447762877
5.31725e-06;-0.010195433587939432
5.31750e-06;-0.010172751728116065
5.31775e-06;-0.010149836437867623
5.31800e-06;-0.010126118756300668
5.31825e-06;-0.010102401074733794
5.31850e-06;-0.010078891594851846
5.31875e-06;-0.010056097785278913
5.31900e-06;-0.010033303975706058
5.31925e-06;-0.010010888406190181
5.31950e-06;-0.00998977299511714
5.31975e-06;-0.009969251581492398
5.32000e-06;-0.009950771968525956
5.32025e-06;-0.009932292355559579
5.32050e-06;-0.009914745662441526
5.32075e-06;-0.009900405778319264
5.32100e-06;-0.009886065894197053
5.32125e-06;-0.009872752956490571
5.32150e-06;-0.00986297003372592
5.32175e-06;-0.0098531871109613
5.32200e-06;-0.009845213340107437
5.32225e-06;-0.009843458329238608
5.32250e-06;-0.009841703318369787
5.32275e-06;-0.009839948307500965
5.32300e-06;-0.009838193296632138
5.32325e-06;-0.009836438285763315
5.32350e-06;-0.009834683274894493
5.32375e-06;-0.0098352061895459
5.32400e-06;-0.009843559221717627
5.32425e-06;-0.009851912253889381
5.32450e-06;-0.009860265286061107
5.32475e-06;-0.009868618318232833
5.32500e-06;-0.009876971350404587
5.32525e-06;-0.009885324382576314
5.32550e-06;-0.009895263707303507
5.32575e-06;-0.009910655737582397
5.32600e-06;-0.009926047767861235
5.32625e-06;-0.009941439798140073
5.32650e-06;-0.009956831828418963
5.32675e-06;-0.009972223858697803
5.32700e-06;-0.00998761588897664
5.32725e-06;-0.01000300791925553
5.32750e-06;-0.010019731938249569
5.32775e-06;-0.010036960288292868
5.32800e-06;-0.010054188638336228
5.32825e-06;-0.010071416988379529
5.32850e-06;-0.010088645338422887
5.32875e-06;-0.010105873688466188
5.32900e-06;-0.01012310203850949
5.32925e-06;-0.010139378423879904
5.32950e-06;-0.010152382535772938
5.32975e-06;-0.010165386647665973
5.33000e-06;-0.010178390759559052
5.33025e-06;-0.010191394871452085
5.33050e-06;-0.010204398983345119
5.33075e-06;-0.010217403095238197
5.33100e-06;-0.010230407207131233
5.33125e-06;-0.010243411319024266
5.33150e-06;-0.010257737585860143
5.33175e-06;-0.010272564460382749
5.33200e-06;-0.010287391334905353
5.33225e-06;-0.010302218209428008
5.33250e-06;-0.010317045083950612
5.33275e-06;-0.010331871958473267
5.33300e-06;-0.010346698832995873
5.33325e-06;-0.010361525707518478
5.33350e-06;-0.010377981626890227
5.33375e-06;-0.01040003720810227
5.33400e-06;-0.010422092789314314
5.33425e-06;-0.010444148370526433
5.33450e-06;-0.010466203951738477
5.33475e-06;-0.01048825953295052
5.33500e-06;-0.010510315114162639
5.33525e-06;-0.010532370695374682
5.33550e-06;-0.010555465396085156
5.33575e-06;-0.010582131955364213
5.33600e-06;-0.010608798514643178
5.33625e-06;-0.010635465073922143
5.33650e-06;-0.010662131633201198
5.33675e-06;-0.010688798192480163
5.33700e-06;-0.010715464751759218
5.33725e-06;-0.010742131311038183
5.33750e-06;-0.010768726895649996
5.33775e-06;-0.010795078512678401
5.33800e-06;-0.010821430129706718
5.33825e-06;-0.010847781746735032
5.33850e-06;-0.010874133363763437
5.33875e-06;-0.010900484980791754
5.33900e-06;-0.010925635905138918
5.33925e-06;-0.010946659580938359
5.33950e-06;-0.010967683256737729
5.33975e-06;-0.010988706932537099
5.34000e-06;-0.01100973060833654
5.34025e-06;-0.01103075428413591
5.34050e-06;-0.011049912609959545
5.34075e-06;-0.011062659001156635
5.34100e-06;-0.01107540539235368
5.34125e-06;-0.011086116220302238
5.34150e-06;-0.011089830024288946
5.34175e-06;-0.011093543828275656
5.34200e-06;-0.011094097143276421
5.34225e-06;-0.011083786626273281
5.34250e-06;-0.011073476109270142
5.34275e-06;-0.011063165592266968
5.34300e-06;-0.01105285507526383
5.34325e-06;-0.01104254455826069
5.34350e-06;-0.011028089386544218
5.34375e-06;-0.010999387421778431
5.34400e-06;-0.010970685457012644
5.34425e-06;-0.01094198349224676
5.34450e-06;-0.010913281527480972
5.34475e-06;-0.010884579562715185
5.34500e-06;-0.01085282931120189
5.34525e-06;-0.010810600910494645
5.34550e-06;-0.010768372509787258
5.34575e-06;-0.010726144109080012
5.34600e-06;-0.010683915708372769
5.34625e-06;-0.010640060396191744
5.34650e-06;-0.01059061275541511
5.34675e-06;-0.010541165114638476
5.34700e-06;-0.010491717473861675
5.34725e-06;-0.01044226983308504
5.34750e-06;-0.010392374936470853
5.34775e-06;-0.01034094264728754
5.34800e-06;-0.010289629465419189
5.34825e-06;-0.010238725701797144
5.34850e-06;-0.010188069282616301
5.34875e-06;-0.010138499828112903
5.34900e-06;-0.010090038412793942
5.34925e-06;-0.010042951342723443
5.34950e-06;-0.009997547357998243
5.34975e-06;-0.009954439997542648
5.35000e-06;-0.00991407880546525
5.35025e-06;-0.009875001873580319
5.35050e-06;-0.009840339444336875
5.35075e-06;-0.009806929163534204
5.35100e-06;-0.009777823004771034
5.35125e-06;-0.009750177580914853
5.35150e-06;-0.009727553272050578
5.35175e-06;-0.009704928963186301
5.35200e-06;-0.009684243252673252
5.35225e-06;-0.009670221259989842
5.35250e-06;-0.009656199267306431
5.35275e-06;-0.009644861264390193
5.35300e-06;-0.009642749180011394
5.35325e-06;-0.009640637095632594
5.35350e-06;-0.00963852501125379
5.35375e-06;-0.00963641292687499
5.35400e-06;-0.009634300842496184
5.35425e-06;-0.0096351893529673
5.35450e-06;-0.00964639207699692
5.35475e-06;-0.009657594801026579
5.35500e-06;-0.0096687975250562
5.35525e-06;-0.009680000249085819
5.35550e-06;-0.009691202973115478
5.35575e-06;-0.009704530774525986
5.35600e-06;-0.009725163294844017
5.35625e-06;-0.00974579581516212
5.35650e-06;-0.009766428335480151
5.35675e-06;-0.009787060855798183
5.35700e-06;-0.009807693376116283
5.35725e-06;-0.009828325896434315
5.35750e-06;-0.0098496151935254
5.35775e-06;-0.009873162088271646
5.35800e-06;-0.009896708983017814
5.35825e-06;-0.00992025587776406
5.35850e-06;-0.00994380277251023
5.35875e-06;-0.009967349667256396
5.35900e-06;-0.009990896562002643
5.35925e-06;-0.010013777235342834
5.35950e-06;-0.010034367846145007
5.35975e-06;-0.01005495845694725
5.36000e-06;-0.010073695932008386
5.36025e-06;-0.010086063457529836
5.36050e-06;-0.010098430983051326
5.36075e-06;-0.010110798508572777
5.36100e-06;-0.010123166034094225
5.36125e-06;-0.010135533559615715
5.36150e-06;-0.010147901085137166
5.36175e-06;-0.010160268610658614
5.36200e-06;-0.010172636136180106
5.36225e-06;-0.010176020542369092
5.36250e-06;-0.010176003668995386
5.36275e-06;-0.010175986795621681
5.36300e-06;-0.010175969922247978
5.36325e-06;-0.010175953048874272
5.36350e-06;-0.010175936175500567
5.36375e-06;-0.010175919302126862
5.36400e-06;-0.010175902428753159
5.36425e-06;-0.010173856173323236
5.36450e-06;-0.010164834141102077
5.36475e-06;-0.010155812108880889
5.36500e-06;-0.01014679007665973
5.36525e-06;-0.010137768044438573
5.36550e-06;-0.010128746012217383
5.36575e-06;-0.01011854265755685
5.36600e-06;-0.010104278637419362
5.36625e-06;-0.010090014617281824
5.36650e-06;-0.010075750597144335
5.36675e-06;-0.010061486577006798
5.36700e-06;-0.010047222556869309
5.36725e-06;-0.01003295853673182
5.36750e-06;-0.010018694516594283
5.36775e-06;-0.010004196768027742
5.36800e-06;-0.009988895603788097
5.36825e-06;-0.0099735944395484
5.36850e-06;-0.009958293275308755
5.36875e-06;-0.00994299211106911
5.36900e-06;-0.009927690946829413
5.36925e-06;-0.009912389782589768
5.36950e-06;-0.009897088618350123
5.36975e-06;-0.009882293791373972
5.37000e-06;-0.009869239442845587
5.37025e-06;-0.009856583447944645
5.37050e-06;-0.009845296749662842
5.37075e-06;-0.009834966267991541
5.37100e-06;-0.0098279226753597
5.37125e-06;-0.009820879082727883
5.37150e-06;-0.009815222591847307
5.37175e-06;-0.00981433411011112
5.37200e-06;-0.009813445628374938
5.37225e-06;-0.009814803451668765
5.37250e-06;-0.009823882700528126
5.37275e-06;-0.009832961949387455
5.37300e-06;-0.009842041198246786
5.37325e-06;-0.009851120447106147
5.37350e-06;-0.009860199695965476
5.37375e-06;-0.009869278944824806
5.37400e-06;-0.009887843842916912
5.37425e-06;-0.009910000293527812
5.37450e-06;-0.009932156744138712
5.37475e-06;-0.009954313194749688
5.37500e-06;-0.009976469645360588
5.37525e-06;-0.009998626095971562
5.37550e-06;-0.010022880299876327
5.37575e-06;-0.010054345299151874
5.37600e-06;-0.010085810298427528
5.37625e-06;-0.010117275297703078
5.37650e-06;-0.010148740296978626
5.37675e-06;-0.01018020529625428
5.37700e-06;-0.010211670295529827
5.37725e-06;-0.010243631272955772
5.37750e-06;-0.010277297120521334
5.37775e-06;-0.010310962968086779
5.37800e-06;-0.010344628815652226
5.37825e-06;-0.010378294663217786
5.37850e-06;-0.010411960510783233
5.37875e-06;-0.01044562635834868
5.37900e-06;-0.010478464206441631
5.37925e-06;-0.010508455897752832
5.37950e-06;-0.010538447589064134
5.37975e-06;-0.010567551729743857
5.38000e-06;-0.010593605013107438
5.38025e-06;-0.010618670282929687
5.38050e-06;-0.010640339365273265
5.38075e-06;-0.010660478522027853
5.38100e-06;-0.010675358728463822
5.38125e-06;-0.010687902437661287
5.38150e-06;-0.010692414695535299
5.38175e-06;-0.010696926953409326
5.38200e-06;-0.01069868109863628
5.38225e-06;-0.01069095453611641
5.38250e-06;-0.010683227973596516
5.38275e-06;-0.010672535586466043
5.38300e-06;-0.010651648504644283
5.38325e-06;-0.010630761422822451
5.38350e-06;-0.010606326703683451
5.38375e-06;-0.010569697372902542
5.38400e-06;-0.010533068042121757
5.38425e-06;-0.010496438711340973
5.38450e-06;-0.010459809380560063
5.38475e-06;-0.010411637138371493
5.38500e-06;-0.010359094402238572
5.38525e-06;-0.010306551666105473
5.38550e-06;-0.010254008929972554
5.38575e-06;-0.01019941373519035
5.38600e-06;-0.010137763440379609
5.38625e-06;-0.010075261659443101
5.38650e-06;-0.010009832988947353
5.38675e-06;-0.009943904277609588
5.38700e-06;-0.009875991231955003
5.38725e-06;-0.009806980867324995
5.38750e-06;-0.009737241397424183
5.38775e-06;-0.009667174432163432
5.38800e-06;-0.009597181883133278
5.38825e-06;-0.009527664428921303
5.38850e-06;-0.009459015074328394
5.38875e-06;-0.009391585583517631
5.38900e-06;-0.00932569271129056
5.38925e-06;-0.009261696184693628
5.38950e-06;-0.009200020044223108
5.38975e-06;-0.009141108740628234
5.39000e-06;-0.009085857220506192
5.39025e-06;-0.00903490549377138
5.39050e-06;-0.008985625781881007
5.39075e-06;-0.008942093436437043
5.39100e-06;-0.008899622667730823
5.39125e-06;-0.008860800951869264
5.39150e-06;-0.008823031053291602
5.39175e-06;-0.008788876660512613
5.39200e-06;-0.008756326246241055
5.39225e-06;-0.008729289331018252
5.39250e-06;-0.008702252415795357
5.39275e-06;-0.008677345281191485
5.39300e-06;-0.008659759032349267
5.39325e-06;-0.008642172783507108
5.39350e-06;-0.008624586534664951
5.39375e-06;-0.008607000285822734
5.39400e-06;-0.008589414036980575
5.39425e-06;-0.008579133590828899
5.39450e-06;-0.008571619341634123
5.39475e-06;-0.008564105092439373
5.39500e-06;-0.008556590843244625
5.39525e-06;-0.008549076594049848
5.39550e-06;-0.008543272141900383
5.39575e-06;-0.0085433449283416
5.39600e-06;-0.008543417714782816
5.39625e-06;-0.008543490501224032
5.39650e-06;-0.008543563287665248
5.39675e-06;-0.008543636074106464
5.39700e-06;-0.00854370886054768
5.39725e-06;-0.00854710063689024
5.39750e-06;-0.008551749082780738
5.39775e-06;-0.008556397528671237
5.39800e-06;-0.008561045974561752
5.39825e-06;-0.00856569442045225
5.39850e-06;-0.00857034286634275
5.39875e-06;-0.008575185263555059
5.39900e-06;-0.008580694347024768
5.39925e-06;-0.008586203430494477
5.39950e-06;-0.008591508090132078
5.39975e-06;-0.008596110065414112
5.40000e-06;-0.008600712040696144
5.40025e-06;-0.00860499625655125
5.40050e-06;-0.008608188209455315
5.40075e-06;-0.008611380162359381
5.40100e-06;-0.008613835963596137
5.40125e-06;-0.008613761324744085
5.40150e-06;-0.008613686685892035
5.40175e-06;-0.008613612047039983
5.40200e-06;-0.008613537408187932
5.40225e-06;-0.00861346276933588
5.40250e-06;-0.008613388130483828
5.40275e-06;-0.008612236143855832
5.40300e-06;-0.00860738089318218
5.40325e-06;-0.008602525642508546
5.40350e-06;-0.008597670391834912
5.40375e-06;-0.00859281514116126
5.40400e-06;-0.008587959890487626
5.40425e-06;-0.008583104639813991
5.40450e-06;-0.008577373229343023
5.40475e-06;-0.008568630116292927
5.40500e-06;-0.00855988700324283
5.40525e-06;-0.008551143890192705
5.40550e-06;-0.008542400777142608
5.40575e-06;-0.008533657664092482
5.40600e-06;-0.008524914551042385
5.40625e-06;-0.008514592332541726
5.40650e-06;-0.008503672217153336
5.40675e-06;-0.008492752101764983
5.40700e-06;-0.008481831986376628
5.40725e-06;-0.008470911870988238
5.40750e-06;-0.008459991755599883
5.40775e-06;-0.008448983291186821
5.40800e-06;-0.008437671136754645
5.40825e-06;-0.008426358982322506
5.40850e-06;-0.008415145611754507
5.40875e-06;-0.008404271799814119
5.40900e-06;-0.008393397987873768
5.40925e-06;-0.008382692430319574
5.40950e-06;-0.00837256522864317
5.40975e-06;-0.00836263867294581
5.41000e-06;-0.008353401815650743
5.41025e-06;-0.008344426889508223
5.41050e-06;-0.008336352322786306
5.41075e-06;-0.00832863717681652
5.41100e-06;-0.008322157500003632
5.41125e-06;-0.008316198222463721
5.41150e-06;-0.008312027759974578
5.41175e-06;-0.00830785729748545
5.41200e-06;-0.00830431458826331
5.41225e-06;-0.008302929711594851
5.41250e-06;-0.008301544834926398
5.41275e-06;-0.008301138282306275
5.41300e-06;-0.008304094610598974
5.41325e-06;-0.008307050938891662
5.41350e-06;-0.008310007267184349
5.41375e-06;-0.008312963595477047
5.41400e-06;-0.008315919923769734
5.41425e-06;-0.008320003311588987
5.41450e-06;-0.008327960842107358
5.41475e-06;-0.008335918372625732
5.41500e-06;-0.008343875903144131
5.41525e-06;-0.008351833433662505
5.41550e-06;-0.008359790964180878
5.41575e-06;-0.008368534607975178
5.41600e-06;-0.008379980429371119
5.41625e-06;-0.008391426250767062
5.41650e-06;-0.008402872072163043
5.41675e-06;-0.008414317893558985
5.41700e-06;-0.008425763714954926
5.41725e-06;-0.008437209536350907
5.41750e-06;-0.008448794628603491
5.41775e-06;-0.008460858449050732
5.41800e-06;-0.008472922269498013
5.41825e-06;-0.008484986089945254
5.41850e-06;-0.008497049910392535
5.41875e-06;-0.008509113730839776
5.41900e-06;-0.008521177551287017
5.41925e-06;-0.008532400569536374
5.41950e-06;-0.008540733423052315
5.41975e-06;-0.008549066276568257
5.42000e-06;-0.008557399130084227
5.42025e-06;-0.008565731983600168
5.42050e-06;-0.00857406483711611
5.42075e-06;-0.00858239769063208
5.42100e-06;-0.008590730544148021
5.42125e-06;-0.008599063397663963
5.42150e-06;-0.008607396251179933
5.42175e-06;-0.008615729104695874
5.42200e-06;-0.008622907682082806
5.42225e-06;-0.008629649215759613
5.42250e-06;-0.008636390749436397
5.42275e-06;-0.008643132283113204
5.42300e-06;-0.008649873816789989
5.42325e-06;-0.008656615350466773
5.42350e-06;-0.00866335688414358
5.42375e-06;-0.008670098417820364
5.42400e-06;-0.008676839951497149
5.42425e-06;-0.008683581485173956
5.42450e-06;-0.00869047719649949
5.42475e-06;-0.008697902876471786
5.42500e-06;-0.008705328556444106
5.42525e-06;-0.008712754236416403
5.42550e-06;-0.008720179916388699
5.42575e-06;-0.00872760559636102
5.42600e-06;-0.008735031276333316
5.42625e-06;-0.008742456956305612
5.42650e-06;-0.008749882636277934
5.42675e-06;-0.00875730831625023
5.42700e-06;-0.008764399496258833
5.42725e-06;-0.008771364024505764
5.42750e-06;-0.008778328552752694
5.42775e-06;-0.00878529308099965
5.42800e-06;-0.00879225760924658
5.42825e-06;-0.008799222137493512
5.42850e-06;-0.008806186665740467
5.42875e-06;-0.008813151193987397
5.42900e-06;-0.008820115722234328
5.42925e-06;-0.008826741410928063
5.42950e-06;-0.008832202376064751
5.42975e-06;-0.008837663341201438
5.43000e-06;-0.008842884587562909
5.43025e-06;-0.008847281827098956
5.43050e-06;-0.008851650942617013
5.43075e-06;-0.008855923384928075
5.43100e-06;-0.008860884271017826
5.43125e-06;-0.008868211606594067
5.43150e-06;-0.008875538942170283
5.43175e-06;-0.008883669211464124
5.43200e-06;-0.008894559476769998
5.43225e-06;-0.008905449742075836
5.43250e-06;-0.008917796977891995
5.43275e-06;-0.008935152388990612
5.43300e-06;-0.00895250780008917
5.43325e-06;-0.008969863211187729
5.43350e-06;-0.008987218622286346
5.43375e-06;-0.009004574033384904
5.43400e-06;-0.009021929444483462
5.43425e-06;-0.009045763927117687
5.43450e-06;-0.009072051581389172
5.43475e-06;-0.009098339235660658
5.43500e-06;-0.009124626889932234
5.43525e-06;-0.00915091454420372
5.43550e-06;-0.009177202198475294
5.43575e-06;-0.009204792160378094
5.43600e-06;-0.009236858660990761
5.43625e-06;-0.009268925161603539
5.43650e-06;-0.009300991662216205
5.43675e-06;-0.009333058162828874
5.43700e-06;-0.00936512466344165
5.43725e-06;-0.009397191164054318
5.43750e-06;-0.009429185435712455
5.43775e-06;-0.00946093142831348
5.43800e-06;-0.009492677420914399
5.43825e-06;-0.009524423413515316
5.43850e-06;-0.009556169406116342
5.43875e-06;-0.00958791539871726
5.43900e-06;-0.009619661391318177
5.43925e-06;-0.009650347975947783
5.43950e-06;-0.009677392962632899
5.43975e-06;-0.009704437949318108
5.44000e-06;-0.009730267096926714
5.44025e-06;-0.009751916931937084
5.44050e-06;-0.009773566766947527
5.44075e-06;-0.009793372310011556
5.44100e-06;-0.009806838303117921
5.44125e-06;-0.009820304296224333
5.44150e-06;-0.009831608657718573
5.44175e-06;-0.009835482649188114
5.44200e-06;-0.00983935664065767
5.44225e-06;-0.009841037028683648
5.44250e-06;-0.009835177147044167
5.44275e-06;-0.009829317265404668
5.44300e-06;-0.009820449037314622
5.44325e-06;-0.009801239950419633
5.44350e-06;-0.009782030863524579
5.44375e-06;-0.00976282177662959
5.44400e-06;-0.009743612689734537
5.44425e-06;-0.009721161701111064
5.44450e-06;-0.009687567033199534
5.44475e-06;-0.009653972365287892
5.44500e-06;-0.009620377697376363
5.44525e-06;-0.009586783029464833
5.44550e-06;-0.009551141254859936
5.44575e-06;-0.009508462776996466
5.44600e-06;-0.009465784299132996
5.44625e-06;-0.009422229499255776
5.44650e-06;-0.009375662439202428
5.44675e-06;-0.00932860268413225
5.44700e-06;-0.009279849344334826
5.44725e-06;-0.00923081214084842
