Time(s);Current(A)
4.80000e-06;-0.00014820117480745384
4.80025e-06;-0.00015428105230135689
4.80050e-06;-0.00015988181368066441
4.80075e-06;-0.00016511524992149677
4.80100e-06;-0.00017001187083674806
4.80125e-06;-0.00017452832555469658
4.80150e-06;-0.00017900891827165512
4.80175e-06;-0.0001835336907927635
4.80200e-06;-0.00018815974980201602
4.80225e-06;-0.00019286346237406516
4.80250e-06;-0.00019756717494609838
4.80275e-06;-0.00020223867984263193
4.80300e-06;-0.00020688549200081877
4.80325e-06;-0.0002116548816764744
4.80350e-06;-0.0002165182481611329
4.80375e-06;-0.00022138161464577494
4.80400e-06;-0.00022654831068723186
4.80425e-06;-0.0002319475611514536
4.80450e-06;-0.00023734681161565705
4.80475e-06;-0.00024290248837831863
4.80500e-06;-0.0002485780928787438
4.80525e-06;-0.00025425369737914973
4.80550e-06;-0.00025995905229423045
4.80575e-06;-0.000266085175774753
4.80600e-06;-0.0002722112992552547
4.80625e-06;-0.0002783374227357565
4.80650e-06;-0.00028459252298608127
4.80675e-06;-0.0002909465061759919
4.80700e-06;-0.0002973004893659026
4.80725e-06;-0.00030365447255583473
4.80750e-06;-0.0003100084557457454
4.80775e-06;-0.0003163162035345975
4.80800e-06;-0.0003225885039139483
4.80825e-06;-0.00032886080429329905
4.80850e-06;-0.0003351331046726711
4.80875e-06;-0.0003414054050520219
4.80900e-06;-0.0003473867460600618
4.80925e-06;-0.0003531450165261606
4.80950e-06;-0.00035890328699223997
4.80975e-06;-0.00036439821258912717
4.81000e-06;-0.0003696912389228199
4.81025e-06;-0.00037477137418253737
4.81050e-06;-0.00037951637101199157
4.81075e-06;-0.00038393520293471365
4.81100e-06;-0.0003880697100083107
4.81125e-06;-0.00039229038421730505
4.81150e-06;-0.00039727307437947325
4.81175e-06;-0.000403494172671726
4.81200e-06;-0.00041101585048173526
4.81225e-06;-0.0004200344385540514
4.81250e-06;-0.0004297813113740115
4.81275e-06;-0.0004403578712673654
4.81300e-06;-0.00045209456136782717
4.81325e-06;-0.0004649146822232463
4.81350e-06;-0.0004796353643851353
4.81375e-06;-0.0004954124781161545
4.81400e-06;-0.000512929926543545
4.81425e-06;-0.0005317816416836535
4.81450e-06;-0.0005523340143436003
4.81475e-06;-0.0005741902343170155
4.81500e-06;-0.0005960464542905047
4.81525e-06;-0.0006198175682191211
4.81550e-06;-0.0006450567786397197
4.81575e-06;-0.0006702959890604038
4.81600e-06;-0.0006970911235789495
4.81625e-06;-0.0007250791422798974
4.81650e-06;-0.0007538764699485492
4.81675e-06;-0.0007832942725282501
4.81700e-06;-0.0008132001282657878
4.81725e-06;-0.0008434801609265999
4.81750e-06;-0.0008741790567342635
4.81775e-06;-0.0009051990833883737
4.81800e-06;-0.0009363467491386512
4.81825e-06;-0.000967592272271035
4.81850e-06;-0.0009985353691607027
4.81875e-06;-0.0010292466041735618
4.81900e-06;-0.0010592700904782102
4.81925e-06;-0.0010887662987772615
4.81950e-06;-0.0011173473868131745
4.81975e-06;-0.0011452268773302543
4.82000e-06;-0.0011718247711600517
4.82025e-06;-0.0011974401000829195
4.82050e-06;-0.0012218109972386238
4.82075e-06;-0.0012436976033489493
4.82100e-06;-0.0012644110323156504
4.82125e-06;-0.0012827058420827693
4.82150e-06;-0.0012991463630771345
4.82175e-06;-0.0013129126242554282
4.82200e-06;-0.0013246286040364697
4.82225e-06;-0.001332896054831918
4.82250e-06;-0.0013385196133680899
4.82275e-06;-0.0013441431719042809
4.82300e-06;-0.0013455018362041797
4.82325e-06;-0.0013435907234759614
4.82350e-06;-0.0013416796107477368
4.82375e-06;-0.0013369177597454657
4.82400e-06;-0.0013286066240024742
4.82425e-06;-0.00131793200447667
4.82450e-06;-0.0013049750228777152
4.82475e-06;-0.0012898167899344866
4.82500e-06;-0.0012725368304955377
4.82525e-06;-0.0012532131472209938
4.82550e-06;-0.001231935447960908
4.82575e-06;-0.0012088221907325231
4.82600e-06;-0.0011840154856673818
4.82625e-06;-0.0011576641115466878
4.82650e-06;-0.0011299170448376592
4.82675e-06;-0.0011009234135674706
4.82700e-06;-0.0010708311596488058
4.82725e-06;-0.001039787249738088
4.82750e-06;-0.001007946112029688
4.82775e-06;-0.0009754802234701682
4.82800e-06;-0.0009425766887247327
4.82825e-06;-0.0009094268012297967
4.82850e-06;-0.0008762220718772406
4.82875e-06;-0.0008431539302888594
4.82900e-06;-0.0008104132108314893
4.82925e-06;-0.0007781900724432437
4.82950e-06;-0.0007466793229699582
4.82975e-06;-0.0007160870537488563
4.83000e-06;-0.0006866284683759191
4.83025e-06;-0.0006585214864486395
4.83050e-06;-0.0006319840550218392
4.83075e-06;-0.0006072341112657471
4.83100e-06;-0.0005844354110809002
4.83125e-06;-0.0005635214413034941
4.83150e-06;-0.0005441795129096079
4.83175e-06;-0.0005261698131353506
4.83200e-06;-0.000509490897367766
4.83225e-06;-0.0004942405643449355
4.83250e-06;-0.0004809947509536597
4.83275e-06;-0.00046879576400235665
4.83300e-06;-0.0004580432107026601
4.83325e-06;-0.00044927709234939873
4.83350e-06;-0.00044190298766388615
4.83375e-06;-0.00043573569987655187
4.83400e-06;-0.0004307394452997691
4.83425e-06;-0.00042694060023082197
4.83450e-06;-0.00042472653327706666
4.83475e-06;-0.0004233249364580113
4.83500e-06;-0.00042331092883366616
4.83525e-06;-0.00042436074765398623
4.83550e-06;-0.0004264688688754995
4.83575e-06;-0.0004293883614201058
4.83600e-06;-0.0004331950511163364
4.83625e-06;-0.0004376819304502053
4.83650e-06;-0.0004430167992628471
4.83675e-06;-0.0004490017982694612
4.83700e-06;-0.0004557466353862433
4.83725e-06;-0.00046307401946884375
4.83750e-06;-0.0004708760305524143
4.83775e-06;-0.0004790419250943037
4.83800e-06;-0.000487496341981636
4.83825e-06;-0.0004961719610101741
4.83850e-06;-0.0005050326138963985
4.83875e-06;-0.0005140351271485972
4.83900e-06;-0.0005230885774278973
4.83925e-06;-0.0005321810797238682
4.83950e-06;-0.0005410670004158711
4.83975e-06;-0.0005497945406779441
4.84000e-06;-0.0005579896253672263
4.84025e-06;-0.0005657764910238009
4.84050e-06;-0.0005735633566804018
4.84075e-06;-0.0005807807116694859
4.84100e-06;-0.0005872752883881128
4.84125e-06;-0.0005934791830293814
4.84150e-06;-0.0005998505807814991
4.84175e-06;-0.0006068575603628088
4.84200e-06;-0.0006142212369219888
4.84225e-06;-0.0006221385543763248
4.84250e-06;-0.0006304803330669694
4.84275e-06;-0.0006388221117575857
4.84300e-06;-0.0006475813807774671
4.84325e-06;-0.0006566607281421024
4.84350e-06;-0.0006666976652575751
4.84375e-06;-0.0006774687600789686
4.84400e-06;-0.0006882398549003985
4.84425e-06;-0.0007001530132207785
4.84450e-06;-0.0007129417601924156
4.84475e-06;-0.0007257305071640959
4.84500e-06;-0.000738519254135733
4.84525e-06;-0.0007523997371103384
4.84550e-06;-0.0007671172240302234
4.84575e-06;-0.0007818347109500587
4.84600e-06;-0.0007965521978699437
4.84625e-06;-0.000812087043960637
4.84650e-06;-0.0008282485368311366
4.84675e-06;-0.0008444100297016911
4.84700e-06;-0.0008608382775205752
4.84725e-06;-0.000877471039016384
4.84750e-06;-0.0008941038005122491
4.84775e-06;-0.0009108841344170275
4.84800e-06;-0.0009277776080260676
4.84825e-06;-0.000944671081635165
4.84850e-06;-0.0009613476390687511
4.84875e-06;-0.0009778578928408908
4.84900e-06;-0.000993950535475843
4.84925e-06;-0.0010097230071459044
4.84950e-06;-0.001024989699836256
4.84975e-06;-0.001039868625703685
4.85000e-06;-0.0010540595392816781
4.85025e-06;-0.001067722972773908
4.85050e-06;-0.0010804552734574313
4.85075e-06;-0.0010924737002445395
4.85100e-06;-0.0011037043822837178
4.85125e-06;-0.0011140181855710078
4.85150e-06;-0.0011241294975311172
4.85175e-06;-0.0011342695048929213
4.85200e-06;-0.0011444994922164928
4.85225e-06;-0.0011547984647002172
4.85250e-06;-0.0011649155333505413
4.85275e-06;-0.0011748931413383624
4.85300e-06;-0.0011848707493261835
4.85325e-06;-0.00119479748618221
4.85350e-06;-0.0012046852215415807
4.85375e-06;-0.0012150224503559338
4.85400e-06;-0.0012257042934306294
4.85425e-06;-0.001236386136505289
4.85450e-06;-0.0012473006619781203
4.85475e-06;-0.0012583935786413295
4.85500e-06;-0.001269486495304539
4.85525e-06;-0.001280616556194472
4.85550e-06;-0.0012922719584312174
4.85575e-06;-0.001303927360667963
4.85600e-06;-0.0013155827629047479
4.85625e-06;-0.0013275162336764928
4.85650e-06;-0.0013396628919405934
4.85675e-06;-0.0013518095502047351
4.85700e-06;-0.0013638825933385461
4.85725e-06;-0.0013758991977781132
4.85750e-06;-0.0013879158022177213
4.85775e-06;-0.0013999324066572884
4.85800e-06;-0.0014119490110968557
4.85825e-06;-0.0014239656155364635
4.85850e-06;-0.0014358951420802542
4.85875e-06;-0.0014465931012145052
4.85900e-06;-0.0014572910603487198
4.85925e-06;-0.0014679890194829346
4.85950e-06;-0.0014786869786171854
4.85975e-06;-0.0014893849377514003
4.86000e-06;-0.0015000828968856148
4.86025e-06;-0.0015099224538244265
4.86050e-06;-0.0015187773864700225
4.86075e-06;-0.0015270127810749468
4.86100e-06;-0.001534516760438267
4.86125e-06;-0.0015410364335120134
4.86150e-06;-0.0015462032228931095
4.86175e-06;-0.0015497667451207177
4.86200e-06;-0.0015512251788536214
4.86225e-06;-0.001551623726707896
4.86250e-06;-0.0015502401705144466
4.86275e-06;-0.0015474903241975725
4.86300e-06;-0.0015429508617746258
4.86325e-06;-0.001537039349939915
4.86350e-06;-0.00152908001146794
4.86375e-06;-0.0015195506606767812
4.86400e-06;-0.0015084987672217044
4.86425e-06;-0.0014953391252256782
4.86450e-06;-0.0014805748713559313
4.86475e-06;-0.0014643060766638088
4.86500e-06;-0.0014466184074968932
4.86525e-06;-0.0014275421737190736
4.86550e-06;-0.001407062529118361
4.86575e-06;-0.001385210883686574
4.86600e-06;-0.0013620982052632707
4.86625e-06;-0.001337865890136086
4.86650e-06;-0.0013126564152836843
4.86675e-06;-0.0012866120248540742
4.86700e-06;-0.0012598660319920849
4.86725e-06;-0.0012325171723574994
4.86750e-06;-0.0012046356795574324
4.86775e-06;-0.001176320941411434
4.86800e-06;-0.0011477223121108382
4.86825e-06;-0.0011190078053210375
4.86850e-06;-0.0010903461881136868
4.86875e-06;-0.001061906313225412
4.86900e-06;-0.0010338513158816857
4.86925e-06;-0.0010063225902357813
4.86950e-06;-0.0009794437781599692
4.86975e-06;-0.0009533566844281365
4.87000e-06;-0.0009282343285182887
4.87025e-06;-0.0009042615889420353
4.87050e-06;-0.0008816237329966396
4.87075e-06;-0.0008605060433542932
4.87100e-06;-0.000841038105827057
4.87125e-06;-0.0008231158018150156
4.87150e-06;-0.0008063910146824559
4.87175e-06;-0.0007906022179764763
4.87200e-06;-0.0007757399981076999
4.87225e-06;-0.0007618985273666247
4.87250e-06;-0.0007495321900568118
4.87275e-06;-0.00073794301566511
4.87300e-06;-0.0007274436663143924
4.87325e-06;-0.0007184141634885552
4.87350e-06;-0.0007103451161491603
4.87375e-06;-0.0007030546931152973
4.87400e-06;-0.0006965190114094455
4.87425e-06;-0.0006910218347661397
4.87450e-06;-0.0006860642882861228
4.87475e-06;-0.0006821160922749356
4.87500e-06;-0.0006789417374870197
4.87525e-06;-0.0006766294078660896
4.87550e-06;-0.0006749779692144832
4.87575e-06;-0.0006739175120990001
4.87600e-06;-0.0006733101442611986
4.87625e-06;-0.0006732853398415307
4.87650e-06;-0.000673707170760172
4.87675e-06;-0.0006747254689943817
4.87700e-06;-0.0006762010623023685
4.87725e-06;-0.0006781400968930326
4.87750e-06;-0.0006804344391594283
4.87775e-06;-0.0006829817038633636
4.87800e-06;-0.0006857228772387708
4.87825e-06;-0.0006887170005080635
4.87850e-06;-0.0006919050534988476
4.87875e-06;-0.0006950931064896427
4.87900e-06;-0.0006984618497430758
4.87925e-06;-0.0007019691232475863
4.87950e-06;-0.0007054274860039117
4.87975e-06;-0.0007088483502357962
4.88000e-06;-0.000712107606370752
4.88025e-06;-0.0007152429620258559
4.88050e-06;-0.0007182205315084325
4.88075e-06;-0.0007209526874986432
4.88100e-06;-0.0007235069684268671
4.88125e-06;-0.0007261419387060394
4.88150e-06;-0.0007293274580329645
4.88175e-06;-0.0007333945737766029
4.88200e-06;-0.0007386200070470127
4.88225e-06;-0.0007444136774722238
4.88250e-06;-0.0007512467960210464
4.88275e-06;-0.0007588768308365664
4.88300e-06;-0.0007665068656521123
4.88325e-06;-0.0007753227019381862
4.88350e-06;-0.0007850476595738124
4.88375e-06;-0.0007963626311168699
4.88400e-06;-0.0008088966225592423
4.88425e-06;-0.0008214306140016572
4.88450e-06;-0.000835472881786944
4.88475e-06;-0.0008506715035306131
4.88500e-06;-0.0008658701252743337
4.88525e-06;-0.0008824290226327946
4.88550e-06;-0.0009000308058649372
4.88575e-06;-0.0009176325890971394
4.88600e-06;-0.000936491280264267
4.88625e-06;-0.0009563136081500438
4.88650e-06;-0.0009761359360358877
4.88675e-06;-0.0009966481761909294
4.88700e-06;-0.0010176893530936806
4.88725e-06;-0.0010387305299965031
4.88750e-06;-0.0010601859683615003
4.88775e-06;-0.00108195900958747
4.88800e-06;-0.0011037320508135136
4.88825e-06;-0.0011254950100664626
4.88850e-06;-0.0011472502397482666
4.88875e-06;-0.0011686488113974783
4.88900e-06;-0.0011897739431498203
4.88925e-06;-0.0012103322769222381
4.88950e-06;-0.0012304560622838857
4.88975e-06;-0.001249826302531281
4.89000e-06;-0.0012686188204802404
4.89025e-06;-0.0012866558823526725
4.89050e-06;-0.001303503698633842
4.89075e-06;-0.0013191938768244034
4.89100e-06;-0.001333546575148075
4.89125e-06;-0.0013462348206927906
4.89150e-06;-0.0013568222405727387
4.89175e-06;-0.0013650173390828174
4.89200e-06;-0.001370071466569934
4.89225e-06;-0.0013735378491926645
4.89250e-06;-0.0013742896770532508
4.89275e-06;-0.0013729603304933045
4.89300e-06;-0.001368887336418999
4.89325e-06;-0.0013627108633118101
4.89350e-06;-0.0013535181669947793
4.89375e-06;-0.001342013015361606
4.89400e-06;-0.001328284986362988
4.89425e-06;-0.0013114671590805898
4.89450e-06;-0.0012922744128662845
4.89475e-06;-0.0012708355535860337
4.89500e-06;-0.0012472640488880417
4.89525e-06;-0.0012216157826707844
4.89550e-06;-0.001193903635326899
4.89575e-06;-0.0011641974053225926
4.89600e-06;-0.0011326564541152123
4.89625e-06;-0.0010994734666289916
4.89650e-06;-0.0010648423248947264
4.89675e-06;-0.0010289568604234932
4.89700e-06;-0.000992001349914859
4.89725e-06;-0.0009541238825394054
4.89750e-06;-0.000915445675217333
4.89775e-06;-0.0008761235809916634
4.89800e-06;-0.0008363705255974295
4.89825e-06;-0.0007964203940021289
4.89850e-06;-0.0007565076818086843
4.89875e-06;-0.0007168668319030773
4.89900e-06;-0.0006777263664833786
4.89925e-06;-0.0006392921221752779
4.89950e-06;-0.0006017530366632978
4.89975e-06;-0.000565320335583513
4.90000e-06;-0.0005302404558410278
4.90025e-06;-0.0004967728575338492
4.90050e-06;-0.00046517737966017325
4.90075e-06;-0.00043571386121822126
4.90100e-06;-0.000408608567577397
4.90125e-06;-0.0003839376797954269
4.90150e-06;-0.0003615967132052189
4.90175e-06;-0.00034148728893673534
4.90200e-06;-0.00032363462935137527
4.90225e-06;-0.00030811957389815863
4.90250e-06;-0.00029502518490914396
4.90275e-06;-0.0002844345247164227
4.90300e-06;-0.00027640963506791674
4.90325e-06;-0.0002709184547814343
4.90350e-06;-0.00026781582291200213
4.90375e-06;-0.00026696040122766443
4.90400e-06;-0.0002682882616501183
4.90425e-06;-0.0002717703497646164
4.90450e-06;-0.00027737900430218384
4.90475e-06;-0.00028508652720245795
4.90500e-06;-0.00029485201993915955
4.90525e-06;-0.00030657574659117664
4.90550e-06;-0.00032052736214546225
4.90575e-06;-0.0003355553141766947
4.90600e-06;-0.00035223289609607615
4.90625e-06;-0.00037017520384590005
4.90650e-06;-0.0003895469360371067
4.90675e-06;-0.0004100145686036854
4.90700e-06;-0.0004316602022910859
4.90725e-06;-0.00045420897701404947
4.90750e-06;-0.00047754305836116115
4.90775e-06;-0.0005014792126820783
4.90800e-06;-0.0005258376896506337
4.90825e-06;-0.0005505199497690586
4.90850e-06;-0.0005753064067492788
4.90875e-06;-0.0006001727485953426
4.90900e-06;-0.0006248056071021115
4.90925e-06;-0.0006492594603591948
4.90950e-06;-0.0006730537516000093
4.90975e-06;-0.0006963423747970924
4.91000e-06;-0.0007185639727087197
4.91025e-06;-0.0007399675117032108
4.91050e-06;-0.0007603337276956591
4.91075e-06;-0.0007790867648693887
4.91100e-06;-0.0007964229923397179
4.91125e-06;-0.0008127998792469293
4.91150e-06;-0.0008291596313339204
4.91175e-06;-0.0008461773182026145
4.91200e-06;-0.0008640610031173674
4.91225e-06;-0.0008823364333105383
4.91250e-06;-0.0009009581430346571
4.91275e-06;-0.0009198453357440925
4.91300e-06;-0.000938818011064601
4.91325e-06;-0.000958137299732756
4.91350e-06;-0.0009789709539997284
4.91375e-06;-0.001000800417851677
4.91400e-06;-0.0010226298817036996
4.91425e-06;-0.0010458172050116614
4.91450e-06;-0.001070045561790283
4.91475e-06;-0.0010950576327246808
4.91500e-06;-0.0011206705557308975
4.91525e-06;-0.0011462834787371143
4.91550e-06;-0.001173233965462904
4.91575e-06;-0.0012012099254766712
4.91600e-06;-0.0012291858854904382
4.91625e-06;-0.001258068091874622
4.91650e-06;-0.0012876450924069213
4.91675e-06;-0.0013174941854028914
4.91700e-06;-0.0013475518842016696
4.91725e-06;-0.0013776095830003458
4.91750e-06;-0.0014079132467966573
4.91775e-06;-0.0014384054851867096
4.91800e-06;-0.0014688977235766585
4.91825e-06;-0.0014991900138176218
4.91850e-06;-0.0015293290093160406
4.91875e-06;-0.0015588151146921348
4.91900e-06;-0.0015878006671819905
4.91925e-06;-0.0016159073088469985
4.91950e-06;-0.0016433401137742284
4.91975e-06;-0.0016697366170757072
4.92000e-06;-0.0016953386164442258
4.92025e-06;-0.0017194961260699455
4.92050e-06;-0.001742546185168774
4.92075e-06;-0.0017630395886406012
4.92100e-06;-0.0017815728746139196
4.92125e-06;-0.001800106160587301
4.92150e-06;-0.0018182932195793483
4.92175e-06;-0.0018315834920728023
4.92200e-06;-0.0018448737645663012
4.92225e-06;-0.0018581640370597553
4.92250e-06;-0.0018681437110869296
4.92275e-06;-0.0018755852403925814
4.92300e-06;-0.0018830267696982332
4.92325e-06;-0.0018904682990039101
4.92350e-06;-0.0018946365147868756
4.92375e-06;-0.0018962951711884353
4.92400e-06;-0.0018979538275900006
4.92425e-06;-0.0018996124839915603
4.92450e-06;-0.0018990736821192205
4.92475e-06;-0.0018968501494723185
4.92500e-06;-0.001893198337313701
4.92525e-06;-0.0018884515025662078
4.92550e-06;-0.00188280486820012
4.92575e-06;-0.0018759565738378033
4.92600e-06;-0.0018682281334365678
4.92625e-06;-0.001859660786579128
4.92650e-06;-0.0018502945493858996
4.92675e-06;-0.0018401695653731274
4.92700e-06;-0.0018293352583066014
4.92725e-06;-0.0018178807231405691
4.92750e-06;-0.0018059394047182707
4.92775e-06;-0.001793635382083513
4.92800e-06;-0.001781054014091857
4.92825e-06;-0.0017682642274028757
4.92850e-06;-0.0017553343731857435
4.92875e-06;-0.0017423327718591546
4.92900e-06;-0.0017293335074787745
4.92925e-06;-0.001716435587913967
4.92950e-06;-0.0017037656751919194
4.92975e-06;-0.0016914447336669957
4.93000e-06;-0.0016795693946884084
4.93025e-06;-0.001668225926404136
4.93050e-06;-0.001657500243321652
4.93075e-06;-0.0016474783917390346
4.93100e-06;-0.0016381283029185433
4.93125e-06;-0.0016289414584308242
4.93150e-06;-0.001618961788060079
4.93175e-06;-0.0016075122453527218
4.93200e-06;-0.0015945089751791329
4.93225e-06;-0.0015801015821740032
4.93250e-06;-0.0015644482242395676
4.93275e-06;-0.0015477069780077976
4.93300e-06;-0.001529962148182509
4.93325e-06;-0.0015109995906729616
4.93350e-06;-0.0014903246307310743
4.93375e-06;-0.001467617641587838
4.93400e-06;-0.0014429305943996654
4.93425e-06;-0.0014164615621262587
4.93450e-06;-0.0013884139223347693
4.93475e-06;-0.0013589911843828247
4.93500e-06;-0.0013283504366230388
4.93525e-06;-0.001296019845313483
4.93550e-06;-0.0012627814082866314
4.93575e-06;-0.001228229678956723
4.93600e-06;-0.001191926929524218
4.93625e-06;-0.001154440633407014
4.93650e-06;-0.0011160025229906745
4.93675e-06;-0.0010767202015849707
4.93700e-06;-0.0010370738577912507
4.93725e-06;-0.0009969267430563337
4.93750e-06;-0.0009563957010242526
4.93775e-06;-0.0009155253973052547
4.93800e-06;-0.0008743297876404651
4.93825e-06;-0.000833160198532187
4.93850e-06;-0.0007922661080153756
4.93875e-06;-0.0007518970270721905
4.93900e-06;-0.0007122843048562406
4.93925e-06;-0.0006735858435718842
4.93950e-06;-0.0006358906318265323
4.93975e-06;-0.000599330686591341
4.94000e-06;-0.0005641293164688187
4.94025e-06;-0.000530545745427071
4.94050e-06;-0.0004988404780089515
4.94075e-06;-0.0004692739605493067
4.94100e-06;-0.00044200823251691753
4.94125e-06;-0.0004167958015275427
4.94150e-06;-0.00039297265323391813
4.94175e-06;-0.0003700491394217912
4.94200e-06;-0.00034799455424157816
4.94225e-06;-0.00032696444939994316
4.94250e-06;-0.0003075232281193018
