Time(s);Current(A)
5.05000e-06;0.011575801572983043
5.05025e-06;0.011568429378702791
5.05050e-06;0.011561057184422564
5.05075e-06;0.011553684990142312
5.05100e-06;0.011565104684400942
5.05125e-06;0.011578199286760607
5.05150e-06;0.011591293889120318
5.05175e-06;0.011604388491479984
5.05200e-06;0.01161748309383965
5.05225e-06;0.01163057769619936
5.05250e-06;0.011643672298559025
5.05275e-06;0.011656766900918691
5.05300e-06;0.0116698615032784
5.05325e-06;0.011699219203956404
5.05350e-06;0.01173002642340211
5.05375e-06;0.011760833642847919
5.05400e-06;0.011791640862293624
5.05425e-06;0.01182244808173933
5.05450e-06;0.01185325530118514
5.05475e-06;0.011884062520630845
5.05500e-06;0.011914869740076654
5.05525e-06;0.01194567695952236
5.05550e-06;0.01198151616556893
5.05575e-06;0.012017803869120405
5.05600e-06;0.012054091572671757
5.05625e-06;0.012090379276223109
5.05650e-06;0.012126666979774584
5.05675e-06;0.012162954683325936
5.05700e-06;0.012199242386877288
5.05725e-06;0.012235530090428763
5.05750e-06;0.012264871649381674
5.05775e-06;0.012293594103244102
5.05800e-06;0.012322316557106628
5.05825e-06;0.012351039010969057
5.05850e-06;0.012379761464831485
5.05875e-06;0.012408483918694011
5.05900e-06;0.01243720637255644
5.05925e-06;0.012465928826418967
5.05950e-06;0.012479622204506872
5.05975e-06;0.012491976051408216
5.06000e-06;0.012504329898309602
5.06025e-06;0.012516683745210946
5.06050e-06;0.01252903759211229
5.06075e-06;0.012541391439013675
5.06100e-06;0.012553745285915019
5.06125e-06;0.012566099132816363
5.06150e-06;0.012578452979717748
5.06175e-06;0.012583923919348003
5.06200e-06;0.012579817963201411
5.06225e-06;0.012575712007054807
5.06250e-06;0.012571606050908216
5.06275e-06;0.012567500094761626
5.06300e-06;0.01256339413861502
5.06325e-06;0.01255928818246843
5.06350e-06;0.012555182226321826
5.06375e-06;0.012551076270175234
5.06400e-06;0.012546970314028643
5.06425e-06;0.012534187562916913
5.06450e-06;0.012520631455038225
5.06475e-06;0.012507075347159538
5.06500e-06;0.012493519239280807
5.06525e-06;0.012479963131402119
5.06550e-06;0.012466407023523432
5.06575e-06;0.0124528509156447
5.06600e-06;0.012439294807766012
5.06625e-06;0.012425738699887326
5.06650e-06;0.012412182592008594
5.06675e-06;0.012398626484129906
5.06700e-06;0.01238507037625122
5.06725e-06;0.012374686042437981
5.06750e-06;0.012368714923630189
5.06775e-06;0.012362743804822376
5.06800e-06;0.012356772686014586
5.06825e-06;0.012350801567206793
5.06850e-06;0.01234483044839898
5.06875e-06;0.01233885932959119
5.06900e-06;0.012332888210783398
5.06925e-06;0.012326917091975585
5.06950e-06;0.012320945973167793
5.06975e-06;0.012314974854360002
5.07000e-06;0.01230900373555219
5.07025e-06;0.012303032616744397
5.07050e-06;0.012314612384255975
5.07075e-06;0.012327756450192427
5.07100e-06;0.012340900516128833
5.07125e-06;0.01235404458206524
5.07150e-06;0.01236718864800169
5.07175e-06;0.012380332713938097
5.07200e-06;0.012393476779874547
5.07225e-06;0.012406620845810954
5.07250e-06;0.012419764911747361
5.07275e-06;0.012445836586927989
5.07300e-06;0.012473060491027718
5.07325e-06;0.012500284395127447
5.07350e-06;0.01252750829922727
5.07375e-06;0.012554732203326998
5.07400e-06;0.012581956107426727
5.07425e-06;0.012609180011526548
5.07450e-06;0.012636403915626279
5.07475e-06;0.012663627819726008
5.07500e-06;0.012696106711927602
5.07525e-06;0.012729053977603691
5.07550e-06;0.01276200124327978
5.07575e-06;0.012794948508955982
5.07600e-06;0.012827895774632073
5.07625e-06;0.012860843040308273
5.07650e-06;0.012893790305984363
5.07675e-06;0.01292417689136127
5.07700e-06;0.012954335245064735
5.07725e-06;0.012984493598768099
5.07750e-06;0.013014651952471461
5.07775e-06;0.013044810306174926
5.07800e-06;0.013074968659878288
5.07825e-06;0.01310512701358165
5.07850e-06;0.01312921488629491
5.07875e-06;0.013152761701213432
5.07900e-06;0.013176308516131956
5.07925e-06;0.013199855331050558
5.07950e-06;0.013223402145969083
5.07975e-06;0.013246948960887605
5.08000e-06;0.013270495775806208
5.08025e-06;0.0132939633514148
5.08050e-06;0.013317320673233544
5.08075e-06;0.01334067799505221
5.08100e-06;0.013364035316870873
5.08125e-06;0.013387392638689617
5.08150e-06;0.013410749960508282
5.08175e-06;0.013434107282326945
5.08200e-06;0.013457464604145689
5.08225e-06;0.013482884031800521
5.08250e-06;0.013508487253529919
5.08275e-06;0.013534090475259403
5.08300e-06;0.013559693696988801
5.08325e-06;0.013585296918718199
5.08350e-06;0.013610900140447683
5.08375e-06;0.013636503362177081
5.08400e-06;0.013662106583906479
5.08425e-06;0.013687709805635963
5.08450e-06;0.013713313027365361
5.08475e-06;0.013738916249094759
5.08500e-06;0.013764519470824244
5.08525e-06;0.013788938867566023
5.08550e-06;0.013813252750801162
5.08575e-06;0.01383756663403622
5.08600e-06;0.013861880517271278
5.08625e-06;0.013886194400506417
5.08650e-06;0.013910508283741475
5.08675e-06;0.013934822166976531
5.08700e-06;0.01395913605021167
5.08725e-06;0.013983449933446728
5.08750e-06;0.014007763816681786
5.08775e-06;0.014032077699916925
5.08800e-06;0.014056391583151983
5.08825e-06;0.01407246953473662
5.08850e-06;0.014087813423399428
5.08875e-06;0.014103157312062183
5.08900e-06;0.014118501200724939
5.08925e-06;0.014133845089387746
5.08950e-06;0.014149188978050502
5.08975e-06;0.01416453286671331
5.09000e-06;0.014179876755376065
5.09025e-06;0.014183056099416147
5.09050e-06;0.014185151225963073
5.09075e-06;0.014187246352509992
5.09100e-06;0.014189341479056912
5.09125e-06;0.01419143660560384
5.09150e-06;0.014193531732150759
5.09175e-06;0.014195626858697678
5.09200e-06;0.014197721985244605
5.09225e-06;0.0141869378819768
5.09250e-06;0.014175005861816515
5.09275e-06;0.01416307384165619
5.09300e-06;0.014151141821495905
5.09325e-06;0.01413920980133562
5.09350e-06;0.014127277781175295
5.09375e-06;0.01411534576101501
5.09400e-06;0.014103413740854685
5.09425e-06;0.0140914817206944
5.09450e-06;0.014079549700534115
5.09475e-06;0.01406761768037379
5.09500e-06;0.014050276561514719
5.09525e-06;0.014032453333410171
5.09550e-06;0.014014630105305563
5.09575e-06;0.013996806877201015
5.09600e-06;0.013978983649096466
5.09625e-06;0.013961160420991858
5.09650e-06;0.01394333719288731
5.09675e-06;0.013925513964782763
5.09700e-06;0.013907690736678155
5.09725e-06;0.013889867508573605
5.09750e-06;0.013872044280469058
5.09775e-06;0.013862875633603746
5.09800e-06;0.013854478363609726
5.09825e-06;0.013846081093615676
5.09850e-06;0.013837683823621655
5.09875e-06;0.013829286553627635
5.09900e-06;0.013820889283633587
5.09925e-06;0.013812492013639566
5.09950e-06;0.013804094743645546
5.09975e-06;0.013795697473651496
5.10000e-06;0.013787300203657475
5.10025e-06;0.013778902933663455
5.10050e-06;0.013770505663669406
5.10075e-06;0.013773903033073232
5.10100e-06;0.013778351650571313
5.10125e-06;0.013782800268069408
5.10150e-06;0.013787248885567488
5.10175e-06;0.013791697503065567
5.10200e-06;0.013796146120563662
5.10225e-06;0.013800594738061743
5.10250e-06;0.013805043355559838
5.10275e-06;0.013809491973057917
5.10300e-06;0.013813940590555997
5.10325e-06;0.013818389208054092
5.10350e-06;0.013822837825552173
5.10375e-06;0.013833976661120326
5.10400e-06;0.013845711791221809
5.10425e-06;0.013857446921323251
5.10450e-06;0.013869182051424693
5.10475e-06;0.013880917181526176
5.10500e-06;0.013892652311627618
5.10525e-06;0.01390438744172906
5.10550e-06;0.013916122571830543
5.10575e-06;0.013927857701931985
5.10600e-06;0.013939592832033427
5.10625e-06;0.013952144333205133
5.10650e-06;0.013964768596968562
5.10675e-06;0.013977392860732032
5.10700e-06;0.01399001712449546
5.10725e-06;0.014002641388258888
5.10750e-06;0.014015265652022359
5.10775e-06;0.014027889915785786
5.10800e-06;0.014040514179549215
5.10825e-06;0.014053138443312685
5.10850e-06;0.014065762707076112
5.10875e-06;0.014073760326540171
5.10900e-06;0.01408134557638141
5.10925e-06;0.014088930826222623
5.10950e-06;0.014096516076063836
5.10975e-06;0.014104101325905075
5.11000e-06;0.014100900844079335
5.11025e-06;0.014096739037411784
5.11050e-06;0.014092577230744219
5.11075e-06;0.014088415424076668
5.11100e-06;0.014084253617409103
5.11125e-06;0.01408009181074155
5.11150e-06;0.014075930004073998
5.11175e-06;0.014071768197406433
5.11200e-06;0.01406154014842296
5.11225e-06;0.014042871513496386
5.11250e-06;0.014024202878569748
5.11275e-06;0.014005534243643172
5.11300e-06;0.013986865608716596
5.11325e-06;0.013968196973789957
5.11350e-06;0.013949528338863383
5.11375e-06;0.013930859703936807
5.11400e-06;0.013912191069010168
5.11425e-06;0.013885974652237957
5.11450e-06;0.013859085506863655
5.11475e-06;0.013832196361489262
5.11500e-06;0.01380530721611496
5.11525e-06;0.013778418070740569
5.11550e-06;0.013751528925366267
5.11575e-06;0.013724639779991964
5.11600e-06;0.013697750634617572
5.11625e-06;0.01367086148924327
5.11650e-06;0.013643972343868969
5.11675e-06;0.013617083198494575
5.11700e-06;0.013590194053120274
5.11725e-06;0.013568959136195291
5.11750e-06;0.013555591528005666
5.11775e-06;0.013542223919816085
5.11800e-06;0.013528856311626503
5.11825e-06;0.013515488703436877
5.11850e-06;0.013502121095247297
5.11875e-06;0.013488753487057715
5.11900e-06;0.013475385878868089
5.11925e-06;0.013462018270678508
5.11950e-06;0.013448650662488881
5.11975e-06;0.0134352830542993
5.12000e-06;0.01342191544610972
5.12025e-06;0.013408547837920093
5.12050e-06;0.013421548580201934
5.12075e-06;0.013436899515415636
5.12100e-06;0.01345225045062939
5.12125e-06;0.013467601385843095
5.12150e-06;0.013482952321056797
5.12175e-06;0.013498303256270551
5.12200e-06;0.013513654191484255
5.12225e-06;0.013529005126697958
5.12250e-06;0.013553116171972954
5.12275e-06;0.013589416058045345
5.12300e-06;0.013625715944117735
5.12325e-06;0.013662015830190248
5.12350e-06;0.013698315716262639
5.12375e-06;0.013734615602335153
5.12400e-06;0.013770915488407543
5.12425e-06;0.013807215374479933
5.12450e-06;0.013843515260552447
5.12475e-06;0.013888736220954954
5.12500e-06;0.01393475231057316
5.12525e-06;0.013980768400191522
5.12550e-06;0.014026784489809728
5.12575e-06;0.014072800579427934
5.12600e-06;0.014118816669046297
5.12625e-06;0.014164832758664501
5.12650e-06;0.014210848848282708
5.12675e-06;0.01425686493790107
5.12700e-06;0.014302881027519277
5.12725e-06;0.014338982744978144
5.12750e-06;0.014374200801269605
5.12775e-06;0.014409418857560946
5.12800e-06;0.014444636913852407
5.12825e-06;0.014479854970143749
5.12850e-06;0.01451507302643509
5.12875e-06;0.014550291082726551
5.12900e-06;0.014585509139017893
5.12925e-06;0.014620727195309236
5.12950e-06;0.014655945251600697
5.12975e-06;0.014668225367781078
5.13000e-06;0.014678461041145553
5.13025e-06;0.01468869671451006
5.13050e-06;0.014698932387874532
5.13075e-06;0.014709168061239005
5.13100e-06;0.014719403734603514
5.13125e-06;0.014729639407967987
5.13150e-06;0.01473987508133246
5.13175e-06;0.01474070398075707
5.13200e-06;0.014728444269519558
5.13225e-06;0.014716184558282004
5.13250e-06;0.014703924847044492
5.13275e-06;0.01469166513580698
5.13300e-06;0.014679405424569426
5.13325e-06;0.014667145713331914
5.13350e-06;0.014654886002094402
5.13375e-06;0.014642626290856848
5.13400e-06;0.014616887208348459
5.13425e-06;0.014589946718755695
5.13450e-06;0.01456300622916284
5.13475e-06;0.014536065739570076
5.13500e-06;0.014509125249977313
5.13525e-06;0.014482184760384459
5.13550e-06;0.014455244270791695
5.13575e-06;0.014428303781198932
5.13600e-06;0.014401363291606076
5.13625e-06;0.014374422802013313
5.13650e-06;0.014347482312420458
5.13675e-06;0.014323278884234472
5.13700e-06;0.014302883810680685
5.13725e-06;0.01428248873712683
5.13750e-06;0.014262093663573042
5.13775e-06;0.014241698590019254
5.13800e-06;0.014221303516465398
5.13825e-06;0.014200908442911612
5.13850e-06;0.014180513369357824
5.13875e-06;0.014160118295803967
5.13900e-06;0.01413972322225018
5.13925e-06;0.014119328148696392
5.13950e-06;0.014098933075142537
5.13975e-06;0.014099926556060079
5.14000e-06;0.014102826384116572
5.14025e-06;0.014105726212173077
5.14050e-06;0.014108626040229572
5.14075e-06;0.014111525868286076
5.14100e-06;0.01411442569634257
5.14125e-06;0.014117325524399064
5.14150e-06;0.014120225352455568
5.14175e-06;0.014123125180512064
5.14200e-06;0.014144608963491123
5.14225e-06;0.014167749121581528
5.14250e-06;0.014190889279671855
5.14275e-06;0.014214029437762182
5.14300e-06;0.014237169595852587
5.14325e-06;0.014260309753942914
5.14350e-06;0.014283449912033239
5.14375e-06;0.014306590070123644
5.14400e-06;0.014329730228213971
5.14425e-06;0.014362616816960758
5.14450e-06;0.014396372098363669
5.14475e-06;0.014430127379766464
5.14500e-06;0.014463882661169375
5.14525e-06;0.014497637942572172
5.14550e-06;0.014531961410517068
5.14575e-06;0.014567085796480563
5.14600e-06;0.01460221018244394
5.14625e-06;0.014637334568407314
5.14650e-06;0.01467245895437081
5.14675e-06;0.014707583340334186
5.14700e-06;0.01473929781842885
5.14725e-06;0.014770682644135438
5.14750e-06;0.01480206746984192
5.14775e-06;0.014833452295548402
5.14800e-06;0.01486483712125499
5.14825e-06;0.01488746576853955
5.14850e-06;0.014909247913443686
5.14875e-06;0.014931030058347897
5.14900e-06;0.014952812203252034
5.14925e-06;0.014974594348156244
5.14950e-06;0.014979082156984493
5.14975e-06;0.014981898038180685
5.15000e-06;0.014984713919376884
5.15025e-06;0.014987529800573076
5.15050e-06;0.014990345681769266
5.15075e-06;0.014993161562965467
5.15100e-06;0.014995977444161658
5.15125e-06;0.014998793325357848
5.15150e-06;0.014992390390492702
5.15175e-06;0.014972822207526416
5.15200e-06;0.014953254024560133
5.15225e-06;0.014933685841593781
5.15250e-06;0.014914117658627497
5.15275e-06;0.014894549475661212
5.15300e-06;0.014874981292694862
5.15325e-06;0.014855413109728577
5.15350e-06;0.014835844926762227
5.15375e-06;0.014801595472889879
5.15400e-06;0.01476592670911239
5.15425e-06;0.01473025794533478
5.15450e-06;0.014694589181557291
5.15475e-06;0.014658920417779801
5.15500e-06;0.014623251654002191
5.15525e-06;0.014587582890224701
5.15550e-06;0.014551914126447213
5.15575e-06;0.014516245362669603
5.15600e-06;0.014480576598892113
5.15625e-06;0.014444907835114623
5.15650e-06;0.014411103252640188
5.15675e-06;0.014379960878544484
5.15700e-06;0.014348818504448779
5.15725e-06;0.01431767613035297
5.15750e-06;0.014286533756257264
5.15775e-06;0.014255391382161453
5.15800e-06;0.014224249008065749
5.15825e-06;0.014193106633970044
5.15850e-06;0.014161964259874234
5.15875e-06;0.014130821885778529
5.15900e-06;0.014099679511682823
5.15925e-06;0.014068537137587014
5.15950e-06;0.01405758514112454
5.15975e-06;0.014048585046724028
5.16000e-06;0.014039584952323486
5.16025e-06;0.014030584857922974
5.16050e-06;0.014021584763522462
5.16075e-06;0.014012584669121921
5.16100e-06;0.014003584574721409
5.16125e-06;0.013994584480320897
5.16150e-06;0.013985584385920354
5.16175e-06;0.013995065197728869
5.16200e-06;0.014006332648677464
5.16225e-06;0.014017600099626019
5.16250e-06;0.014028867550574576
5.16275e-06;0.014040135001523171
5.16300e-06;0.014051402452471726
5.16325e-06;0.014062669903420283
5.16350e-06;0.014073937354368878
5.16375e-06;0.014085204805317433
5.16400e-06;0.01410809267300257
5.16425e-06;0.014132103942924003
5.16450e-06;0.014156115212845355
5.16475e-06;0.014180126482766706
5.16500e-06;0.01420413775268814
5.16525e-06;0.014228149022609491
5.16550e-06;0.014252160292530843
5.16575e-06;0.014276171562452278
5.16600e-06;0.01430018283237363
5.16625e-06;0.014324194102295063
5.16650e-06;0.014346973040138728
5.16675e-06;0.014367992103673916
5.16700e-06;0.014389011167209174
5.16725e-06;0.014410030230744362
5.16750e-06;0.01443104929427955
5.16775e-06;0.014452068357814808
5.16800e-06;0.014473087421349996
5.16825e-06;0.014494106484885182
5.16850e-06;0.014515125548420441
5.16875e-06;0.01453614461195563
5.16900e-06;0.014557163675490816
5.16925e-06;0.01456229564832043
5.16950e-06;0.014565891738778085
5.16975e-06;0.014569487829235742
5.17000e-06;0.014573083919693409
5.17025e-06;0.014576680010151066
5.17050e-06;0.014580276100608733
5.17075e-06;0.014583872191066388
5.17100e-06;0.014587468281524045
5.17125e-06;0.014591064371981712
5.17150e-06;0.014594660462439369
5.17175e-06;0.014598256552897024
5.17200e-06;0.014601852643354693
5.17225e-06;0.014605448733812348
5.17250e-06;0.014609044824270003
5.17275e-06;0.014612640914727672
5.17300e-06;0.014616237005185327
5.17325e-06;0.014614515568696673
5.17350e-06;0.014605200254530167
5.17375e-06;0.014595884940363693
5.17400e-06;0.014586569626197218
5.17425e-06;0.014577254312030712
5.17450e-06;0.014567938997864238
5.17475e-06;0.014558623683697732
5.17500e-06;0.014549308369531257
5.17525e-06;0.014539993055364782
5.17550e-06;0.014530677741198277
5.17575e-06;0.014521362427031802
5.17600e-06;0.014512047112865327
5.17625e-06;0.01450273179869882
5.17650e-06;0.014493416484532347
5.17675e-06;0.014484101170365872
5.17700e-06;0.014474785856199365
5.17725e-06;0.01446547054203289
5.17750e-06;0.014458062556487964
5.17775e-06;0.014450838961682649
5.17800e-06;0.014443615366877358
5.17825e-06;0.014436391772072068
5.17850e-06;0.014429168177266753
5.17875e-06;0.014421944582461462
5.17900e-06;0.014414720987656147
5.17925e-06;0.014407497392850856
5.17950e-06;0.014400273798045565
5.17975e-06;0.014393050203240249
5.18000e-06;0.014385826608434958
5.18025e-06;0.014378603013629667
5.18050e-06;0.014371379418824352
5.18075e-06;0.014364155824019061
5.18100e-06;0.01435987608596539
5.18125e-06;0.014359800424034844
5.18150e-06;0.0143597247621043
5.18175e-06;0.014359649100173755
5.18200e-06;0.014359573438243211
5.18225e-06;0.014359497776312666
5.18250e-06;0.014359422114382122
5.18275e-06;0.014359346452451576
5.18300e-06;0.014359270790521033
5.18325e-06;0.014359195128590487
5.18350e-06;0.014359119466659942
5.18375e-06;0.014359043804729398
5.18400e-06;0.014358968142798852
5.18425e-06;0.014358892480868309
5.18450e-06;0.014358816818937763
5.18475e-06;0.01436143402471493
5.18500e-06;0.014364311563117805
5.18525e-06;0.014367189101520681
5.18550e-06;0.014370066639923566
5.18575e-06;0.01437294417832644
5.18600e-06;0.014375821716729317
5.18625e-06;0.014378699255132202
5.18650e-06;0.014381576793535076
5.18675e-06;0.014384454331937952
5.18700e-06;0.014387331870340837
5.18725e-06;0.014390209408743714
5.18750e-06;0.014393086947146598
5.18775e-06;0.014395964485549473
5.18800e-06;0.014398842023952349
5.18825e-06;0.014401719562355234
5.18850e-06;0.014397700666195414
5.18875e-06;0.01439301505814618
5.18900e-06;0.01438832945009693
5.18925e-06;0.014383643842047697
5.18950e-06;0.014378958233998464
5.18975e-06;0.014374272625949213
5.19000e-06;0.01436958701789998
5.19025e-06;0.014364901409850746
5.19050e-06;0.014360215801801496
5.19075e-06;0.014355530193752263
5.19100e-06;0.01435084458570303
5.19125e-06;0.014346158977653779
5.19150e-06;0.014341473369604545
5.19175e-06;0.014336787761555296
5.19200e-06;0.014332102153506061
5.19225e-06;0.014316103035769703
5.19250e-06;0.014299010185996936
5.19275e-06;0.014281917336224225
5.19300e-06;0.014264824486451515
5.19325e-06;0.014247731636678748
5.19350e-06;0.014230638786906037
5.19375e-06;0.014213545937133327
5.19400e-06;0.01419645308736056
5.19425e-06;0.014179360237587849
5.19450e-06;0.014162267387815139
5.19475e-06;0.014145174538042371
5.19500e-06;0.01412808168826966
5.19525e-06;0.01411098883849695
5.19550e-06;0.014092370717164083
5.19575e-06;0.014073605140407166
5.19600e-06;0.014054839563650185
5.19625e-06;0.014036073986893266
5.19650e-06;0.01401730841013635
5.19675e-06;0.013998542833379368
5.19700e-06;0.013979777256622451
5.19725e-06;0.013961011679865534
5.19750e-06;0.013942246103108553
5.19775e-06;0.013923480526351634
5.19800e-06;0.013904714949594717
5.19825e-06;0.013885949372837736
5.19850e-06;0.01386718379608082
5.19875e-06;0.013851504154034208
5.19900e-06;0.01383612284431295
5.19925e-06;0.013820741534591745
5.19950e-06;0.01380536022487054
5.19975e-06;0.013789978915149282
5.20000e-06;0.013774597605428079
5.20025e-06;0.013759216295706821
5.20050e-06;0.013743834985985616
5.20075e-06;0.01372845367626441
5.20100e-06;0.013708924662355963
5.20125e-06;0.013688994669700048
5.20150e-06;0.013669064677044136
5.20175e-06;0.013649134684388156
