Time(s);Current(A)
1.45000e-05;-9.132240741278946e-05
1.45003e-05;-6.602327791299779e-05
1.45005e-05;-3.909260398670447e-05
1.45008e-05;-1.069562889110875e-05
1.45010e-05;1.8994550571357705e-05
1.45013e-05;4.980484726788516e-05
1.45015e-05;8.156408618195577e-05
1.45018e-05;0.00011417441622015983
1.45020e-05;0.00014763625788746364
1.45023e-05;0.0001812784410312548
1.45025e-05;0.00021579428259571666
1.45028e-05;0.00025031012416041243
1.45030e-05;0.00028482596572510817
1.45033e-05;0.00031884594642352164
1.45035e-05;0.00035262291241365204
1.45038e-05;0.00038639987840378244
1.45040e-05;0.0004198213657850513
1.45043e-05;0.00045152074860149266
1.45045e-05;0.0004827985605000424
1.45048e-05;0.0005120340857893948
1.45050e-05;0.0005406939451161164
1.45053e-05;0.0005665650093972075
1.45055e-05;0.0005916940799802981
1.45058e-05;0.0006132285862118445
1.45060e-05;0.0006338284681125385
1.45063e-05;0.0006499005928208736
1.45065e-05;0.0006649666291906888
1.45068e-05;0.0006751587033051802
1.45070e-05;0.0006843324887590945
1.45073e-05;0.0006885732078949595
1.45075e-05;0.0006917768399151492
1.45078e-05;0.0006899563371124258
1.45080e-05;0.0006870635007131168
1.45083e-05;0.0006789757790598067
1.45085e-05;0.0006698563832500163
1.45088e-05;0.0006557390755218598
1.45090e-05;0.0006406678669542956
1.45093e-05;0.0006209755167753386
1.45095e-05;0.0006004029009242846
1.45098e-05;0.0005755658666354908
1.45100e-05;0.0005499118938145569
1.45103e-05;0.0005203002888280452
1.45105e-05;0.0004899826263161264
1.45108e-05;0.00045624449107236037
1.45110e-05;0.00042193438731057023
1.45113e-05;0.000384853400652459
1.45115e-05;0.00034733194751681223
1.45118e-05;0.0003076766688474107
1.45120e-05;0.0002677059458761052
1.45123e-05;0.0002262070632382804
1.45125e-05;0.0001845426209880559
1.45128e-05;0.00014207613057499362
1.45130e-05;9.960964016193135e-05
1.45133e-05;5.718005510034096e-05
1.45135e-05;1.5017881569228708e-05
1.45138e-05;-2.6586278651805012e-05
1.45140e-05;-6.7398220966839e-05
1.45143e-05;-0.00010717871757856903
1.45145e-05;-0.00014566445055527185
1.45148e-05;-0.00018257702325140773
1.45150e-05;-0.00021763674326431273
1.45153e-05;-0.0002505639664387911
1.45155e-05;-0.00028109500863259765
1.45158e-05;-0.00030913145284929174
1.45160e-05;-0.0003350702876779308
1.45163e-05;-0.0003595749485975744
1.45165e-05;-0.0003827752507574416
1.45168e-05;-0.0004043273939102448
1.45170e-05;-0.0004253364210611108
1.45173e-05;-0.0004437143403932351
1.45175e-05;-0.0004614892899404422
1.45178e-05;-0.0004763431719617129
1.45180e-05;-0.0004907846158775924
1.45183e-05;-0.0005032280167970298
1.45185e-05;-0.0005152428096199596
1.45188e-05;-0.0005251812244493649
1.45190e-05;-0.0005351196392788377
1.45193e-05;-0.0005444569849177994
1.45195e-05;-0.0005508824703983326
1.45198e-05;-0.0005573079558789094
1.45200e-05;-0.0005632971877279778
1.45203e-05;-0.0005671730030375357
1.45205e-05;-0.0005710488183471199
1.45208e-05;-0.0005743732843940612
1.45210e-05;-0.0005750267568569932
1.45213e-05;-0.0005756802293199295
1.45215e-05;-0.0005763337017828659
1.45218e-05;-0.0005769871742457979
1.45220e-05;-0.0005776406467087342
1.45223e-05;-0.0005782941191716706
1.45225e-05;-0.0005784966805435559
1.45228e-05;-0.0005765148177893902
1.45230e-05;-0.0005745329550352245
1.45233e-05;-0.0005725510922810722
1.45235e-05;-0.0005705692295269065
1.45238e-05;-0.0005685873667727408
1.45240e-05;-0.0005666055040185886
1.45243e-05;-0.0005645981357788123
1.45245e-05;-0.0005624672070429188
1.45248e-05;-0.0005603362783070397
1.45250e-05;-0.0005582053495711462
1.45253e-05;-0.0005560744208352526
1.45255e-05;-0.0005539434920993736
1.45258e-05;-0.0005518125633634802
1.45260e-05;-0.0005491514618241104
1.45263e-05;-0.0005462305297592746
1.45265e-05;-0.0005433095976944586
1.45268e-05;-0.0005403886656296228
1.45270e-05;-0.0005374677335647868
1.45273e-05;-0.0005345468014999709
1.45275e-05;-0.0005311532971075865
1.45278e-05;-0.0005254704314324616
1.45280e-05;-0.0005197875657573753
1.45283e-05;-0.0005141047000822505
1.45285e-05;-0.0005084218344071255
1.45288e-05;-0.0005027389687320392
1.45290e-05;-0.0004970561030569144
1.45293e-05;-0.0004913732373817895
1.45295e-05;-0.00048569037170670317
1.45298e-05;-0.00047949953940630834
1.45300e-05;-0.00047084787929778344
1.45303e-05;-0.0004621962191893172
1.45305e-05;-0.0004535445590807923
1.45308e-05;-0.0004448928989722674
1.45310e-05;-0.0004362412388638011
1.45313e-05;-0.00042758957875527626
1.45315e-05;-0.0004189379186467513
1.45318e-05;-0.00041028625853828507
1.45320e-05;-0.00040147596243070863
1.45323e-05;-0.0003918971593809977
1.45325e-05;-0.0003823183563313517
1.45328e-05;-0.00037273955328164085
1.45330e-05;-0.0003631607502319299
1.45333e-05;-0.000353581947182284
1.45335e-05;-0.0003441691788936924
1.45338e-05;-0.00033556076060970835
1.45340e-05;-0.00032695234232578267
1.45343e-05;-0.0003183439240417986
1.45345e-05;-0.00030973550575781454
1.45348e-05;-0.00030112708747383047
1.45350e-05;-0.0002928268708987882
1.45353e-05;-0.00028601972748687867
1.45355e-05;-0.0002792125840749691
1.45358e-05;-0.00027266963074832544
1.45360e-05;-0.0002674065377042754
1.45363e-05;-0.0002623865796457749
1.45365e-05;-0.00025854448112380094
1.45368e-05;-0.0002549529448445014
1.45370e-05;-0.00025257524920766953
1.45373e-05;-0.00025045407903209586
1.45375e-05;-0.0002495756381174173
1.45378e-05;-0.00024895950163277193
1.45380e-05;-0.00024961409043548733
1.45383e-05;-0.0002505263126878728
1.45385e-05;-0.00025268663181502257
1.45388e-05;-0.00025508897793929253
1.45390e-05;-0.00025866381598620836
1.45393e-05;-0.0002625171624824699
1.45395e-05;-0.0002677197341110499
1.45398e-05;-0.0002729223057396652
1.45400e-05;-0.0002784211808584923
1.45403e-05;-0.0002853554886068971
1.45405e-05;-0.00029228979635534895
1.45408e-05;-0.0002995404551296742
1.45410e-05;-0.00030832366616868347
1.45413e-05;-0.00031710687720775223
1.45415e-05;-0.00032589008824682105
1.45418e-05;-0.00033467329928583034
1.45420e-05;-0.0003434565103248991
1.45423e-05;-0.0003524104793925017
1.45425e-05;-0.00036219168018041925
1.45428e-05;-0.0003719728809684031
1.45430e-05;-0.0003817540817563869
1.45433e-05;-0.00039153528254437075
1.45435e-05;-0.00040131648333228834
1.45438e-05;-0.00041098464564844593
1.45440e-05;-0.0004201051967610195
1.45443e-05;-0.0004292257478735313
1.45445e-05;-0.0004383462989861049
1.45448e-05;-0.0004471738942274616
1.45450e-05;-0.00045458227427017296
1.45453e-05;-0.0004619906543129345
1.45455e-05;-0.0004693990343556961
1.45458e-05;-0.0004763120016556808
1.45460e-05;-0.00048082495802163905
1.45463e-05;-0.0004846709626297501
1.45465e-05;-0.00048528594111921404
1.45468e-05;-0.0004852379167713364
1.45470e-05;-0.0004819779967218666
1.45473e-05;-0.0004780935098286292
1.45475e-05;-0.0004711833291556026
1.45478e-05;-0.00046359093387308547
1.45480e-05;-0.0004526935720833293
1.45483e-05;-0.0004412046067274656
1.45485e-05;-0.00042647145702073705
1.45488e-05;-0.00040955202338115957
1.45490e-05;-0.00039058644573186597
1.45493e-05;-0.00036971487816100175
1.45495e-05;-0.0003470733829733064
1.45498e-05;-0.0003227575985360655
1.45500e-05;-0.0002967494649217147
1.45503e-05;-0.0002689920337006504
1.45505e-05;-0.00023956056292381416
1.45508e-05;-0.00020863449899998111
1.45510e-05;-0.00017640361096600766
1.45513e-05;-0.00014305764459165128
1.45515e-05;-0.00010878376913828558
1.45518e-05;-7.37438719478488e-05
1.45520e-05;-3.8028560607639164e-05
1.45523e-05;-1.7040806833662493e-06
1.45525e-05;3.507862727191626e-05
1.45528e-05;7.208739519981751e-05
1.45530e-05;0.00010909616312796955
1.45533e-05;0.00014597521316054245
1.45535e-05;0.00018222583843164694
1.45538e-05;0.00021822103876072607
1.45540e-05;0.000252978841256459
1.45543e-05;0.00028736463850978576
1.45545e-05;0.0003199482684550788
1.45548e-05;0.0003520013736294743
1.45550e-05;0.00038148436878919853
1.45553e-05;0.000410466792213312
1.45555e-05;0.00043650251640642653
1.45558e-05;0.00046001090262705026
1.45560e-05;0.0004831624518425678
1.45563e-05;0.0005045853157804822
1.45565e-05;0.0005256968474236253
1.45568e-05;0.0005453001398813847
1.45570e-05;0.000564903432339144
1.45573e-05;0.0005839543008632206
1.45575e-05;0.0006003289695905392
1.45578e-05;0.0006167036383178576
1.45580e-05;0.0006327647006768679
1.45583e-05;0.0006473065071747895
1.45585e-05;0.0006618483136727111
1.45588e-05;0.0006757784666715265
1.45590e-05;0.0006867454841678761
1.45593e-05;0.0006977125016642259
1.45595e-05;0.0007086795191605012
1.45598e-05;0.0007196465366568508
1.45600e-05;0.0007306135541532004
1.45603e-05;0.00074158057164955
1.45605e-05;0.0007525475891458253
1.45608e-05;0.0007635146066421749
1.45610e-05;0.0007744816241385246
1.45613e-05;0.0007854486416348
1.45615e-05;0.0007964156591311496
1.45618e-05;0.0008073826766274992
1.45620e-05;0.0008183496941237745
1.45623e-05;0.0008264660906931477
1.45625e-05;0.0008331854364719265
1.45628e-05;0.0008399047822506597
1.45630e-05;0.0008466241280294384
1.45633e-05;0.0008533434738082172
1.45635e-05;0.0008600628195869504
1.45638e-05;0.0008667821653657291
1.45640e-05;0.0008735015111445078
1.45643e-05;0.000880220856923241
1.45645e-05;0.0008869402027020198
1.45648e-05;0.0008936595484807985
1.45650e-05;0.0009003788942595318
1.45653e-05;0.0009070982400383106
1.45655e-05;0.0009132110308170985
1.45658e-05;0.0009163853856050073
1.45660e-05;0.0009195597403929375
1.45663e-05;0.0009218427180883227
1.45665e-05;0.0009198074484193852
1.45668e-05;0.0009177721787504339
1.45670e-05;0.0009148344836430643
1.45673e-05;0.0009075250178187815
1.45675e-05;0.000900215551994449
1.45678e-05;0.0008921225184249631
1.45680e-05;0.0008802335163719765
1.45683e-05;0.0008674181115133189
1.45685e-05;0.0008501147783612333
1.45688e-05;0.0008328114452092651
1.45690e-05;0.0008145625920942599
1.45693e-05;0.0007917331982380325
1.45695e-05;0.0007689038043818051
1.45698e-05;0.0007452384643921437
1.45700e-05;0.0007175234105171444
1.45703e-05;0.0006898083566421452
1.45705e-05;0.0006613475925379744
1.45708e-05;0.0006292742594546329
1.45710e-05;0.0005972009263712914
1.45713e-05;0.0005646567106624099
1.45715e-05;0.0005298313193710796
1.45718e-05;0.0004950059280797493
1.45720e-05;0.00045988529990812556
1.45723e-05;0.0004233344062602632
1.45725e-05;0.0003867835126124009
1.45728e-05;0.00035023261896478624
1.45730e-05;0.0003138393456390347
1.45733e-05;0.0002775233199029582
1.45735e-05;0.0002412072941671278
1.45738e-05;0.00020512885920585144
1.45740e-05;0.00017035284845733791
1.45743e-05;0.00013649252822402915
1.45745e-05;0.0001037363653590066
1.45748e-05;7.231751450395686e-05
1.45750e-05;4.247358090787642e-05
1.45753e-05;1.4442121474143175e-05
1.45755e-05;-1.1545020354535672e-05
1.45758e-05;-3.5317074819346825e-05
1.45760e-05;-5.6896945884584354e-05
1.45763e-05;-7.644339200779496e-05
1.45765e-05;-9.400838369086708e-05
1.45768e-05;-0.0001095264110166053
1.45770e-05;-0.0001229187896766412
1.45773e-05;-0.0001341068956729329
1.45775e-05;-0.0001430156779590381
1.45778e-05;-0.0001496083517003368
1.45780e-05;-0.0001539694428079472
1.45783e-05;-0.00015626857851828882
1.45785e-05;-0.00015660849375159061
1.45788e-05;-0.0001550183113786807
1.45790e-05;-0.00015151892794984179
1.45793e-05;-0.00014613124250518436
1.45795e-05;-0.00013887840951216072
1.45798e-05;-0.0001298075754092181
1.45800e-05;-0.00011904185527047597
1.45803e-05;-0.00010675765236337879
1.45805e-05;-9.30894570191869e-05
1.45808e-05;-7.812565544478379e-05
1.45810e-05;-6.194947482954761e-05
1.45813e-05;-4.46441324794639e-05
1.45815e-05;-2.629425898023036e-05
1.45818e-05;-6.999500057170929e-06
1.45820e-05;1.3092913025122686e-05
1.45823e-05;3.3802378813040146e-05
1.45825e-05;5.499475391092193e-05
1.45828e-05;7.658183257406334e-05
1.45830e-05;9.819987204386586e-05
1.45833e-05;0.00011996790013503947
1.45835e-05;0.0001417359282260656
1.45838e-05;0.00016339687359453596
1.45840e-05;0.0001845390601915256
1.45843e-05;0.00020546089652676323
1.45845e-05;0.00022531525317795762
1.45848e-05;0.0002448463050353746
1.45850e-05;0.0002628111173219167
1.45853e-05;0.0002803525473177284
1.45855e-05;0.00029584291555917263
1.45858e-05;0.00031082400252946467
1.45860e-05;0.0003233378929262683
1.45863e-05;0.00033530397144379044
1.45865e-05;0.00034461619310779447
1.45868e-05;0.0003533617098226717
1.45870e-05;0.0003593618428211436
1.45873e-05;0.00036477699279653046
1.45875e-05;0.0003673582115197294
1.45878e-05;0.0003693450455024655
1.45880e-05;0.000368452401918524
1.45883e-05;0.00036698564604724186
1.45885e-05;0.00036273762184993214
1.45888e-05;0.0003579480676941346
1.45890e-05;0.0003505350892462111
1.45893e-05;0.0003426135391377457
1.45895e-05;0.00033222823014097144
1.45898e-05;0.0003213728651528592
1.45900e-05;0.000308240329183952
1.45903e-05;0.00029469484219939206
1.45905e-05;0.0002791488274342199
1.45908e-05;0.0002632546652811208
1.45910e-05;0.0002456739144171217
1.45913e-05;0.00022781004637065152
1.45915e-05;0.00020857462632986525
1.45918e-05;0.00018912459640342815
1.45920e-05;0.0001686348958575445
1.45923e-05;0.00014799480144635221
1.45925e-05;0.00012662612884074828
1.45928e-05;0.00010525745623528914
1.45930e-05;8.386232542664843e-05
1.45933e-05;6.233901871285966e-05
1.45935e-05;4.08636841626205e-05
1.45938e-05;1.9681823014667793e-05
1.45940e-05;-1.1197782069489147e-06
1.45943e-05;-2.1403931774464926e-05
1.45945e-05;-4.102882685423624e-05
1.45948e-05;-5.985181619449137e-05
1.45950e-05;-7.773031658865754e-05
1.45953e-05;-9.452176167820465e-05
1.45955e-05;-0.00011009258365837347
1.45958e-05;-0.00012440222728060205
1.45960e-05;-0.00013768775756139214
1.45963e-05;-0.00015033201800877964
1.45965e-05;-0.00016248148953116012
1.45968e-05;-0.00017401085110069434
1.45970e-05;-0.00018472102432898427
1.45973e-05;-0.0001951594963901864
1.45975e-05;-0.00020428172097294945
1.45978e-05;-0.00021316699414207933
1.45980e-05;-0.0002209043638843238
1.45983e-05;-0.00022851284096121594
1.45985e-05;-0.00023549690170783356
1.45988e-05;-0.00024229305176976006
1.45990e-05;-0.00024817887462341454
1.45993e-05;-0.0002540646974771089
1.45995e-05;-0.0002596983587676076
1.45998e-05;-0.0002641104315558808
1.46000e-05;-0.00026852250434418386
1.46003e-05;-0.00027279371902231615
1.46005e-05;-0.00027638255116101894
1.46008e-05;-0.00027997138329974606
1.46010e-05;-0.00028330448770999935
1.46013e-05;-0.0002853987274460706
1.46015e-05;-0.000287492967182156
1.46018e-05;-0.00028958720691824144
1.46020e-05;-0.00029168144665431267
1.46023e-05;-0.0002937756863903981
1.46025e-05;-0.00029586992612648354
1.46028e-05;-0.00029796416586255477
1.46030e-05;-0.0003000584055986402
1.46033e-05;-0.00030134114252374964
1.46035e-05;-0.00030222617288803863
1.46038e-05;-0.00030311120325232166
1.46040e-05;-0.00030399623361661066
1.46043e-05;-0.00030488126398089965
1.46045e-05;-0.0003057662943451826
1.46048e-05;-0.0003066513247094717
1.46050e-05;-0.00030753635507376067
1.46053e-05;-0.00030836152213507226
1.46055e-05;-0.0003088966833695125
1.46058e-05;-0.00030928738283413093
1.46060e-05;-0.0003086845876703445
1.46063e-05;-0.00030629205384936415
1.46065e-05;-0.00030176471739239873
1.46068e-05;-0.0002951751948673752
1.46070e-05;-0.00028663824688283707
1.46073e-05;-0.0002762685383257078
1.46075e-05;-0.0002641704172035416
1.46078e-05;-0.0002503430398314266
1.46080e-05;-0.00023448489775044012
1.46083e-05;-0.00021617565695423473
1.46085e-05;-0.00019531766292707345
1.46088e-05;-0.00017207495446362322
1.46090e-05;-0.0001466378514708708
1.46093e-05;-0.00011919671587882463
1.46095e-05;-8.993535104577894e-05
1.46098e-05;-5.8971711722745465e-05
1.46100e-05;-2.6235403260623304e-05
1.46103e-05;8.418390706837161e-06
1.46105e-05;4.493235539442849e-05
1.46108e-05;8.308525645638152e-05
1.46110e-05;0.00012263938522237073
1.46113e-05;0.00016342145490737142
1.46115e-05;0.00020531669533622895
1.46118e-05;0.0002474950579271531
1.46120e-05;0.0002910449966366282
1.46123e-05;0.0003345949353458082
1.46125e-05;0.0003782409627939874
1.46128e-05;0.00042235248901595563
1.46130e-05;0.00046646401523762495
1.46133e-05;0.0005105755414595932
1.46135e-05;0.0005541971948821971
1.46138e-05;0.0005954456754384503
1.46140e-05;0.000636694155994983
1.46143e-05;0.0006779426365515158
1.46145e-05;0.0007184660943097817
1.46148e-05;0.0007554772026709663
1.46150e-05;0.0007917591301652993
1.46153e-05;0.0008245085646324824
1.46155e-05;0.0008563343251844031
1.46158e-05;0.00088368537745188
1.46160e-05;0.0009099618552518803
1.46163e-05;0.0009310325919450987
1.46165e-05;0.0009509726824879
1.46168e-05;0.0009654353944758189
1.46170e-05;0.0009787363121449124
1.46173e-05;0.000986408954968247
1.46175e-05;0.0009928895217758771
1.46178e-05;0.0009935951150414726
1.46180e-05;0.0009931056643763465
1.46183e-05;0.000986826862201293
1.46185e-05;0.0009794094612578406
1.46188e-05;0.0009664761555602811
1.46190e-05;0.0009524762977295855
1.46193e-05;0.0009333095627286771
1.46195e-05;0.0009131488600397631
1.46198e-05;0.0008881729131683685
1.46200e-05;0.00086229268840322
1.46203e-05;0.000832031718751357
1.46205e-05;0.0008009933645122462
1.46208e-05;0.0007661889958880184
1.46210e-05;0.0007306121775820191
1.46213e-05;0.0006912932518809374
1.46215e-05;0.000651974326180122
1.46218e-05;0.0006120097660881988
1.46220e-05;0.000568917451158187
1.46223e-05;0.0005258251362284671
1.46225e-05;0.00048245576941906916
1.46228e-05;0.00043774423377776646
1.46230e-05;0.0003930326981367668
1.46233e-05;0.0003484419423616118
1.46235e-05;0.00030443630072548363
1.46238e-05;0.0002604306590896536
1.46240e-05;0.00021671508798921439
1.46243e-05;0.00017462996215970736
1.46245e-05;0.00013391156764011364
1.46248e-05;9.485517161484512e-05
1.46250e-05;5.775632577870213e-05
1.46253e-05;2.2910551477668083e-05
1.46255e-05;-9.39550303346722e-06
1.46258e-05;-3.8968892303893457e-05
1.46260e-05;-6.590841864598824e-05
1.46263e-05;-9.050209811568248e-05
1.46265e-05;-0.0001128508707776405
1.46268e-05;-0.00013286544493494468
1.46270e-05;-0.00015043569916299275
1.46273e-05;-0.00016545155569252842
1.46275e-05;-0.00017780850790285048
1.46278e-05;-0.00018746073085725465
1.46280e-05;-0.0001945452011234998
1.46283e-05;-0.00019931734981808099
1.46285e-05;-0.00020191543943033592
1.46288e-05;-0.00020235854349257625
1.46290e-05;-0.00020065273723578498
1.46293e-05;-0.000196804069664245
1.46295e-05;-0.0001908221113873399
1.46298e-05;-0.00018275320586049102
1.46300e-05;-0.00017275814559041783
1.46303e-05;-0.00016107198782191578
1.46305e-05;-0.0001478562979368398
1.46308e-05;-0.00013319803558684565
1.46310e-05;-0.00011717597153378994
1.46313e-05;-9.986888755058236e-05
1.46315e-05;-8.135775944865323e-05
1.46318e-05;-6.174657422398916e-05
1.46320e-05;-4.121102309474677e-05
1.46323e-05;-1.9973276972493565e-05
1.46325e-05;1.7905042758453914e-06
1.46328e-05;2.3965432690622527e-05
1.46330e-05;4.6453982493271714e-05
1.46333e-05;6.89573018438156e-05
1.46335e-05;9.153217178876243e-05
1.46338e-05;0.00011401286209630536
1.46340e-05;0.0001360373022097604
1.46343e-05;0.0001578337556565174
1.46345e-05;0.00017852573510003162
1.46348e-05;0.00019897820728740295
1.46350e-05;0.00021807589632124135
1.46353e-05;0.0002360107367664532
1.46355e-05;0.00025262892755471204
1.46358e-05;0.0002677669861779145
1.46360e-05;0.00028124601812689026
1.46363e-05;0.00029291857846926834
1.46365e-05;0.00030271813470514477
1.46368e-05;0.000310624023333185
1.46370e-05;0.00031661926763539884
1.46373e-05;0.00032068699734951335
1.46375e-05;0.00032280962358412305
1.46378e-05;0.0003229634221898877
1.46380e-05;0.0003211151009214486
1.46383e-05;0.00031725105563810665
1.46385e-05;0.00031140830273739374
1.46388e-05;0.0003036526583719661
1.46390e-05;0.00029405225460904836
1.46393e-05;0.00028267523347523093
1.46395e-05;0.00026958931217140893
1.46398e-05;0.0002548583848436442
1.46400e-05;0.00023854029191921043
1.46403e-05;0.00022070526528904558
1.46405e-05;0.000201455207519369
1.46408e-05;0.00018091006324072548
1.46410e-05;0.0001591912220398039
1.46413e-05;0.00013642006517645424
1.46415e-05;0.00011271770068982807
1.46418e-05;8.820285680215079e-05
1.46420e-05;6.299042797705342e-05
1.46423e-05;3.720308701869916e-05
1.46425e-05;1.0983333187917834e-05
1.46428e-05;-1.5505503320447923e-05
1.46430e-05;-4.207274820311849e-05
1.46433e-05;-6.86399930859691e-05
