Time(s);Current(A)
6.50000e-06;-0.003675111357086673
6.50025e-06;-0.0036614317389803263
6.50050e-06;-0.003648779023312201
6.50075e-06;-0.003636126307644119
6.50100e-06;-0.003623810278386331
6.50125e-06;-0.0036131643300358653
6.50150e-06;-0.0036025183816854357
6.50175e-06;-0.003592344500052686
6.50200e-06;-0.003584512232420572
6.50225e-06;-0.0035766799647884854
6.50250e-06;-0.003569391353845231
6.50275e-06;-0.0035647994678910744
6.50300e-06;-0.003560207581936933
6.50325e-06;-0.003556513808867862
6.50350e-06;-0.003557274985972115
6.50375e-06;-0.003558036163076368
6.50400e-06;-0.003558797340180624
6.50425e-06;-0.0035595585172848773
6.50450e-06;-0.0035603196943891306
6.50475e-06;-0.0035610808714933865
6.50500e-06;-0.0035663312659874953
6.50525e-06;-0.003573815087636311
6.50550e-06;-0.0035812989092851525
6.50575e-06;-0.0035887827309339683
6.50600e-06;-0.003596266552582784
6.50625e-06;-0.003603750374231625
6.50650e-06;-0.0036120770420370522
6.50675e-06;-0.0036245845179496256
6.50700e-06;-0.003637091993862242
6.50725e-06;-0.0036495994697748157
6.50750e-06;-0.003662106945687432
6.50775e-06;-0.003674614421600006
6.50800e-06;-0.0036871218975125792
6.50825e-06;-0.0036996293734251956
6.50850e-06;-0.003713156312164744
6.50875e-06;-0.0037271904430857075
6.50900e-06;-0.0037412245740067185
6.50925e-06;-0.003755258704927682
6.50950e-06;-0.003769292835848645
6.50975e-06;-0.0037833269667696557
6.51000e-06;-0.003797361097690619
6.51025e-06;-0.0038111245539359756
6.51050e-06;-0.0038235453702830206
6.51075e-06;-0.0038359661866300236
6.51100e-06;-0.0038475982119508642
6.51125e-06;-0.0038553175612861105
6.51150e-06;-0.0038630369106213303
6.51175e-06;-0.0038707562599565766
6.51200e-06;-0.003878475609291797
6.51225e-06;-0.003886194958627017
6.51250e-06;-0.0038939143079622634
6.51275e-06;-0.0039016336572974836
6.51300e-06;-0.003909353006632704
6.51325e-06;-0.00391188017549698
6.51350e-06;-0.003911824186575142
6.51375e-06;-0.003911768197653303
6.51400e-06;-0.003911712208731465
6.51425e-06;-0.003911656219809626
6.51450e-06;-0.0039116002308877875
6.51475e-06;-0.0039115442419659485
6.51500e-06;-0.003911488253044109
6.51525e-06;-0.003910344462931926
6.51550e-06;-0.003903804803124445
6.51575e-06;-0.0038972651433169863
6.51600e-06;-0.0038907254835095057
6.51625e-06;-0.003884185823702047
6.51650e-06;-0.0038776461638945887
6.51675e-06;-0.003871106504087108
6.51700e-06;-0.0038645668442796495
6.51725e-06;-0.0038574430517144846
6.51750e-06;-0.003847421758877114
6.51775e-06;-0.0038374004660397774
6.51800e-06;-0.0038273791732024408
6.51825e-06;-0.0038173578803650703
6.51850e-06;-0.0038073365875277336
6.51875e-06;-0.003797315294690397
6.51900e-06;-0.003787294001853026
6.51925e-06;-0.0037773605754392076
6.51950e-06;-0.003767862996840258
6.51975e-06;-0.0037583654182412767
6.52000e-06;-0.0037488678396423274
6.52025e-06;-0.003739370261043346
6.52050e-06;-0.0037298726824443965
6.52075e-06;-0.003720375103845447
6.52100e-06;-0.0037108775252464657
6.52125e-06;-0.0037013799466475163
6.52150e-06;-0.003691882368048567
6.52175e-06;-0.003686757567844946
6.52200e-06;-0.0036838082653190486
6.52225e-06;-0.0036808589627931516
6.52250e-06;-0.003677909660267244
6.52275e-06;-0.0036749603577413466
6.52300e-06;-0.0036720110552154496
6.52325e-06;-0.003669061752689542
6.52350e-06;-0.003666112450163645
6.52375e-06;-0.0036631631476377476
6.52400e-06;-0.003661630737831316
6.52425e-06;-0.003667126605390204
6.52450e-06;-0.0036726224729491104
6.52475e-06;-0.0036781183405079987
6.52500e-06;-0.0036836142080668866
6.52525e-06;-0.003689110075625793
6.52550e-06;-0.003694605943184681
6.52575e-06;-0.0037010875000688987
6.52600e-06;-0.0037124584165206635
6.52625e-06;-0.0037238293329723902
6.52650e-06;-0.003735200249424117
6.52675e-06;-0.0037465711658758822
6.52700e-06;-0.0037579420823276085
6.52725e-06;-0.003769312998779335
6.52750e-06;-0.0037812034680163964
6.52775e-06;-0.0037956710985517605
6.52800e-06;-0.0038101387290871247
6.52825e-06;-0.003824606359622538
6.52850e-06;-0.003839073990157902
6.52875e-06;-0.003853541620693315
6.52900e-06;-0.0038680092512286793
6.52925e-06;-0.0038824768817640434
6.52950e-06;-0.0038966712939531114
6.52975e-06;-0.003909510448759099
6.53000e-06;-0.003922349603565087
6.53025e-06;-0.003935188758371119
6.53050e-06;-0.0039480279131771075
6.53075e-06;-0.003960867067983096
6.53100e-06;-0.003973706222789127
6.53125e-06;-0.003986545377595115
6.53150e-06;-0.003998747576322739
6.53175e-06;-0.004007790252860998
6.53200e-06;-0.004016832929399227
6.53225e-06;-0.004025875605937456
6.53250e-06;-0.004034918282475717
6.53275e-06;-0.004043960959013946
6.53300e-06;-0.004053003635552205
6.53325e-06;-0.004062046312090434
6.53350e-06;-0.004071088988628663
6.53375e-06;-0.004080202907908976
6.53400e-06;-0.004089670215801086
6.53425e-06;-0.0040991375236931965
6.53450e-06;-0.00410860483158534
6.53475e-06;-0.00411807213947745
6.53500e-06;-0.004127539447369561
6.53525e-06;-0.004137006755261703
6.53550e-06;-0.0041464740631538145
6.53575e-06;-0.004155941371045925
6.53600e-06;-0.004165612634947905
6.53625e-06;-0.004176295591116433
6.53650e-06;-0.0041869785472849605
6.53675e-06;-0.004197661503453525
6.53700e-06;-0.004208344459622053
6.53725e-06;-0.004219027415790617
6.53750e-06;-0.004229710371959145
6.53775e-06;-0.004240393328127673
6.53800e-06;-0.004251076284296237
6.53825e-06;-0.004261759240464766
6.53850e-06;-0.004271884372142132
6.53875e-06;-0.0042817319809782374
6.53900e-06;-0.00429157958981431
6.53925e-06;-0.004301427198650382
6.53950e-06;-0.004311274807486487
6.53975e-06;-0.004321122416322558
6.54000e-06;-0.00433097002515863
6.54025e-06;-0.0043408176339947355
6.54050e-06;-0.004350665242830808
6.54075e-06;-0.004360178893517921
6.54100e-06;-0.004368035996418692
6.54125e-06;-0.004375685517049292
6.54150e-06;-0.0043823053579096815
6.54175e-06;-0.004388459837914899
6.54200e-06;-0.004392305967317417
6.54225e-06;-0.004395130839347584
6.54250e-06;-0.00439288992201263
6.54275e-06;-0.004390649004677677
6.54300e-06;-0.004387233923271143
6.54325e-06;-0.00437799458244924
6.54350e-06;-0.004368755241627339
6.54375e-06;-0.004358254313113069
6.54400e-06;-0.0043414954738237215
6.54425e-06;-0.004324736634534374
6.54450e-06;-0.004306309324427652
6.54475e-06;-0.0042796058226865705
6.54500e-06;-0.004252902320945489
6.54525e-06;-0.004226198819204317
6.54550e-06;-0.0041994953174632355
6.54575e-06;-0.004166192958350511
6.54600e-06;-0.004129607606691305
6.54625e-06;-0.0040930222550321
6.54650e-06;-0.00405643690337277
6.54675e-06;-0.00401874132989095
6.54700e-06;-0.0039755386726384
6.54725e-06;-0.003932336015385704
6.54750e-06;-0.003888686200766432
6.54775e-06;-0.003842818331135976
6.54800e-06;-0.0037967467855631845
6.54825e-06;-0.003749560403619304
6.54850e-06;-0.003701796631847384
6.54875e-06;-0.003653729289927455
6.54900e-06;-0.0036056405310857086
6.54925e-06;-0.003557813321131545
6.54950e-06;-0.0035105278195143525
6.54975e-06;-0.003464043250189234
6.55000e-06;-0.003418558172772853
6.55025e-06;-0.0033742490722186765
6.55050e-06;-0.003331361152935762
6.55075e-06;-0.0032901952007974786
6.55100e-06;-0.003251274832299885
6.55125e-06;-0.003215332183762428
6.55150e-06;-0.003180278342035913
6.55175e-06;-0.0031496332891335125
6.55200e-06;-0.003119559888271419
6.55225e-06;-0.003092322079008157
6.55250e-06;-0.003065674183868731
6.55275e-06;-0.0030419524665707
6.55300e-06;-0.003018230749272589
6.55325e-06;-0.0029954119927141313
6.55350e-06;-0.0029770722333543743
6.55375e-06;-0.002958732473994555
6.55400e-06;-0.002941343078664737
6.55425e-06;-0.002928667817229285
6.55450e-06;-0.0029159925557938754
6.55475e-06;-0.002903317294358466
6.55500e-06;-0.002890642032923014
6.55525e-06;-0.0028779667714876043
6.55550e-06;-0.002866329981310343
6.55575e-06;-0.0028598443673160203
6.55600e-06;-0.00285335875332172
6.55625e-06;-0.0028468731393274196
6.55650e-06;-0.0028403875253330975
6.55675e-06;-0.002833901911338797
6.55700e-06;-0.0028281484498856113
6.55725e-06;-0.0028260267179601355
6.55750e-06;-0.002823904986034667
6.55775e-06;-0.0028217832541091985
6.55800e-06;-0.0028196615221837227
6.55825e-06;-0.0028175397902582538
6.55850e-06;-0.002815418058332778
6.55875e-06;-0.002814939663469913
6.55900e-06;-0.0028152788439875683
6.55925e-06;-0.0028156180245052244
6.55950e-06;-0.0028159572050228798
6.55975e-06;-0.002816296385540535
6.56000e-06;-0.0028166355660581913
6.56025e-06;-0.0028170528951716694
6.56050e-06;-0.0028178578683169956
6.56075e-06;-0.0028186628414623243
6.56100e-06;-0.0028194445198716387
6.56125e-06;-0.0028200960386763883
6.56150e-06;-0.0028206722368677127
6.56175e-06;-0.0028213153854109076
6.56200e-06;-0.002822574705522549
6.56225e-06;-0.0028251694371331116
6.56250e-06;-0.0028293900803566725
6.56275e-06;-0.002835289796337981
6.56300e-06;-0.002842995908566315
6.56325e-06;-0.0028511363068107875
6.56350e-06;-0.002861430913719978
6.56375e-06;-0.0028723916927863064
6.56400e-06;-0.002886656915882121
6.56425e-06;-0.0029009221389779834
6.56450e-06;-0.002916345616974219
6.56475e-06;-0.0029375144393968427
6.56500e-06;-0.002958683261819538
6.56525e-06;-0.0029798520842421617
6.56550e-06;-0.003001020906664785
6.56575e-06;-0.00302335872118153
6.56600e-06;-0.003051495140313882
6.56625e-06;-0.003079631559446234
6.56650e-06;-0.003107767978578681
6.56675e-06;-0.003135904397711033
6.56700e-06;-0.0031647319504366856
6.56725e-06;-0.0031969877645369907
6.56750e-06;-0.0032292435786372958
6.56775e-06;-0.003261763187068036
6.56800e-06;-0.003295591306504936
6.56825e-06;-0.0033294194259418358
6.56850e-06;-0.0033633400862893427
6.56875e-06;-0.0033977197815210584
6.56900e-06;-0.003432099476752774
6.56925e-06;-0.00346626675888866
6.56950e-06;-0.003499380398690401
6.56975e-06;-0.0035324940384921415
6.57000e-06;-0.0035651613803191454
6.57025e-06;-0.0035956149300171406
6.57050e-06;-0.0036260684797151358
6.57075e-06;-0.0036554924619782636
6.57100e-06;-0.00367980943409986
6.57125e-06;-0.0037041264062215385
6.57150e-06;-0.0037284433783431347
6.57175e-06;-0.003752760350464731
6.57200e-06;-0.0037762407902562243
6.57225e-06;-0.0037955717407101015
6.57250e-06;-0.003814902691163979
6.57275e-06;-0.0038342336416179222
6.57300e-06;-0.0038535645920717994
6.57325e-06;-0.0038723914725637756
6.57350e-06;-0.003888717991914038
6.57375e-06;-0.0039050445112642452
6.57400e-06;-0.003921371030614453
6.57425e-06;-0.003937697549964715
6.57450e-06;-0.003954024069314922
6.57475e-06;-0.003970350588665129
6.57500e-06;-0.003986677108015392
6.57525e-06;-0.004002211930324696
6.57550e-06;-0.004017352876037476
6.57575e-06;-0.004032493821750205
6.57600e-06;-0.004047634767462934
6.57625e-06;-0.004062775713175714
6.57650e-06;-0.004077916658888443
6.57675e-06;-0.004093057604601171
6.57700e-06;-0.00410789283471816
6.57725e-06;-0.00412121160987088
6.57750e-06;-0.004134530385023601
6.57775e-06;-0.0041478491601763656
6.57800e-06;-0.004161167935329086
6.57825e-06;-0.004174486710481806
6.57850e-06;-0.004187805485634572
6.57875e-06;-0.0042011242607872925
6.57900e-06;-0.004214443035940012
6.57925e-06;-0.004227761811092778
6.57950e-06;-0.004241080586245498
6.57975e-06;-0.004254399361398264
6.58000e-06;-0.004267718136550983
6.58025e-06;-0.004281036911703704
6.58050e-06;-0.004289763655141287
6.58075e-06;-0.004296205820350474
6.58100e-06;-0.0043026479855596605
6.58125e-06;-0.004309090150768869
6.58150e-06;-0.004315532315978056
6.58175e-06;-0.004321974481187242
6.58200e-06;-0.004328416646396451
6.58225e-06;-0.004334858811605637
6.58250e-06;-0.004341300976814824
6.58275e-06;-0.0043477431420240326
6.58300e-06;-0.004354185307233219
6.58325e-06;-0.004360627472442405
6.58350e-06;-0.004367069637651614
6.58375e-06;-0.0043720354027175345
6.58400e-06;-0.004369677713053759
6.58425e-06;-0.004367320023389991
6.58450e-06;-0.004364962333726223
6.58475e-06;-0.004362604644062447
6.58500e-06;-0.00436024695439868
6.58525e-06;-0.004357889264734912
6.58550e-06;-0.004355531575071136
6.58575e-06;-0.004353173885407368
6.58600e-06;-0.0043508161957436006
6.58625e-06;-0.004347597082627226
6.58650e-06;-0.004340105011609603
6.58675e-06;-0.004332612940591981
6.58700e-06;-0.004325120869574332
6.58725e-06;-0.004317628798556709
6.58750e-06;-0.004310136727539086
6.58775e-06;-0.0043026446565214375
6.58800e-06;-0.004295152585503815
6.58825e-06;-0.004287660514486167
6.58850e-06;-0.004280168443468543
6.58875e-06;-0.004272471167832145
6.58900e-06;-0.004263756006399293
6.58925e-06;-0.004255040844966471
6.58950e-06;-0.004246325683533648
6.58975e-06;-0.004237610522100796
6.59000e-06;-0.004228895360667974
6.59025e-06;-0.004220410125701798
6.59050e-06;-0.004213065405437497
6.59075e-06;-0.004205720685173222
6.59100e-06;-0.004198375964908946
6.59125e-06;-0.004191031244644645
6.59150e-06;-0.004183686524380369
6.59175e-06;-0.004176547430957991
6.59200e-06;-0.00417042831770446
6.59225e-06;-0.004164309204450951
6.59250e-06;-0.00415819009119742
6.59275e-06;-0.004152070977943911
6.59300e-06;-0.004145951864690401
6.59325e-06;-0.0041398327514368715
6.59350e-06;-0.004133713638183362
6.59375e-06;-0.004127594524929852
6.59400e-06;-0.004121475411676322
6.59425e-06;-0.004115356298422812
6.59450e-06;-0.004109237185169303
6.59475e-06;-0.004102522223833667
6.59500e-06;-0.004095510822569102
6.59525e-06;-0.004088499421304537
6.59550e-06;-0.004081488020039948
6.59575e-06;-0.004074476618775384
6.59600e-06;-0.004067465217510819
6.59625e-06;-0.004060453816246231
6.59650e-06;-0.004053442414981665
6.59675e-06;-0.004046431013717077
6.59700e-06;-0.004039419612452512
6.59725e-06;-0.004032408211187947
6.59750e-06;-0.004025361969491913
6.59775e-06;-0.0040181429072204695
6.59800e-06;-0.004010923844949026
6.59825e-06;-0.0040037047826775585
6.59850e-06;-0.003996485720406115
6.59875e-06;-0.003989266658134673
6.59900e-06;-0.003982047595863204
6.59925e-06;-0.003974828533591762
6.59950e-06;-0.003967609471320318
6.59975e-06;-0.003960390409048851
6.60000e-06;-0.003953171346777407
6.60025e-06;-0.003946302930713037
6.60050e-06;-0.0039411738409647025
6.60075e-06;-0.003936044751216385
6.60100e-06;-0.003930915661468067
6.60125e-06;-0.003925786571719732
6.60150e-06;-0.003920657481971414
6.60175e-06;-0.003915528392223079
6.60200e-06;-0.003910399302474762
6.60225e-06;-0.0039052702127264447
6.60250e-06;-0.0039001411229781097
6.60275e-06;-0.003895012033229792
6.60300e-06;-0.003890303645538379
6.60325e-06;-0.003887682085378413
6.60350e-06;-0.0038850605252184556
6.60375e-06;-0.003882438965058498
6.60400e-06;-0.0038798174048985316
6.60425e-06;-0.003877195844738574
6.60450e-06;-0.0038745742845786167
6.60475e-06;-0.00387195272441865
6.60500e-06;-0.0038693311642586927
6.60525e-06;-0.0038667096040987353
6.60550e-06;-0.0038640880439387688
6.60575e-06;-0.0038614664837788113
6.60600e-06;-0.0038588449236188448
6.60625e-06;-0.0038562233634588873
6.60650e-06;-0.00385360180329893
6.60675e-06;-0.0038509802431389638
6.60700e-06;-0.003848358682979006
6.60725e-06;-0.003846616830171781
6.60750e-06;-0.0038453126399045604
6.60775e-06;-0.003844008449637344
6.60800e-06;-0.003842704259370128
6.60825e-06;-0.003841400069102907
6.60850e-06;-0.003840095878835691
6.60875e-06;-0.0038387916885684746
6.60900e-06;-0.003837487498301254
6.60925e-06;-0.003836183308034038
6.60950e-06;-0.0038348791177668217
6.60975e-06;-0.003833574927499601
6.61000e-06;-0.003832270737232385
6.61025e-06;-0.0038309665469651645
6.61050e-06;-0.0038296623566979483
6.61075e-06;-0.003828358166430732
6.61100e-06;-0.003827053976163511
6.61125e-06;-0.0038258257687110715
6.61150e-06;-0.0038249744622676583
6.61175e-06;-0.0038241231558242424
6.61200e-06;-0.0038236782637472064
6.61225e-06;-0.0038252493273203685
6.61250e-06;-0.0038268203908935353
6.61275e-06;-0.0038293072949293046
6.61300e-06;-0.003836337084030105
6.61325e-06;-0.003843366873130929
6.61350e-06;-0.0038503966622317294
6.61375e-06;-0.0038574264513325297
6.61400e-06;-0.003864456240433354
6.61425e-06;-0.0038714860295341537
6.61450e-06;-0.0038798711247193486
6.61475e-06;-0.00389497900626324
6.61500e-06;-0.003910086887807132
6.61525e-06;-0.003925194769351075
6.61550e-06;-0.003940302650894967
6.61575e-06;-0.003955410532438858
6.61600e-06;-0.003970518413982801
6.61625e-06;-0.003986714822845828
6.61650e-06;-0.004008310703235036
6.61675e-06;-0.004029906583624319
6.61700e-06;-0.0040515024640135275
6.61725e-06;-0.004073098344402736
6.61750e-06;-0.004094694224792018
6.61775e-06;-0.0041162901051812265
6.61800e-06;-0.004137885985570435
6.61825e-06;-0.0041606606425283015
6.61850e-06;-0.004184021751725447
6.61875e-06;-0.004207382860922671
6.61900e-06;-0.0042307439701198156
6.61925e-06;-0.004254105079316961
6.61950e-06;-0.004277466188514185
6.61975e-06;-0.0043008272977113305
6.62000e-06;-0.004323674539007171
6.62025e-06;-0.004343972818001263
6.62050e-06;-0.004364271096995285
6.62075e-06;-0.004384569375989308
6.62100e-06;-0.0044048676549834
6.62125e-06;-0.004421760745289756
6.62150e-06;-0.004436959722746915
6.62175e-06;-0.004452158700204125
6.62200e-06;-0.004467357677661283
6.62225e-06;-0.00448134663253139
6.62250e-06;-0.004489333457378046
6.62275e-06;-0.004497320282224676
6.62300e-06;-0.004505307107071333
6.62325e-06;-0.004513293931917963
6.62350e-06;-0.004521280756764593
6.62375e-06;-0.00452926758161125
6.62400e-06;-0.004537254406457879
6.62425e-06;-0.004545241231304509
6.62450e-06;-0.004553228056151166
6.62475e-06;-0.004561214880997796
6.62500e-06;-0.004569201705844425
6.62525e-06;-0.004577188530691082
6.62550e-06;-0.004585175355537712
6.62575e-06;-0.004593162180384342
6.62600e-06;-0.0046011490052309985
6.62625e-06;-0.004609135830077628
6.62650e-06;-0.004613077629386108
6.62675e-06;-0.004615006991097963
6.62700e-06;-0.004616936352809811
6.62725e-06;-0.0046188657145216664
6.62750e-06;-0.004620795076233516
6.62775e-06;-0.004622724437945364
6.62800e-06;-0.004624653799657219
6.62825e-06;-0.0046265831613690675
6.62850e-06;-0.004628512523080917
6.62875e-06;-0.004630441884792772
6.62900e-06;-0.00463237124650462
6.62925e-06;-0.0046343006082164686
6.62950e-06;-0.004636229969928324
6.62975e-06;-0.004638159331640173
6.63000e-06;-0.004640088693352021
6.63025e-06;-0.0046420180550638766
6.63050e-06;-0.0046437085625736976
6.63075e-06;-0.004644214270731714
6.63100e-06;-0.004644719978889732
6.63125e-06;-0.0046451764673147685
6.63150e-06;-0.004645388808861782
6.63175e-06;-0.004645204540925503
6.63200e-06;-0.004643052952947498
6.63225e-06;-0.004639737891212591
6.63250e-06;-0.004630651597733785
6.63275e-06;-0.004621565304254977
6.63300e-06;-0.00461119049545948
6.63325e-06;-0.0045944242055895364
6.63350e-06;-0.004577657915719592
6.63375e-06;-0.004559478576795802
6.63400e-06;-0.0045342900264427515
6.63425e-06;-0.004509101476089701
6.63450e-06;-0.004481948164275425
6.63475e-06;-0.004445048956908602
6.63500e-06;-0.0044081497495417786
6.63525e-06;-0.0043712505421748295
6.63550e-06;-0.004334351334808006
6.63575e-06;-0.004289799470651866
6.63600e-06;-0.004241440339004367
6.63625e-06;-0.004193081207356868
6.63650e-06;-0.004144722075709205
6.63675e-06;-0.004095174751929069
6.63700e-06;-0.004039733584723497
6.63725e-06;-0.003983843033542901
6.63750e-06;-0.003925723382612735
6.63775e-06;-0.003867363101876849
6.63800e-06;-0.00380765733614835
6.63825e-06;-0.003747077028615724
6.63850e-06;-0.0036858329190935886
6.63875e-06;-0.003624276212907372
6.63900e-06;-0.003562772415104749
6.63925e-06;-0.0035016868760286836
6.63950e-06;-0.0034413817803474194
6.63975e-06;-0.0033821847577542355
6.64000e-06;-0.003324322895378519
6.64025e-06;-0.0032679828489053744
6.64050e-06;-0.003213458449594851
6.64075e-06;-0.003161131861502835
6.64100e-06;-0.0031113937744497284
6.64125e-06;-0.003064634917318683
6.64150e-06;-0.0030212318374731612
6.64175e-06;-0.0029814075086192758
6.64200e-06;-0.0029449065555541753
6.64225e-06;-0.002911181227648257
6.64250e-06;-0.002880028505261943
6.64275e-06;-0.002851579676320771
6.64300e-06;-0.002826002727359541
6.64325e-06;-0.0028034651808010462
6.64350e-06;-0.0027843861805398377
6.64375e-06;-0.002769338219625115
6.64400e-06;-0.0027551954916331463
6.64425e-06;-0.0027455430316391553
6.64450e-06;-0.002737110576479424
6.64475e-06;-0.0027347297667327415
6.64500e-06;-0.0027323489569860506
6.64525e-06;-0.002729968147239368
