Time(s);Current(A)
7.50000e-07;-0.00018113635680372164
7.50250e-07;-0.00016937022788908338
7.50500e-07;-0.00015816943649311945
7.50750e-07;-0.00014722349313429952
7.51000e-07;-0.00013695184469707282
7.51250e-07;-0.0001269841611154417
7.51500e-07;-0.00011765913674896777
7.51750e-07;-0.00010912768554273516
7.52000e-07;-0.00010142323291853795
7.52250e-07;-9.472045283623277e-05
7.52500e-07;-8.915828125074451e-05
7.52750e-07;-8.478601199737712e-05
7.53000e-07;-8.160740822650413e-05
7.53250e-07;-7.961917343572491e-05
7.53500e-07;-7.881800434028259e-05
7.53750e-07;-7.920210220708954e-05
7.54000e-07;-8.079465006330244e-05
7.54250e-07;-8.365196880882459e-05
7.54500e-07;-8.780799081504302e-05
7.54750e-07;-9.324050261457935e-05
7.55000e-07;-9.989875773222752e-05
7.55250e-07;-0.00010772759487252904
7.55500e-07;-0.00011667184497046237
7.55750e-07;-0.00012667729735251488
7.56000e-07;-0.00013770537640298797
7.56250e-07;-0.0001497382710344518
7.56500e-07;-0.00016274415019128482
7.56750e-07;-0.0001769296096573669
7.57000e-07;-0.00019151230946239936
7.57250e-07;-0.00020706862471326845
7.57500e-07;-0.0002230638352737728
7.57750e-07;-0.00023994132997862033
7.58000e-07;-0.00025721654883048464
7.58250e-07;-0.00027449176768234166
7.58500e-07;-0.0002924288287831485
7.58750e-07;-0.0003106642412094423
7.59000e-07;-0.00032889965363573604
7.59250e-07;-0.0003471350660620298
7.59500e-07;-0.0003652397014249885
7.59750e-07;-0.0003827841953837482
7.60000e-07;-0.0004003286893425153
7.60250e-07;-0.0004178731833012824
7.60500e-07;-0.0004354176772600495
7.60750e-07;-0.0004514817079790714
7.61000e-07;-0.00046687836188643846
7.61250e-07;-0.000482275015793812
7.61500e-07;-0.0004960601143172612
7.61750e-07;-0.0005091187411087235
7.62000e-07;-0.0005220007335342205
7.62250e-07;-0.0005348031010985112
7.62500e-07;-0.0005504663235100757
7.62750e-07;-0.0005674191883358013
7.63000e-07;-0.0005873174036305486
7.63250e-07;-0.0006085433510515928
7.63500e-07;-0.0006315795750410295
7.63750e-07;-0.0006570492852882671
7.64000e-07;-0.0006832481169079508
7.64250e-07;-0.000712933074987957
7.64500e-07;-0.0007441895411605926
7.64750e-07;-0.0007795157794770589
7.65000e-07;-0.0008166766270459434
7.65250e-07;-0.0008571352713275145
7.65500e-07;-0.0008990805266890119
7.65750e-07;-0.0009443418807984056
7.66000e-07;-0.0009910980963471691
7.66250e-07;-0.0010378543118959329
7.66500e-07;-0.001089082576583493
7.66750e-07;-0.0011423267926406319
7.67000e-07;-0.0011955710086977934
7.67250e-07;-0.001251815501390242
7.67500e-07;-0.0013094124863305126
7.67750e-07;-0.001367009471270783
7.68000e-07;-0.001426129222985802
7.68250e-07;-0.001485935421488357
7.68500e-07;-0.0015457416199909373
7.68750e-07;-0.0016061645643137585
7.69000e-07;-0.0016668655309799005
7.69250e-07;-0.0017275664976460427
7.69500e-07;-0.0017867312969972121
7.69750e-07;-0.0018452036087422995
7.70000e-07;-0.001903675920487387
7.70250e-07;-0.0019590226699079723
7.70500e-07;-0.0020129604496474714
7.70750e-07;-0.0020668982293869705
7.71000e-07;-0.002115871871288387
7.71250e-07;-0.0021626077335583846
7.71500e-07;-0.002209343595828382
7.71750e-07;-0.0022457881412690133
7.72000e-07;-0.002277593472422542
7.72250e-07;-0.002309398803576058
7.72500e-07;-0.002341204134729587
7.72750e-07;-0.0023730094658831156
7.73000e-07;-0.002404814797036645
7.73250e-07;-0.0024366201281901738
7.73500e-07;-0.002456035977865041
7.73750e-07;-0.0024698667833284852
7.74000e-07;-0.0024836975887919358
7.74250e-07;-0.002497528394255386
7.74500e-07;-0.0025113591997188364
7.74750e-07;-0.0025251900051822865
7.75000e-07;-0.002539020810645737
7.75250e-07;-0.002541558077450813
7.75500e-07;-0.0025390043392110742
7.75750e-07;-0.0025364506009713356
7.76000e-07;-0.002533896862731597
7.76250e-07;-0.0025313431244918584
7.76500e-07;-0.0025287893862521206
7.76750e-07;-0.002526235648012382
7.77000e-07;-0.0025236819097726433
7.77250e-07;-0.0025211281715329047
7.77500e-07;-0.0025112583624541016
7.77750e-07;-0.0024980905477920423
7.78000e-07;-0.002484922733129989
7.78250e-07;-0.00247175491846793
7.78500e-07;-0.0024585871038058705
7.78750e-07;-0.0024454192891438116
7.79000e-07;-0.0024322514744817524
7.79250e-07;-0.002419083659819693
7.79500e-07;-0.0024059158451576394
7.79750e-07;-0.00239126990544059
7.80000e-07;-0.0023759576429402637
7.80250e-07;-0.002360645380439938
7.80500e-07;-0.0023467265455501727
7.80750e-07;-0.0023334358527520626
7.81000e-07;-0.0023201451599539472
7.81250e-07;-0.002306854467155832
7.81500e-07;-0.002293563774357716
7.81750e-07;-0.0022810578193930855
7.82000e-07;-0.002271913036034403
7.82250e-07;-0.002262768252675724
7.82500e-07;-0.002253623469317041
7.82750e-07;-0.0022444786859583585
7.83000e-07;-0.002235333902599676
7.83250e-07;-0.002230604426851404
7.83500e-07;-0.002227865324005658
7.83750e-07;-0.002225126221159914
7.84000e-07;-0.0022223871183141685
7.84250e-07;-0.0022196480154684233
7.84500e-07;-0.0022169089126226776
7.84750e-07;-0.0022141698097769323
7.85000e-07;-0.002211430706931188
7.85250e-07;-0.0022086916040854427
7.85500e-07;-0.002205952501239697
7.85750e-07;-0.002203213398393952
7.86000e-07;-0.002200474295548206
7.86250e-07;-0.002197735192702461
7.86500e-07;-0.0021949960898567165
7.86750e-07;-0.0021960608604547184
7.87000e-07;-0.002198840376047898
7.87250e-07;-0.002201619891641078
7.87500e-07;-0.0022043994072342573
7.87750e-07;-0.0022071789228274357
7.88000e-07;-0.0022099584384206155
7.88250e-07;-0.0022127379540137953
7.88500e-07;-0.0022155174696069746
7.88750e-07;-0.0022182969852001543
7.89000e-07;-0.002221076500793334
7.89250e-07;-0.0022238560163865126
7.89500e-07;-0.0022266355319796923
7.89750e-07;-0.0022294150475728716
7.90000e-07;-0.0022321945631660514
7.90250e-07;-0.002235404283098988
7.90500e-07;-0.002238807934494003
7.90750e-07;-0.0022422115858890157
7.91000e-07;-0.0022454906445624214
7.91250e-07;-0.0022482360504663054
7.91500e-07;-0.0022509814563701895
7.91750e-07;-0.002253726862274074
7.92000e-07;-0.0022547935209494144
7.92250e-07;-0.0022551034185361177
7.92500e-07;-0.002251299109553077
7.92750e-07;-0.00224564016075907
7.93000e-07;-0.0022347643629417953
7.93250e-07;-0.002221536866024746
7.93500e-07;-0.0022083093691077026
7.93750e-07;-0.002189211258689197
7.94000e-07;-0.002167466739217075
7.94250e-07;-0.002145722219744953
7.94500e-07;-0.002116481208055582
7.94750e-07;-0.002083860858777529
7.95000e-07;-0.00205124050949949
7.95250e-07;-0.0020120009887997377
7.95500e-07;-0.001969777617234396
7.95750e-07;-0.0019275542456690538
7.96000e-07;-0.0018806402035770955
7.96250e-07;-0.0018316116579590591
7.96500e-07;-0.0017786632938469244
7.96750e-07;-0.0017239479179652823
7.97000e-07;-0.0016660595027953914
7.97250e-07;-0.0016067407158427468
7.97500e-07;-0.0015456502089658453
7.97750e-07;-0.001482898259805771
7.98000e-07;-0.0014190299023914806
7.98250e-07;-0.001354123456104736
7.98500e-07;-0.0012882862352368788
7.98750e-07;-0.0012218022974246302
7.99000e-07;-0.0011550546254969053
7.99250e-07;-0.0010884422471067658
7.99500e-07;-0.001022364117562056
7.99750e-07;-0.0009572156614894543
8.00000e-07;-0.0008933265979609054
8.00250e-07;-0.0008309239208327752
8.00500e-07;-0.0007702527406856285
8.00750e-07;-0.0007116688814750216
8.01000e-07;-0.0006555901796405926
8.01250e-07;-0.0006024444355061491
8.01500e-07;-0.0005526593990854611
8.01750e-07;-0.0005066673721942783
8.02000e-07;-0.00046496709520979496
8.02250e-07;-0.00042810798247682456
8.02500e-07;-0.00039648486872629875
8.02750e-07;-0.00037025842297607993
8.03000e-07;-0.00034948358844201987
8.03250e-07;-0.0003342000788607388
8.03500e-07;-0.0003244475627531525
8.03750e-07;-0.00032026859737936935
8.04000e-07;-0.00032174722377180485
8.04250e-07;-0.0003289992777652074
8.04500e-07;-0.0003420437710399237
8.04750e-07;-0.0003607530244644206
8.05000e-07;-0.0003849330574410538
8.05250e-07;-0.0004143804161086413
8.05500e-07;-0.00044889164463160166
8.05750e-07;-0.00048826508359321475
8.06000e-07;-0.0005323250836847854
8.06250e-07;-0.000580915859515467
8.06500e-07;-0.000633821045114356
8.06750e-07;-0.0006919543837103362
8.07000e-07;-0.000751850881697547
8.07250e-07;-0.0008161452243351505
8.07500e-07;-0.0008824220677618715
8.07750e-07;-0.000952792782906666
8.08000e-07;-0.0010250089711313195
8.08250e-07;-0.0010972251593559727
8.08500e-07;-0.0011723590544202552
8.08750e-07;-0.0012488082201618576
8.09000e-07;-0.001325257385903428
8.09250e-07;-0.0014019209335406476
8.09500e-07;-0.0014786811222170645
8.09750e-07;-0.0015554413108934814
8.10000e-07;-0.001630332926639534
8.10250e-07;-0.001704382209924228
8.10500e-07;-0.0017754830132724582
8.10750e-07;-0.0018452546737642824
8.11000e-07;-0.0019106935464198972
8.11250e-07;-0.001974179245194354
8.11500e-07;-0.002031921328002069
8.11750e-07;-0.0020870742508707746
8.12000e-07;-0.0021347597828950443
8.12250e-07;-0.0021790790959145584
8.12500e-07;-0.00221430521961659
8.12750e-07;-0.002245432231951354
8.13000e-07;-0.0022671462073444574
8.13250e-07;-0.002284616887521662
8.13500e-07;-0.0022925932448457052
8.13750e-07;-0.002296289664144354
8.14000e-07;-0.0022902144416261723
8.14250e-07;-0.0022797342686940243
8.14500e-07;-0.0022592668416605084
8.14750e-07;-0.002234297268527825
8.15000e-07;-0.002199942582932462
8.15250e-07;-0.002161357190174212
8.15500e-07;-0.0021141386398168573
8.15750e-07;-0.0020630283554138908
8.16000e-07;-0.0020058584590723137
8.16250e-07;-0.0019420671074014705
8.16500e-07;-0.0018728288408556722
8.16750e-07;-0.0017985284661308286
8.17000e-07;-0.0017196180158384506
8.17250e-07;-0.001636559702876381
8.17500e-07;-0.0015498157322448754
8.17750e-07;-0.0014598461062171107
8.18000e-07;-0.0013670794384026796
8.18250e-07;-0.0012719108130479183
8.18500e-07;-0.0011747835126173774
8.18750e-07;-0.0010762293242776466
8.19000e-07;-0.0009768222442601894
8.19250e-07;-0.0008771426249793236
8.19500e-07;-0.0007777706945365481
8.19750e-07;-0.0006792852846827182
8.20000e-07;-0.0005822456127882503
8.20250e-07;-0.00048718972521278236
8.20500e-07;-0.0003946858176133631
8.20750e-07;-0.0003053575957696093
8.21000e-07;-0.0002198551342010239
8.21250e-07;-0.00013883236087176409
8.21500e-07;-6.294314278393933e-05
8.21750e-07;7.1738379110123445e-06
8.22000e-07;7.117651419901953e-05
8.22250e-07;0.00012927302785812033
8.22500e-07;0.00018180634464352345
8.22750e-07;0.00022881143821492798
8.23000e-07;0.00027011118236867004
8.23250e-07;0.0003054904661722589
8.23500e-07;0.0003347342433968867
8.23750e-07;0.0003576370638917382
8.24000e-07;0.000374179199894451
8.24250e-07;0.00038468563622126285
8.24500e-07;0.0003895657829733348
8.24750e-07;0.0003890360595715077
8.25000e-07;0.00038318007791029123
8.25250e-07;0.00037205763534372654
8.25500e-07;0.00035572857132163847
8.25750e-07;0.0003342587104478865
8.26000e-07;0.00030783030724556676
8.26250e-07;0.0002768414085600936
8.26500e-07;0.00024174294968003527
8.26750e-07;0.0002028650190615902
8.27000e-07;0.0001604544216702514
8.27250e-07;0.00011474305279914862
8.27500e-07;6.596283409079711e-05
8.27750e-07;1.4349410212747838e-05
8.28000e-07;-3.978866661531738e-05
8.28250e-07;-9.600766468001608e-05
8.28500e-07;-0.00015383077095706748
8.28750e-07;-0.0002131149397004607
8.29000e-07;-0.00027285354213148606
8.29250e-07;-0.000333101390165974
8.29500e-07;-0.00039357880060910116
8.29750e-07;-0.0004540562110522283
8.30000e-07;-0.0005135473878762173
8.30250e-07;-0.0005725939812544902
8.30500e-07;-0.0006293587816016772
8.30750e-07;-0.0006850949743365892
8.31000e-07;-0.0007373800866348376
8.31250e-07;-0.0007881094892086168
8.31500e-07;-0.0008342673416266533
8.31750e-07;-0.0008783643886929693
8.32000e-07;-0.0009169206935396663
8.32250e-07;-0.000952979291737663
8.32500e-07;-0.000983082814247042
8.32750e-07;-0.0010105018530624657
8.33000e-07;-0.0010318022814531703
8.33250e-07;-0.001050344506460138
8.33500e-07;-0.0010630363677990903
8.33750e-07;-0.0010730909484901164
8.34000e-07;-0.0010763609632418942
8.34250e-07;-0.0010748331328233936
8.34500e-07;-0.0010689207103204328
8.34750e-07;-0.0010570578089692355
8.35000e-07;-0.0010385722357588803
8.35250e-07;-0.0010148074447917735
8.35500e-07;-0.0009890316583813531
8.35750e-07;-0.000957073671480489
8.36000e-07;-0.0009211762211917313
8.36250e-07;-0.0008829503700888171
8.36500e-07;-0.0008396661056956663
8.36750e-07;-0.000793924126169811
8.37000e-07;-0.000742842800078149
8.37250e-07;-0.0006903299619115114
8.37500e-07;-0.0006340057373554781
8.37750e-07;-0.0005755365384726159
8.38000e-07;-0.000515184433710404
8.38250e-07;-0.0004532396721255264
8.38500e-07;-0.0003898636568966016
8.38750e-07;-0.0003249876208389801
8.39000e-07;-0.00025891264523613273
8.39250e-07;-0.00019220734008720838
8.39500e-07;-0.00012541021866933365
8.39750e-07;-5.9008418663078464e-05
8.40000e-07;6.660051900000028e-06
8.40250e-07;7.123956530501974e-05
8.40500e-07;0.0001344552729744941
8.40750e-07;0.00019617645162986662
8.41000e-07;0.00025604075700039013
8.41250e-07;0.0003135182833748236
8.41500e-07;0.00036809803056624
8.41750e-07;0.00041933013098210037
8.42000e-07;0.00046705470046972774
8.42250e-07;0.000511495128355358
8.42500e-07;0.0005530665252991424
8.42750e-07;0.0005919999426070468
8.43000e-07;0.000627681251415023
8.43250e-07;0.0006602825182815728
8.43500e-07;0.0006907751342762688
8.43750e-07;0.0007166867401931862
8.44000e-07;0.0007405501049138763
8.44250e-07;0.0007599636986047104
8.44500e-07;0.0007776913531979645
8.44750e-07;0.0007917563322389598
8.45000e-07;0.0008041770397217283
8.45250e-07;0.0008130255937108109
8.45500e-07;0.0008201795393322266
8.45750e-07;0.0008236519755516789
8.46000e-07;0.0008255856759620968
8.46250e-07;0.0008241764975952122
8.46500e-07;0.0008213077719265062
8.46750e-07;0.0008152682032377857
8.47000e-07;0.0008092286345490677
8.47250e-07;0.0008016785518127083
8.47500e-07;0.0007908469016214112
8.47750e-07;0.000780015251430114
8.48000e-07;0.0007680848515273862
8.48250e-07;0.000753767435562286
8.48500e-07;0.0007394500195971919
8.48750e-07;0.0007246714963181111
8.49000e-07;0.0007088912248214874
8.49250e-07;0.0006931109533248636
8.49500e-07;0.0006772521354891795
8.49750e-07;0.0006612226769961852
8.50000e-07;0.0006454121244530523
8.50250e-07;0.0006300771415624166
8.50500e-07;0.0006154771721090306
8.50750e-07;0.000602474007517142
8.51000e-07;0.0005894708429252534
8.51250e-07;0.0005772985827657233
8.51500e-07;0.0005674392940348828
8.51750e-07;0.0005591603294267375
8.52000e-07;0.0005516957089237718
8.52250e-07;0.0005437487624984084
8.52500e-07;0.0005343247742759514
8.52750e-07;0.0005216919365240764
8.53000e-07;0.0005080280060627063
8.53250e-07;0.0004915570730235105
8.53500e-07;0.0004733775871855824
8.53750e-07;0.00045372156389673375
8.54000e-07;0.0004324635320455519
8.54250e-07;0.00040881976012763536
8.54500e-07;0.0003819500133578808
8.54750e-07;0.0003517360782938974
8.55000e-07;0.00031850759289019434
8.55250e-07;0.0002826196276647639
8.55500e-07;0.0002444279529083385
8.55750e-07;0.00020425401200054242
8.56000e-07;0.00016219538012457845
8.56250e-07;0.00011812182770596163
8.56500e-07;8.247588751825005e-05
8.56750e-07;3.733031541290187e-05
8.57000e-07;-1.770535989917742e-05
8.57250e-07;-5.3255116917128395e-05
8.57500e-07;-0.00011995078597373678
8.57750e-07;-0.00018001911443029492
8.58000e-07;-0.0002359388900031711
8.58250e-07;-0.0002917698969503306
8.58500e-07;-0.0003482639953690285
8.58750e-07;-0.00040529718054168863
8.59000e-07;-0.00046250594625239924
8.59250e-07;-0.0005216042390491758
8.59500e-07;-0.0005811170466875602
8.59750e-07;-0.0006386520984296318
8.60000e-07;-0.0006925755385354324
8.60250e-07;-0.0007435570864634832
8.60500e-07;-0.0007940426280418655
8.60750e-07;-0.0008419707543787119
8.61000e-07;-0.0008871974899716454
8.61250e-07;-0.0009295543612499694
8.61500e-07;-0.0009713802035951028
8.61750e-07;-0.0010081169230316558
8.62000e-07;-0.0010393274229322574
8.62250e-07;-0.0010660038820799397
8.62500e-07;-0.0010918917392712044
8.62750e-07;-0.0011138806222734659
8.63000e-07;-0.001135005695818147
8.63250e-07;-0.0011525919394703796
8.63500e-07;-0.0011693941628696611
8.63750e-07;-0.0011804351258405316
8.64000e-07;-0.0011901996937894053
8.64250e-07;-0.0011945164161135887
8.64500e-07;-0.0011976261798004443
8.64750e-07;-0.0012007359434873
8.65000e-07;-0.0011991640854563707
8.65250e-07;-0.0011965550240686928
8.65500e-07;-0.001193945962681016
8.65750e-07;-0.0011856595697024973
8.66000e-07;-0.001176115375957838
8.66250e-07;-0.0011665711822131785
8.66500e-07;-0.0011529991349101144
8.66750e-07;-0.00113853472519866
8.67000e-07;-0.0011240703154872
8.67250e-07;-0.0011066853283574368
8.67500e-07;-0.0010886532934983755
8.67750e-07;-0.0010706212586393143
8.68000e-07;-0.0010494577759517488
8.68250e-07;-0.001027600527643
8.68500e-07;-0.001005743279334242
8.68750e-07;-0.0009825685198183898
8.69000e-07;-0.0009591018684904818
8.69250e-07;-0.0009356352171625737
8.69500e-07;-0.0009114401130813774
8.69750e-07;-0.0008870836218385418
8.70000e-07;-0.0008627271305956959
8.70250e-07;-0.0008383509278298718
8.70500e-07;-0.0008139703580179614
8.70750e-07;-0.000789589788206051
8.71000e-07;-0.0007662417622895974
8.71250e-07;-0.0007431224942820209
8.71500e-07;-0.0007209675343095246
8.71750e-07;-0.0006995455601563381
8.72000e-07;-0.0006780818749427864
8.72250e-07;-0.0006548438718783277
8.72500e-07;-0.0006281889272102967
8.72750e-07;-0.0005976733254576569
8.73000e-07;-0.000563497665957832
8.73250e-07;-0.0005260069824625934
8.73500e-07;-0.0004855116067691383
8.73750e-07;-0.00044216183851520806
8.74000e-07;-0.00039574675054867116
8.74250e-07;-0.0003454148006912861
8.74500e-07;-0.0002903709834924877
8.74750e-07;-0.00023057122694016525
8.75000e-07;-0.00016637514684151453
8.75250e-07;-9.823278294634768e-05
8.75500e-07;-2.6572380388230994e-05
8.75750e-07;4.8278095487254416e-05
8.76000e-07;0.00012621689100077496
8.76250e-07;0.00020754357403922807
8.76500e-07;0.0002925222593450762
8.76750e-07;0.0003809466038619222
8.77000e-07;0.000472357492956949
8.77250e-07;0.0005662391572974331
8.77500e-07;0.0006620895449606502
8.77750e-07;0.0007594694056766764
8.78000e-07;0.0008580812846961578
8.78250e-07;0.0009578790298373722
8.78500e-07;0.0010587943187602947
8.78750e-07;0.0011604641787046589
8.79000e-07;0.0012623672803178277
8.79250e-07;0.0013639468860517433
8.79500e-07;0.001464654781404374
8.79750e-07;0.0015639822094355338
8.80000e-07;0.0016615093999171767
8.80250e-07;0.0017569738179235171
8.80500e-07;0.0018500991005695499
8.80750e-07;0.0019404243902657868
8.81000e-07;0.0020273897277273047
8.81250e-07;0.0021104126185520085
8.81500e-07;0.002188916642034849
8.81750e-07;0.0022623504257086413
8.82000e-07;0.0023302849697049532
8.82250e-07;0.0023925745581781805
8.82500e-07;0.002446902429329823
8.82750e-07;0.002499693867395292
8.83000e-07;0.002542919609912539
8.83250e-07;0.0025840260928802735
8.83500e-07;0.0026151022855801136
8.83750e-07;0.0026439562887561946
8.84000e-07;0.0026625942590780115
8.84250e-07;0.0026789688890002227
8.84500e-07;0.002685680520562158
8.84750e-07;0.0026902513353430487
8.85000e-07;0.002683477811269439
8.85250e-07;0.0026741909729962356
8.85500e-07;0.0026649041347230284
8.85750e-07;0.002642970789926674
8.86000e-07;0.0026182356384470322
8.86250e-07;0.0025935004869673908
8.86500e-07;0.002561330422217974
8.86750e-07;0.002524256335400849
8.87000e-07;0.0024834487961816728
8.87250e-07;0.0024392050859079212
8.87500e-07;0.0023918235884739483
8.87750e-07;0.0023416089342873816
8.88000e-07;0.002288896034464216
8.88250e-07;0.0022340893083083978
8.88500e-07;0.002177632693283492
8.88750e-07;0.0021199525318010394
8.89000e-07;0.0020614566722880765
8.89250e-07;0.0020025496260279935
8.89500e-07;0.0019436357245473609
8.89750e-07;0.0018851238527299195
8.90000e-07;0.0018274414443963435
8.90250e-07;0.001771059559031561
8.90500e-07;0.0017164740712409437
8.90750e-07;0.0016641696310256023
8.91000e-07;0.0016159743686194035
8.91250e-07;0.0015685943221660766
8.91500e-07;0.0015274007236983948
8.91750e-07;0.0014875777196538024
8.92000e-07;0.0014537461291140748
8.92250e-07;0.0014212419235221118
8.92500e-07;0.0013919318423659204
8.92750e-07;0.0013633294127002953
8.93000e-07;0.0013347269830346702
8.93250e-07;0.0013106635723041083
8.93500e-07;0.0012876057715864564
8.93750e-07;0.0012645479708688144
8.94000e-07;0.0012462433950482562
