Time(s);Current(A)
1.30000e-06;-0.013961381823328683
1.30025e-06;-0.013948890768565255
1.30050e-06;-0.013938897534059235
1.30075e-06;-0.013928904299553216
1.30100e-06;-0.013918911065047187
1.30125e-06;-0.013908917830541169
1.30150e-06;-0.01389892459603514
1.30175e-06;-0.013890758609992277
1.30200e-06;-0.01388793284425481
1.30225e-06;-0.013885107078517343
1.30250e-06;-0.013882281312779878
1.30275e-06;-0.01387945554704241
1.30300e-06;-0.013876629781304944
1.30325e-06;-0.013873804015567476
1.30350e-06;-0.013871962761972875
1.30375e-06;-0.013872998791814094
1.30400e-06;-0.013874034821655314
1.30425e-06;-0.013875070851496533
1.30450e-06;-0.013876106881337752
1.30475e-06;-0.013877142911178971
1.30500e-06;-0.01387817894102019
1.30525e-06;-0.013879318466855299
1.30550e-06;-0.013880760464641661
1.30575e-06;-0.013882202462428026
1.30600e-06;-0.013883209301252971
1.30625e-06;-0.013882944367372333
1.30650e-06;-0.013882679433491696
1.30675e-06;-0.013882414499611058
1.30700e-06;-0.01388214956573042
1.30725e-06;-0.013881884631849783
1.30750e-06;-0.013881619697969146
1.30775e-06;-0.013881354764088506
1.30800e-06;-0.013881089830207869
1.30825e-06;-0.013878151089142532
1.30850e-06;-0.013874344390294313
1.30875e-06;-0.01387053769144609
1.30900e-06;-0.013866730992597871
1.30925e-06;-0.013862924293749652
1.30950e-06;-0.013859117594901429
1.30975e-06;-0.01385531089605321
1.31000e-06;-0.013851504197204987
1.31025e-06;-0.013846884998806293
1.31050e-06;-0.013839891231932218
1.31075e-06;-0.013832897465058138
1.31100e-06;-0.013825903698184063
1.31125e-06;-0.013818909931309981
1.31150e-06;-0.013811916164435906
1.31175e-06;-0.013804922397561831
1.31200e-06;-0.013797928630687751
1.31225e-06;-0.013790501913863695
1.31250e-06;-0.0137818098802748
1.31275e-06;-0.013773117846685914
1.31300e-06;-0.01376442581309702
1.31325e-06;-0.013755733779508134
1.31350e-06;-0.013747041745919248
1.31375e-06;-0.013738349712330355
1.31400e-06;-0.013729657678741469
1.31425e-06;-0.013720943903531834
1.31450e-06;-0.013712166587404328
1.31475e-06;-0.013703389271276822
1.31500e-06;-0.01369461195514931
1.31525e-06;-0.013686263523484383
1.31550e-06;-0.013678054314127388
1.31575e-06;-0.0136698451047704
1.31600e-06;-0.013661788222431737
1.31625e-06;-0.013654263659103787
1.31650e-06;-0.013647101072540352
1.31675e-06;-0.013640452515554919
1.31700e-06;-0.013634740761599679
1.31725e-06;-0.013630695027460955
1.31750e-06;-0.013628518992265366
1.31775e-06;-0.013627159353232682
1.31800e-06;-0.013628185670709909
1.31825e-06;-0.013629968789923145
1.31850e-06;-0.013633963698106962
1.31875e-06;-0.013639029920978308
1.31900e-06;-0.013647227111839215
1.31925e-06;-0.013655424302700128
1.31950e-06;-0.013665512449260758
1.31975e-06;-0.013681127003546774
1.32000e-06;-0.013696741557832775
1.32025e-06;-0.013712356112118778
1.32050e-06;-0.013727970666404793
1.32075e-06;-0.013743585220690795
1.32100e-06;-0.013765032220164689
1.32125e-06;-0.013788372518535572
1.32150e-06;-0.013811712816906475
1.32175e-06;-0.013835053115277359
1.32200e-06;-0.013858393413648242
1.32225e-06;-0.013882956279132087
1.32250e-06;-0.013911092154992937
1.32275e-06;-0.013939228030853812
1.32300e-06;-0.013967363906714662
1.32325e-06;-0.013995499782575511
1.32350e-06;-0.014023635658436385
1.32375e-06;-0.014051811817913824
1.32400e-06;-0.014080105708171526
1.32425e-06;-0.014108399598429203
1.32450e-06;-0.014136693488686878
1.32475e-06;-0.01416498737894458
1.32500e-06;-0.014193281269202255
1.32525e-06;-0.01422067768163651
1.32550e-06;-0.014245451172562141
1.32575e-06;-0.014270224663487792
1.32600e-06;-0.014291658769226343
1.32625e-06;-0.014303333363360435
1.32650e-06;-0.014315007957494538
1.32675e-06;-0.01432668255162863
1.32700e-06;-0.014338357145762733
1.32725e-06;-0.014350031739896825
1.32750e-06;-0.014361706334030918
1.32775e-06;-0.014373380928165019
1.32800e-06;-0.014385055522299111
1.32825e-06;-0.014396730116433214
1.32850e-06;-0.014408404710567306
1.32875e-06;-0.014420079304701398
1.32900e-06;-0.014431753898835501
1.32925e-06;-0.014443428492969593
1.32950e-06;-0.014455103087103694
1.32975e-06;-0.014466777681237787
1.33000e-06;-0.01447845227537189
1.33025e-06;-0.014490126869505982
1.33050e-06;-0.014501801463640074
1.33075e-06;-0.014513476057774177
1.33100e-06;-0.014522402826486473
1.33125e-06;-0.01452329894506777
1.33150e-06;-0.014524195063649065
1.33175e-06;-0.01452509118223036
1.33200e-06;-0.014525987300811656
1.33225e-06;-0.01452688341939295
1.33250e-06;-0.014527779537974246
1.33275e-06;-0.01452867565655554
1.33300e-06;-0.014529571775136836
1.33325e-06;-0.014530467893718133
1.33350e-06;-0.014531364012299427
1.33375e-06;-0.014532260130880723
1.33400e-06;-0.014533156249462017
1.33425e-06;-0.014534052368043313
1.33450e-06;-0.01453494848662461
1.33475e-06;-0.014535844605205904
1.33500e-06;-0.0145367407237872
1.33525e-06;-0.014537636842368494
1.33550e-06;-0.01453853296094979
1.33575e-06;-0.014539429079531084
1.33600e-06;-0.01453980162189641
1.33625e-06;-0.01453864398793616
1.33650e-06;-0.014537326208792858
1.33675e-06;-0.01453554039775603
1.33700e-06;-0.014532719835942894
1.33725e-06;-0.014526875165905466
1.33750e-06;-0.014521030495868033
1.33775e-06;-0.014513705462277813
1.33800e-06;-0.014502053995987647
1.33825e-06;-0.014490402529697492
1.33850e-06;-0.014477356727931611
1.33875e-06;-0.014460235914601596
1.33900e-06;-0.01444311510127158
1.33925e-06;-0.014423820608260593
1.33950e-06;-0.014398173433279692
1.33975e-06;-0.014372526258298766
1.34000e-06;-0.014346879083317863
1.34025e-06;-0.014321231908336961
1.34050e-06;-0.014289174277758243
1.34075e-06;-0.014255035717463135
1.34100e-06;-0.014220897157167997
1.34125e-06;-0.01418675859687289
1.34150e-06;-0.014151054436374527
1.34175e-06;-0.014110774735022372
1.34200e-06;-0.014070495033670253
1.34225e-06;-0.0140295450730864
1.34250e-06;-0.013986636248106142
1.34275e-06;-0.013943379234970237
1.34300e-06;-0.013899104625434304
1.34325e-06;-0.013854611463428382
1.34350e-06;-0.013809405019071845
1.34375e-06;-0.01376397143212572
1.34400e-06;-0.013718566816297947
1.34425e-06;-0.013673447285296627
1.34450e-06;-0.01362886657854978
1.34475e-06;-0.01358505368943997
1.34500e-06;-0.013542171561004705
1.34525e-06;-0.013500358579032888
1.34550e-06;-0.013459821189419144
1.34575e-06;-0.013420826718521165
1.34600e-06;-0.01338364875613727
1.34625e-06;-0.013348562736321614
1.34650e-06;-0.013315843161805653
1.34675e-06;-0.013285760517434441
1.34700e-06;-0.01325855657928919
1.34725e-06;-0.013234393631657244
1.34750e-06;-0.013213352241501742
1.34775e-06;-0.013195478737523386
1.34800e-06;-0.013180818279672369
1.34825e-06;-0.013169414877537672
1.34850e-06;-0.013161312997174894
1.34875e-06;-0.013156982475283232
1.34900e-06;-0.01315641390285143
1.34925e-06;-0.01315791685011035
1.34950e-06;-0.013165473911921645
1.34975e-06;-0.013173030973732933
1.35000e-06;-0.013183401530911808
1.35025e-06;-0.013201994661752021
1.35050e-06;-0.013220587792592218
1.35075e-06;-0.013239180923432431
1.35100e-06;-0.013257774054272628
1.35125e-06;-0.013284612703739271
1.35150e-06;-0.013314127971813434
1.35175e-06;-0.013343643239887574
1.35200e-06;-0.013373158507961736
1.35225e-06;-0.013404315880815604
1.35250e-06;-0.013440272382776388
1.35275e-06;-0.013476228884737143
1.35300e-06;-0.013512958293966423
1.35325e-06;-0.01355194656134844
1.35350e-06;-0.013590934828730427
1.35375e-06;-0.0136301498398483
1.35400e-06;-0.013670027520289042
1.35425e-06;-0.013709905200729787
1.35450e-06;-0.013749552259444115
1.35475e-06;-0.01378852531522405
1.35500e-06;-0.01382701081261493
1.35525e-06;-0.01386407139748789
1.35550e-06;-0.01390036259694092
1.35575e-06;-0.013934405231010867
1.35600e-06;-0.0139673913105001
1.35625e-06;-0.013997289559113007
1.35650e-06;-0.01402551726434842
1.35675e-06;-0.014048862727326326
1.35700e-06;-0.014072208190304213
1.35725e-06;-0.014093445530108622
1.35750e-06;-0.014108521779946509
1.35775e-06;-0.014123598029784384
1.35800e-06;-0.01413644016132575
1.35825e-06;-0.014142752976177352
1.35850e-06;-0.014149065791028953
1.35875e-06;-0.014152213741061877
1.35900e-06;-0.014146112223547128
1.35925e-06;-0.014140010706032373
1.35950e-06;-0.014133909188517623
1.35975e-06;-0.014127807671002874
1.36000e-06;-0.01412170615348812
1.36025e-06;-0.014104992717673832
1.36050e-06;-0.014084834494543329
1.36075e-06;-0.014064676271412845
1.36100e-06;-0.014044518048282342
1.36125e-06;-0.014024359825151858
1.36150e-06;-0.014001730307546718
1.36175e-06;-0.013971878314621681
1.36200e-06;-0.013942026321696669
1.36225e-06;-0.013912174328771634
1.36250e-06;-0.013882322335846622
1.36275e-06;-0.013848493826179163
1.36300e-06;-0.013813374479732675
1.36325e-06;-0.013778255133286219
1.36350e-06;-0.01374313578683973
1.36375e-06;-0.013707642755108976
1.36400e-06;-0.013671031255902836
1.36425e-06;-0.013634365290057992
1.36450e-06;-0.013597838134592848
1.36475e-06;-0.013561651741025083
1.36500e-06;-0.013526027655425373
1.36525e-06;-0.013491206159017914
1.36550e-06;-0.013457424446463067
1.36575e-06;-0.013424909979507599
1.36600e-06;-0.01339388813821454
1.36625e-06;-0.013364584540074996
1.36650e-06;-0.013337246390138169
1.36675e-06;-0.013312329398961617
1.36700e-06;-0.013290829165086362
1.36725e-06;-0.013273895484492171
1.36750e-06;-0.01326202560538536
1.36775e-06;-0.013255188078568342
1.36800e-06;-0.013253278358484773
1.36825e-06;-0.013256191917967704
1.36850e-06;-0.013264476033244103
1.36875e-06;-0.013278119443300932
1.36900e-06;-0.013294556787296904
1.36925e-06;-0.013319159535750521
1.36950e-06;-0.013347195967877652
1.36975e-06;-0.013385267503405358
1.37000e-06;-0.013423339038933065
1.37025e-06;-0.01346604635607643
1.37050e-06;-0.013522301964873503
1.37075e-06;-0.013578557573670625
1.37100e-06;-0.013634813182467698
1.37125e-06;-0.013691068791264771
1.37150e-06;-0.013751938005902754
1.37175e-06;-0.013826290702440725
1.37200e-06;-0.013900643398978759
1.37225e-06;-0.013974996095516732
1.37250e-06;-0.014049348792054703
1.37275e-06;-0.014125837090099763
1.37300e-06;-0.014208566784843715
1.37325e-06;-0.014291296479587736
1.37350e-06;-0.014374610247201066
1.37375e-06;-0.014459630995478643
1.37400e-06;-0.01454465174375615
1.37425e-06;-0.014629293002953887
1.37450e-06;-0.014712825187316368
1.37475e-06;-0.014795498832046386
1.37500e-06;-0.014875663353979055
1.37525e-06;-0.014954536148901134
1.37550e-06;-0.01502963381036654
1.37575e-06;-0.015102877277899702
1.37600e-06;-0.015170701775718649
1.37625e-06;-0.015236090618443901
1.37650e-06;-0.015294361143631155
1.37675e-06;-0.015348965899279006
1.37700e-06;-0.015392857269575521
1.37725e-06;-0.015436748639872
1.37750e-06;-0.015475954764386936
1.37775e-06;-0.015501468035877668
1.37800e-06;-0.015526981307368423
1.37825e-06;-0.01554755417712486
1.37850e-06;-0.015553688488482993
1.37875e-06;-0.015559822799841132
1.37900e-06;-0.015559502852735902
1.37925e-06;-0.015540320029137501
1.37950e-06;-0.015521137205539118
1.37975e-06;-0.015501954381940733
1.38000e-06;-0.015482771558342332
1.38025e-06;-0.015456496380627852
1.38050e-06;-0.015409493461609544
1.38075e-06;-0.015362490542591275
1.38100e-06;-0.015315487623573007
1.38125e-06;-0.015268484704554698
1.38150e-06;-0.015216975006464854
1.38175e-06;-0.015152294032776037
1.38200e-06;-0.015087613059087275
1.38225e-06;-0.0150208471510256
1.38250e-06;-0.014947987923368282
1.38275e-06;-0.014873898225123278
1.38300e-06;-0.014796212418222949
1.38325e-06;-0.01471788496216432
1.38350e-06;-0.014637410638379015
1.38375e-06;-0.014555986746430317
1.38400e-06;-0.014474068246590562
1.38425e-06;-0.014392110774637255
1.38450e-06;-0.014310568834376357
1.38475e-06;-0.014229904928607772
1.38500e-06;-0.01415060703521623
1.38525e-06;-0.01407319605611709
1.38550e-06;-0.013998200489287274
1.38575e-06;-0.013926144906764413
1.38600e-06;-0.013857554574480471
1.38625e-06;-0.013792954046083657
1.38650e-06;-0.013732854159566482
1.38675e-06;-0.01367763226975691
1.38700e-06;-0.013627264110780477
1.38725e-06;-0.01358144363017743
1.38750e-06;-0.013540064977965829
1.38775e-06;-0.013503259490652349
1.38800e-06;-0.013471839505243988
1.38825e-06;-0.0134459259202666
1.38850e-06;-0.013422622262531948
1.38875e-06;-0.01340694624095602
1.38900e-06;-0.013394236486473064
1.38925e-06;-0.013390195788262666
1.38950e-06;-0.013386155090052268
1.38975e-06;-0.013386447041221603
1.39000e-06;-0.013399401365705475
1.39025e-06;-0.013412355690189358
1.39050e-06;-0.013425310014673229
1.39075e-06;-0.0134382643391571
1.39100e-06;-0.01345568658366417
1.39125e-06;-0.013486166536357156
1.39150e-06;-0.013516646489050167
1.39175e-06;-0.013547126441743152
1.39200e-06;-0.013577606394436163
1.39225e-06;-0.013610639663623516
1.39250e-06;-0.013651135121372088
1.39275e-06;-0.013691630579120696
1.39300e-06;-0.013733269331811265
1.39325e-06;-0.013778249418197507
1.39350e-06;-0.013823229504583711
1.39375e-06;-0.013868629917664984
1.39400e-06;-0.013915258755449156
1.39425e-06;-0.013961887593233286
1.39450e-06;-0.01400826649848064
1.39475e-06;-0.01405391496403456
1.39500e-06;-0.014099563429588478
1.39525e-06;-0.01414438774299799
1.39550e-06;-0.014186803432674991
1.39575e-06;-0.014228145235527423
1.39600e-06;-0.014266348553199438
1.39625e-06;-0.01430272039088389
1.39650e-06;-0.014333739641435748
1.39675e-06;-0.014364758891987609
1.39700e-06;-0.014393091803053327
1.39725e-06;-0.01441357375955513
1.39750e-06;-0.014434055716056948
1.39775e-06;-0.014451649598418883
1.39800e-06;-0.01446080294712306
1.39825e-06;-0.014469956295827249
1.39850e-06;-0.014476102144109706
1.39875e-06;-0.014473458429761228
1.39900e-06;-0.014470814715412754
1.39925e-06;-0.014464324113535026
1.39950e-06;-0.014446590800391757
1.39975e-06;-0.014428857487248503
1.40000e-06;-0.014411124174105235
1.40025e-06;-0.014393390860961981
1.40050e-06;-0.014371511865071077
1.40075e-06;-0.014337516914716979
1.40100e-06;-0.014303521964362879
1.40125e-06;-0.014269527014008751
1.40150e-06;-0.014235532063654651
1.40175e-06;-0.014198993895410105
1.40200e-06;-0.014155023052253926
1.40225e-06;-0.014111052209097748
1.40250e-06;-0.014065958054522446
1.40275e-06;-0.014017580969045332
1.40300e-06;-0.013968592031623202
1.40325e-06;-0.013917814927871305
1.40350e-06;-0.013866711004483298
1.40375e-06;-0.013814651935207397
1.40400e-06;-0.01376252971008468
1.40425e-06;-0.013710277992298939
1.40450e-06;-0.013658315469173236
1.40475e-06;-0.01360693041262844
1.40500e-06;-0.01355641953165699
1.40525e-06;-0.013507095349345553
1.40550e-06;-0.013459281527872883
1.40575e-06;-0.01341361324332579
1.40600e-06;-0.013370394753589435
1.40625e-06;-0.013330566594305884
1.40650e-06;-0.013300646836576401
1.40675e-06;-0.013270727078846892
1.40700e-06;-0.013240807321117409
1.40725e-06;-0.0132108875633879
1.40750e-06;-0.013180967805658415
1.40775e-06;-0.013151048047928932
1.40800e-06;-0.013121128290199423
1.40825e-06;-0.01309120853246994
1.40850e-06;-0.01306128877474043
1.40875e-06;-0.013031369017010946
1.40900e-06;-0.013012314734100599
1.40925e-06;-0.012996787546741832
1.40950e-06;-0.012981260359383066
1.40975e-06;-0.012965733172024287
1.41000e-06;-0.012950205984665522
1.41025e-06;-0.012934678797306743
1.41050e-06;-0.012919151609947976
1.41075e-06;-0.01290362442258921
1.41100e-06;-0.012888097235230432
1.41125e-06;-0.012872570047871665
1.41150e-06;-0.012858963837886268
1.41175e-06;-0.012850971775387725
1.41200e-06;-0.012842979712889184
1.41225e-06;-0.012834987650390635
1.41250e-06;-0.012826995587892093
1.41275e-06;-0.012819003525393545
1.41300e-06;-0.012811011462895002
1.41325e-06;-0.012803019400396454
1.41350e-06;-0.012795027337897913
1.41375e-06;-0.012789684846683422
1.41400e-06;-0.012785202445915475
1.41425e-06;-0.012780720045147532
1.41450e-06;-0.012776237644379584
1.41475e-06;-0.01277175524361164
1.41500e-06;-0.012767272842843697
1.41525e-06;-0.01276279044207575
1.41550e-06;-0.012758308041307807
1.41575e-06;-0.012754013906974128
1.41600e-06;-0.012750287797323854
1.41625e-06;-0.012746633911146634
1.41650e-06;-0.01274309337701964
1.41675e-06;-0.012740031797689465
1.41700e-06;-0.01273868221522568
1.41725e-06;-0.012740611193483298
1.41750e-06;-0.01274648026654477
1.41775e-06;-0.012756184390705395
1.41800e-06;-0.012769921573552438
1.41825e-06;-0.012787445339116419
1.41850e-06;-0.012806626945660645
1.41875e-06;-0.012830653671101883
1.41900e-06;-0.012857463804508515
1.41925e-06;-0.012892408579712378
1.41950e-06;-0.01292735335491627
1.41975e-06;-0.012966350297894941
1.42000e-06;-0.013017189893391639
1.42025e-06;-0.013068029488888293
1.42050e-06;-0.013118869084384947
1.42075e-06;-0.013169708679881644
1.42100e-06;-0.013224711480312476
1.42125e-06;-0.01329188144462604
1.42150e-06;-0.013359051408939547
1.42175e-06;-0.013426221373253111
1.42200e-06;-0.013493391337566617
1.42225e-06;-0.013562779939872104
1.42250e-06;-0.013638652616940085
1.42275e-06;-0.013714525294008
1.42300e-06;-0.013791262921264487
1.42325e-06;-0.013870528406471728
1.42350e-06;-0.013949793891678967
1.42375e-06;-0.014029096969652268
1.42400e-06;-0.014108509914267155
1.42425e-06;-0.01418792285888211
1.42450e-06;-0.014266308531702056
1.42475e-06;-0.01434169195397744
1.42500e-06;-0.014417075376252888
1.42525e-06;-0.014491012664177494
1.42550e-06;-0.014560723555871383
1.42575e-06;-0.014628166337493143
1.42600e-06;-0.0146889804598521
1.42625e-06;-0.01474979458221111
1.42650e-06;-0.01480708123683719
1.42675e-06;-0.014854058699705125
1.42700e-06;-0.014901036162573022
1.42725e-06;-0.014942502254599926
1.42750e-06;-0.01496786110393805
1.42775e-06;-0.014993219953276172
1.42800e-06;-0.015018578802614316
1.42825e-06;-0.015043937651952438
1.42850e-06;-0.015069296501290583
1.42875e-06;-0.015094655350628705
1.42900e-06;-0.015112508456573614
1.42925e-06;-0.015108425671452578
1.42950e-06;-0.015104342886331546
1.42975e-06;-0.01510026010121051
1.43000e-06;-0.015096177316089478
1.43025e-06;-0.015092094530968447
1.43050e-06;-0.01508801174584741
1.43075e-06;-0.015078203807282718
1.43100e-06;-0.015051663836233681
1.43125e-06;-0.015025123865184668
1.43150e-06;-0.014998583894135631
1.43175e-06;-0.014972043923086618
1.43200e-06;-0.014945503952037604
1.43225e-06;-0.014918963980988569
1.43250e-06;-0.014882922136865444
1.43275e-06;-0.014843795842701853
1.43300e-06;-0.014804669548538292
1.43325e-06;-0.014765543254374732
1.43350e-06;-0.014726416960211139
1.43375e-06;-0.01468729066604758
1.43400e-06;-0.014647399111014162
1.43425e-06;-0.01460527104479229
1.43450e-06;-0.014563142978570415
1.43475e-06;-0.014521228874544021
1.43500e-06;-0.014479940085182306
1.43525e-06;-0.01443922551542831
1.43550e-06;-0.014400189129713302
1.43575e-06;-0.014362011639772935
1.43600e-06;-0.014326344313471599
1.43625e-06;-0.014291806907002104
1.43650e-06;-0.014260571744833337
1.43675e-06;-0.014231112346216252
1.43700e-06;-0.014206842700803468
1.43725e-06;-0.014182573055390705
1.43750e-06;-0.014160660595119902
1.43775e-06;-0.014145637120227908
1.43800e-06;-0.014130613645335929
1.43825e-06;-0.01411949741947602
1.43850e-06;-0.014119800314233363
1.43875e-06;-0.014120103208990707
1.43900e-06;-0.014120406103748052
1.43925e-06;-0.014120708998505396
1.43950e-06;-0.01412101189326274
1.43975e-06;-0.014121314788020084
1.44000e-06;-0.014136123929033451
1.44025e-06;-0.01415564201443066
1.44050e-06;-0.014175160099827869
1.44075e-06;-0.014194678185225093
1.44100e-06;-0.0142141962706223
1.44125e-06;-0.014233714356019526
1.44150e-06;-0.014256831114066745
1.44175e-06;-0.014290465163618572
1.44200e-06;-0.014324099213170429
1.44225e-06;-0.014357733262722256
1.44250e-06;-0.014391367312274111
1.44275e-06;-0.01442500136182594
1.44300e-06;-0.014458635411377768
1.44325e-06;-0.014493567717210512
1.44350e-06;-0.014532294238600337
1.44375e-06;-0.014571020759990195
1.44400e-06;-0.01460974728138002
1.44425e-06;-0.014648473802769877
1.44450e-06;-0.014687200324159704
1.44475e-06;-0.014725926845549528
1.44500e-06;-0.01476386954928876
1.44525e-06;-0.014799521508767614
1.44550e-06;-0.0148351734682465
1.44575e-06;-0.01486947390843073
1.44600e-06;-0.014899824469374016
1.44625e-06;-0.014930175030317327
1.44650e-06;-0.014958465586826583
1.44675e-06;-0.014980735682671666
1.44700e-06;-0.015003005778516728
1.44725e-06;-0.015022462194326491
1.44750e-06;-0.015033695496780655
