Time(s);Current(A)
1.20000e-05;-0.0012167052823952623
1.20003e-05;-0.0012151795819925022
1.20005e-05;-0.0012136538815897423
1.20008e-05;-0.0012128482911217097
1.20010e-05;-0.00121660318971704
1.20013e-05;-0.0012203580883123702
1.20015e-05;-0.0012251652015110516
1.20018e-05;-0.0012366360377878609
1.20020e-05;-0.0012481068740646704
1.20023e-05;-0.001259577710341402
1.20025e-05;-0.0012710485466182113
1.20028e-05;-0.0012825193828950208
1.20030e-05;-0.0012939902191717524
1.20033e-05;-0.0013054610554485617
1.20035e-05;-0.0013209383453054765
1.20038e-05;-0.001338704984274738
1.20040e-05;-0.0013564716232441194
1.20043e-05;-0.0013742382622135012
1.20045e-05;-0.0013920049011827624
1.20048e-05;-0.0014097715401521441
1.20050e-05;-0.0014275381791215257
1.20052e-05;-0.0014454123382088985
1.20055e-05;-0.0014639674271089281
1.20058e-05;-0.0014825225160089578
1.20060e-05;-0.0015008910049932856
1.20063e-05;-0.0015180777482005615
1.20065e-05;-0.0015352644914078373
1.20068e-05;-0.0015521685882907202
1.20070e-05;-0.001567282673108087
1.20073e-05;-0.0015820789157518652
1.20075e-05;-0.0015948622494110372
1.20078e-05;-0.0016071044210893947
1.20080e-05;-0.0016159193892581602
1.20083e-05;-0.0016238301558962926
1.20085e-05;-0.0016260145729950432
1.20088e-05;-0.0016281989900938088
1.20090e-05;-0.0016293297754419935
1.20093e-05;-0.0016237878628515422
1.20095e-05;-0.0016182459502610531
1.20098e-05;-0.0016115644351233742
1.20100e-05;-0.0015976657650709797
1.20103e-05;-0.0015837670950184912
1.20105e-05;-0.0015687153494625663
1.20108e-05;-0.0015463611241450807
1.20110e-05;-0.0015240068988274435
1.20113e-05;-0.0015008275528350466
1.20115e-05;-0.001472422679970754
1.20118e-05;-0.0014433980617001804
1.20120e-05;-0.0014104485675022157
1.20123e-05;-0.0013770517510465076
1.20125e-05;-0.001340561617491787
1.20128e-05;-0.0013021930710253808
1.20130e-05;-0.001262174550259872
1.20133e-05;-0.0012207346631358986
1.20135e-05;-0.0011780968792534801
1.20137e-05;-0.0011344429860209613
1.20140e-05;-0.0010898897692093313
1.20143e-05;-0.0010445733823525667
1.20145e-05;-0.000998721393866049
1.20148e-05;-0.0009526055065289553
1.20150e-05;-0.0009064976929901655
1.20153e-05;-0.0008606697327562045
1.20155e-05;-0.0008153903519554242
1.20158e-05;-0.0007709020804872014
1.20160e-05;-0.0007274066370247191
1.20163e-05;-0.0006851179694454813
1.20165e-05;-0.0006444460491789827
1.20168e-05;-0.0006061520730750958
1.20170e-05;-0.000568315099278516
1.20173e-05;-0.0005337313411905948
1.20175e-05;-0.000501764178228424
1.20178e-05;-0.00047216563797454237
1.20180e-05;-0.0004438389166686249
1.20183e-05;-0.0004156889942765213
1.20185e-05;-0.00038752357579770744
1.20188e-05;-0.00035967436781621784
1.20190e-05;-0.0003320014665121303
1.20193e-05;-0.0003054451234392849
1.20195e-05;-0.00027908468229702576
1.20198e-05;-0.0002539648970193872
1.20200e-05;-0.00022875855190046264
1.20203e-05;-0.0002030040193565203
1.20205e-05;-0.00017714079925441718
1.20208e-05;-0.00015058925588827792
1.20210e-05;-0.00012403771252195874
1.20213e-05;-9.752971333628485e-05
1.20215e-05;-7.129748143333987e-05
1.20218e-05;-4.50750957754355e-05
1.20220e-05;-1.885309457922266e-05
1.20222e-05;7.826955822930023e-06
1.20225e-05;3.497047974291101e-05
1.20228e-05;6.241906379688685e-05
1.20230e-05;8.986764785067668e-05
1.20233e-05;0.00011724314171197573
1.20235e-05;0.0001441557253710683
1.20238e-05;0.0001710683090301609
1.20240e-05;0.00019795033709844927
1.20243e-05;0.00022463885521749387
1.20245e-05;0.00025127517092273774
1.20248e-05;0.0002775808863596067
1.20250e-05;0.0003037898945727649
1.20253e-05;0.0003292912822342966
1.20255e-05;0.00035408049331191096
1.20258e-05;0.00037807285761674636
1.20260e-05;0.0004013144188501256
1.20263e-05;0.0004238508838120011
1.20265e-05;0.0004455932102184349
1.20268e-05;0.00046629625447687127
1.20270e-05;0.000485515405476302
1.20273e-05;0.0005043578957993361
1.20275e-05;0.0005208149768732312
1.20278e-05;0.0005368972507280629
1.20280e-05;0.0005506058533651155
1.20283e-05;0.000564314456002168
1.20285e-05;0.0005776589977697516
1.20288e-05;0.0005886979254415616
1.20290e-05;0.0005997368531133716
1.20293e-05;0.0006103391321147549
1.20295e-05;0.0006181760951648223
1.20298e-05;0.0006260130582148897
1.20300e-05;0.0006335212647270003
1.20303e-05;0.0006389474410850146
1.20305e-05;0.000644373617443029
1.20307e-05;0.0006493321723518591
1.20310e-05;0.0006513292592877527
1.20313e-05;0.0006533263462236464
1.20315e-05;0.0006553234331595264
1.20318e-05;0.0006573205200954202
1.20320e-05;0.0006593176070313138
1.20323e-05;0.0006613146939672074
1.20325e-05;0.000661088074069044
1.20328e-05;0.0006595907939298514
1.20330e-05;0.0006580935137906588
1.20333e-05;0.0006565962336514763
1.20335e-05;0.0006550989535122837
1.20338e-05;0.000653601673373091
1.20340e-05;0.0006518636521861698
1.20343e-05;0.0006486010069598592
1.20345e-05;0.0006453383617335486
1.20348e-05;0.0006420757165072601
1.20350e-05;0.0006388130712809495
1.20353e-05;0.0006355504260546389
1.20355e-05;0.0006320540553815328
1.20358e-05;0.0006284241303980692
1.20360e-05;0.0006247942054146057
1.20363e-05;0.0006211642804311668
1.20365e-05;0.0006175343554477034
1.20368e-05;0.0006139557211226549
1.20370e-05;0.000610728742370281
1.20373e-05;0.0006077019742952919
1.20375e-05;0.0006048517509113166
1.20378e-05;0.0006017342292278304
1.20380e-05;0.0005972077451065296
1.20383e-05;0.0005902102065434603
1.20385e-05;0.0005804977815658542
1.20388e-05;0.0005682408492980076
1.20390e-05;0.0005536112969626615
1.20392e-05;0.0005367809959071799
1.20395e-05;0.0005178909820879126
1.20398e-05;0.0004968192389807
1.20400e-05;0.0004730066342256046
1.20403e-05;0.00044594389472172485
1.20405e-05;0.00041563443648350875
1.20408e-05;0.00038234104329367254
1.20410e-05;0.000346327446126354
1.20413e-05;0.000307857329653849
1.20415e-05;0.00026717512891625276
1.20418e-05;0.0002243603810178345
1.20420e-05;0.0001792189322246813
1.20423e-05;0.0001315878068863488
1.20425e-05;8.162524502310724e-05
1.20428e-05;2.9651886349253038e-05
1.20430e-05;-2.4011040567285765e-05
1.20433e-05;-7.904234155389665e-05
1.20435e-05;-0.00013518899703238762
1.20438e-05;-0.00019243212790068844
1.20440e-05;-0.0002499001277535131
1.20443e-05;-0.00030879223314910837
1.20445e-05;-0.0003676843385447036
1.20448e-05;-0.0004265129924543648
1.20450e-05;-0.00048493980521117143
1.20453e-05;-0.000543366617967978
1.20455e-05;-0.0006014394798643726
1.20458e-05;-0.0006572707548133869
1.20460e-05;-0.0007126782071245532
1.20463e-05;-0.0007654015713302269
1.20465e-05;-0.0008175234905442748
1.20468e-05;-0.0008658364311790619
1.20470e-05;-0.0009133409666553402
1.20473e-05;-0.0009557258353758866
1.20475e-05;-0.000997452964796234
1.20477e-05;-0.0010347902812548415
1.20480e-05;-0.00107074505435474
1.20483e-05;-0.0011069410226324924
1.20485e-05;-0.0011431457382771288
1.20488e-05;-0.0011794058513972078
1.20490e-05;-0.0012156659645172869
1.20493e-05;-0.0012516995986183717
1.20495e-05;-0.0012862989307570333
1.20498e-05;-0.0013209590785293176
1.20500e-05;-0.0013560043744830683
1.20503e-05;-0.0013910496704365814
1.20505e-05;-0.0014276007498547636
1.20508e-05;-0.0014650122570738396
1.20510e-05;-0.0015025392948548448
1.20513e-05;-0.0015407979929585281
1.20515e-05;-0.0015790566910622115
1.20518e-05;-0.0016173153891656355
1.20520e-05;-0.0016566988168987768
1.20523e-05;-0.0016967249324184367
1.20525e-05;-0.0017367510479378253
1.20528e-05;-0.0017769500991550587
1.20530e-05;-0.0018182443600369
1.20533e-05;-0.0018595386209184612
1.20535e-05;-0.0019008328818003024
1.20538e-05;-0.0019421271426821435
1.20540e-05;-0.0019833204770450695
1.20543e-05;-0.0020238746391599283
1.20545e-05;-0.0020644288012747866
1.20548e-05;-0.0021049829633893705
1.20550e-05;-0.0021455371255042293
1.20553e-05;-0.002185676860331138
1.20555e-05;-0.0022231920082304716
1.20558e-05;-0.0022607071561300597
1.20560e-05;-0.0022977421778231856
1.20562e-05;-0.002331736538339424
1.20565e-05;-0.002365730898855893
1.20568e-05;-0.0023991680896583785
1.20570e-05;-0.0024290766992346993
1.20573e-05;-0.0024583705324193986
1.20575e-05;-0.002483770958658174
1.20578e-05;-0.0025082940922387547
1.20580e-05;-0.0025272612913779234
1.20583e-05;-0.002544891127624491
1.20585e-05;-0.002554051383637786
1.20588e-05;-0.002563211639651019
1.20590e-05;-0.0025707692277196935
1.20593e-05;-0.002568177046553669
1.20595e-05;-0.0025655848653876614
1.20598e-05;-0.002561299769695607
1.20600e-05;-0.002546293369050794
1.20603e-05;-0.0025312869684060825
1.20605e-05;-0.0025148730354262066
1.20608e-05;-0.0024895451359329295
1.20610e-05;-0.0024632078601256446
1.20613e-05;-0.002430478158055289
1.20615e-05;-0.002397049365134346
1.20618e-05;-0.002358739065132063
1.20620e-05;-0.0023171080819461187
1.20623e-05;-0.0022722466700104754
1.20625e-05;-0.0022243861046419284
1.20628e-05;-0.0021738230755815858
1.20630e-05;-0.002120854579478435
1.20633e-05;-0.0020657771049948687
1.20635e-05;-0.002008883394161029
1.20638e-05;-0.001950430195346635
1.20640e-05;-0.0018906231668953627
1.20643e-05;-0.0018296961665322264
1.20645e-05;-0.0017679719083645614
1.20647e-05;-0.0017058137563630905
1.20650e-05;-0.001643585227950715
1.20653e-05;-0.0015816496024337143
1.20655e-05;-0.001520367814826865
1.20658e-05;-0.0014600780884718439
1.20660e-05;-0.0014010865375194692
1.20663e-05;-0.0013437173101671666
1.20665e-05;-0.00128834979352536
1.20668e-05;-0.0012353890811623864
1.20670e-05;-0.001185240097318816
1.20673e-05;-0.0011383079355640252
1.20675e-05;-0.0010952349293963954
1.20678e-05;-0.0010570954655284032
1.20680e-05;-0.0010199300670282688
1.20683e-05;-0.0009889334689577815
1.20685e-05;-0.0009589251804929127
1.20688e-05;-0.0009351759018676004
1.20690e-05;-0.0009124844950543691
1.20693e-05;-0.0008964926387103249
1.20695e-05;-0.0008815900399223042
1.20698e-05;-0.0008735857589509139
1.20700e-05;-0.0008665717759838836
1.20703e-05;-0.0008658293954765957
1.20705e-05;-0.0008660174506604747
1.20708e-05;-0.000872097997542499
1.20710e-05;-0.000879083765948997
1.20713e-05;-0.0008918023435854459
1.20715e-05;-0.0009053770082614428
1.20718e-05;-0.0009243733112310678
1.20720e-05;-0.0009440949312769815
1.20723e-05;-0.0009684100174703642
1.20725e-05;-0.0009934813196366262
1.20728e-05;-0.0010233417720750205
1.20730e-05;-0.0010532022245134148
1.20732e-05;-0.001083791052695689
1.20735e-05;-0.0011189927177097175
1.20738e-05;-0.001154194382723746
1.20740e-05;-0.0011898267219498345
1.20743e-05;-0.0012281865406194913
1.20745e-05;-0.0012665463592891483
1.20748e-05;-0.0013050385685399108
1.20750e-05;-0.0013443692133831232
1.20753e-05;-0.0013836998582266024
1.20755e-05;-0.001422928722982082
1.20758e-05;-0.0014615130097945133
1.20760e-05;-0.0014998307162285543
1.20763e-05;-0.0015364601569571293
1.20765e-05;-0.001572669652624359
1.20768e-05;-0.001606219617052307
1.20770e-05;-0.0016390341094148996
1.20773e-05;-0.0016671908236181659
1.20775e-05;-0.0016953475378216228
1.20778e-05;-0.0017223910926724962
1.20780e-05;-0.0017423849585348494
1.20783e-05;-0.0017623788243973381
1.20785e-05;-0.0017811584890272552
1.20788e-05;-0.0017922485618304044
1.20790e-05;-0.0018033386346336289
1.20793e-05;-0.001813157973764528
1.20795e-05;-0.001814929698547404
1.20798e-05;-0.0018167014233302923
1.20800e-05;-0.00181721446919118
1.20803e-05;-0.0018097562439881396
1.20805e-05;-0.0018022980187850487
1.20808e-05;-0.0017936796164696501
1.20810e-05;-0.0017777137595475889
1.20813e-05;-0.0017617479026254192
1.20815e-05;-0.0017448975323668577
1.20817e-05;-0.0017224454987764845
1.20820e-05;-0.00169936806812578
1.20823e-05;-0.0016723299693472042
1.20825e-05;-0.001644758852690595
1.20828e-05;-0.00161381210948168
1.20830e-05;-0.0015825242110175473
1.20833e-05;-0.0015488796038208728
1.20835e-05;-0.001513820461444263
1.20838e-05;-0.0014775242273835413
1.20840e-05;-0.0014401855217167202
1.20843e-05;-0.0014020195064772371
1.20845e-05;-0.0013632510801909001
1.20848e-05;-0.0013241050884707335
1.20850e-05;-0.0012848066785494164
1.20853e-05;-0.0012455809976588286
1.20855e-05;-0.0012066534311632405
1.20858e-05;-0.0011682523171901349
1.20860e-05;-0.0011306169845464917
1.20863e-05;-0.0010939994248191135
1.20865e-05;-0.0010587777199845302
1.20868e-05;-0.0010256091903585482
1.20870e-05;-0.0009928353162185002
1.20873e-05;-0.00096287086061728
1.20875e-05;-0.0009351580405184361
1.20878e-05;-0.0009094047303403129
1.20880e-05;-0.0008844704799089949
1.20883e-05;-0.0008592307884370652
1.20885e-05;-0.0008334475733399421
1.20888e-05;-0.0008073332301402401
1.20890e-05;-0.00078128103134791
1.20893e-05;-0.0007556223959253226
1.20895e-05;-0.000729963760502909
1.20898e-05;-0.0007042481838480405
1.20900e-05;-0.0006781719957698904
1.20902e-05;-0.0006517668011168716
1.20905e-05;-0.0006232779928053496
1.20908e-05;-0.0005947891844938276
1.20910e-05;-0.0005661131849076487
1.20913e-05;-0.0005362516944326348
1.20915e-05;-0.000506390203957621
1.20918e-05;-0.00047632397852426456
1.20920e-05;-0.0004449611572540758
1.20923e-05;-0.0004135983359836745
1.20925e-05;-0.0003819868140484722
1.20928e-05;-0.0003488002594503855
1.20930e-05;-0.0003156137048520739
1.20933e-05;-0.00028239963547137465
1.20935e-05;-0.0002490113137180096
1.20938e-05;-0.00021562014331526102
1.20940e-05;-0.0001822109322873594
1.20943e-05;-0.00014878795576540285
1.20945e-05;-0.00011527780173954086
1.20948e-05;-8.182172045248664e-05
1.20950e-05;-4.878213676434431e-05
1.20953e-05;-1.631408116061789e-05
1.20955e-05;1.5382275188095638e-05
1.20958e-05;4.618269543588776e-05
1.20960e-05;7.609356202877849e-05
1.20963e-05;0.00010511873937198614
1.20965e-05;0.00013312457975132673
1.20968e-05;0.00015990570338721925
1.20970e-05;0.00018525649370172592
1.20973e-05;0.00020897136057544455
1.20975e-05;0.00023080537917695437
1.20978e-05;0.00025018034902530347
1.20980e-05;0.00026599405271449453
1.20983e-05;0.00027728340956389785
1.20985e-05;0.0002838012442175665
1.20987e-05;0.0002856482255101523
1.20990e-05;0.00028292631209746584
1.20993e-05;0.00027573751290519945
1.20995e-05;0.00026415915848875383
1.20998e-05;0.00024805990914350133
1.21000e-05;0.00022698014077809475
1.21003e-05;0.00020054744598881305
1.21005e-05;0.0001688379002303328
1.21008e-05;0.00013214546079357394
1.21010e-05;9.07648792022347e-05
1.21013e-05;4.499092020895665e-05
1.21015e-05;-4.897131268885426e-06
1.21018e-05;-5.8750726226504394e-05
1.21020e-05;-0.00011662691623049546
1.21023e-05;-0.00017852810772764734
1.21025e-05;-0.00024417580399607107
1.21028e-05;-0.00031315502541995343
1.21030e-05;-0.00038505032672705644
1.21033e-05;-0.0004595688924718943
1.21035e-05;-0.0005367134845404609
1.21038e-05;-0.0006142948655112795
1.21040e-05;-0.0006946424505374542
1.21043e-05;-0.0007752584138348635
1.21045e-05;-0.0008575740289803531
1.21048e-05;-0.0009398971095512167
1.21050e-05;-0.0010222674690012372
1.21053e-05;-0.0011043805987073626
1.21055e-05;-0.0011848646806983795
1.21058e-05;-0.0012648704357000225
1.21060e-05;-0.0013418469240443938
1.21063e-05;-0.0014181138834383762
1.21065e-05;-0.001489887363596189
1.21068e-05;-0.0015606621833642539
1.21070e-05;-0.001625112441287708
1.21072e-05;-0.00168830592005152
1.21075e-05;-0.0017435401590225447
1.21078e-05;-0.0017978178551440829
1.21080e-05;-0.0018460377217287426
1.21083e-05;-0.0018935579973885027
1.21085e-05;-0.0019366477317788807
1.21088e-05;-0.0019797374661692587
1.21090e-05;-0.0020217002137008803
1.21093e-05;-0.0020565257020049785
1.21095e-05;-0.002091351190309077
1.21098e-05;-0.0021252402605289244
1.21100e-05;-0.0021531989522699537
1.21103e-05;-0.002181157644010983
1.21105e-05;-0.002208437539762363
1.21108e-05;-0.00223141858952141
1.21110e-05;-0.002254399639280458
1.21113e-05;-0.0022773806890393493
1.21115e-05;-0.002296471021370335
1.21118e-05;-0.002313338137996155
1.21120e-05;-0.0023302052546218606
1.21123e-05;-0.0023464949658938378
1.21125e-05;-0.0023591279426973524
1.21128e-05;-0.0023717609195007816
1.21130e-05;-0.0023843938963042963
1.21133e-05;-0.002397026873107811
1.21135e-05;-0.002406795632624691
1.21138e-05;-0.0024149277343856615
1.21140e-05;-0.0024230598361466315
1.21143e-05;-0.002431191937907547
1.21145e-05;-0.002438936180106022
1.21148e-05;-0.0024442240899863023
1.21150e-05;-0.0024495119998665473
1.21153e-05;-0.0024547999097468275
1.21155e-05;-0.002460087819627108
1.21158e-05;-0.0024650940166604665
1.21160e-05;-0.002468316113371864
1.21163e-05;-0.0024715382100832612
1.21165e-05;-0.0024747603067946365
1.21168e-05;-0.0024779824035060334
1.21170e-05;-0.0024810876845010287
1.21173e-05;-0.002483453166230343
1.21175e-05;-0.0024858186479596407
1.21178e-05;-0.002487792207425186
1.21180e-05;-0.0024872837052994437
1.21183e-05;-0.0024867752031737045
1.21185e-05;-0.0024854366695754183
1.21188e-05;-0.0024788415087632788
1.21190e-05;-0.002472246347951184
1.21193e-05;-0.0024656511871390444
1.21195e-05;-0.002459056026326905
1.21198e-05;-0.002451348441726682
1.21200e-05;-0.0024365958264834656
1.21203e-05;-0.0024218432112402487
1.21205e-05;-0.0024070905959971325
1.21208e-05;-0.002392337980753916
1.21210e-05;-0.002376711951754232
1.21213e-05;-0.0023555545535553337
1.21215e-05;-0.0023343971553562923
1.21218e-05;-0.0023126739564978314
1.21220e-05;-0.002287367516229049
1.21223e-05;-0.0022620610759600955
1.21225e-05;-0.0022363292003749076
1.21228e-05;-0.002207903023506721
1.21230e-05;-0.0021792408106056987
1.21233e-05;-0.0021490837707323967
1.21235e-05;-0.0021187662619180938
1.21238e-05;-0.002087432495971765
1.21240e-05;-0.002055974044324583
1.21243e-05;-0.002023725952440844
1.21245e-05;-0.0019914370844908535
1.21248e-05;-0.0019588899798527837
1.21250e-05;-0.0019264071072426403
1.21253e-05;-0.0018943310189966822
1.21255e-05;-0.0018624138200856958
1.21258e-05;-0.0018315028745882426
1.21260e-05;-0.001800820583044287
1.21263e-05;-0.001771586367427107
1.21265e-05;-0.0017427863450767763
1.21268e-05;-0.0017167360885117396
1.21270e-05;-0.0016906858319465264
1.21273e-05;-0.0016653345074751102
1.21275e-05;-0.0016444095518687914
1.21278e-05;-0.0016234845962623309
1.21280e-05;-0.0016031870768264548
1.21283e-05;-0.001586863139309492
1.21285e-05;-0.0015705392017924186
1.21288e-05;-0.0015542152642753452
1.21290e-05;-0.0015378913267583823
1.21293e-05;-0.0015251143728424914
1.21295e-05;-0.001514364219843991
1.21298e-05;-0.0015036140668455635
1.21300e-05;-0.001492863913847063
1.21303e-05;-0.0014830264416218215
1.21305e-05;-0.0014789690184102092
1.21308e-05;-0.0014749115951985697
1.21310e-05;-0.0014708541719869299
1.21313e-05;-0.0014667967487753178
1.21315e-05;-0.001462739325563678
1.21318e-05;-0.0014586819023520384
1.21320e-05;-0.0014546244791404264
1.21323e-05;-0.0014505670559287866
1.21325e-05;-0.001446509632717147
1.21328e-05;-0.0014432554876869985
1.21330e-05;-0.0014450885400614235
1.21333e-05;-0.0014469215924358485
1.21335e-05;-0.0014487546448102612
1.21338e-05;-0.0014505876971846862
1.21340e-05;-0.0014524207495591112
1.21343e-05;-0.0014542538019335363
1.21345e-05;-0.001456086854307949
1.21348e-05;-0.001457919906682374
1.21350e-05;-0.001459752959056799
1.21353e-05;-0.0014617992897945898
1.21355e-05;-0.0014651963221470202
1.21358e-05;-0.0014685933544994507
1.21360e-05;-0.0014719903868518581
1.21363e-05;-0.0014752425549933426
1.21365e-05;-0.0014784119454993206
1.21368e-05;-0.0014815813360052772
1.21370e-05;-0.0014846780192668834
1.21373e-05;-0.0014873142442296543
1.21375e-05;-0.0014900205513194808
1.21378e-05;-0.0014931706917204568
1.21380e-05;-0.001496864581795097
1.21383e-05;-0.001504002063383919
1.21385e-05;-0.0015119122740460851
1.21388e-05;-0.0015247162132172205
1.21390e-05;-0.0015375201523882692
1.21393e-05;-0.0015511375384887208
1.21395e-05;-0.0015699065211400539
1.21398e-05;-0.0015886755037912597
1.21400e-05;-0.0016085444638850976
1.21403e-05;-0.0016353796313551753
1.21405e-05;-0.0016622147988250712
1.21408e-05;-0.0016898310972079938
1.21410e-05;-0.001722394333334286
1.21413e-05;-0.0017549575694603577
1.21415e-05;-0.00178752080558665
1.21418e-05;-0.0018243690640993722
1.21420e-05;-0.0018612341713195256
1.21423e-05;-0.0019061305183170802
1.21425e-05;-0.0019477663034114222
1.21427e-05;-0.0019998750972062378
1.21430e-05;-0.00204740785237955
1.21433e-05;-0.0020970797078613207
1.21435e-05;-0.0021470395760539935
