Time(s);Current(A)
6.80000e-06;0.0022431138805253524
6.80025e-06;0.002289579659248869
6.80050e-06;0.002336045437972228
6.80075e-06;0.0023707852061645514
6.80100e-06;0.0024026190923335565
6.80125e-06;0.00242447700182962
6.80150e-06;0.002443862714050885
6.80175e-06;0.002453104051523097
6.80200e-06;0.002459831460140832
6.80225e-06;0.0024561537335534176
6.80250e-06;0.0024498974577431163
6.80275e-06;0.002433157585352507
6.80300e-06;0.0024138197198284475
6.80325e-06;0.002384596000923267
6.80350e-06;0.0023529224186525258
6.80375e-06;0.0023099365906526902
6.80400e-06;0.0022641474177797893
6.80425e-06;0.0022183582449068883
6.80450e-06;0.00216039054803852
6.80475e-06;0.002099404829495189
6.80500e-06;0.002038419110951858
6.80525e-06;0.0019676652466389375
6.80550e-06;0.0018944906886798974
6.80575e-06;0.0018213161307208574
6.80600e-06;0.0017412240347965935
6.80625e-06;0.0016594176687751592
6.80650e-06;0.0015776113027534473
6.80675e-06;0.0014916352495366687
6.80700e-06;0.001404625885030439
6.80725e-06;0.0013176165205239143
6.80750e-06;0.0012306071560176845
6.80775e-06;0.0011446531016718327
6.80800e-06;0.0010589605690781581
6.80825e-06;0.0009732680364847737
6.80850e-06;0.0008875755038913893
6.80875e-06;0.0008067463870408384
6.80900e-06;0.0007271224978628008
6.80925e-06;0.000651474202714252
6.80950e-06;0.0005800772026662322
6.80975e-06;0.0005132175753991742
6.81000e-06;0.0004514602178452186
6.81025e-06;0.00039497744192392136
6.81050e-06;0.0003432414016450143
6.81075e-06;0.00029566067122370997
6.81100e-06;0.0002521431110408427
6.81125e-06;0.00021288249608189392
6.81150e-06;0.00017811405506449463
6.81175e-06;0.000148072900189392
6.81200e-06;0.00012298714382082072
6.81225e-06;0.00010283881796460778
6.81250e-06;8.71714727538384e-05
6.81275e-06;7.54888335442542e-05
6.81300e-06;6.760744394441194e-05
6.81325e-06;6.352292085020438e-05
6.81350e-06;6.32568199320845e-05
6.81375e-06;6.683066780768766e-05
6.81400e-06;7.426154940033948e-05
6.81425e-06;8.541243981166937e-05
6.81450e-06;9.987164151622398e-05
6.81475e-06;0.00011720257025452697
6.81500e-06;0.000137164601853304
6.81525e-06;0.00015962927912586925
6.81550e-06;0.00018448443885066285
6.81575e-06;0.0002116178580006141
6.81600e-06;0.00024091455710297695
6.81625e-06;0.0002721630515665854
6.81650e-06;0.0003054169287093506
6.81675e-06;0.0003390740097852946
6.81700e-06;0.0003744039711451483
6.81725e-06;0.0004101484974357199
6.81750e-06;0.0004458930237261704
6.81775e-06;0.0004817604120070788
6.81800e-06;0.0005179125748624437
6.81825e-06;0.0005540647377176861
6.81850e-06;0.0005902169005729286
6.81875e-06;0.0006241060718365588
6.81900e-06;0.0006574344396994092
6.81925e-06;0.0006907628075623726
6.81950e-06;0.0007207465610571262
6.81975e-06;0.0007499014687363115
6.82000e-06;0.0007758674836203595
6.82025e-06;0.000801043242839924
6.82050e-06;0.0008262190020594885
6.82075e-06;0.0008513947612791383
6.82100e-06;0.0008788848161937218
6.82125e-06;0.0009069483884384405
6.82150e-06;0.0009350119606832542
6.82175e-06;0.0009630755329279729
6.82200e-06;0.0009929830641077658
6.82225e-06;0.0010233475560846664
6.82250e-06;0.001053712048061464
6.82275e-06;0.0010881829963219783
6.82300e-06;0.0011236715862993232
6.82325e-06;0.001159160176276548
6.82350e-06;0.0011981043631954208
6.82375e-06;0.0012379048990829005
6.82400e-06;0.0012777054349703803
6.82425e-06;0.0013219314708669257
6.82450e-06;0.0013672542123203781
6.82475e-06;0.0014125769537738306
6.82500e-06;0.0014578996952274365
6.82525e-06;0.001503222436680889
6.82550e-06;0.0015485451781343412
6.82575e-06;0.0015951603712943206
6.82600e-06;0.0016447712621722682
6.82625e-06;0.0016943821530502156
6.82650e-06;0.0017439930439283313
6.82675e-06;0.0017936039348062788
6.82700e-06;0.0018432148256842264
6.82725e-06;0.001892825716562342
6.82750e-06;0.0019400475292561986
6.82775e-06;0.001986677292393058
6.82800e-06;0.00203330705552976
6.82825e-06;0.0020799368186664616
6.82850e-06;0.002126566581803321
6.82875e-06;0.002173196344940023
6.82900e-06;0.0022160830361779636
6.82925e-06;0.0022502938814330056
6.82950e-06;0.0022845047266879313
6.82975e-06;0.002318715571942857
6.83000e-06;0.002352926417197899
6.83025e-06;0.0023871372624528248
6.83050e-06;0.0024213481077077505
6.83075e-06;0.0024425454740092155
6.83100e-06;0.0024605179042235014
6.83125e-06;0.0024784903344377872
6.83150e-06;0.002486811362441394
6.83175e-06;0.0024927406276126834
6.83200e-06;0.002498669892783993
6.83225e-06;0.002494629183280357
6.83250e-06;0.002488117763889718
6.83275e-06;0.0024816063444990572
6.83300e-06;0.0024652994127063775
6.83325e-06;0.0024465650054056273
6.83350e-06;0.0024278305981048133
6.83375e-06;0.0024002921590054495
6.83400e-06;0.0023705719482247497
6.83425e-06;0.002340851737443949
6.83450e-06;0.002303331912420931
6.83475e-06;0.00226387922551507
6.83500e-06;0.002224426538609075
6.83525e-06;0.002176485018187462
6.83550e-06;0.002126439836966444
6.83575e-06;0.0020763946557452563
6.83600e-06;0.002026349474524238
6.83625e-06;0.00197630429330305
6.83650e-06;0.0019262591120820319
6.83675e-06;0.0018713706591344302
6.83700e-06;0.0018152819705061132
6.83725e-06;0.0017591932818779858
6.83750e-06;0.0017031045932498587
6.83775e-06;0.0016470159046215415
6.83800e-06;0.0015909272159934144
6.83825e-06;0.00153777904595605
6.83850e-06;0.0014853595807137313
6.83875e-06;0.0014329401154715904
6.83900e-06;0.0013805206502294494
6.83925e-06;0.0013314319641424728
6.83950e-06;0.0012900634949604692
6.83975e-06;0.0012486950257784657
6.84000e-06;0.001207326556596322
6.84025e-06;0.0011659580874143185
6.84050e-06;0.0011358293216590864
6.84075e-06;0.0011084859236990196
6.84100e-06;0.0010880208174685625
6.84125e-06;0.0010738585026089527
6.84150e-06;0.001065413238152338
6.84175e-06;0.0010626589000112096
6.84200e-06;0.0010655742393908259
6.84225e-06;0.0010742778697208416
6.84250e-06;0.001089079683484441
6.84275e-06;0.0011101659405155975
6.84300e-06;0.0011374217718763447
6.84325e-06;0.001172829784485565
6.84350e-06;0.0012099561440154843
6.84375e-06;0.0012555964490552922
6.84400e-06;0.0013033466380243679
6.84425e-06;0.0013589648889124522
6.84450e-06;0.0014165329640478024
6.84475e-06;0.0014815079422706037
6.84500e-06;0.001548318462636438
6.84525e-06;0.0016225995757036065
6.84550e-06;0.0016987320141598832
6.84575e-06;0.001774864452615902
6.84600e-06;0.001858654435181487
6.84625e-06;0.0019443420725108788
6.84650e-06;0.0020300297098399802
6.84675e-06;0.002115717347169082
6.84700e-06;0.0022014049844984738
6.84725e-06;0.0022891800116108833
6.84750e-06;0.0023774723253505406
6.84775e-06;0.002465764639090497
6.84800e-06;0.0025540569528301545
6.84825e-06;0.002642349266569812
6.84850e-06;0.002721946479010458
6.84875e-06;0.0027993889143888124
6.84900e-06;0.002876831349767429
6.84925e-06;0.002954273785145783
6.84950e-06;0.0030317162205241374
6.84975e-06;0.00310072305637782
6.85000e-06;0.0031501775127424016
6.85025e-06;0.0031996319691069836
6.85050e-06;0.003249086425471733
6.85075e-06;0.003298540881836315
6.85100e-06;0.003347995338200897
6.85125e-06;0.003372784261308535
6.85150e-06;0.003391460693779016
6.85175e-06;0.0034101371262494963
6.85200e-06;0.0034103766593813834
6.85225e-06;0.0034060472511728544
6.85250e-06;0.0034017178429643254
6.85275e-06;0.003378658463677251
6.85300e-06;0.0033509575154587468
6.85325e-06;0.003323256567240148
6.85350e-06;0.0032784099892901996
6.85375e-06;0.0032293144660569847
6.85400e-06;0.0031802189428236033
6.85425e-06;0.0031158487966663007
6.85450e-06;0.0030476933688925074
6.85475e-06;0.0029795379411184826
6.85500e-06;0.0028985466304285016
6.85525e-06;0.0028143743946266856
6.85550e-06;0.0027302021588245847
6.85575e-06;0.002634449770411679
6.85600e-06;0.002535827645769545
6.85625e-06;0.0024372055211270773
6.85650e-06;0.002338583396484944
6.85675e-06;0.00223996127184281
6.85700e-06;0.002135891632698932
6.85725e-06;0.0020304720174153237
6.85750e-06;0.001925052402131358
6.85775e-06;0.0018196327868477496
6.85800e-06;0.001714213171564141
6.85825e-06;0.0016126828148095625
6.85850e-06;0.0015121162748961466
6.85875e-06;0.0014115497349827307
6.85900e-06;0.0013176123416122154
6.85925e-06;0.0012253177505988733
6.85950e-06;0.0011386564717429395
6.85975e-06;0.0010578896335617651
6.86000e-06;0.0009832774790668995
6.86025e-06;0.0009149485989524591
6.86050e-06;0.0008520651200620623
6.86075e-06;0.0007937378529876405
6.86100e-06;0.0007398092424098971
6.86125e-06;0.0006905324785537409
6.86150e-06;0.0006462199619356391
6.86175e-06;0.0006071839064807395
6.86200e-06;0.0005737267305124855
6.86225e-06;0.0005458056226134848
6.86250e-06;0.0005227725555427478
6.86275e-06;0.0005039473207030225
6.86300e-06;0.0004891079980246442
6.86325e-06;0.00047829005909888543
6.86350e-06;0.00047156597225982095
6.86375e-06;0.0004690081536175766
6.86400e-06;0.0004706827627150174
6.86425e-06;0.00047643983078954875
6.86450e-06;0.0004857502625344431
6.86475e-06;0.0004980648058252265
6.86500e-06;0.0005131213032652063
6.86525e-06;0.0005318399236796086
6.86550e-06;0.0005513330290353248
6.86575e-06;0.0005747834425365143
6.86600e-06;0.0005992145365981803
6.86625e-06;0.0006275009670062039
6.86650e-06;0.0006567428078269634
6.86675e-06;0.000685984648647822
6.86700e-06;0.0007179268347739151
6.86725e-06;0.0007505382071371636
6.86750e-06;0.0007831495795005225
6.86775e-06;0.000815760951863771
6.86800e-06;0.0008483256381298059
6.86825e-06;0.0008807821134399313
6.86850e-06;0.0009132385887499466
6.86875e-06;0.0009456950640599621
6.86900e-06;0.0009781515393700872
6.86925e-06;0.0010068986544315203
6.86950e-06;0.0010347265341559234
6.86975e-06;0.0010625544138804209
6.87000e-06;0.0010855799785285253
6.87025e-06;0.0011074154571721756
6.87050e-06;0.0011292509358157518
6.87075e-06;0.001146299555309865
6.87100e-06;0.0011621619190109844
6.87125e-06;0.0011780242827120497
6.87150e-06;0.0011888552290970353
6.87175e-06;0.0011984393144920066
6.87200e-06;0.0012080233998869453
6.87225e-06;0.0012124103132572423
6.87250e-06;0.001215509289124286
6.87275e-06;0.001218608264991319
6.87300e-06;0.0012171216508408509
6.87325e-06;0.001214498658419652
6.87350e-06;0.0012118756659984622
6.87375e-06;0.0012048908990639504
6.87400e-06;0.0011968252187115728
6.87425e-06;0.0011887595383592228
6.87450e-06;0.0011752305670248036
6.87475e-06;0.0011603477099015533
6.87500e-06;0.0011454648527783027
6.87525e-06;0.0011305819956550019
6.87550e-06;0.0011156991385317516
6.87575e-06;0.001100816281408501
6.87600e-06;0.0010842683711883142
6.87625e-06;0.0010638611324280728
6.87650e-06;0.0010434538936678315
6.87675e-06;0.001023046654907521
6.87700e-06;0.0010026394161472797
6.87725e-06;0.0009822321773870382
6.87750e-06;0.0009618249386267278
6.87775e-06;0.0009409998996820171
6.87800e-06;0.0009200713235590478
6.87825e-06;0.0008991427474360075
6.87850e-06;0.0008782141713130381
6.87875e-06;0.0008572855951899978
6.87900e-06;0.0008391810314830842
6.87925e-06;0.0008217763005856874
6.87950e-06;0.0008043715696882316
6.87975e-06;0.0007869668387908348
6.88000e-06;0.000769562107893438
6.88025e-06;0.000756135116819831
6.88050e-06;0.0007436938695838474
6.88075e-06;0.0007350708271520396
6.88100e-06;0.0007273939933771191
6.88125e-06;0.0007237004504984121
6.88150e-06;0.0007209940270965795
6.88175e-06;0.0007221863690191147
6.88200e-06;0.0007243448837087688
6.88225e-06;0.000730537511927357
6.88250e-06;0.0007377298542366626
6.88275e-06;0.000749316336765495
6.88300e-06;0.0007619917534213765
6.88325e-06;0.0007787932261569963
6.88350e-06;0.0007966171977321223
6.88375e-06;0.0008181427316213017
6.88400e-06;0.0008405855684014028
6.88425e-06;0.0008672788783626614
6.88450e-06;0.0008950255195950771
6.88475e-06;0.0009227721608273987
6.88500e-06;0.0009550258840547098
6.88525e-06;0.0009883965300820502
6.88550e-06;0.0010217671761092774
6.88575e-06;0.0010591514184668527
6.88600e-06;0.0010975302904443237
6.88625e-06;0.001135909162421665
6.88650e-06;0.0011742880343990059
6.88675e-06;0.001212666906376477
6.88700e-06;0.001251551117388879
6.88725e-06;0.0012916066239977053
6.88750e-06;0.0013316621306063959
6.88775e-06;0.0013717176372150864
6.88800e-06;0.001411773143823913
6.88825e-06;0.0014518286504326035
6.88850e-06;0.0014862276440298383
6.88875e-06;0.0015192248685098565
6.88900e-06;0.0015522220929897626
6.88925e-06;0.001585219317469669
6.88950e-06;0.001618216541949687
6.88975e-06;0.0016512137664295933
6.89000e-06;0.0016842109909094994
6.89025e-06;0.001714091040623321
6.89050e-06;0.0017367459744782635
6.89075e-06;0.0017594009083332061
6.89100e-06;0.0017820558421882257
6.89125e-06;0.0018047107760431683
6.89150e-06;0.0018273657098981878
6.89175e-06;0.0018500206437531304
6.89200e-06;0.001872675577608073
6.89225e-06;0.0018903239016581665
6.89250e-06;0.0019067315123938234
6.89275e-06;0.00192313912312948
6.89300e-06;0.0019395467338651925
6.89325e-06;0.0019559543446008494
6.89350e-06;0.001972361955336506
6.89375e-06;0.0019887695660722182
6.89400e-06;0.002005177176807875
6.89425e-06;0.002021584787543532
6.89450e-06;0.002037992398279244
6.89475e-06;0.002054400009014901
6.89500e-06;0.0020708076197505578
6.89525e-06;0.00208721523048627
6.89550e-06;0.0021036228412219266
6.89575e-06;0.002120030451957639
6.89600e-06;0.002136438062693296
6.89625e-06;0.002151259636215438
6.89650e-06;0.002162405027462966
6.89675e-06;0.0021735504187104567
6.89700e-06;0.002184695809957947
6.89725e-06;0.002195841201205475
6.89750e-06;0.0022069865924529653
6.89775e-06;0.0022181319837004556
6.89800e-06;0.002229277374947984
6.89825e-06;0.0022404227661954744
6.89850e-06;0.0022515681574429647
6.89875e-06;0.0022627135486904927
6.89900e-06;0.0022738589399379835
6.89925e-06;0.0022850043311854738
6.89950e-06;0.002296149722433002
6.89975e-06;0.002307295113680492
6.90000e-06;0.00231844050492802
6.90025e-06;0.002329585896175511
6.90050e-06;0.002340990538191045
6.90075e-06;0.002352459426451508
6.90100e-06;0.0023639283147119322
6.90125e-06;0.0023753972029723564
6.90150e-06;0.0023920402504095392
6.90175e-06;0.002409965532418485
6.90200e-06;0.002427890814427431
6.90225e-06;0.002445816096436438
6.90250e-06;0.0024670650246890087
6.90275e-06;0.002497598017262107
6.90300e-06;0.0025302276280258734
6.90325e-06;0.002562857238789529
6.90350e-06;0.002595486849553185
6.90375e-06;0.002628116460316951
6.90400e-06;0.002660746071080607
6.90425e-06;0.002693375681844263
6.90450e-06;0.002726005292608029
6.90475e-06;0.002758634903371685
6.90500e-06;0.0028012398584794486
6.90525e-06;0.0028463168541535554
6.90550e-06;0.002891393849827662
6.90575e-06;0.002936470845501922
6.90600e-06;0.0029815478411760288
6.90625e-06;0.0030266248368501355
6.90650e-06;0.003071701832524395
6.90675e-06;0.0031167788281985017
6.90700e-06;0.0031618558238726085
6.90725e-06;0.003207607863112991
6.90750e-06;0.0032535271883156825
6.90775e-06;0.0032994465135183742
6.90800e-06;0.0033453658387212213
6.90825e-06;0.0033912851639239126
6.90850e-06;0.0034372044891266044
6.90875e-06;0.003480017929155843
6.90900e-06;0.003515632420811129
6.90925e-06;0.003551246912466535
6.90950e-06;0.003586861404121821
6.90975e-06;0.0036224758957771066
6.91000e-06;0.003658090387432513
6.91025e-06;0.0036937048790877986
6.91050e-06;0.0037131767758779395
6.91075e-06;0.003728648294538577
6.91100e-06;0.0037441198131991623
6.91125e-06;0.0037433214965132407
6.91150e-06;0.0037384912695901957
6.91175e-06;0.003733661042667167
6.91200e-06;0.003712914818497793
6.91225e-06;0.0036882243705016493
6.91250e-06;0.0036635339225055893
6.91275e-06;0.0036207979801852973
6.91300e-06;0.0035735900925902386
6.91325e-06;0.0035263822049953404
6.91350e-06;0.0034628637430913533
6.91375e-06;0.00339530327522231
6.91400e-06;0.0033277428073532666
6.91425e-06;0.0032459580354151454
6.91450e-06;0.003160648266698651
6.91475e-06;0.0030753384979821568
6.91500e-06;0.0029773404395616347
6.91525e-06;0.0028761980318562485
6.91550e-06;0.002775055624150862
6.91575e-06;0.0026637652550018914
6.91600e-06;0.0025499600681706453
6.91625e-06;0.0024361548813393993
6.91650e-06;0.0023223496945077677
6.91675e-06;0.002206658631062998
6.91700e-06;0.002086596405254253
6.91725e-06;0.001966534179445101
6.91750e-06;0.001846471953636356
6.91775e-06;0.001726409727827204
6.91800e-06;0.0016097937383302053
6.91825e-06;0.0014940317780944706
6.91850e-06;0.0013782698178583434
6.91875e-06;0.0012686927006932355
6.91900e-06;0.0011606482807899274
6.91925e-06;0.0010579974040394549
6.91950e-06;0.0009611137238858955
6.91975e-06;0.0008703846190514269
6.92000e-06;0.0007865870380552359
6.92025e-06;0.0007103237328795312
6.92050e-06;0.0006418162092809554
6.92075e-06;0.0005810817773975864
6.92100e-06;0.0005282120401745668
6.92125e-06;0.0004833791901481333
6.92150e-06;0.0004467688104773062
6.92175e-06;0.00041856643808151295
6.92200e-06;0.0003989548110197131
6.92225e-06;0.0003880076345459263
6.92250e-06;0.00038555975218247955
6.92275e-06;0.00039131813129605046
6.92300e-06;0.000405036213328807
6.92325e-06;0.00042651796258529214
6.92350e-06;0.00045557576979064356
6.92375e-06;0.0004920220025497246
6.92400e-06;0.0005356672325324951
6.92425e-06;0.0005862537606420195
6.92450e-06;0.0006433742736423379
6.92475e-06;0.0007065413862031983
6.92500e-06;0.000775296842548426
6.92525e-06;0.0008492141464134865
6.92550e-06;0.0009295692074821969
6.92575e-06;0.00101126971317126
6.92600e-06;0.0010990604449138811
6.92625e-06;0.0011883604263965106
6.92650e-06;0.0012833181867396317
6.92675e-06;0.0013796780298950008
6.92700e-06;0.0014760378730506965
6.92725e-06;0.0015723977162060657
6.92750e-06;0.0016701082891950438
6.92775e-06;0.0017681535933801555
6.92800e-06;0.001866198897564935
6.92825e-06;0.0019642442017497146
6.92850e-06;0.002057280844903706
6.92875e-06;0.0021490762664196075
6.92900e-06;0.0022408716879355095
6.92925e-06;0.0023230599914201623
6.92950e-06;0.0024028675063658285
6.92975e-06;0.0024826750213114944
6.93000e-06;0.0025485825889622455
6.93025e-06;0.0026110455403293457
6.93050e-06;0.002673508491696657
6.93075e-06;0.002721226240049992
6.93100e-06;0.002765289905022774
6.93125e-06;0.0028093535699957053
6.93150e-06;0.002837879332607154
6.93175e-06;0.0028625545690011615
6.93200e-06;0.0028872298053952534
6.93225e-06;0.0028958563163803065
6.93250e-06;0.0029005057115034307
6.93275e-06;0.0029051551066265704
6.93300e-06;0.0028952330768429956
6.93325e-06;0.002881700028511258
6.93350e-06;0.002868166980179475
6.93375e-06;0.0028409856953611557
6.93400e-06;0.002810422171989141
6.93425e-06;0.0027798586486170234
6.93450e-06;0.00273746440624234
6.93475e-06;0.002692138333519513
6.93500e-06;0.0026468122607968395
6.93525e-06;0.0025921579608915784
6.93550e-06;0.002535191985800524
6.93575e-06;0.002478226010709663
6.93600e-06;0.0024127026144788485
6.93625e-06;0.0023450585604085044
6.93650e-06;0.0022774145063383894
6.93675e-06;0.0022097704522682743
6.93700e-06;0.0021421263981979298
6.93725e-06;0.0020711579888389696
6.93750e-06;0.001999365754172324
6.93775e-06;0.0019275735195054351
6.93800e-06;0.0018557812848387896
6.93825e-06;0.0017839890501721441
6.93850e-06;0.001715697032497163
6.93875e-06;0.0016482724213086916
6.93900e-06;0.0015808478101199917
6.93925e-06;0.0015189255244438425
6.93950e-06;0.0014583667978984192
6.93975e-06;0.001403995371201309
6.94000e-06;0.001351157250591787
6.94025e-06;0.001304710388978327
6.94050e-06;0.0012598473776006217
6.94075e-06;0.0012149843662230685
6.94100e-06;0.0011732693570759736
6.94125e-06;0.0011323344702924734
6.94150e-06;0.001091399583509112
6.94175e-06;0.0010550976807743855
6.94200e-06;0.0010199439012626161
6.94225e-06;0.0009847901217509656
6.94250e-06;0.0009525318251013357
6.94275e-06;0.0009209910727126919
6.94300e-06;0.000889450320324155
6.94325e-06;0.0008593733872622845
6.94350e-06;0.0008296592106757658
6.94375e-06;0.0007999450340892472
6.94400e-06;0.0007739807300237482
6.94425e-06;0.0007489457008445811
6.94450e-06;0.0007239106716654141
6.94475e-06;0.0006988756424861622
6.94500e-06;0.0006738406133069952
6.94525e-06;0.0006488055841278282
6.94550e-06;0.0006237705549485763
6.94575e-06;0.0005987355257694092
6.94600e-06;0.0005737004965902421
6.94625e-06;0.0005502125678302605
6.94650e-06;0.0005303105720380562
6.94675e-06;0.000510408576245852
6.94700e-06;0.0004905065804535803
6.94725e-06;0.00047060458466137607
6.94750e-06;0.0004507025888691044
6.94775e-06;0.00043080059307690015
