Time(s);Current(A)
1.00000e-06;-0.013147828055595267
1.00025e-06;-0.013107704969335589
1.00050e-06;-0.013065556569237503
1.00075e-06;-0.013023069269965305
1.00100e-06;-0.012979914369861126
1.00125e-06;-0.01293626785230452
1.00150e-06;-0.0128921825419336
1.00175e-06;-0.01284785272965684
1.00200e-06;-0.012803530410509245
1.00225e-06;-0.012759469401882087
1.00250e-06;-0.012715923601744488
1.00275e-06;-0.012673127262622213
1.00300e-06;-0.012631248024994572
1.00325e-06;-0.012590386407720365
1.00350e-06;-0.012550682106769942
1.00375e-06;-0.012512363969163795
1.00400e-06;-0.012475697421835751
1.00425e-06;-0.01244094828510219
1.00450e-06;-0.012408382917219511
1.00475e-06;-0.012378409294206843
1.00500e-06;-0.01235194926394441
1.00525e-06;-0.01233035665665108
1.00550e-06;-0.01231457834341519
1.00575e-06;-0.012304795823351386
1.00600e-06;-0.012300886740108702
1.00625e-06;-0.012302726794113041
1.00650e-06;-0.012310193339899004
1.00675e-06;-0.012323250484726041
1.00700e-06;-0.012343611531086748
1.00725e-06;-0.01236950555829007
1.00750e-06;-0.012401003321691709
1.00775e-06;-0.012440164038970428
1.00800e-06;-0.012487169659107913
1.00825e-06;-0.012544902966390038
1.00850e-06;-0.012602636273672162
1.00875e-06;-0.012660369580954334
1.00900e-06;-0.01271810288823646
1.00925e-06;-0.012796236389726458
1.00950e-06;-0.01287608633158942
1.00975e-06;-0.01295593627345245
1.01000e-06;-0.01303578621531541
1.01025e-06;-0.013121219481186821
1.01050e-06;-0.013214287787831657
1.01075e-06;-0.013307356094476416
1.01100e-06;-0.013402995025771601
1.01125e-06;-0.013502149215000613
1.01150e-06;-0.013601303404229624
1.01175e-06;-0.013701369651189569
1.01200e-06;-0.013802683111807827
1.01225e-06;-0.013903525496673444
1.01250e-06;-0.014003723698508599
1.01275e-06;-0.01410247720247162
1.01300e-06;-0.014199255122151581
1.01325e-06;-0.014293774041823087
1.01350e-06;-0.014385203841618316
1.01375e-06;-0.01447333099716961
1.01400e-06;-0.014556941878289648
1.01425e-06;-0.014636107535187631
1.01450e-06;-0.014709194471214443
1.01475e-06;-0.014776854889937753
1.01500e-06;-0.014837094696709031
1.01525e-06;-0.014890184511115966
1.01550e-06;-0.01493349690921189
1.01575e-06;-0.014976809307307817
1.01600e-06;-0.015011122945596712
1.01625e-06;-0.01503313102935745
1.01650e-06;-0.015055139113118206
1.01675e-06;-0.015067773018872814
1.01700e-06;-0.015067587996121323
1.01725e-06;-0.015067402973369833
1.01750e-06;-0.015058433977751523
1.01775e-06;-0.015037453142790569
1.01800e-06;-0.015016472307829631
1.01825e-06;-0.014985521844620826
1.01850e-06;-0.014940938191210545
1.01875e-06;-0.014896354537800265
1.01900e-06;-0.014851770884389947
1.01925e-06;-0.014807187230979667
1.01950e-06;-0.014741525502225999
1.01975e-06;-0.014674090297243248
1.02000e-06;-0.014606655092260496
1.02025e-06;-0.014539219887277688
1.02050e-06;-0.014466693720412638
1.02075e-06;-0.014387205804330427
1.02100e-06;-0.014306005690157433
1.02125e-06;-0.014221616059523011
1.02150e-06;-0.014135435644653978
1.02175e-06;-0.01404796988119283
1.02200e-06;-0.013959710796573268
1.02225e-06;-0.013871148659852365
1.02250e-06;-0.013782774671409467
1.02275e-06;-0.013695087257069591
1.02300e-06;-0.013608616017065598
1.02325e-06;-0.013523936018189067
1.02350e-06;-0.013441639373061153
1.02375e-06;-0.013362305734015582
1.02400e-06;-0.013286505463850828
1.02425e-06;-0.01321480906992239
1.02450e-06;-0.0131477861282632
1.02475e-06;-0.013085944702651913
1.02500e-06;-0.01302953678118833
1.02525e-06;-0.01297848103083571
1.02550e-06;-0.012932651365120935
1.02575e-06;-0.012892113398372613
1.02600e-06;-0.012857029325276022
1.02625e-06;-0.012827561051401861
1.02650e-06;-0.012805126842315153
1.02675e-06;-0.012787801448459568
1.02700e-06;-0.012775310334291273
1.02725e-06;-0.012769429963555151
1.02750e-06;-0.012769064686788364
1.02775e-06;-0.012776241148107492
1.02800e-06;-0.012783417609426627
1.02825e-06;-0.012798742651916991
1.02850e-06;-0.012825210653223049
1.02875e-06;-0.012851678654529127
1.02900e-06;-0.012878146655835185
1.02925e-06;-0.012904614657141263
1.02950e-06;-0.012939009240662594
1.02975e-06;-0.012984243205582639
1.03000e-06;-0.01302947717050272
1.03025e-06;-0.013074711135422764
1.03050e-06;-0.013119945100342846
1.03075e-06;-0.013169429591286731
1.03100e-06;-0.013224726558713715
1.03125e-06;-0.01328002352614065
1.03150e-06;-0.013336816134496164
1.03175e-06;-0.013395653990351837
1.03200e-06;-0.01345449184620746
1.03225e-06;-0.013513451781819799
1.03250e-06;-0.013572578658114412
1.03275e-06;-0.013631705534409025
1.03300e-06;-0.01368984443011659
1.03325e-06;-0.013746632289765056
1.03350e-06;-0.013801189079574934
1.03375e-06;-0.013852694943241468
1.03400e-06;-0.013904200806908002
1.03425e-06;-0.013948207977250653
1.03450e-06;-0.013981960892389652
1.03475e-06;-0.01401571380752868
1.03500e-06;-0.014049466722667681
1.03525e-06;-0.014083219637806708
1.03550e-06;-0.014116972552945709
1.03575e-06;-0.014150725468084708
1.03600e-06;-0.014184478383223736
1.03625e-06;-0.014218231298362735
1.03650e-06;-0.014251984213501764
1.03675e-06;-0.014285737128640763
1.03700e-06;-0.014319490043779763
1.03725e-06;-0.014347837553151693
1.03750e-06;-0.01436879332001333
1.03775e-06;-0.014389749086874985
1.03800e-06;-0.014410704853736623
1.03825e-06;-0.014431660620598261
1.03850e-06;-0.014452616387459915
1.03875e-06;-0.014473572154321553
1.03900e-06;-0.014494527921183208
1.03925e-06;-0.014515483688044846
1.03950e-06;-0.014536439454906501
1.03975e-06;-0.014557395221768138
1.04000e-06;-0.014578350988629776
1.04025e-06;-0.014597142724616865
1.04050e-06;-0.01461297520838533
1.04075e-06;-0.014628807692153807
1.04100e-06;-0.01464464017592227
1.04125e-06;-0.014660472659690735
1.04150e-06;-0.014676305143459212
1.04175e-06;-0.014692137627227677
1.04200e-06;-0.014707970110996154
1.04225e-06;-0.014723802594764617
1.04250e-06;-0.014735478518525642
1.04275e-06;-0.014746804715841317
1.04300e-06;-0.01475813091315698
1.04325e-06;-0.014769457110472655
1.04350e-06;-0.01478078330778832
1.04375e-06;-0.014792109505103982
1.04400e-06;-0.014803435702419657
1.04425e-06;-0.014814761899735322
1.04450e-06;-0.01482411013810981
1.04475e-06;-0.014830753572475399
1.04500e-06;-0.014837397006840995
1.04525e-06;-0.0148412623727589
1.04550e-06;-0.014841328807102556
1.04575e-06;-0.014841395241446212
1.04600e-06;-0.014836408725768914
1.04625e-06;-0.014824512441041954
1.04650e-06;-0.014812616156315007
1.04675e-06;-0.014800719871588057
1.04700e-06;-0.014788823586861097
1.04725e-06;-0.014776927302134148
1.04750e-06;-0.01476503101740719
1.04775e-06;-0.014737702602628123
1.04800e-06;-0.014709075752609985
1.04825e-06;-0.014680448902591825
1.04850e-06;-0.014651822052573689
1.04875e-06;-0.014623195202555528
1.04900e-06;-0.014594568352537392
1.04925e-06;-0.014560459392173746
1.04950e-06;-0.014518853797916231
1.04975e-06;-0.014477248203658718
1.05000e-06;-0.014435642609401169
1.05025e-06;-0.014394037015143656
1.05050e-06;-0.014352431420886106
1.05075e-06;-0.014308171411468227
1.05100e-06;-0.014260281562918066
1.05125e-06;-0.014212391714367865
1.05150e-06;-0.014164501865817703
1.05175e-06;-0.014116612017267502
1.05200e-06;-0.014068722168717343
1.05225e-06;-0.014020695160741318
1.05250e-06;-0.013972480591053434
1.05275e-06;-0.013924916873000652
1.05300e-06;-0.013878243176512471
1.05325e-06;-0.013832569262091728
1.05350e-06;-0.013788262521926935
1.05375e-06;-0.013745412281114746
1.05400e-06;-0.013704553762782503
1.05425e-06;-0.013665655076934903
1.05450e-06;-0.013629436407669395
1.05475e-06;-0.013596159781863145
1.05500e-06;-0.013566906318912756
1.05525e-06;-0.013537652855962368
1.05550e-06;-0.013511935378746063
1.05575e-06;-0.013491053263978035
1.05600e-06;-0.01347017114920999
1.05625e-06;-0.013455262701656277
1.05650e-06;-0.013448523078384775
1.05675e-06;-0.013441783455113267
1.05700e-06;-0.013435043831841765
1.05725e-06;-0.013428304208570255
1.05750e-06;-0.013421564585298754
1.05775e-06;-0.013414824962027245
1.05800e-06;-0.013424207347189805
1.05825e-06;-0.013434946212877103
1.05850e-06;-0.013445685078564407
1.05875e-06;-0.013456423944251703
1.05900e-06;-0.01346716280993901
1.05925e-06;-0.013477901675626305
1.05950e-06;-0.013494169344597677
1.05975e-06;-0.013517997498761399
1.06000e-06;-0.0135418256529251
1.06025e-06;-0.013565653807088822
1.06050e-06;-0.013589481961252523
1.06075e-06;-0.013613310115416223
1.06100e-06;-0.013637138269579945
1.06125e-06;-0.013663361449861492
1.06150e-06;-0.013692859761951642
1.06175e-06;-0.013722358074041766
1.06200e-06;-0.013751856386131916
1.06225e-06;-0.01378135469822204
1.06250e-06;-0.013810853010312166
1.06275e-06;-0.013840351322402314
1.06300e-06;-0.013869224455759997
1.06325e-06;-0.013897242674535612
1.06350e-06;-0.013925260893311201
1.06375e-06;-0.013950093092692649
1.06400e-06;-0.013970568498892359
1.06425e-06;-0.013991043905092053
1.06450e-06;-0.014011519311291765
1.06475e-06;-0.014031994717491458
1.06500e-06;-0.014052470123691152
1.06525e-06;-0.014072945529890862
1.06550e-06;-0.014093420936090556
1.06575e-06;-0.014113896342290268
1.06600e-06;-0.01413437174848996
1.06625e-06;-0.014154206334312781
1.06650e-06;-0.014173164616038427
1.06675e-06;-0.014192122897764071
1.06700e-06;-0.014211081179489733
1.06725e-06;-0.014230039461215378
1.06750e-06;-0.01424899774294104
1.06775e-06;-0.014267956024666684
1.06800e-06;-0.01428691430639233
1.06825e-06;-0.01430587258811799
1.06850e-06;-0.014324830869843635
1.06875e-06;-0.014345154568339727
1.06900e-06;-0.014367345436409978
1.06925e-06;-0.014389536304480227
1.06950e-06;-0.014411727172550496
1.06975e-06;-0.014433918040620747
1.07000e-06;-0.014456108908691015
1.07025e-06;-0.014478299776761265
1.07050e-06;-0.014500490644831533
1.07075e-06;-0.014522681512901784
1.07100e-06;-0.014544872380972034
1.07125e-06;-0.014566591769545745
1.07150e-06;-0.014588271488573466
1.07175e-06;-0.014609951207601207
1.07200e-06;-0.014631630926628928
1.07225e-06;-0.014653310645656647
1.07250e-06;-0.014674990364684387
1.07275e-06;-0.014696670083712109
1.07300e-06;-0.014718349802739847
1.07325e-06;-0.014740029521767568
1.07350e-06;-0.014758122863601291
1.07375e-06;-0.014771311934063088
1.07400e-06;-0.014784501004524872
1.07425e-06;-0.014797690074986668
1.07450e-06;-0.014810879145448453
1.07475e-06;-0.014824068215910249
1.07500e-06;-0.014837257286372033
1.07525e-06;-0.01485044635683382
1.07550e-06;-0.014863635427295616
1.07575e-06;-0.0148768244977574
1.07600e-06;-0.014876297749959605
1.07625e-06;-0.01487423126731811
1.07650e-06;-0.014872164784676614
1.07675e-06;-0.014870098302035116
1.07700e-06;-0.014868031819393621
1.07725e-06;-0.014865965336752123
1.07750e-06;-0.014863898854110628
1.07775e-06;-0.014861832371469132
1.07800e-06;-0.014859765888827635
1.07825e-06;-0.014852321460023205
1.07850e-06;-0.014835942398856451
1.07875e-06;-0.01481956333768971
1.07900e-06;-0.014803184276522956
1.07925e-06;-0.014786805215356216
1.07950e-06;-0.014770426154189475
1.07975e-06;-0.01475404709302272
1.08000e-06;-0.01473766803185598
1.08025e-06;-0.014719708043796883
1.08050e-06;-0.014696209588478738
1.08075e-06;-0.014672711133160595
1.08100e-06;-0.014649212677842431
1.08125e-06;-0.014625714222524287
1.08150e-06;-0.014602215767206123
1.08175e-06;-0.01457871731188798
1.08200e-06;-0.014555218856569838
1.08225e-06;-0.014531669766562868
1.08250e-06;-0.014507430699574638
1.08275e-06;-0.014483191632586389
1.08300e-06;-0.01445895256559816
1.08325e-06;-0.014434892070530076
1.08350e-06;-0.014413264897702338
1.08375e-06;-0.014391637724874617
1.08400e-06;-0.014370010552046878
1.08425e-06;-0.014348577869477708
1.08450e-06;-0.014329795421454135
1.08475e-06;-0.014310999909780865
1.08500e-06;-0.01429202638540908
1.08525e-06;-0.014273052861037283
1.08550e-06;-0.014253604545692194
1.08575e-06;-0.01422768645932234
1.08600e-06;-0.014201768372952507
1.08625e-06;-0.014175460711780927
1.08650e-06;-0.014143844483458711
1.08675e-06;-0.014112228255136522
1.08700e-06;-0.014079875521378139
1.08725e-06;-0.014037486746923546
1.08750e-06;-0.013995097972468952
1.08775e-06;-0.013952709198014323
1.08800e-06;-0.01391032042355973
1.08825e-06;-0.013867076172130158
1.08850e-06;-0.013812174706356576
1.08875e-06;-0.013757273240582946
1.08900e-06;-0.013702371774809364
1.08925e-06;-0.013647470309035781
1.08950e-06;-0.013591968849251177
1.08975e-06;-0.013528291530856993
1.09000e-06;-0.013464614212462755
1.09025e-06;-0.013400681415349471
1.09050e-06;-0.013333267320345073
1.09075e-06;-0.013265853225340615
1.09100e-06;-0.013198315784438064
1.09125e-06;-0.013129097562386146
1.09150e-06;-0.013059827032674302
1.09175e-06;-0.012989845384634591
1.09200e-06;-0.012919915266850455
1.09225e-06;-0.012850433606099028
1.09250e-06;-0.01278176844124127
1.09275e-06;-0.012714369809017018
1.09300e-06;-0.012648544697667902
1.09325e-06;-0.012584351214317658
1.09350e-06;-0.012521993038542479
1.09375e-06;-0.012461863196128636
1.09400e-06;-0.012404392380041448
1.09425e-06;-0.012350002368178311
1.09450e-06;-0.012299093007832532
1.09475e-06;-0.012252134306197312
1.09500e-06;-0.012209623932470187
1.09525e-06;-0.012171963932670704
1.09550e-06;-0.012139389924548572
1.09575e-06;-0.012111995096374823
1.09600e-06;-0.012089835009137137
1.09625e-06;-0.012073144073815443
1.09650e-06;-0.012063918392391302
1.09675e-06;-0.012055442210012495
1.09700e-06;-0.012057179126614153
1.09725e-06;-0.01205984009214786
1.09750e-06;-0.012075092672393196
1.09775e-06;-0.01209034525263853
1.09800e-06;-0.01210692512091947
1.09825e-06;-0.012141591368585353
1.09850e-06;-0.012176257616251265
1.09875e-06;-0.012210923863917146
1.09900e-06;-0.012245590111583028
1.09925e-06;-0.012281596250363689
1.09950e-06;-0.012335860505231718
1.09975e-06;-0.012390124760099794
1.10000e-06;-0.012444389014967826
1.10025e-06;-0.012498653269835857
1.10050e-06;-0.012553635348378351
1.10075e-06;-0.012618398899335396
1.10100e-06;-0.012683162450292494
1.10125e-06;-0.012748205739516422
1.10150e-06;-0.012817060900984669
1.10175e-06;-0.012885916062452856
1.10200e-06;-0.012954799516114501
1.10225e-06;-0.013024068495246736
1.10250e-06;-0.013093337474378911
1.10275e-06;-0.013162440361568233
1.10300e-06;-0.013229279985764524
1.10325e-06;-0.013295848934534586
1.10350e-06;-0.01335872950646624
1.10375e-06;-0.013421210846470652
1.10400e-06;-0.013478252025859462
1.10425e-06;-0.013534608727309041
1.10450e-06;-0.013581638344241117
1.10475e-06;-0.01362866796117323
1.10500e-06;-0.013674758035323737
1.10525e-06;-0.013708045366785673
1.10550e-06;-0.01374133269824758
1.10575e-06;-0.01377364277107813
1.10600e-06;-0.013792636163664837
1.10625e-06;-0.013811629556251545
1.10650e-06;-0.013829176857515663
1.10675e-06;-0.01382701889844459
1.10700e-06;-0.013824860939373516
1.10725e-06;-0.013822702980302443
1.10750e-06;-0.01382054502123137
1.10775e-06;-0.013818387062160296
1.10800e-06;-0.013802264389077475
1.10825e-06;-0.013775536616505631
1.10850e-06;-0.01374880884393381
1.10875e-06;-0.013722081071361988
1.10900e-06;-0.013695353298790144
1.10925e-06;-0.013667367616282646
1.10950e-06;-0.01362224093972316
1.10975e-06;-0.01357711426316371
1.11000e-06;-0.013531987586604226
1.11025e-06;-0.013486860910044777
1.11050e-06;-0.013440993954341389
1.11075e-06;-0.013385039535264898
1.11100e-06;-0.013329085116188456
1.11125e-06;-0.013273130697111965
1.11150e-06;-0.013217176278035522
1.11175e-06;-0.013161002128583043
1.11200e-06;-0.01310183380843381
1.11225e-06;-0.013042675198471054
1.11250e-06;-0.01298364890501445
1.11275e-06;-0.012924687176338477
1.11300e-06;-0.012866683562197547
1.11325e-06;-0.012809853109058824
1.11350e-06;-0.01275459867377936
1.11375e-06;-0.012701304446868901
1.11400e-06;-0.01265034848161948
1.11425e-06;-0.012602107963673729
1.11450e-06;-0.012556960460714573
1.11475e-06;-0.012515296960182753
1.11500e-06;-0.012477625597483534
1.11525e-06;-0.012444509864266684
1.11550e-06;-0.012416450604693688
1.11575e-06;-0.012395340781556166
1.11600e-06;-0.012374916624927255
1.11625e-06;-0.012363835748934472
1.11650e-06;-0.012353450281473421
1.11675e-06;-0.01235254084497931
1.11700e-06;-0.012352532609295882
1.11725e-06;-0.01236480464686159
1.11750e-06;-0.012377076684427309
1.11775e-06;-0.01239074968048519
1.11800e-06;-0.012423512931334679
1.11825e-06;-0.01245627618218414
1.11850e-06;-0.012489039433033628
1.11875e-06;-0.012521802683883091
1.11900e-06;-0.012554565934732552
1.11925e-06;-0.012599467887568225
1.11950e-06;-0.012653588227698775
1.11975e-06;-0.012707708567829372
1.12000e-06;-0.012761828907959922
1.12025e-06;-0.012815949248090472
1.12050e-06;-0.012870814740113264
1.12075e-06;-0.012935834094337469
1.12100e-06;-0.013000853448561727
1.12125e-06;-0.013066139105975313
1.12150e-06;-0.013135053561647419
1.12175e-06;-0.013203968017319581
1.12200e-06;-0.013272900174184
1.12225e-06;-0.013342073537531906
1.12250e-06;-0.013411246900879754
1.12275e-06;-0.013480183696494367
1.12300e-06;-0.013545896886036716
1.12325e-06;-0.01361161007557901
1.12350e-06;-0.013676821434196835
1.12375e-06;-0.013735194560087727
1.12400e-06;-0.013793567685978668
1.12425e-06;-0.013850300936483099
1.12450e-06;-0.013884688315126056
1.12475e-06;-0.013919075693769042
1.12500e-06;-0.013953463072411998
1.12525e-06;-0.013987850451054983
1.12550e-06;-0.01402223782969794
1.12575e-06;-0.014056625208340896
1.12600e-06;-0.014091012586983882
1.12625e-06;-0.014125399965626837
1.12650e-06;-0.014159787344269823
1.12675e-06;-0.01419417472291278
1.12700e-06;-0.014228562101555736
1.12725e-06;-0.014261143974500982
1.12750e-06;-0.014269123003048785
1.12775e-06;-0.014277102031596597
1.12800e-06;-0.0142850810601444
1.12825e-06;-0.01429306008869221
1.12850e-06;-0.014301039117240013
1.12875e-06;-0.014309018145787817
1.12900e-06;-0.014316997174335627
1.12925e-06;-0.01432497620288343
1.12950e-06;-0.014332955231431242
1.12975e-06;-0.014340934259979045
1.13000e-06;-0.014348913288526848
1.13025e-06;-0.01435594718695582
1.13050e-06;-0.014350102206477533
1.13075e-06;-0.014344257225999241
1.13100e-06;-0.014338412245520954
1.13125e-06;-0.014332567265042668
1.13150e-06;-0.014326722284564376
1.13175e-06;-0.014320877304086089
1.13200e-06;-0.014315032323607799
1.13225e-06;-0.014309187343129512
1.13250e-06;-0.01430334236265122
1.13275e-06;-0.014297497382172933
1.13300e-06;-0.014291652401694646
1.13325e-06;-0.014285807421216355
1.13350e-06;-0.014279962440738068
1.13375e-06;-0.014274117460259776
1.13400e-06;-0.014268272479781489
1.13425e-06;-0.01426266957743464
1.13450e-06;-0.014260365368969718
1.13475e-06;-0.014258061160504798
1.13500e-06;-0.014255756952039875
1.13525e-06;-0.014253452743574955
1.13550e-06;-0.014251148535110034
1.13575e-06;-0.014248844326645112
1.13600e-06;-0.014246540118180192
1.13625e-06;-0.01424423590971527
1.13650e-06;-0.014241931701250349
1.13675e-06;-0.014239627492785425
1.13700e-06;-0.014237323284320504
1.13725e-06;-0.014235019075855584
1.13750e-06;-0.014232714867390662
1.13775e-06;-0.014230410658925741
1.13800e-06;-0.014228106450460819
1.13825e-06;-0.014226419399782841
1.13850e-06;-0.014233142091049273
1.13875e-06;-0.014239864782315712
1.13900e-06;-0.014246587473582146
1.13925e-06;-0.014253310164848583
1.13950e-06;-0.014260032856115016
1.13975e-06;-0.01426675554738145
1.14000e-06;-0.014273478238647887
1.14025e-06;-0.01428020092991432
1.14050e-06;-0.01428692362118076
1.14075e-06;-0.014293646312447192
1.14100e-06;-0.01430036900371363
1.14125e-06;-0.014308237865579622
1.14150e-06;-0.014316977153666097
1.14175e-06;-0.014325716441752581
1.14200e-06;-0.014334455729839058
1.14225e-06;-0.014343195017925543
1.14250e-06;-0.01435193430601202
1.14275e-06;-0.014360673594098497
1.14300e-06;-0.014369412882184981
1.14325e-06;-0.014378152170271458
1.14350e-06;-0.014386891458357942
1.14375e-06;-0.01439563074644442
1.14400e-06;-0.014404190513508436
1.14425e-06;-0.014410304025329076
1.14450e-06;-0.01441641753714971
1.14475e-06;-0.014422188465103142
1.14500e-06;-0.014423291151031487
1.14525e-06;-0.014424393836959832
1.14550e-06;-0.01442480573067418
1.14575e-06;-0.014415804497990521
1.14600e-06;-0.014406803265306854
1.14625e-06;-0.014396763414102521
1.14650e-06;-0.014372570758022573
1.14675e-06;-0.014348378101942645
1.14700e-06;-0.014324185445862716
1.14725e-06;-0.014299992789782768
