Time(s);Current(A)
5.00000e-06;-0.0016600094260176715
5.00025e-06;-0.0016720929095671272
5.00050e-06;-0.001684176393116624
5.00075e-06;-0.0016952132416755677
5.00100e-06;-0.001705220943024081
5.00125e-06;-0.0017152286443726282
5.00150e-06;-0.0017252363457211416
5.00175e-06;-0.0017343308669674209
5.00200e-06;-0.00174252746605047
5.00225e-06;-0.0017507240651334912
5.00250e-06;-0.0017589206642165125
5.00275e-06;-0.0017663583612157368
5.00300e-06;-0.001773049836304137
5.00325e-06;-0.0017797413113925372
5.00350e-06;-0.00178643278648096
5.00375e-06;-0.0017931188940841299
5.00400e-06;-0.0017985361387999692
5.00425e-06;-0.0018039533835157904
5.00450e-06;-0.0018093706282316113
5.00475e-06;-0.0018147878729474507
5.00500e-06;-0.0018196742153095947
5.00525e-06;-0.0018240385259403271
5.00550e-06;-0.0018284028365710742
5.00575e-06;-0.0018327640550034978
5.00600e-06;-0.0018363942838763062
5.00625e-06;-0.0018400245127491268
5.00650e-06;-0.001843654741621935
5.00675e-06;-0.0018470733975977666
5.00700e-06;-0.001850160925965935
5.00725e-06;-0.0018529727518580273
5.00750e-06;-0.001855270267103235
5.00775e-06;-0.0018564708397294095
5.00800e-06;-0.0018559858313160205
5.00825e-06;-0.0018536022034574234
5.00850e-06;-0.0018493619878742146
5.00875e-06;-0.0018429339790974198
5.00900e-06;-0.0018352395666089035
5.00925e-06;-0.0018263313666743385
5.00950e-06;-0.001815352652519071
5.00975e-06;-0.0018013198778783351
5.01000e-06;-0.0017851320169374415
5.01025e-06;-0.001768944155996548
5.01050e-06;-0.0017506273562313095
5.01075e-06;-0.0017292786661963417
5.01100e-06;-0.0017061466212775112
5.01125e-06;-0.0016813795393509422
5.01150e-06;-0.0016550503595148744
5.01175e-06;-0.0016270969957669103
5.01200e-06;-0.0015974549612316163
5.01225e-06;-0.0015662072129144198
5.01250e-06;-0.0015335368362709978
5.01275e-06;-0.0014996432507478619
5.01300e-06;-0.0014647259344892345
5.01325e-06;-0.0014289803144937167
5.01350e-06;-0.0013925542823020637
5.01375e-06;-0.0013555112853404733
5.01400e-06;-0.0013179133542457367
5.01425e-06;-0.001279914660225553
5.01450e-06;-0.001241732289708143
5.01475e-06;-0.0012035934834400627
5.01500e-06;-0.0011657254273932571
5.01525e-06;-0.0011283528392792685
5.01550e-06;-0.0010916706036408763
5.01575e-06;-0.0010558206448766465
5.01600e-06;-0.001020944092145172
5.01625e-06;-0.0009872398275406515
5.01650e-06;-0.0009549459753190494
5.01675e-06;-0.0009243070947222862
5.01700e-06;-0.0008955676867850472
5.01725e-06;-0.0008689681441691947
5.01750e-06;-0.00084469354609756
5.01775e-06;-0.0008228037749344578
5.01800e-06;-0.000803281893647817
5.01825e-06;-0.0007861407218274544
5.01850e-06;-0.0007720715316522466
5.01875e-06;-0.0007598514444239037
5.01900e-06;-0.000750242334117813
5.01925e-06;-0.0007432005750273149
5.01950e-06;-0.0007387990391581681
5.01975e-06;-0.000736993612139609
5.02000e-06;-0.0007376576997639304
5.02025e-06;-0.0007407500399576192
5.02050e-06;-0.0007461866184996493
5.02075e-06;-0.0007539282665049709
5.02100e-06;-0.0007639091714118702
5.02125e-06;-0.0007760919184257371
5.02150e-06;-0.0007903492156373773
5.02175e-06;-0.0008066464002667983
5.02200e-06;-0.0008247282254681619
5.02225e-06;-0.0008445648724385233
5.02250e-06;-0.0008659247335796927
5.02275e-06;-0.000888782358151463
5.02300e-06;-0.0009129144932931483
5.02325e-06;-0.000938299843747833
5.02350e-06;-0.000964673669217285
5.02375e-06;-0.0009920194536914492
5.02400e-06;-0.0010199892276933468
5.02425e-06;-0.0010485725652461923
5.02450e-06;-0.0010774333097420441
5.02475e-06;-0.0011065668261059424
5.02500e-06;-0.0011356392965068286
5.02525e-06;-0.0011646517409360266
5.02550e-06;-0.0011932411779307624
5.02575e-06;-0.0012214146753431162
5.02600e-06;-0.0012487542203343121
5.02625e-06;-0.0012752737470618097
5.02650e-06;-0.001300559617056069
5.02675e-06;-0.0013246324429648114
5.02700e-06;-0.0013470848213973164
5.02725e-06;-0.001367943827723962
5.02750e-06;-0.0013872674106872832
5.02775e-06;-0.0014050812250255798
5.02800e-06;-0.0014218088418932848
5.02825e-06;-0.0014374684101037807
5.02850e-06;-0.0014531279783142237
5.02875e-06;-0.001466939179445761
5.02900e-06;-0.001478932897080852
5.02925e-06;-0.0014909266147159024
5.02950e-06;-0.0015029203323509936
5.02975e-06;-0.0015131674604191645
5.03000e-06;-0.0015216971819455936
5.03025e-06;-0.0015302269034720517
5.03050e-06;-0.0015387566249984808
5.03075e-06;-0.0015458654283654729
5.03100e-06;-0.0015515770550926264
5.03125e-06;-0.0015572886818197604
5.03150e-06;-0.0015630003085468944
5.03175e-06;-0.0015675497727550061
5.03200e-06;-0.0015709564925252887
5.03225e-06;-0.0015743632122955712
5.03250e-06;-0.0015777699320658652
5.03275e-06;-0.001580201331052256
5.03300e-06;-0.0015816737054765943
5.03325e-06;-0.0015831460799009375
5.03350e-06;-0.001584618454325276
5.03375e-06;-0.0015860908287496193
5.03400e-06;-0.0015868518768306556
5.03425e-06;-0.0015869134838189664
5.03450e-06;-0.0015869750908072775
5.03475e-06;-0.0015870366977955882
5.03500e-06;-0.0015870983047838992
5.03525e-06;-0.0015867884196954255
5.03550e-06;-0.0015861132496339367
5.03575e-06;-0.0015854380795724476
5.03600e-06;-0.001584722055674233
5.03625e-06;-0.0015839658605487526
5.03650e-06;-0.0015832096654232722
5.03675e-06;-0.0015824752277050862
5.03700e-06;-0.0015817760952946771
5.03725e-06;-0.0015810895853150173
5.03750e-06;-0.001580210680809765
5.03775e-06;-0.0015785880997073204
5.03800e-06;-0.0015756547989721722
5.03825e-06;-0.0015712080051954558
5.03850e-06;-0.001564958937597162
5.03875e-06;-0.0015576742488338168
5.03900e-06;-0.001549129019634207
5.03925e-06;-0.0015393443118346532
5.03950e-06;-0.0015281671104019907
5.03975e-06;-0.0015156206819227365
5.04000e-06;-0.0015012589578191308
5.04025e-06;-0.001485112269097002
5.04050e-06;-0.0014676940047068626
5.04075e-06;-0.0014482731954691568
5.04100e-06;-0.0014274321354925176
5.04125e-06;-0.0014053062772890923
5.04150e-06;-0.001381955873629068
5.04175e-06;-0.001357305265827043
5.04200e-06;-0.001331272599548184
5.04225e-06;-0.0013039191051382535
5.04250e-06;-0.0012754040586681146
5.04275e-06;-0.0012459028990084303
5.04300e-06;-0.0012155910630683294
5.04325e-06;-0.0011846399395539242
5.04350e-06;-0.0011531736722607208
5.04375e-06;-0.001121231313230049
5.04400e-06;-0.0010888481625424271
5.04425e-06;-0.001056148928521177
5.04450e-06;-0.0010233198455727325
5.04475e-06;-0.0009905572182981764
5.04500e-06;-0.0009580573234203785
5.04525e-06;-0.0009260139713637173
5.04550e-06;-0.0008945913722147644
5.04575e-06;-0.0008639003337183484
5.04600e-06;-0.0008340492635008149
5.04625e-06;-0.0008052026668839244
5.04650e-06;-0.0007775635972719485
5.04675e-06;-0.0007513413977819799
5.04700e-06;-0.0007267453249549067
5.04725e-06;-0.0007039611854641495
5.04750e-06;-0.0006828963327521876
5.04775e-06;-0.0006629341932267577
5.04800e-06;-0.0006433747923662249
5.04825e-06;-0.0006239836536971349
5.04850e-06;-0.0006048632997448005
5.04875e-06;-0.0005861732483587024
5.04900e-06;-0.0005680730178788914
5.04925e-06;-0.0005507074222955068
5.04950e-06;-0.0005340468363988005
5.04975e-06;-0.0005177334560425147
5.05000e-06;-0.0005013572738023591
5.05025e-06;-0.00048479986627815495
5.05050e-06;-0.00046815391306370983
5.05075e-06;-0.0004516833144137887
5.05100e-06;-0.00043539725714893416
5.05125e-06;-0.00041911119988407967
5.05150e-06;-0.0004031068589767796
5.05175e-06;-0.0003872631535894199
5.05200e-06;-0.0003713050188835982
5.05225e-06;-0.00035534688417772245
5.05250e-06;-0.0003393104805253597
5.05275e-06;-0.0003231971156891586
5.05300e-06;-0.00030719699404903973
5.05325e-06;-0.0002914511238539661
5.05350e-06;-0.00027597504881430354
5.05375e-06;-0.0002606746833886653
5.05400e-06;-0.0002454354399091884
5.05425e-06;-0.00023025720282354947
5.05450e-06;-0.00021522268759717762
5.05475e-06;-0.00020042859904412276
5.05500e-06;-0.00018597161250661717
5.05525e-06;-0.0001719447866732727
5.05550e-06;-0.00015839828776725143
5.05575e-06;-0.00014530162105804478
5.05600e-06;-0.00013261149214192084
5.05625e-06;-0.00012035627854383219
5.05650e-06;-0.00010861625407500685
5.05675e-06;-9.748045083762679e-05
5.05700e-06;-8.703787555984801e-05
5.05725e-06;-7.739169232626251e-05
5.05750e-06;-6.880610875740922e-05
5.05775e-06;-6.18264409496383e-05
5.05800e-06;-5.698387359700033e-05
5.05825e-06;-5.4475487410276856e-05
5.05850e-06;-5.427672299880053e-05
5.05875e-06;-5.632711159056925e-05
5.05900e-06;-6.056616995358728e-05
5.05925e-06;-6.694228929666632e-05
5.05950e-06;-7.550473368249417e-05
5.05975e-06;-8.647882399019543e-05
5.06000e-06;-0.00010008100784616109
5.06025e-06;-0.00011631844535744314
5.06050e-06;-0.00013505945068500064
5.06075e-06;-0.00015614985362431952
5.06100e-06;-0.00017943549118532704
5.06125e-06;-0.00020476776201757302
5.06150e-06;-0.00023206124833205852
5.06175e-06;-0.0002613408154692491
5.06200e-06;-0.0002926257751590628
5.06225e-06;-0.0003262050210072931
5.06250e-06;-0.00036107174458851034
5.06275e-06;-0.0003973265594500061
5.06300e-06;-0.00043494627256191414
5.06325e-06;-0.00047354994093974114
5.06350e-06;-0.0005131211240914407
5.06375e-06;-0.0005534364589986463
5.06400e-06;-0.000594483511944588
5.06425e-06;-0.000635913613633584
5.06450e-06;-0.0006777203638659379
5.06475e-06;-0.000719411508305981
5.06500e-06;-0.0007609889785621374
5.06525e-06;-0.0008019634585145391
5.06550e-06;-0.0008423450232732571
5.06575e-06;-0.0008817391842561136
5.06600e-06;-0.0009201624395748894
5.06625e-06;-0.0009571380544504556
5.06650e-06;-0.000992690216894795
5.06675e-06;-0.0010256396054668146
5.06700e-06;-0.001056029708814414
5.06725e-06;-0.0010864198121621166
5.06750e-06;-0.0011133392764225674
5.06775e-06;-0.0011368460910365856
5.06800e-06;-0.0011603529056505239
5.06825e-06;-0.0011808811272913848
5.06850e-06;-0.0011984805240094895
5.06875e-06;-0.0012160799207275345
5.06900e-06;-0.0012303163110000915
5.06925e-06;-0.001241245885879636
5.06950e-06;-0.001252175460759143
5.06975e-06;-0.0012600625009325569
5.07000e-06;-0.0012649578428256107
5.07025e-06;-0.0012698531847186478
5.07050e-06;-0.0012725250350246846
5.07075e-06;-0.0012730105451243653
5.07100e-06;-0.001271693761215302
5.07125e-06;-0.001268604797065946
5.07150e-06;-0.0012638504227401105
5.07175e-06;-0.0012574584648722199
5.07200e-06;-0.0012500663217297587
5.07225e-06;-0.0012410913392859931
5.07250e-06;-0.0012309525866586008
5.07275e-06;-0.0012196994229632353
5.07300e-06;-0.001207381091881106
5.07325e-06;-0.001194049948089498
5.07350e-06;-0.0011797968588984898
5.07375e-06;-0.0011647889349748611
5.07400e-06;-0.001149215898671309
5.07425e-06;-0.0011332151222717968
5.07450e-06;-0.0011168822931388069
5.07475e-06;-0.0011003057137650323
5.07500e-06;-0.0010835738010969635
5.07525e-06;-0.0010667768513993434
5.07550e-06;-0.0010500293121646516
5.07575e-06;-0.0010334932154767774
5.07600e-06;-0.0010173447796588489
5.07625e-06;-0.0010017275961924743
5.07650e-06;-0.0009867590292282505
5.07675e-06;-0.0009732858841690826
5.07700e-06;-0.000960939762802905
5.07725e-06;-0.0009485936414367692
5.07750e-06;-0.0009362475200706334
5.07775e-06;-0.0009253363432506496
5.07800e-06;-0.0009158361350950871
5.07825e-06;-0.0009063359269395246
5.07850e-06;-0.000897891451971616
5.07875e-06;-0.0008904850703918792
5.07900e-06;-0.0008830786888121423
5.07925e-06;-0.000876858976184185
5.07950e-06;-0.0008718061049581623
5.07975e-06;-0.0008667532337321397
5.08000e-06;-0.0008626066896126942
5.08025e-06;-0.0008593513291633404
5.08050e-06;-0.0008560959687139754
5.08075e-06;-0.0008545565711510001
5.08100e-06;-0.000854704465175849
5.08125e-06;-0.0008548523592006984
5.08150e-06;-0.0008550002532255474
5.08175e-06;-0.0008551481472503964
5.08200e-06;-0.0008552960412752458
5.08225e-06;-0.0008554439353000946
5.08250e-06;-0.0008555918293249436
5.08275e-06;-0.000855739723349793
5.08300e-06;-0.000855887617374642
5.08325e-06;-0.0008575017591220246
5.08350e-06;-0.0008605576496784598
5.08375e-06;-0.0008636135402348847
5.08400e-06;-0.0008666694307913095
5.08425e-06;-0.0008697253213477446
5.08450e-06;-0.0008727812119041695
5.08475e-06;-0.0008758371024605943
5.08500e-06;-0.0008788929930170296
5.08525e-06;-0.0008819488835734544
5.08550e-06;-0.0008850047741298896
5.08575e-06;-0.0008881805990399216
5.08600e-06;-0.0008914743543711297
5.08625e-06;-0.0008947681097023491
5.08650e-06;-0.0008980593812569147
5.08675e-06;-0.0009007634929830723
5.08700e-06;-0.0009034676047092391
5.08725e-06;-0.0009061717164353967
5.08750e-06;-0.0009087242027354475
5.08775e-06;-0.0009111275970545727
5.08800e-06;-0.0009138488803993459
5.08825e-06;-0.0009168827412963704
5.08850e-06;-0.0009199166021934051
5.08875e-06;-0.0009233485401625066
5.08900e-06;-0.0009271719039020913
5.08925e-06;-0.0009309952676416889
5.08950e-06;-0.0009348186313812736
5.08975e-06;-0.0009386475990789476
5.09000e-06;-0.0009438013312462956
5.09025e-06;-0.0009489550634136435
5.09050e-06;-0.000954108795581009
5.09075e-06;-0.000959262527748357
5.09100e-06;-0.0009652331905576936
5.09125e-06;-0.0009720071342600979
5.09150e-06;-0.0009787810779624793
5.09175e-06;-0.0009855550216648606
5.09200e-06;-0.000992328965367265
5.09225e-06;-0.0009991029090696464
5.09250e-06;-0.0010058768527720279
5.09275e-06;-0.0010126558151580855
5.09300e-06;-0.0010206211843081263
5.09325e-06;-0.001028586553458167
5.09350e-06;-0.0010365519226082347
5.09375e-06;-0.0010445172917582753
5.09400e-06;-0.0010524826609083432
5.09425e-06;-0.0010604480300583838
5.09450e-06;-0.0010684133992084246
5.09475e-06;-0.0010762839644997875
5.09500e-06;-0.0010840613099700467
5.09525e-06;-0.001091838655440306
5.09550e-06;-0.0010996160009105916
5.09575e-06;-0.0011073889143228947
5.09600e-06;-0.0011141140981144764
5.09625e-06;-0.0011208392819060812
5.09650e-06;-0.0011275644656976631
5.09675e-06;-0.001134289649489245
5.09700e-06;-0.0011403824564548766
5.09725e-06;-0.0011458534527117943
5.09750e-06;-0.0011511529332920245
5.09775e-06;-0.0011562837639785813
5.09800e-06;-0.001161883386571991
5.09825e-06;-0.0011679439682263217
5.09850e-06;-0.0011746551459264336
5.09875e-06;-0.0011820060491377993
5.09900e-06;-0.0011893569523491899
5.09925e-06;-0.0011967078555605555
5.09950e-06;-0.0012040682270365033
5.09975e-06;-0.0012136668772817422
5.10000e-06;-0.0012232655275269488
5.10025e-06;-0.0012328641777721555
5.10050e-06;-0.0012424628280173944
5.10075e-06;-0.0012533180076668051
5.10100e-06;-0.0012654087219012547
5.10125e-06;-0.001277499436135745
5.10150e-06;-0.0012895901503701943
5.10175e-06;-0.0013016897487717223
5.10200e-06;-0.0013158895464567128
5.10225e-06;-0.001330089344141655
5.10250e-06;-0.0013442891418266453
5.10275e-06;-0.0013584889395115876
5.10300e-06;-0.001373234942036901
5.10325e-06;-0.0013885180230966076
5.10350e-06;-0.001403801104156262
5.10375e-06;-0.0014192868695525483
5.10400e-06;-0.0014349719327185245
5.10425e-06;-0.0014506569958844474
5.10450e-06;-0.001465774038588254
5.10475e-06;-0.0014788241416768793
5.10500e-06;-0.001492992316716567
5.10525e-06;-0.0015079885524194082
5.10550e-06;-0.0015227702809884759
5.10575e-06;-0.0015390460401565268
5.10600e-06;-0.0015528327111367368
5.10625e-06;-0.0015671074748710675
5.10650e-06;-0.0015796000485596296
5.10675e-06;-0.0015916347138046235
5.10700e-06;-0.0016032673159659429
5.10725e-06;-0.0016140458865142504
5.10750e-06;-0.0016239245495702072
5.10775e-06;-0.0016314240984757528
5.10800e-06;-0.0016380518954597452
5.10825e-06;-0.00164011666283362
5.10850e-06;-0.0016401707531553246
5.10875e-06;-0.0016377555977084204
5.10900e-06;-0.00163263267346767
5.10925e-06;-0.0016249355927852847
5.10950e-06;-0.0016141294583049627
5.10975e-06;-0.0016004694196927898
5.11000e-06;-0.001584893748124277
5.11025e-06;-0.001567203704044363
5.11050e-06;-0.001545605793753762
5.11075e-06;-0.0015213891012810974
5.11100e-06;-0.0014947053372631844
5.11125e-06;-0.0014653993283795545
5.11150e-06;-0.0014335139131596932
5.11175e-06;-0.0013997506444309528
5.11200e-06;-0.0013640595807347129
5.11225e-06;-0.001326049790706843
5.11250e-06;-0.0012860323608267364
5.11275e-06;-0.001244362752073895
5.11300e-06;-0.0012012684701773369
5.11325e-06;-0.0011567847946351024
5.11350e-06;-0.0011110709419575168
5.11375e-06;-0.001064698790184438
5.11400e-06;-0.0010177694719534173
5.11425e-06;-0.00097017060624959
5.11450e-06;-0.0009222293960150384
5.11475e-06;-0.0008743008428425336
5.11500e-06;-0.0008266598303859345
5.11525e-06;-0.0007794608453503526
5.11550e-06;-0.0007329359271332156
5.11575e-06;-0.000687575587590828
5.11600e-06;-0.0006435754705895357
5.11625e-06;-0.0006009974168786357
5.11650e-06;-0.0005601786958665406
5.11675e-06;-0.0005214738981438679
5.11700e-06;-0.00048518744767518435
5.11725e-06;-0.0004515209200192731
5.11750e-06;-0.00042045941529982316
5.11775e-06;-0.0003916238562450753
5.11800e-06;-0.0003643141511584175
5.11825e-06;-0.0003381780575401613
5.11850e-06;-0.00031336464553214803
5.11875e-06;-0.0002900831649503685
5.11900e-06;-0.00026851139327397434
5.11925e-06;-0.00024876268119805676
5.11950e-06;-0.00023081478974386696
5.11975e-06;-0.0002144173545489376
5.12000e-06;-0.0001991189852095228
5.12025e-06;-0.00018468618458885843
5.12050e-06;-0.00017119947701060061
5.12075e-06;-0.00015877710509198262
5.12100e-06;-0.00014751757117467088
5.12125e-06;-0.0001374790148914007
5.12150e-06;-0.00012863463456484918
5.12175e-06;-0.00012081475177015363
5.12200e-06;-0.000113723768652549
5.12225e-06;-0.00010720260729870517
5.12250e-06;-0.00010128890319830153
5.12275e-06;-9.604389805438242e-05
5.12300e-06;-9.151647719709968e-05
5.12325e-06;-8.773022776837888e-05
5.12350e-06;-8.465553875175115e-05
5.12375e-06;-8.217329997047161e-05
5.12400e-06;-8.008554106391956e-05
5.12425e-06;-7.827982511852818e-05
5.12450e-06;-7.683852983853937e-05
5.12475e-06;-7.566512524016359e-05
5.12500e-06;-7.478563981934652e-05
5.12525e-06;-7.428662554233367e-05
5.12550e-06;-7.402300557864037e-05
5.12575e-06;-7.406409776192606e-05
5.12600e-06;-7.410518994521191e-05
5.12625e-06;-7.41639809649431e-05
5.12650e-06;-7.424568269299276e-05
5.12675e-06;-7.432500294239292e-05
5.12700e-06;-7.439868770947929e-05
5.12725e-06;-7.44767357110967e-05
5.12750e-06;-7.474204226940927e-05
5.12775e-06;-7.570804153376464e-05
5.12800e-06;-7.789742124494504e-05
5.12825e-06;-8.148535224920101e-05
5.12850e-06;-8.64273020935391e-05
5.12875e-06;-9.264585252364729e-05
5.12900e-06;-0.00010006054302358331
5.12925e-06;-0.00010859772770214747
5.12950e-06;-0.00011829252322962958
5.12975e-06;-0.00012938706825098935
5.13000e-06;-0.00014212928455031387
5.13025e-06;-0.0001565493858790565
5.13050e-06;-0.00017253997394657715
5.13075e-06;-0.0001899730529449384
5.13100e-06;-0.00020871872800433243
5.13125e-06;-0.00022865137960556453
5.13150e-06;-0.0002499920005829724
5.13175e-06;-0.00027233781246836406
5.13200e-06;-0.0002957668863738672
5.13225e-06;-0.0003205982163119756
5.13250e-06;-0.0003464390733362483
5.13275e-06;-0.0003735867383352167
5.13300e-06;-0.00040073440333427714
5.13325e-06;-0.00042860467639387273
5.13350e-06;-0.00045741034780885404
5.13375e-06;-0.0004862160192239329
5.13400e-06;-0.0005154344041657329
5.13425e-06;-0.0005451870366135618
5.13450e-06;-0.0005749396690614914
5.13475e-06;-0.0006045832080124238
5.13500e-06;-0.0006340855281157711
5.13525e-06;-0.0006631499225180657
5.13550e-06;-0.0006916474328748942
5.13575e-06;-0.0007195122626800126
5.13600e-06;-0.0007465581030775813
5.13625e-06;-0.0007727085455555709
5.13650e-06;-0.0007976999174573614
5.13675e-06;-0.000821092385945346
5.13700e-06;-0.0008424151133039356
5.13725e-06;-0.0008637378406625974
5.13750e-06;-0.0008834193666715185
5.13775e-06;-0.0009009763979136954
5.13800e-06;-0.0009176363061706635
5.13825e-06;-0.000933134910796127
5.13850e-06;-0.0009486335154215904
5.13875e-06;-0.0009625797638121475
5.13900e-06;-0.0009745165252509941
5.13925e-06;-0.0009864532866898407
5.13950e-06;-0.0009983900481287278
5.13975e-06;-0.0010088875592986384
5.14000e-06;-0.0010175219964070508
5.14025e-06;-0.0010261564335154925
5.14050e-06;-0.0010347908706239048
5.14075e-06;-0.0010422482420902786
5.14100e-06;-0.0010481819310437974
5.14125e-06;-0.0010541156199973163
5.14150e-06;-0.0010600493089508553
5.14175e-06;-0.0010650312182399573
5.14200e-06;-0.0010687810721713247
5.14225e-06;-0.0010725309261027049
5.14250e-06;-0.0010762807800340723
