Time(s);Current(A)
1.27500e-05;0.012003283568980947
1.27503e-05;0.012010390200509492
1.27505e-05;0.012017496832038085
1.27508e-05;0.012024603463566676
1.27510e-05;0.012031710095095221
1.27513e-05;0.012038816726623812
1.27515e-05;0.012045923358152405
1.27518e-05;0.012053411887250598
1.27520e-05;0.012061200283945042
1.27523e-05;0.012068988680639485
1.27525e-05;0.012076777077333876
1.27528e-05;0.012084565474028319
1.27530e-05;0.012092353870722763
1.27533e-05;0.012100142267417154
1.27535e-05;0.012107930664111597
1.27538e-05;0.01211571906080604
1.27540e-05;0.01212350745750043
1.27543e-05;0.012131295854194875
1.27545e-05;0.012142526786008329
1.27548e-05;0.012156460811041186
1.27550e-05;0.012170394836074142
1.27553e-05;0.012184328861107095
1.27555e-05;0.012198262886139954
1.27558e-05;0.012212196911172908
1.27560e-05;0.012226130936205861
1.27563e-05;0.01224006496123872
1.27565e-05;0.012253998986271674
1.27568e-05;0.012267933011304629
1.27570e-05;0.012281867036337489
1.27573e-05;0.012301617017384216
1.27575e-05;0.012325933711833712
1.27577e-05;0.012350250406283042
1.27580e-05;0.012374567100732538
1.27583e-05;0.012398883795182034
1.27585e-05;0.012423200489631529
1.27588e-05;0.01244751718408086
1.27590e-05;0.012471833878530354
1.27593e-05;0.01249615057297985
1.27595e-05;0.012520467267429182
1.27598e-05;0.012544783961878676
1.27600e-05;0.012569100656328172
1.27603e-05;0.012593417350777502
1.27605e-05;0.012617500664288326
1.27608e-05;0.012637938020786832
1.27610e-05;0.0126583753772852
1.27613e-05;0.012678812733783707
1.27615e-05;0.012699250090282213
1.27618e-05;0.012719687446780582
1.27620e-05;0.012740124803279088
1.27623e-05;0.012760562159777594
1.27625e-05;0.012780999516275962
1.27628e-05;0.012801436872774468
1.27630e-05;0.012821874229272974
1.27633e-05;0.012842311585771342
1.27635e-05;0.01286274894226985
1.27638e-05;0.012883186298768355
1.27640e-05;0.012890444708254067
1.27643e-05;0.012887354952480518
1.27645e-05;0.012884265196706969
1.27648e-05;0.012881175440933442
1.27650e-05;0.012878085685159893
1.27653e-05;0.012874995929386346
1.27655e-05;0.012871906173612817
1.27658e-05;0.01286881641783927
1.27660e-05;0.012865726662065721
1.27662e-05;0.012862636906292193
1.27665e-05;0.012846509604586288
1.27668e-05;0.012820145166350492
1.27670e-05;0.012793780728114696
1.27673e-05;0.012767416289879081
1.27675e-05;0.012741051851643285
1.27678e-05;0.01271468741340749
1.27680e-05;0.012688322975171872
1.27683e-05;0.012661958536936076
1.27685e-05;0.012635594098700282
1.27688e-05;0.012609229660464665
1.27690e-05;0.012576270908602121
1.27693e-05;0.012538134273626449
1.27695e-05;0.012499997638651037
1.27698e-05;0.012461861003675365
1.27700e-05;0.012423724368699693
1.27703e-05;0.01238558773372428
1.27705e-05;0.012347451098748607
1.27708e-05;0.012309314463772937
1.27710e-05;0.012271177828797523
1.27713e-05;0.012233041193821851
1.27715e-05;0.012198951827116285
1.27718e-05;0.01216804039267469
1.27720e-05;0.012137128958232884
1.27723e-05;0.012106217523791079
1.27725e-05;0.012075306089349484
1.27728e-05;0.012044394654907678
1.27730e-05;0.012013483220465873
1.27733e-05;0.011982571786024278
1.27735e-05;0.011951660351582474
1.27738e-05;0.011920748917140669
1.27740e-05;0.011902537459069312
1.27743e-05;0.011894298076473577
1.27745e-05;0.011886058693877844
1.27747e-05;0.011877819311282166
1.27750e-05;0.011869579928686431
1.27753e-05;0.011861340546090698
1.27755e-05;0.011853101163494964
1.27758e-05;0.011844861780899286
1.27760e-05;0.011836622398303553
1.27763e-05;0.011828383015707818
1.27765e-05;0.01182014363311214
1.27768e-05;0.011811904250516408
1.27770e-05;0.011803664867920673
1.27773e-05;0.011795425485324995
1.27775e-05;0.011787186102729262
1.27778e-05;0.011778946720133528
1.27780e-05;0.011771692893336683
1.27783e-05;0.011779835757047412
1.27785e-05;0.011787978620758139
1.27788e-05;0.011796121484468812
1.27790e-05;0.011804264348179539
1.27793e-05;0.011812407211890268
1.27795e-05;0.011820550075600941
1.27798e-05;0.011828692939311668
1.27800e-05;0.011836835803022397
1.27803e-05;0.011844978666733069
1.27805e-05;0.011853121530443798
1.27808e-05;0.011861264394154525
1.27810e-05;0.011869407257865198
1.27813e-05;0.011877550121575927
1.27815e-05;0.011885692985286654
1.27818e-05;0.011893835848997327
1.27820e-05;0.011901978712708055
1.27823e-05;0.011908330916232623
1.27825e-05;0.011913277085760687
1.27828e-05;0.011918223255288784
1.27830e-05;0.01192316942481688
1.27832e-05;0.011928115594344944
1.27835e-05;0.011933061763873041
1.27838e-05;0.011938007933401138
1.27840e-05;0.011942954102929237
1.27843e-05;0.011947900272457299
1.27845e-05;0.011952846441985398
1.27848e-05;0.011957792611513494
1.27850e-05;0.011956203980009268
1.27853e-05;0.011949484194932034
1.27855e-05;0.011942764409854801
1.27858e-05;0.011936044624777611
1.27860e-05;0.011929324839700379
1.27863e-05;0.011922605054623144
1.27865e-05;0.011915885269545956
1.27868e-05;0.011909165484468721
1.27870e-05;0.011902445699391489
1.27873e-05;0.011895725914314299
1.27875e-05;0.011889006129237066
1.27878e-05;0.011882286344159831
1.27880e-05;0.011875566559082644
1.27883e-05;0.011868846774005409
1.27885e-05;0.011862126988928176
1.27888e-05;0.011855407203850988
1.27890e-05;0.011848687418773754
1.27893e-05;0.011841673734542755
1.27895e-05;0.01183006865698663
1.27898e-05;0.011818463579430423
1.27900e-05;0.011806858501874217
1.27903e-05;0.01179525342431809
1.27905e-05;0.011783648346761884
1.27908e-05;0.011772043269205678
1.27910e-05;0.01176043819164955
1.27913e-05;0.011748833114093344
1.27915e-05;0.011737228036537138
1.27917e-05;0.011725622958981012
1.27920e-05;0.011714017881424807
1.27923e-05;0.0117024128038686
1.27925e-05;0.011690807726312393
1.27928e-05;0.011679202648756267
1.27930e-05;0.011667597571200061
1.27933e-05;0.011655992493643855
1.27935e-05;0.011644387416087728
1.27938e-05;0.011639554818113454
1.27940e-05;0.011640039999921926
1.27943e-05;0.011640525181730395
1.27945e-05;0.011641010363538868
1.27948e-05;0.01164149554534734
1.27950e-05;0.01164198072715581
1.27953e-05;0.01164246590896428
1.27955e-05;0.011642951090772753
1.27958e-05;0.011643436272581222
1.27960e-05;0.011643921454389694
1.27963e-05;0.011644406636198167
1.27965e-05;0.011644891818006636
1.27968e-05;0.011646211952336314
1.27970e-05;0.011660576001174944
1.27973e-05;0.011674940050013478
1.27975e-05;0.01168930409885211
1.27978e-05;0.01170366814769074
1.27980e-05;0.011718032196529274
1.27983e-05;0.011732396245367906
1.27985e-05;0.011746760294206536
1.27988e-05;0.01176112434304507
1.27990e-05;0.0117754883918837
1.27993e-05;0.011789852440722332
1.27995e-05;0.011804216489560865
1.27998e-05;0.011818580538399496
1.28000e-05;0.011835077760547374
1.28002e-05;0.011853249959453792
1.28005e-05;0.011871422158360333
1.28008e-05;0.011889594357266874
1.28010e-05;0.011907766556173415
1.28013e-05;0.011925938755079833
1.28015e-05;0.011944110953986373
1.28018e-05;0.011962283152892914
1.28020e-05;0.011977697439489149
1.28023e-05;0.011990946201604985
1.28025e-05;0.012004194963720821
1.28028e-05;0.012017443725836567
1.28030e-05;0.012030692487952403
1.28033e-05;0.01204394125006824
1.28035e-05;0.012057190012183985
1.28038e-05;0.012070438774299821
1.28040e-05;0.012082331057900098
1.28043e-05;0.012093158228798181
1.28045e-05;0.01210398539969634
1.28048e-05;0.012114812570594496
1.28050e-05;0.012125639741492581
1.28053e-05;0.012136466912390738
1.28055e-05;0.012147294083288896
1.28058e-05;0.01215812125418698
1.28060e-05;0.012168948425085136
1.28063e-05;0.012179775595983294
1.28065e-05;0.012190602766881378
1.28068e-05;0.012201429937779536
1.28070e-05;0.012212257108677693
1.28073e-05;0.012223084279575778
1.28075e-05;0.012234999951772844
1.28078e-05;0.012247135294732057
1.28080e-05;0.012259270637691187
1.28083e-05;0.0122714059806504
1.28085e-05;0.012283541323609613
1.28087e-05;0.012295676666568743
1.28090e-05;0.012307812009527956
1.28093e-05;0.012319947352487167
1.28095e-05;0.01233208269544638
1.28098e-05;0.01234421803840551
1.28100e-05;0.012356353381364723
1.28103e-05;0.012368488724323935
1.28105e-05;0.012380624067283066
1.28108e-05;0.012392306631406428
1.28110e-05;0.012400088171449795
1.28113e-05;0.01240786971149311
1.28115e-05;0.012415651251536477
1.28118e-05;0.012423432791579843
1.28120e-05;0.012431214331623159
1.28123e-05;0.012438995871666525
1.28125e-05;0.012446777411709893
1.28128e-05;0.012454558951753207
1.28130e-05;0.012462340491796575
1.28133e-05;0.01247012203183994
1.28135e-05;0.012477903571883256
1.28138e-05;0.012485685111926622
1.28140e-05;0.01249346665196999
1.28143e-05;0.012501248192013304
1.28145e-05;0.012509029732056672
1.28148e-05;0.01251434267330681
1.28150e-05;0.012511033546941051
1.28153e-05;0.01250772442057527
1.28155e-05;0.012504415294209488
1.28158e-05;0.01250110616784373
1.28160e-05;0.01249779704147795
1.28163e-05;0.012494487915112167
1.28165e-05;0.012491178788746409
1.28168e-05;0.012487869662380626
1.28170e-05;0.012484560536014846
1.28172e-05;0.012481251409649086
1.28175e-05;0.012477942283283305
1.28178e-05;0.012474633156917525
1.28180e-05;0.012471324030551742
1.28183e-05;0.012468014904185984
1.28185e-05;0.012464705777820204
1.28188e-05;0.012459433548592901
1.28190e-05;0.012450370403204234
1.28193e-05;0.012441307257815507
1.28195e-05;0.01243224411242678
1.28198e-05;0.012423180967038113
1.28200e-05;0.012414117821649386
1.28203e-05;0.012405054676260659
1.28205e-05;0.012395991530871993
1.28208e-05;0.012386928385483265
1.28210e-05;0.012377865240094536
1.28213e-05;0.012368802094705872
1.28215e-05;0.012359738949317143
1.28218e-05;0.01235140790946296
1.28220e-05;0.01234321510526641
1.28223e-05;0.012335022301069804
1.28225e-05;0.012326829496873196
1.28228e-05;0.012318636692676646
1.28230e-05;0.012310443888480039
1.28233e-05;0.012302251084283433
1.28235e-05;0.01229405828008688
1.28238e-05;0.012285865475890275
1.28240e-05;0.01227767267169367
1.28243e-05;0.012269479867497117
1.28245e-05;0.012260310241959858
1.28248e-05;0.012249254292541874
1.28250e-05;0.012238198343123965
1.28253e-05;0.012227142393705981
1.28255e-05;0.012216086444287998
1.28257e-05;0.012205030494870088
1.28260e-05;0.012193974545452105
1.28263e-05;0.01218291859603412
1.28265e-05;0.012171862646616138
1.28268e-05;0.012160806697198228
1.28270e-05;0.012149750747780245
1.28273e-05;0.01213869479836226
1.28275e-05;0.012127638848944352
1.28278e-05;0.012116582899526367
1.28280e-05;0.012105526950108384
1.28283e-05;0.012094471000690476
1.28285e-05;0.012083415051272492
1.28288e-05;0.01207160869342482
1.28290e-05;0.01205835323400409
1.28293e-05;0.012045097774583268
1.28295e-05;0.012031842315162447
1.28298e-05;0.012018586855741715
1.28300e-05;0.012005331396320894
1.28303e-05;0.011992075936900073
1.28305e-05;0.011978820477479342
1.28308e-05;0.011965565018058521
1.28310e-05;0.0119523095586377
1.28313e-05;0.011939054099216967
1.28315e-05;0.011925798639796146
1.28318e-05;0.011912543180375325
1.28320e-05;0.011899287720954594
1.28323e-05;0.011886032261533773
1.28325e-05;0.01187277680211295
1.28328e-05;0.01185952134269222
1.28330e-05;0.011849386108772541
1.28333e-05;0.011845276291818122
1.28335e-05;0.01184116647486373
1.28338e-05;0.01183705665790931
1.28340e-05;0.011832946840954891
1.28342e-05;0.0118288370240005
1.28345e-05;0.011824727207046078
1.28348e-05;0.011820617390091659
1.28350e-05;0.01181650757313724
1.28353e-05;0.011812397756182848
1.28355e-05;0.011808287939228428
1.28358e-05;0.011804178122274009
1.28360e-05;0.011800068305319617
1.28363e-05;0.011795958488365198
1.28365e-05;0.011791848671410778
1.28368e-05;0.011787738854456385
1.28370e-05;0.011783629037501965
1.28373e-05;0.011782790970647834
1.28375e-05;0.01178827092746052
1.28378e-05;0.011793750884273242
1.28380e-05;0.011799230841085966
1.28383e-05;0.011804710797898651
1.28385e-05;0.011810190754711373
1.28388e-05;0.011815670711524095
1.28390e-05;0.01182115066833678
1.28393e-05;0.011826630625149505
1.28395e-05;0.011832110581962227
1.28398e-05;0.011837590538774912
1.28400e-05;0.011843070495587636
1.28403e-05;0.011848550452400358
1.28405e-05;0.011854030409213043
1.28408e-05;0.011859510366025765
1.28410e-05;0.01186499032283849
1.28413e-05;0.011870470279651175
1.28415e-05;0.011875388232414965
1.28418e-05;0.011879220908255512
1.28420e-05;0.011883053584096035
1.28423e-05;0.011886886259936582
1.28425e-05;0.011890718935777131
1.28427e-05;0.011894551611617654
1.28430e-05;0.011898384287458201
1.28433e-05;0.01190221696329875
1.28435e-05;0.011906049639139297
1.28438e-05;0.01190988231497982
1.28440e-05;0.011913714990820367
1.28443e-05;0.011917547666660916
1.28445e-05;0.011911075277589238
1.28448e-05;0.01190265709332957
1.28450e-05;0.011894238909069902
1.28453e-05;0.01188582072481029
1.28455e-05;0.011877402540550622
1.28458e-05;0.011868984356290954
1.28460e-05;0.011860566172031342
1.28463e-05;0.011852147987771674
1.28465e-05;0.011843729803512006
1.28468e-05;0.011835311619252394
1.28470e-05;0.011826893434992726
1.28473e-05;0.011814149606921625
1.28475e-05;0.011793052598093004
1.28478e-05;0.01177195558926424
1.28480e-05;0.011750858580435477
1.28483e-05;0.011729761571606857
1.28485e-05;0.011708664562778094
1.28488e-05;0.011687567553949329
1.28490e-05;0.011666470545120709
1.28493e-05;0.011645373536291945
1.28495e-05;0.011624276527463182
1.28498e-05;0.01160317951863456
1.28500e-05;0.011582082509805797
1.28503e-05;0.011560985500977033
1.28505e-05;0.011539888492148412
1.28508e-05;0.011519772940059554
1.28510e-05;0.01149984270594964
1.28512e-05;0.01147991247183986
1.28515e-05;0.011459982237729947
1.28518e-05;0.011440052003620034
1.28520e-05;0.011420121769510119
1.28523e-05;0.011400191535400341
1.28525e-05;0.011380261301290428
1.28528e-05;0.011360331067180512
1.28530e-05;0.011340400833070734
1.28533e-05;0.01132047059896082
1.28535e-05;0.011300540364850906
1.28538e-05;0.011280610130741128
1.28540e-05;0.011264667139410156
1.28543e-05;0.011256423848081804
1.28545e-05;0.01124818055675351
1.28548e-05;0.01123993726542516
1.28550e-05;0.01123169397409681
1.28553e-05;0.011223450682768513
1.28555e-05;0.011215207391440163
1.28558e-05;0.011206964100111813
1.28560e-05;0.011198720808783518
1.28563e-05;0.011190477517455166
1.28565e-05;0.011182234226126816
1.28568e-05;0.011173990934798522
1.28570e-05;0.01116574764347017
1.28573e-05;0.01115750435214182
1.28575e-05;0.011149261060813525
1.28578e-05;0.011141017769485175
1.28580e-05;0.011132774478156823
1.28583e-05;0.011124531186828528
1.28585e-05;0.011116287895500178
1.28588e-05;0.011108044604171828
1.28590e-05;0.011099801312843532
1.28593e-05;0.011091558021515182
1.28595e-05;0.011083314730186831
1.28597e-05;0.011075071438858537
1.28600e-05;0.011066828147530185
1.28603e-05;0.011058584856201835
1.28605e-05;0.011050341564873485
1.28608e-05;0.011042098273545188
1.28610e-05;0.011033854982216838
1.28613e-05;0.011025611690888488
1.28615e-05;0.011018308623996814
1.28618e-05;0.011012821209299008
1.28620e-05;0.011007333794601202
1.28623e-05;0.011001846379903433
1.28625e-05;0.010996358965205627
1.28628e-05;0.010990871550507821
1.28630e-05;0.010985384135810052
1.28633e-05;0.010979896721112246
1.28635e-05;0.01097440930641444
1.28638e-05;0.01096892189171667
1.28640e-05;0.010963434477018865
1.28643e-05;0.010957947062321059
1.28645e-05;0.01095245964762329
1.28648e-05;0.010946972232925484
1.28650e-05;0.010941484818227678
1.28653e-05;0.010935997403529909
1.28655e-05;0.010930509988832103
1.28658e-05;0.010925022574134297
1.28660e-05;0.010919535159436528
1.28663e-05;0.010914047744738722
1.28665e-05;0.010908560330040916
1.28668e-05;0.010903072915343147
1.28670e-05;0.01089758550064534
1.28673e-05;0.010892098085947535
1.28675e-05;0.010886610671249766
1.28678e-05;0.01088112325655196
1.28680e-05;0.010875635841854154
1.28682e-05;0.010870148427156385
1.28685e-05;0.010864661012458579
1.28688e-05;0.010859173597760773
1.28690e-05;0.010853092950217769
1.28693e-05;0.010845866720327417
1.28695e-05;0.010838640490437014
1.28698e-05;0.010831414260546611
1.28700e-05;0.010824188030656259
1.28703e-05;0.010816961800765858
1.28705e-05;0.010809735570875455
1.28708e-05;0.010802509340985103
1.28710e-05;0.0107952831110947
1.28713e-05;0.0107880568812043
1.28715e-05;0.010780830651313945
1.28718e-05;0.010773604421423544
1.28720e-05;0.010766378191533142
1.28723e-05;0.01075915196164279
1.28725e-05;0.010751925731752387
1.28728e-05;0.010744699501861986
1.28730e-05;0.010737473271971632
1.28733e-05;0.010730247042081231
1.28735e-05;0.010723020812190828
1.28738e-05;0.010718116458994724
1.28740e-05;0.010717695844309842
1.28743e-05;0.010717275229624958
1.28745e-05;0.010716854614940078
1.28748e-05;0.010716434000255194
1.28750e-05;0.010716013385570312
1.28753e-05;0.010715592770885431
1.28755e-05;0.010715172156200548
1.28758e-05;0.010714751541515664
1.28760e-05;0.010714330926830783
1.28763e-05;0.010713910312145901
1.28765e-05;0.010713489697461017
1.28767e-05;0.010713069082776137
1.28770e-05;0.010712648468091253
1.28773e-05;0.010712227853406371
1.28775e-05;0.010711807238721487
1.28778e-05;0.010711386624036607
1.28780e-05;0.010710966009351723
1.28783e-05;0.010710545394666841
1.28785e-05;0.010711910089375621
1.28788e-05;0.010716722366164742
1.28790e-05;0.010721534642953862
1.28793e-05;0.01072634691974295
1.28795e-05;0.010731159196532069
1.28798e-05;0.01073597147332119
1.28800e-05;0.010740783750110278
1.28803e-05;0.010745596026899397
1.28805e-05;0.010750408303688518
1.28808e-05;0.010755220580477606
1.28810e-05;0.010760032857266726
1.28813e-05;0.01076414223657634
1.28815e-05;0.010768118895272533
1.28818e-05;0.010772095553968753
1.28820e-05;0.010776072212664974
1.28823e-05;0.010780048871361166
1.28825e-05;0.010784025530057386
1.28828e-05;0.010788002188753606
1.28830e-05;0.010791978847449799
1.28833e-05;0.010795955506146019
1.28835e-05;0.010799932164842239
1.28838e-05;0.010805687774150126
1.28840e-05;0.010814878686198149
1.28843e-05;0.01082406959824617
1.28845e-05;0.010833260510294129
1.28848e-05;0.010842451422342152
1.28850e-05;0.010851642334390173
1.28853e-05;0.010860833246438132
1.28855e-05;0.010870024158486155
1.28858e-05;0.010879215070534177
1.28860e-05;0.010888405982582198
1.28863e-05;0.010897596894630159
1.28865e-05;0.01090678780667818
1.28868e-05;0.01091960966610597
1.28870e-05;0.01093944318926506
1.28873e-05;0.010959276712424287
1.28875e-05;0.010979110235583513
1.28878e-05;0.010998943758742604
1.28880e-05;0.01101877728190183
1.28883e-05;0.011038610805061055
1.28885e-05;0.011058444328220148
1.28888e-05;0.011078277851379372
1.28890e-05;0.011098111374538599
1.28893e-05;0.01111794489769769
1.28895e-05;0.011137778420856916
1.28898e-05;0.011158404678839514
1.28900e-05;0.01118056177421204
1.28903e-05;0.011202718869584717
1.28905e-05;0.011224875964957394
1.28908e-05;0.011247033060329922
1.28910e-05;0.011269190155702598
1.28913e-05;0.011291347251075275
1.28915e-05;0.011313504346447801
1.28918e-05;0.011335661441820478
1.28920e-05;0.011357818537193155
1.28923e-05;0.011377237253918008
1.28925e-05;0.011391367931945876
1.28928e-05;0.011405498609973743
1.28930e-05;0.011419629288001517
1.28933e-05;0.011433759966029385
1.28935e-05;0.011447890644057252
1.28938e-05;0.011462021322085026
1.28940e-05;0.011476152000112894
1.28943e-05;0.011490282678140762
1.28945e-05;0.01150441335616863
1.28948e-05;0.011515587809153061
1.28950e-05;0.011521053543790207
1.28953e-05;0.011526519278427355
1.28955e-05;0.011531985013064464
1.28958e-05;0.011537450747701612
1.28960e-05;0.01154291648233876
1.28963e-05;0.011548382216975869
1.28965e-05;0.011553847951613017
1.28968e-05;0.011559313686250162
1.28970e-05;0.011564779420887274
1.28973e-05;0.01157024515552442
1.28975e-05;0.011575710890161567
1.28978e-05;0.011581176624798677
1.28980e-05;0.011586642359435824
1.28983e-05;0.011592108094072972
1.28985e-05;0.011597573828710081
1.28988e-05;0.011603039563347229
1.28990e-05;0.011604543756368518
1.28993e-05;0.011605299933855309
1.28995e-05;0.011606056111342104
1.28998e-05;0.011606812288828901
1.29000e-05;0.011607568466315691
1.29003e-05;0.011608324643802488
1.29005e-05;0.011609080821289284
1.29008e-05;0.011609836998776074
1.29010e-05;0.011610593176262871
1.29013e-05;0.011611349353749667
1.29015e-05;0.011612105531236457
1.29018e-05;0.011612861708723254
