Time(s);Current(A)
4.30000e-06;-0.009321823722984672
4.30025e-06;-0.009322644576373898
4.30050e-06;-0.009323465429763127
4.30075e-06;-0.009324286283152353
4.30100e-06;-0.009325107136541581
4.30125e-06;-0.00932592798993081
4.30150e-06;-0.009326748843320036
4.30175e-06;-0.009327569696709262
4.30200e-06;-0.009328390550098492
4.30225e-06;-0.009329015600637381
4.30250e-06;-0.009325571999597642
4.30275e-06;-0.00932212839855789
4.30300e-06;-0.009318684797518151
4.30325e-06;-0.0093152411964784
4.30350e-06;-0.00931179759543866
4.30375e-06;-0.00930835399439892
4.30400e-06;-0.00930491039335917
4.30425e-06;-0.009301466792319428
4.30450e-06;-0.009298023191279689
4.30475e-06;-0.009294579590239938
4.30500e-06;-0.009291135989200198
4.30525e-06;-0.009287692388160459
4.30550e-06;-0.009284015936304724
4.30575e-06;-0.009275501001055949
4.30600e-06;-0.009266986065807174
4.30625e-06;-0.00925847113055837
4.30650e-06;-0.009249956195309595
4.30675e-06;-0.009241441260060821
4.30700e-06;-0.009232926324812016
4.30725e-06;-0.009224411389563241
4.30750e-06;-0.009215896454314438
4.30775e-06;-0.009207381519065663
4.30800e-06;-0.009198882318172522
4.30825e-06;-0.00919039620490655
4.30850e-06;-0.009181910091640606
4.30875e-06;-0.009173423978374664
4.30900e-06;-0.009164937865108693
4.30925e-06;-0.00915645175184275
4.30950e-06;-0.009147965638576809
4.30975e-06;-0.009139479525310837
4.31000e-06;-0.009130993412044893
4.31025e-06;-0.0091226205274418
4.31050e-06;-0.009116600458319465
4.31075e-06;-0.009110666618304175
4.31100e-06;-0.009106524561153573
4.31125e-06;-0.009102740569675019
4.31150e-06;-0.009106396942102959
4.31175e-06;-0.009110053314530913
4.31200e-06;-0.009114262197521204
4.31225e-06;-0.009129951878494894
4.31250e-06;-0.009145641559468636
4.31275e-06;-0.009161850738919104
4.31300e-06;-0.009188854747410938
4.31325e-06;-0.009215858755902863
4.31350e-06;-0.009243691652822085
4.31375e-06;-0.009288748293923921
4.31400e-06;-0.009333804935025912
4.31425e-06;-0.009378861576127748
4.31450e-06;-0.009423918217229587
4.31475e-06;-0.009469850602254703
4.31500e-06;-0.009533980357155634
4.31525e-06;-0.009598110112056567
4.31550e-06;-0.009662239866957717
4.31575e-06;-0.009726369621858648
4.31600e-06;-0.009791070155150088
4.31625e-06;-0.009867631079600644
4.31650e-06;-0.0099441920040512
4.31675e-06;-0.010020969402830347
4.31700e-06;-0.010102244992594465
4.31725e-06;-0.010183642774113348
4.31750e-06;-0.010267579618134714
4.31775e-06;-0.010351578915719348
4.31800e-06;-0.010436888955938417
4.31825e-06;-0.010522459753815296
4.31850e-06;-0.010607804142119346
4.31875e-06;-0.010692433475831563
4.31900e-06;-0.010775869135656013
4.31925e-06;-0.010857717528093508
4.31950e-06;-0.01093770574732094
4.31975e-06;-0.011015495571666046
4.32000e-06;-0.011090607897596347
4.32025e-06;-0.01116251652785768
4.32050e-06;-0.011230695307956678
4.32075e-06;-0.011294618843676198
4.32100e-06;-0.011353756423886937
4.32125e-06;-0.011407522374974386
4.32150e-06;-0.011455344336687505
4.32175e-06;-0.011496881591525647
4.32200e-06;-0.011532012250063839
4.32225e-06;-0.011560674716726992
4.32250e-06;-0.011582804773019277
4.32275e-06;-0.011598339046243727
4.32300e-06;-0.011607054094457767
4.32325e-06;-0.011606048731738467
4.32350e-06;-0.011604421163899698
4.32375e-06;-0.011589864592058458
4.32400e-06;-0.011574380602971567
4.32425e-06;-0.011539625507132055
4.32450e-06;-0.01150487041129254
4.32475e-06;-0.01147011531545291
4.32500e-06;-0.011435360219613395
4.32525e-06;-0.011387475267819348
4.32550e-06;-0.011328669076931282
4.32575e-06;-0.011269862886043218
4.32600e-06;-0.011211056695154953
4.32625e-06;-0.011151557948910287
4.32650e-06;-0.011077668368044585
4.32675e-06;-0.011003778787178634
4.32700e-06;-0.010929530477832869
4.32725e-06;-0.010847828031888718
4.32750e-06;-0.010766125585944291
4.32775e-06;-0.010684251465751552
4.32800e-06;-0.01059881007011118
4.32825e-06;-0.010513368674470518
4.32850e-06;-0.010427942288211062
4.32875e-06;-0.010342827786794379
4.32900e-06;-0.010257836054416207
4.32925e-06;-0.010175395380111245
4.32950e-06;-0.010093175570342906
4.32975e-06;-0.010015545177135833
4.33000e-06;-0.009938347376237921
4.33025e-06;-0.009870138552636286
4.33050e-06;-0.009801929729034882
4.33075e-06;-0.009734419860801813
4.33100e-06;-0.009681433815123177
4.33125e-06;-0.00962844776944472
4.33150e-06;-0.0095761139262672
4.33175e-06;-0.009537332412496647
4.33200e-06;-0.009498550898726227
4.33225e-06;-0.009460854558043236
4.33250e-06;-0.009445707384409247
4.33275e-06;-0.009430560210775308
4.33300e-06;-0.009415413037141369
4.33325e-06;-0.00940026586350738
4.33350e-06;-0.009385118689873441
4.33375e-06;-0.009369971516239452
4.33400e-06;-0.009370727346493881
4.33425e-06;-0.009384711083311537
4.33450e-06;-0.009398694820129241
4.33475e-06;-0.009412678556946899
4.33500e-06;-0.009426662293764557
4.33525e-06;-0.00944064603058226
4.33550e-06;-0.009455565767501818
4.33575e-06;-0.009489934957132663
4.33600e-06;-0.009524304146763625
4.33625e-06;-0.00955867333639447
4.33650e-06;-0.009593042526025313
4.33675e-06;-0.009627411715656274
4.33700e-06;-0.009667854157355962
4.33725e-06;-0.00971334824913768
4.33750e-06;-0.00975884234091955
4.33775e-06;-0.009804336432701266
4.33800e-06;-0.009849830524483138
4.33825e-06;-0.009895457758920197
4.33850e-06;-0.009943851608203654
4.33875e-06;-0.009992240112266145
4.33900e-06;-0.010040517546227775
4.33925e-06;-0.01008872465846021
4.33950e-06;-0.010135470532448045
4.33975e-06;-0.010182056126772972
4.34000e-06;-0.010225311217486445
4.34025e-06;-0.010268566308200062
4.34050e-06;-0.01030874421920727
4.34075e-06;-0.010346362573170193
4.34100e-06;-0.010383782409896587
4.34125e-06;-0.01041707719193909
4.34150e-06;-0.01045043519725714
4.34175e-06;-0.01048510693972633
4.34200e-06;-0.010519862416866178
4.34225e-06;-0.0105563578441569
4.34250e-06;-0.0105928532714475
4.34275e-06;-0.010629382280980731
4.34300e-06;-0.010666609106933388
4.34325e-06;-0.010703835932885918
4.34350e-06;-0.010741267288379878
4.34375e-06;-0.010782948630206936
4.34400e-06;-0.010824629972033852
4.34425e-06;-0.010866499241145373
4.34450e-06;-0.010912273512857234
4.34475e-06;-0.010958047784568941
4.34500e-06;-0.011003822056280648
4.34525e-06;-0.01104979153546833
4.34550e-06;-0.011099817294733156
4.34575e-06;-0.011149843053997983
4.34600e-06;-0.011199868813262978
4.34625e-06;-0.011250025840468426
4.34650e-06;-0.011302910527206857
4.34675e-06;-0.011355811869654167
4.34700e-06;-0.011409061017005995
4.34725e-06;-0.011462356525517805
4.34750e-06;-0.011515892447958948
4.34775e-06;-0.011569758938312396
4.34800e-06;-0.011623747162092815
4.34825e-06;-0.011677546988882494
4.34850e-06;-0.011730848202740729
4.34875e-06;-0.011783339067175812
4.34900e-06;-0.011834718864375633
4.34925e-06;-0.011884813778516636
4.34950e-06;-0.011933628608949897
4.34975e-06;-0.011981104084284551
4.35000e-06;-0.012026991427560765
4.35025e-06;-0.012070981311398603
4.35050e-06;-0.012112761742735277
4.35075e-06;-0.012152020685746794
4.35100e-06;-0.012188440854347376
4.35125e-06;-0.01222161043792849
4.35150e-06;-0.012251044806060837
4.35175e-06;-0.012276436939903256
4.35200e-06;-0.012297702459504747
4.35225e-06;-0.012314822738413861
4.35250e-06;-0.012327779150179003
4.35275e-06;-0.012336552982825202
4.35300e-06;-0.012341121010502594
4.35325e-06;-0.012341400830334213
4.35350e-06;-0.012337266932001307
4.35375e-06;-0.01232860652011218
4.35400e-06;-0.01231384924825611
4.35425e-06;-0.012298556930454485
4.35450e-06;-0.012272146717714094
4.35475e-06;-0.012245736504973792
4.35500e-06;-0.0122193262922334
4.35525e-06;-0.01219229640800638
4.35550e-06;-0.012152390167006682
4.35575e-06;-0.012112483926006848
4.35600e-06;-0.01207257768500715
4.35625e-06;-0.012032259976011053
4.35650e-06;-0.011983392238757381
4.35675e-06;-0.011934524501503873
4.35700e-06;-0.01188542828811794
4.35725e-06;-0.01183158449434808
4.35750e-06;-0.011777740700578403
4.35775e-06;-0.011723792903059247
4.35800e-06;-0.011667683977567487
4.35825e-06;-0.011611565537582283
4.35850e-06;-0.01155524939281786
4.35875e-06;-0.011498987833451544
4.35900e-06;-0.011443860521953618
4.35925e-06;-0.011388849244516054
4.35950e-06;-0.011336249076824347
4.35975e-06;-0.011283832036408963
4.36000e-06;-0.011235220257642883
4.36025e-06;-0.011186942968562133
4.36050e-06;-0.011145616150195289
4.36075e-06;-0.011104289331828303
4.36100e-06;-0.011063671295486561
4.36125e-06;-0.011037781272970316
4.36150e-06;-0.011011891250453983
4.36175e-06;-0.010986001227937739
4.36200e-06;-0.010960111205421494
4.36225e-06;-0.01093422118290516
4.36250e-06;-0.010908331160388916
4.36275e-06;-0.010882441137872671
4.36300e-06;-0.01086681766824052
4.36325e-06;-0.010859733780385307
4.36350e-06;-0.01085264989253007
4.36375e-06;-0.010845566004674855
4.36400e-06;-0.010838482116819642
4.36425e-06;-0.010831398228964404
4.36450e-06;-0.010824314341109191
4.36475e-06;-0.010817877456803212
4.36500e-06;-0.010824884871135036
4.36525e-06;-0.010831892285466837
4.36550e-06;-0.010838899699798638
4.36575e-06;-0.010845907114130464
4.36600e-06;-0.010852914528462265
4.36625e-06;-0.010859921942794065
4.36650e-06;-0.010871410989040311
4.36675e-06;-0.01088662779694676
4.36700e-06;-0.010901844604853208
4.36725e-06;-0.010917061412759707
4.36750e-06;-0.010932278220666156
4.36775e-06;-0.010947495028572656
4.36800e-06;-0.010962844800362755
4.36825e-06;-0.010980957472234735
4.36850e-06;-0.010999070144106777
4.36875e-06;-0.011017206391967497
4.36900e-06;-0.011035832533018947
4.36925e-06;-0.011054458674070462
4.36950e-06;-0.011073038646665123
4.36975e-06;-0.011090659269776848
4.37000e-06;-0.011108279892888632
4.37025e-06;-0.011125822219200983
4.37050e-06;-0.011141737590678586
4.37075e-06;-0.01115757795801309
4.37100e-06;-0.01117185978969482
4.37125e-06;-0.011186157913610608
4.37150e-06;-0.011200794579193313
4.37175e-06;-0.01121551411708466
4.37200e-06;-0.011231955685816978
4.37225e-06;-0.01124847051971379
4.37250e-06;-0.011266507754457226
4.37275e-06;-0.011284544989200724
4.37300e-06;-0.011302677996053235
4.37325e-06;-0.011322801082922952
4.37350e-06;-0.011342924169792736
4.37375e-06;-0.011363212730455331
4.37400e-06;-0.01138693972524795
4.37425e-06;-0.011410666720040652
4.37450e-06;-0.011434520322250506
4.37475e-06;-0.01146100474144308
4.37500e-06;-0.011487489160635743
4.37525e-06;-0.011513973579828316
4.37550e-06;-0.011542099914965976
4.37575e-06;-0.011571591973890356
4.37600e-06;-0.011601084032814638
4.37625e-06;-0.011630654052553115
4.37650e-06;-0.011661863972561439
4.37675e-06;-0.011693500234532847
4.37700e-06;-0.01172540036514174
4.37725e-06;-0.011757496230085547
4.37750e-06;-0.011789849995295332
4.37775e-06;-0.01182247353086316
4.37800e-06;-0.01185523604789975
4.37825e-06;-0.011887959706555224
4.37850e-06;-0.011920467512778749
4.37875e-06;-0.011952581626720119
4.37900e-06;-0.01198412779108173
4.37925e-06;-0.012014991790264785
4.37950e-06;-0.012045142368046536
4.37975e-06;-0.012074513952007315
4.38000e-06;-0.012102892195170672
4.38025e-06;-0.012128927007303189
4.38050e-06;-0.012154961819435796
4.38075e-06;-0.01218082354618039
4.38100e-06;-0.012203088674971722
4.38125e-06;-0.012225293595192048
4.38150e-06;-0.012246247421798322
4.38175e-06;-0.012267204498299059
4.38200e-06;-0.012288229105421074
4.38225e-06;-0.012309223152131937
4.38250e-06;-0.01232958217405389
4.38275e-06;-0.01234994119597591
4.38300e-06;-0.0123702879809049
4.38325e-06;-0.012390380489350082
4.38350e-06;-0.012410472997795335
4.38375e-06;-0.012430565506240518
4.38400e-06;-0.0124506580146857
4.38425e-06;-0.012470750523130953
4.38450e-06;-0.012490885771964498
4.38475e-06;-0.01251190913732308
4.38500e-06;-0.012532932502681593
4.38525e-06;-0.012553955868040104
4.38550e-06;-0.012574979233398686
4.38575e-06;-0.012596002598757199
4.38600e-06;-0.012617056553034649
4.38625e-06;-0.012638746124474942
4.38650e-06;-0.012660435695915162
4.38675e-06;-0.012682125267355382
4.38700e-06;-0.012703814838795674
4.38725e-06;-0.012725504410235894
4.38750e-06;-0.012747193981676114
4.38775e-06;-0.012768828103319323
4.38800e-06;-0.01278931001547243
4.38825e-06;-0.012809791927625538
4.38850e-06;-0.012830273839778717
4.38875e-06;-0.012850755751931824
4.38900e-06;-0.012871237664085001
4.38925e-06;-0.012891719576238109
4.38950e-06;-0.01291206779338022
4.38975e-06;-0.01292963791811241
4.39000e-06;-0.012947208042844539
4.39025e-06;-0.01296477816757667
4.39050e-06;-0.012982348292308859
4.39075e-06;-0.01299814526338542
4.39100e-06;-0.013012467348898424
4.39125e-06;-0.013026789434411476
4.39150e-06;-0.01304111151992448
4.39175e-06;-0.013055372460108516
4.39200e-06;-0.013068362841481166
4.39225e-06;-0.01308135322285377
4.39250e-06;-0.013094343604226375
4.39275e-06;-0.013107333985599023
4.39300e-06;-0.013120324366971628
4.39325e-06;-0.013133314748344277
4.39350e-06;-0.013146305129716882
4.39375e-06;-0.013159295511089486
4.39400e-06;-0.013172285892462134
4.39425e-06;-0.013185207181817257
4.39450e-06;-0.013198071001353664
4.39475e-06;-0.013210934820890115
4.39500e-06;-0.013223798640426523
4.39525e-06;-0.01323666245996293
4.39550e-06;-0.013249526279499381
4.39575e-06;-0.013262390099035789
4.39600e-06;-0.013275253918572196
4.39625e-06;-0.013288117738108647
4.39650e-06;-0.013300980690106283
4.39675e-06;-0.01331382561523172
4.39700e-06;-0.0133266705403572
4.39725e-06;-0.013339515465482638
4.39750e-06;-0.013352360390608118
4.39775e-06;-0.013365205315733555
4.39800e-06;-0.013378050240858993
4.39825e-06;-0.013390895165984473
4.39850e-06;-0.013403066125506064
4.39875e-06;-0.013414676489426595
4.39900e-06;-0.013426286853347166
4.39925e-06;-0.0134378972172677
4.39950e-06;-0.013449507581188232
4.39975e-06;-0.013461117945108804
4.40000e-06;-0.013472728309029335
4.40025e-06;-0.013484277714622316
4.40050e-06;-0.01349453966494879
4.40075e-06;-0.013504345614324193
4.40100e-06;-0.013513585255905314
4.40125e-06;-0.013521332711473306
4.40150e-06;-0.013525598484299808
4.40175e-06;-0.013524932980777277
4.40200e-06;-0.01351915534707004
4.40225e-06;-0.013508506838486697
4.40250e-06;-0.013493229641658345
4.40275e-06;-0.013473566275874078
4.40300e-06;-0.01344972478882399
4.40325e-06;-0.013421403990282325
4.40350e-06;-0.013387632405214959
4.40375e-06;-0.013347783288888955
4.40400e-06;-0.013302017721171379
4.40425e-06;-0.013250766818891068
4.40450e-06;-0.013194459878992997
4.40475e-06;-0.013133228404206313
4.40500e-06;-0.013061802249160684
4.40525e-06;-0.012990376094115056
4.40550e-06;-0.012918949939069186
4.40575e-06;-0.012846937894331372
4.40600e-06;-0.012762751455860009
4.40625e-06;-0.012678277765203359
4.40650e-06;-0.0125878351673373
4.40675e-06;-0.012497200782935413
4.40700e-06;-0.012402581203322204
4.40725e-06;-0.012307814950840134
4.40750e-06;-0.012210000934795663
4.40775e-06;-0.012112104238870484
4.40800e-06;-0.012012489510628326
4.40825e-06;-0.011912882030505733
4.40850e-06;-0.011813467965971096
4.40875e-06;-0.011715014463624959
4.40900e-06;-0.011618132457219614
4.40925e-06;-0.011523308354306653
4.40950e-06;-0.01143086332787232
4.40975e-06;-0.011341202426552715
4.41000e-06;-0.01125503340248229
4.41025e-06;-0.0111749354701135
4.41050e-06;-0.01109546466047358
4.41075e-06;-0.011029025039323086
4.41100e-06;-0.010962585418172369
4.41125e-06;-0.010896790216886224
4.41150e-06;-0.010844385626935186
4.41175e-06;-0.01079198103698397
4.41200e-06;-0.010740457862491276
4.41225e-06;-0.010707249908368799
4.41250e-06;-0.010674041954246207
4.41275e-06;-0.010640834000123727
4.41300e-06;-0.01060762604600125
4.41325e-06;-0.010574418091878658
4.41350e-06;-0.01054121013775618
4.41375e-06;-0.010520814992194694
4.41400e-06;-0.010511077369915278
4.41425e-06;-0.010501339747635893
4.41450e-06;-0.010491602125356474
4.41475e-06;-0.01048186450307709
4.41500e-06;-0.010472126880797706
4.41525e-06;-0.010463135414911992
4.41550e-06;-0.010469648577004723
4.41575e-06;-0.010476161739097455
4.41600e-06;-0.010482674901190207
4.41625e-06;-0.010489188063282938
4.41650e-06;-0.01049570122537567
4.41675e-06;-0.010507543215745978
4.41700e-06;-0.010523817654408936
4.41725e-06;-0.010540092093071893
4.41750e-06;-0.010556366531734905
4.41775e-06;-0.010572640970397864
4.41800e-06;-0.010589078414982037
4.41825e-06;-0.010608903012966657
4.41850e-06;-0.010628778133981753
4.41875e-06;-0.010649703089588285
4.41900e-06;-0.010670650110267755
4.41925e-06;-0.010692055628322717
4.41950e-06;-0.010713425568585608
4.41975e-06;-0.01073405622625849
4.42000e-06;-0.010754619876238715
4.42025e-06;-0.01077379115143724
4.42050e-06;-0.01079284719792107
4.42075e-06;-0.0108095088692218
4.42100e-06;-0.010826170540522585
4.42125e-06;-0.010842682588392147
4.42150e-06;-0.010856085562004297
4.42175e-06;-0.010869488535616492
4.42200e-06;-0.010882742227891618
4.42225e-06;-0.010892893954395785
4.42250e-06;-0.010903045680899986
4.42275e-06;-0.01091293828126286
4.42300e-06;-0.010917446414708343
4.42325e-06;-0.01092195454815381
4.42350e-06;-0.010926462681599278
4.42375e-06;-0.01093097081504476
4.42400e-06;-0.010935478948490228
4.42425e-06;-0.010939987081935694
4.42450e-06;-0.01094419050112107
4.42475e-06;-0.01094206216294591
4.42500e-06;-0.010939933824770749
4.42525e-06;-0.010937805486595582
4.42550e-06;-0.01093567714842042
4.42575e-06;-0.01093354881024526
4.42600e-06;-0.010931420472070092
4.42625e-06;-0.010929091351097247
4.42650e-06;-0.010922590098644713
4.42675e-06;-0.010916088846192157
4.42700e-06;-0.010909587593739624
4.42725e-06;-0.010903086341287067
4.42750e-06;-0.010896585088834534
4.42775e-06;-0.010890083836382
4.42800e-06;-0.010883582583929444
4.42825e-06;-0.010876602464747193
4.42850e-06;-0.010869224030605718
4.42875e-06;-0.010861845596464217
4.42900e-06;-0.010854467162322742
4.42925e-06;-0.010847088728181267
4.42950e-06;-0.010839710294039767
4.42975e-06;-0.010832331859898292
4.43000e-06;-0.010825022380535444
4.43025e-06;-0.0108191457350896
4.43050e-06;-0.010813326497319265
4.43075e-06;-0.010808700152429863
4.43100e-06;-0.010804169102143674
4.43125e-06;-0.010801618209611803
4.43150e-06;-0.010799232484414454
4.43175e-06;-0.010800278825327034
4.43200e-06;-0.010801499014213345
4.43225e-06;-0.010806331647053042
4.43250e-06;-0.010811329661036111
4.43275e-06;-0.010819764183933116
4.43300e-06;-0.010828370352572779
4.43325e-06;-0.01084054320428429
4.43350e-06;-0.010852961415902026
4.43375e-06;-0.010870478041326312
4.43400e-06;-0.010887994666750538
4.43425e-06;-0.010905772623601902
4.43450e-06;-0.01092898087172054
4.43475e-06;-0.0109521891198391
4.43500e-06;-0.010975625544759553
4.43525e-06;-0.011003803330136357
4.43550e-06;-0.011031981115513064
4.43575e-06;-0.011060303963065857
4.43600e-06;-0.011091702895813411
4.43625e-06;-0.011124439593230393
4.43650e-06;-0.011158340026280777
4.43675e-06;-0.01119323274608706
4.43700e-06;-0.011228946750262491
4.43725e-06;-0.011265360021097213
4.43750e-06;-0.011302406715147859
4.43775e-06;-0.011339984562994773
4.43800e-06;-0.011377916219056632
4.43825e-06;-0.011415996920652068
4.43850e-06;-0.011454024528020749
4.43875e-06;-0.011491795970079764
4.43900e-06;-0.011529108698323414
4.43925e-06;-0.011565791239985496
4.43950e-06;-0.01160170756977211
4.43975e-06;-0.011636698916354929
4.44000e-06;-0.011670557884696075
4.44025e-06;-0.011703063665821602
4.44050e-06;-0.011733993588112753
4.44075e-06;-0.011763123416637983
4.44100e-06;-0.011790233872410726
4.44125e-06;-0.011815119161451155
4.44150e-06;-0.01183763534192526
4.44175e-06;-0.011857706781768214
4.44200e-06;-0.01187529254554858
4.44225e-06;-0.01189035262915746
4.44250e-06;-0.01190284791704663
4.44275e-06;-0.011912739293668005
4.44300e-06;-0.011919988028329392
4.44325e-06;-0.011924565183380108
4.44350e-06;-0.011926481150526516
4.44375e-06;-0.011925789024591713
4.44400e-06;-0.011922506799195097
4.44425e-06;-0.01191573608407762
4.44450e-06;-0.011908753078155409
4.44475e-06;-0.011897358812116276
4.44500e-06;-0.0118857220939709
4.44525e-06;-0.011869047384154126
4.44550e-06;-0.011852372674337353
4.44575e-06;-0.011835489173053874
4.44600e-06;-0.011814267125546112
4.44625e-06;-0.011792909394943658
4.44650e-06;-0.011768732260906559
4.44675e-06;-0.011744446554736719
4.44700e-06;-0.011717904792682752
4.44725e-06;-0.011691283793069763
4.44750e-06;-0.011663016290285034
