Time(s);Current(A)
4.25000e-06;0.0006754688762853281
4.25025e-06;0.0006245485943503437
4.25050e-06;0.0005772997449359378
4.25075e-06;0.0005326129612158923
4.25100e-06;0.0004900862010327544
4.25125e-06;0.0004499141518064013
4.25150e-06;0.00041238360268200673
4.25175e-06;0.0003777813212545231
4.25200e-06;0.0003463699560489324
4.25225e-06;0.00031816858619443053
4.25250e-06;0.0002926502906363451
4.25275e-06;0.00026908870447910077
4.25300e-06;0.0002472006043818095
4.25325e-06;0.00022707650068245577
4.25350e-06;0.0002088646321306167
4.25375e-06;0.00019271318304502094
4.25400e-06;0.0001787552229051477
4.25425e-06;0.00016697125748357962
4.25450e-06;0.00015699977911506509
4.25475e-06;0.00014835440147313892
4.25500e-06;0.00014082632955321294
4.25525e-06;0.00013444088105799934
4.25550e-06;0.00012925953027580762
4.25575e-06;0.00012534375043933403
4.25600e-06;0.00012274550623042615
4.25625e-06;0.00012142118754840942
4.25650e-06;0.0001211129658840836
4.25675e-06;0.00012148483087023869
4.25700e-06;0.00012237466129092763
4.25725e-06;0.00012386217792204505
4.25750e-06;0.00012583092836116364
4.25775e-06;0.000128182769648993
4.25800e-06;0.00013118625584830761
4.25825e-06;0.00013443049434254354
4.25850e-06;0.00013808425712701962
4.25875e-06;0.00014173801991150807
4.25900e-06;0.00014526983697141924
4.25925e-06;0.00014859422200533964
4.25950e-06;0.0001519186070392713
4.25975e-06;0.0001550912944220987
4.26000e-06;0.00015793994351491123
4.26025e-06;0.00016082909369905587
4.26050e-06;0.0001645293977415978
4.26075e-06;0.0001699300650542494
4.26100e-06;0.00017737645615616886
4.26125e-06;0.00018679392117447268
4.26150e-06;0.00019804539400888866
4.26175e-06;0.00021099379722866536
4.26200e-06;0.00022551781258429564
4.26225e-06;0.00024165037844245068
4.26250e-06;0.0002597539237906127
4.26275e-06;0.0002802651096638522
4.26300e-06;0.00030327985090247635
4.26325e-06;0.00032863098700202574
4.26350e-06;0.0003561123173237893
4.26375e-06;0.0003858164786517962
4.26400e-06;0.00041715885933194
4.26425e-06;0.0004497587514210962
4.26450e-06;0.0004844976946348109
4.26475e-06;0.0005206033228626434
4.26500e-06;0.0005590337086200112
4.26525e-06;0.0005987247485321904
4.26550e-06;0.0006405601854400977
4.26575e-06;0.0006823956223481468
4.26600e-06;0.0007253062892475212
4.26625e-06;0.0007700459430695557
4.26650e-06;0.0008147855968917419
4.26675e-06;0.0008595252507137765
4.26700e-06;0.0009042649045358112
4.26725e-06;0.0009489413212819719
4.26750e-06;0.000993510170543822
4.26775e-06;0.0010380790198056722
4.26800e-06;0.0010826478690676732
4.26825e-06;0.0011272167183295234
4.26850e-06;0.0011702970841125898
4.26875e-06;0.0012108455108327304
4.26900e-06;0.0012513939375527337
4.26925e-06;0.0012898775478870823
4.26950e-06;0.0013248488657843227
4.26975e-06;0.0013598201836815629
4.27000e-06;0.0013917011658992318
4.27025e-06;0.0014183254276112665
4.27050e-06;0.001444949689323301
4.27075e-06;0.0014682615184004363
4.27100e-06;0.0014859388357738909
4.27125e-06;0.001500824856026104
4.27150e-06;0.0015109628261197761
4.27175e-06;0.0015182695233642183
4.27200e-06;0.0015207601709670447
4.27225e-06;0.0015203380641965075
4.27250e-06;0.0015149613061426087
4.27275e-06;0.0015066574196934896
4.27300e-06;0.0014933744314729915
4.27325e-06;0.001476704748429617
4.27350e-06;0.001454274232271
4.27375e-06;0.001431843716112459
4.27400e-06;0.001405748248204266
4.27425e-06;0.001373418626789813
4.27450e-06;0.0013410890053754696
4.27475e-06;0.0013055885365187074
4.27500e-06;0.0012646943950978468
4.27525e-06;0.0012238002536771248
4.27550e-06;0.001180507999585731
4.27575e-06;0.0011331365096583978
4.27600e-06;0.0010857650197312252
4.27625e-06;0.001036637243069224
4.27650e-06;0.0009845219888484948
4.27675e-06;0.0009324067346279419
4.27700e-06;0.0008802914804073892
4.27725e-06;0.0008276944486267478
4.27750e-06;0.0007742779039388135
4.27775e-06;0.0007208613592506984
4.27800e-06;0.0006674448145627641
4.27825e-06;0.000614804634069192
4.27850e-06;0.0005634850640212374
4.27875e-06;0.0005133010416995663
4.27900e-06;0.00046504860792829876
4.27925e-06;0.00041796935940796603
4.27950e-06;0.0003738418741993465
4.27975e-06;0.00033242748395426804
4.28000e-06;0.0002940770564475185
4.28025e-06;0.00025911602417083286
4.28050e-06;0.0002277844801375485
4.28075e-06;0.00020021170509398978
4.28100e-06;0.00017646956182191975
4.28125e-06;0.00015662348451206553
4.28150e-06;0.00014074061409046756
4.28175e-06;0.00012888804244000574
4.28200e-06;0.0001211318038425201
4.28225e-06;0.00011752200778461839
4.28250e-06;0.0001180552941467306
4.28275e-06;0.00012265887299815298
4.28300e-06;0.00013122399944747294
4.28325e-06;0.0001436379053465379
4.28350e-06;0.0001597888794189887
4.28375e-06;0.00017956519205958885
4.28400e-06;0.0002028544725431001
4.28425e-06;0.00022953435933017617
4.28450e-06;0.0002594490013292537
4.28475e-06;0.0002923990931238147
4.28500e-06;0.00032816277848415047
4.28525e-06;0.0003665156904287206
4.28550e-06;0.00040760462250311096
4.28575e-06;0.0004507247412926319
4.28600e-06;0.0004951573785240208
4.28625e-06;0.0005418226349014884
4.28650e-06;0.0005896731931623661
4.28675e-06;0.0006395399727533229
4.28700e-06;0.0006894067523444487
4.28725e-06;0.0007392735319354056
4.28750e-06;0.0007892761320251875
4.28775e-06;0.0008395097653992218
4.28800e-06;0.0008897433987730858
4.28825e-06;0.0009399770321469498
4.28850e-06;0.0009888815910934837
4.28875e-06;0.0010355253688439162
4.28900e-06;0.0010821691465943487
4.28925e-06;0.0011264435022501774
4.28950e-06;0.0011666874252933886
4.28975e-06;0.0012069313483366
4.29000e-06;0.00124441116349975
4.29025e-06;0.0012771891779286635
4.29050e-06;0.0013075729587329102
4.29075e-06;0.0013338841020343376
4.29100e-06;0.001357778060686591
4.29125e-06;0.0013775603417017263
4.29150e-06;0.0013947967399289187
4.29175e-06;0.0014077025425066527
4.29200e-06;0.0014173128509510438
4.29225e-06;0.0014213174604116759
4.29250e-06;0.001425322069872308
4.29275e-06;0.0014256469441056485
4.29300e-06;0.0014197125178550915
4.29325e-06;0.0014137780916045344
4.29350e-06;0.001404434199091221
4.29375e-06;0.001389290738807544
4.29400e-06;0.0013741472785238674
4.29425e-06;0.0013559466412225915
4.29450e-06;0.0013325456869413012
4.29475e-06;0.0013091447326599316
4.29500e-06;0.001283299921693783
4.29525e-06;0.0012532980634444764
4.29550e-06;0.001223296205195068
4.29575e-06;0.0011909848661741163
4.29600e-06;0.001154745055886164
4.29625e-06;0.0011185052455980888
4.29650e-06;0.0010822654353101363
4.29675e-06;0.0010460256250221839
4.29700e-06;0.0010086728042671797
4.29725e-06;0.0009694267312744972
4.29750e-06;0.0009301806582818148
4.29775e-06;0.0008909345852889993
4.29800e-06;0.0008516885122963169
4.29825e-06;0.0008130629660425329
4.29850e-06;0.0007754929477211299
4.29875e-06;0.0007379229293998542
4.29900e-06;0.0007015566222698128
4.29925e-06;0.0006672378510565197
4.29950e-06;0.0006343366881169048
4.29975e-06;0.0006038469041498877
4.30000e-06;0.0005746711794686502
4.30025e-06;0.0005488121299668855
4.30050e-06;0.0005260805518738259
4.30075e-06;0.0005069346072558894
4.30100e-06;0.0004915689435684933
4.30125e-06;0.0004800040778406273
4.30150e-06;0.00047223664158160654
4.30175e-06;0.0004682632511934812
4.30200e-06;0.0004680860658265862
4.30225e-06;0.00047175708198165064
4.30250e-06;0.00047941983118403303
4.30275e-06;0.0004911941003093933
4.30300e-06;0.0005070346217601721
4.30325e-06;0.0005267870105642669
4.30350e-06;0.0005502819988436037
4.30375e-06;0.0005773502756197929
4.30400e-06;0.0006078259477414262
4.30425e-06;0.0006421598056331047
4.30450e-06;0.0006795142518821874
4.30475e-06;0.000719074226925477
4.30500e-06;0.0007623858489192571
4.30525e-06;0.0008075278959224144
4.30550e-06;0.0008557835311151957
4.30575e-06;0.0009057454115491921
4.30600e-06;0.0009586096479959105
4.30625e-06;0.001011473884442808
4.30650e-06;0.001065821514198188
4.30675e-06;0.0011226924245372454
4.30700e-06;0.0011795633348764955
4.30725e-06;0.001236434245215553
4.30750e-06;0.0012933051555548032
4.30775e-06;0.001349510093971543
4.30800e-06;0.0014045822013238592
4.30825e-06;0.0014596543086763621
4.30850e-06;0.0015147264160286786
4.30875e-06;0.001569798523380995
4.30900e-06;0.0016222072142764792
4.30925e-06;0.00167008538248935
4.30950e-06;0.0017179635507022209
4.30975e-06;0.001762396507957771
4.31000e-06;0.0018009690950306202
4.31025e-06;0.0018395416821034695
4.31050e-06;0.0018744994576911959
4.31075e-06;0.0019033083693326346
4.31100e-06;0.0019321172809740736
4.31125e-06;0.001957325690501406
4.31150e-06;0.0019764095765982806
4.31175e-06;0.0019954934626952203
4.31200e-06;0.0020106943371668434
4.31225e-06;0.0020192901340896864
4.31250e-06;0.002027885931012558
4.31275e-06;0.0020330556392397507
4.31300e-06;0.002032397504620356
4.31325e-06;0.002031739370000959
4.31350e-06;0.0020278609947470038
4.31375e-06;0.0020185049281624167
4.31400e-06;0.002009148861577798
4.31425e-06;0.001995405082490783
4.31450e-06;0.0019741977199443303
4.31475e-06;0.001952990357397806
4.31500e-06;0.0019317829948513536
4.31525e-06;0.001910575632304901
4.31550e-06;0.0018893682697583769
4.31575e-06;0.0018681609072119243
4.31600e-06;0.00184336229889973
4.31625e-06;0.0018124549123849725
4.31650e-06;0.001781547525870215
4.31675e-06;0.0017506401393553531
4.31700e-06;0.0017197327528405957
4.31725e-06;0.0016888253663258383
4.31750e-06;0.0016579179798109763
4.31775e-06;0.0016269350466182498
4.31800e-06;0.0015958236070715281
4.31825e-06;0.0015647121675247011
4.31850e-06;0.0015336007279779795
4.31875e-06;0.0015024892884312581
4.31900e-06;0.0014713778488844311
4.31925e-06;0.0014402664093377095
4.31950e-06;0.001416981447223112
4.31975e-06;0.001394863574858797
4.32000e-06;0.0013727457024945568
4.32025e-06;0.0013506278301302418
4.32050e-06;0.0013285099577660016
4.32075e-06;0.0013063920854017614
4.32100e-06;0.001287579264435053
4.32125e-06;0.001274388399539272
4.32150e-06;0.001261197534643491
4.32175e-06;0.0012502461150560734
4.32200e-06;0.001243104035061991
4.32225e-06;0.0012359619550679085
4.32250e-06;0.001230928108046772
4.32275e-06;0.0012294804059096397
4.32300e-06;0.001228032703772507
4.32325e-06;0.0012284878319192031
4.32350e-06;0.0012321797110203007
4.32375e-06;0.0012358715901213983
4.32400e-06;0.0012424046235851003
4.32425e-06;0.001253770515329796
4.32450e-06;0.0012651364070744918
4.32475e-06;0.001276502298819226
4.32500e-06;0.0012878681905639216
4.32525e-06;0.0012992340823086558
4.32550e-06;0.0013105999740533514
4.32575e-06;0.0013219658657980472
4.32600e-06;0.0013389423124044986
4.32625e-06;0.0013567554088483066
4.32650e-06;0.0013745685052921146
4.32675e-06;0.0013923816017359831
4.32700e-06;0.0014101946981797911
4.32725e-06;0.0014280077946235991
4.32750e-06;0.0014458208910674676
4.32775e-06;0.0014638296220563798
4.32800e-06;0.0014821711311736956
4.32825e-06;0.0015005126402910737
4.32850e-06;0.0015188541494083896
4.32875e-06;0.0015371956585257054
4.32900e-06;0.0015555371676430835
4.32925e-06;0.0015701804494165578
4.32950e-06;0.0015842722489602724
4.32975e-06;0.0015983640485039393
4.33000e-06;0.001612455848047606
4.33025e-06;0.0016265476475913205
4.33050e-06;0.0016368149816815291
4.33075e-06;0.0016405768263910447
4.33100e-06;0.001644338671100573
4.33125e-06;0.0016446238989428301
4.33150e-06;0.0016389953345478196
4.33175e-06;0.00163076421018594
4.33200e-06;0.001618106081205393
4.33225e-06;0.001602650082272821
4.33250e-06;0.00158243485267581
4.33275e-06;0.0015589862008692427
4.33300e-06;0.0015300374356211825
4.33325e-06;0.001498127212415047
4.33350e-06;0.0014611794921965972
4.33375e-06;0.001421659684075433
4.33400e-06;0.0013777647049039781
4.33425e-06;0.00133146396271856
4.33450e-06;0.0012810709713208595
4.33475e-06;0.0012277829398594092
4.33500e-06;0.001169570389502425
4.33525e-06;0.0011113578391452438
4.33550e-06;0.0010506484615687955
4.33575e-06;0.0009856919328132697
4.33600e-06;0.000920735404057524
4.33625e-06;0.0008542466376154351
4.33650e-06;0.0007851515053638545
4.33675e-06;0.0007160563731120398
4.33700e-06;0.0006463295381576252
4.33725e-06;0.0005755281647416881
4.33750e-06;0.0005047267913255112
4.33775e-06;0.000434645286308218
4.33800e-06;0.000365788291298478
4.33825e-06;0.0002969312962889713
4.33850e-06;0.00022916788347136015
4.33875e-06;0.0001640053681507692
4.33900e-06;0.00010100736356178429
4.33925e-06;4.0622384736706854e-05
4.33950e-06;-1.6691114191110316e-05
4.33975e-06;-7.047474959093082e-05
4.34000e-06;-0.00012028262766802133
4.34025e-06;-0.00016580266669035838
4.34050e-06;-0.000207047950836639
4.34075e-06;-0.0002442210610164296
4.34100e-06;-0.0002773732119847676
4.34125e-06;-0.0003063906532932504
4.34150e-06;-0.000331131765702993
4.34175e-06;-0.00035145494075018106
4.34200e-06;-0.0003672264110430399
4.34225e-06;-0.000378396292921258
4.34250e-06;-0.00038511835994459935
4.34275e-06;-0.00038766505441235546
4.34300e-06;-0.00038621403275624565
4.34325e-06;-0.00038083958368111245
4.34350e-06;-0.00037159853619270916
4.34375e-06;-0.0003585477440685503
4.34400e-06;-0.0003417489832090755
4.34425e-06;-0.00032131652010930755
4.34450e-06;-0.00029749224603921554
4.34475e-06;-0.0002705923462821615
4.34500e-06;-0.00024087358884538622
4.34525e-06;-0.00020852800377353306
4.34550e-06;-0.00017373666054801054
4.34575e-06;-0.00013668064481259205
4.34600e-06;-9.75441136779681e-05
4.34625e-06;-5.654409688832314e-05
4.34650e-06;-1.3977533024812519e-05
4.34675e-06;2.981210886111902e-05
4.34700e-06;7.46089807638496e-05
4.34725e-06;0.00012003003383737245
4.34750e-06;0.00016558300317505613
4.34775e-06;0.00021136037444470686
4.34800e-06;0.00025713774571451276
4.34825e-06;0.000302435947004988
4.34850e-06;0.0003469190709342278
4.34875e-06;0.00039043103250194786
4.34900e-06;0.0004322910281921222
4.34925e-06;0.0004727129859634441
4.34950e-06;0.0005106888135448219
4.34975e-06;0.0005467848283126345
4.35000e-06;0.0005796832452881476
4.35025e-06;0.0006108917126079144
4.35050e-06;0.0006392255430222543
4.35075e-06;0.0006667313909869229
4.35100e-06;0.0006928288248613065
4.35125e-06;0.0007177123075794234
4.35150e-06;0.000740530836005691
4.35175e-06;0.0007633493644318812
4.35200e-06;0.0007844326445605694
4.35225e-06;0.0008025642339224077
4.35250e-06;0.0008206958232841846
4.35275e-06;0.0008379040703060073
4.35300e-06;0.0008535416942283387
4.35325e-06;0.0008691793181506173
4.35350e-06;0.000882920131115565
4.35375e-06;0.0008934344321184124
4.35400e-06;0.0009039487331212241
4.35425e-06;0.0009144630341240359
4.35450e-06;0.0009249773351268833
4.35475e-06;0.000935491636129695
4.35500e-06;0.0009460059371325423
4.35525e-06;0.0009565202381353541
4.35550e-06;0.0009670345391381658
4.35575e-06;0.0009775488401410131
4.35600e-06;0.000983787520209455
4.35625e-06;0.0009893886167156355
4.35650e-06;0.000994989713221835
4.35675e-06;0.0010005908097280155
4.35700e-06;0.001006191906234196
4.35725e-06;0.0010117930027403956
4.35750e-06;0.001017394099246576
4.35775e-06;0.0010229951957527565
4.35800e-06;0.001028596292258956
4.35825e-06;0.0010333903606928698
4.35850e-06;0.0010368116588364072
4.35875e-06;0.0010402329569799563
4.35900e-06;0.001043654255123494
4.35925e-06;0.001047075553267043
4.35950e-06;0.0010504968514105804
4.35975e-06;0.001051749509893995
4.36000e-06;0.0010526787793256652
4.36025e-06;0.0010536080487573323
4.36050e-06;0.0010545373181889996
4.36075e-06;0.00105546658762067
4.36100e-06;0.0010537182074972986
4.36125e-06;0.0010474150939225157
4.36150e-06;0.0010411119803477114
4.36175e-06;0.0010327520958142093
4.36200e-06;0.0010208936042767377
4.36225e-06;0.0010090351127392259
4.36250e-06;0.0009951328665986482
4.36275e-06;0.0009777541545256797
4.36300e-06;0.0009582022426351301
4.36325e-06;0.0009349536760101111
4.36350e-06;0.0009117051093850135
4.36375e-06;0.0008863327792335452
4.36400e-06;0.0008573478864306113
4.36425e-06;0.0008283629936275792
4.36450e-06;0.0007973613989782775
4.36475e-06;0.0007629293556568468
4.36500e-06;0.0007284973123352995
4.36525e-06;0.000692443841993656
4.36550e-06;0.0006536322930702032
4.36575e-06;0.0006148207441466191
4.36600e-06;0.0005750596441780157
4.36625e-06;0.000533683339598117
4.36650e-06;0.000492307035018078
4.36675e-06;0.000450392950941447
4.36700e-06;0.0004075640935860063
4.36725e-06;0.00036473523623042057
4.36750e-06;0.00032212917621390186
4.36775e-06;0.000279902098760672
4.36800e-06;0.00023767502130758527
4.36825e-06;0.00019600905689273317
4.36850e-06;0.0001556742227385976
4.36875e-06;0.00011642709237043694
4.36900e-06;7.848506373057699e-05
4.36925e-06;4.211667578498126e-05
4.36950e-06;7.597995347588249e-06
4.36975e-06;-2.4794944384636888e-05
4.37000e-06;-5.4793969476829885e-05
4.37025e-06;-8.221471968674014e-05
4.37050e-06;-0.0001070755263419219
4.37075e-06;-0.0001295102899063287
4.37100e-06;-0.00014955450542673406
4.37125e-06;-0.00016713875744567364
4.37150e-06;-0.00018217599721168575
4.37175e-06;-0.0001945792166575117
4.37200e-06;-0.00020426634544631935
4.37225e-06;-0.00021120781788745867
4.37250e-06;-0.00021550103733838306
4.37275e-06;-0.00021731578209233297
4.37300e-06;-0.00021676019950002002
4.37325e-06;-0.00021387670114584792
4.37350e-06;-0.00020869666256980463
4.37375e-06;-0.00020125148680499015
4.37400e-06;-0.00019157565857129972
4.37425e-06;-0.00017973656435298397
4.37450e-06;-0.0001658811058746642
4.37475e-06;-0.00015020152844568227
4.37500e-06;-0.00013285145032007622
4.37525e-06;-0.00011394329574501932
4.37550e-06;-9.358257041042065e-05
4.37575e-06;-7.187480400005102e-05
4.37600e-06;-4.892744254633271e-05
4.37625e-06;-2.4868539596893507e-05
4.37650e-06;1.2405288385808724e-07
4.37675e-06;2.5844100792382902e-05
4.37700e-06;5.216392555052838e-05
4.37725e-06;7.88567164756819e-05
4.37750e-06;0.0001056334018805102
4.37775e-06;0.00013255279341070167
4.37800e-06;0.00015947218494080192
4.37825e-06;0.00018611481998051857
4.37850e-06;0.00021228668690138392
4.37875e-06;0.00023788765247722822
4.37900e-06;0.00026251750387295815
4.37925e-06;0.00028630118709500695
4.37950e-06;0.0003086455219609272
4.37975e-06;0.0003298914779061842
4.38000e-06;0.00034926907015881727
4.38025e-06;0.0003681426916771391
4.38050e-06;0.000386159049272922
4.38075e-06;0.00040417540686864386
4.38100e-06;0.00042300034928806904
4.38125e-06;0.00044320071006146805
4.38150e-06;0.0004634010708347987
4.38175e-06;0.0004836014316081293
4.38200e-06;0.0005038017923815283
4.38225e-06;0.0005263658417540187
4.38250e-06;0.0005492823660111243
4.38275e-06;0.0005721988902683075
4.38300e-06;0.0005951154145254131
4.38325e-06;0.0006194971575631098
4.38350e-06;0.0006463712659584297
4.38375e-06;0.0006732453743536585
4.38400e-06;0.0007013567261425015
4.38425e-06;0.0007315726527661967
4.38450e-06;0.0007617885793897894
4.38475e-06;0.0007920045060134846
4.38500e-06;0.0008222204326370773
4.38525e-06;0.0008524363592606701
4.38550e-06;0.0008838326581480087
4.38575e-06;0.0009172367929828148
4.38600e-06;0.0009506409278176209
4.38625e-06;0.0009840450626525403
4.38650e-06;0.0010174491974873465
4.38675e-06;0.0010508533323221525
4.38700e-06;0.0010840677602387537
4.38725e-06;0.0011169594930345384
4.38750e-06;0.0011498512258303233
4.38775e-06;0.0011827429586262197
4.38800e-06;0.0012156346914220044
4.38825e-06;0.0012485264242177894
4.38850e-06;0.0012793461787557515
4.38875e-06;0.0013066414583827964
4.38900e-06;0.001333936738009934
4.38925e-06;0.0013612320176369789
4.38950e-06;0.0013885272972640238
4.38975e-06;0.0014158225768911613
4.39000e-06;0.0014400110851705492
4.39025e-06;0.001458914915569665
4.39050e-06;0.001477818745968845
4.39075e-06;0.0014931578764114863
4.39100e-06;0.0015024333835933692
4.39125e-06;0.0015117088907752835
4.39150e-06;0.0015172535742476482
4.39175e-06;0.0015164520547568698
4.39200e-06;0.0015156505352660887
4.39225e-06;0.0015109614642250927
4.39250e-06;0.001499659593146383
4.39275e-06;0.001488357722067635
4.39300e-06;0.0014731062921639155
4.39325e-06;0.0014511365866541983
4.39350e-06;0.0014291668811445555
4.39375e-06;0.0014037486028335119
4.39400e-06;0.0013724642357886392
4.39425e-06;0.0013411798687438725
4.39450e-06;0.0013067931984380363
4.39475e-06;0.0012671294505535687
4.39500e-06;0.0012274657026692356
4.39525e-06;0.001185333200365854
4.39550e-06;0.0011390012992624388
4.39575e-06;0.0010926693981591806
4.39600e-06;0.0010444125418391042
