Time(s);Current(A)
1.20500e-05;-0.0015093662974989639
1.20503e-05;-0.0015111801723893619
1.20505e-05;-0.0015140005828501565
1.20508e-05;-0.001519248490309215
1.20510e-05;-0.001524496397768238
1.20513e-05;-0.0015297443052272965
1.20515e-05;-0.001534992212686355
1.20518e-05;-0.001540240120145378
1.20520e-05;-0.0015454880276044366
1.20523e-05;-0.0015507359350634953
1.20525e-05;-0.0015559838425225183
1.20528e-05;-0.0015612317499815768
1.20530e-05;-0.0015664796574406353
1.20533e-05;-0.0015721170678721658
1.20535e-05;-0.0015786938562298788
1.20538e-05;-0.0015852706445875918
1.20540e-05;-0.0015918474329452603
1.20543e-05;-0.0015984242213029733
1.20545e-05;-0.0016050010096606863
1.20548e-05;-0.0016115777980183548
1.20550e-05;-0.0016181545863760678
1.20553e-05;-0.0016247313747337808
1.20555e-05;-0.0016313081630914494
1.20558e-05;-0.0016378849514491623
1.20560e-05;-0.0016441523150348054
1.20562e-05;-0.0016496734280877323
1.20565e-05;-0.001654971041844184
1.20568e-05;-0.0016597296345391818
1.20570e-05;-0.0016639639593041984
1.20573e-05;-0.0016669338887869963
1.20575e-05;-0.001668775607469808
1.20578e-05;-0.001667896380751707
1.20580e-05;-0.0016655671895517198
1.20583e-05;-0.0016597410683555425
1.20585e-05;-0.0016539149471593655
1.20588e-05;-0.0016464311436236753
1.20590e-05;-0.0016349494496778502
1.20593e-05;-0.001623467755732025
1.20595e-05;-0.0016099660489841757
1.20598e-05;-0.0015915926067913034
1.20600e-05;-0.001573219164598431
1.20603e-05;-0.0015533041459602833
1.20605e-05;-0.0015296712535528064
1.20608e-05;-0.001505002501619571
1.20610e-05;-0.001477835531079917
1.20613e-05;-0.0014498873196022066
1.20615e-05;-0.001419517949553335
1.20618e-05;-0.0013873628411305776
1.20620e-05;-0.0013535951963762568
1.20623e-05;-0.0013184240972085887
1.20625e-05;-0.001282058489057706
1.20628e-05;-0.0012447062033731353
1.20630e-05;-0.0012065511701500834
1.20633e-05;-0.0011676973520509117
1.20635e-05;-0.0011282010280043138
1.20638e-05;-0.001088192388760153
1.20640e-05;-0.0010478891952794558
1.20643e-05;-0.0010053363123620255
1.20645e-05;-0.0009487769694878463
1.20647e-05;-0.0009349599426357528
1.20650e-05;-0.0008852055521196255
1.20653e-05;-0.0008447834929161556
1.20655e-05;-0.0008115657867439649
1.20658e-05;-0.000774027542987371
1.20660e-05;-0.0007372904534587996
1.20663e-05;-0.0007023887957184081
1.20665e-05;-0.0006692487888160137
1.20668e-05;-0.0006383175500504192
1.20670e-05;-0.0006096546150023937
1.20673e-05;-0.0005837379498153776
1.20675e-05;-0.0005587733673161386
1.20678e-05;-0.0005327905388224279
1.20680e-05;-0.0005071344356710108
1.20683e-05;-0.0004824621024372961
1.20685e-05;-0.00045916400220184035
1.20688e-05;-0.00043649690585623174
1.20690e-05;-0.00041504882653809757
1.20693e-05;-0.00039544178300405315
1.20695e-05;-0.0003763156436791617
1.20698e-05;-0.0003564464355815177
1.20700e-05;-0.0003366868872426089
1.20703e-05;-0.0003176448286216232
1.20705e-05;-0.0002988569818375158
1.20708e-05;-0.0002807511060401851
1.20710e-05;-0.0002635033437773867
1.20713e-05;-0.00024721025895378386
1.20715e-05;-0.0002311843252102639
1.20718e-05;-0.0002146690685041785
1.20720e-05;-0.00019828853669593622
1.20723e-05;-0.0001821241091891988
1.20725e-05;-0.00016644098452137882
1.20728e-05;-0.0001510358322955119
1.20730e-05;-0.00013610288762510838
1.20732e-05;-0.00012189867656864288
1.20735e-05;-0.00010790924298024309
1.20738e-05;-9.367096021911708e-05
1.20740e-05;-7.953504588948124e-05
1.20743e-05;-6.568355901872958e-05
1.20745e-05;-5.212818087565968e-05
1.20748e-05;-3.8960778179918154e-05
1.20750e-05;-2.6213526497168577e-05
1.20753e-05;-1.398301608259256e-05
1.20755e-05;-2.016039952812485e-06
1.20758e-05;9.967607796099377e-06
1.20760e-05;2.173771522673801e-05
1.20763e-05;3.3170043087428254e-05
1.20765e-05;4.424708440690493e-05
1.20768e-05;5.490110878325253e-05
1.20770e-05;6.496377937722009e-05
1.20773e-05;7.382181878098402e-05
1.20775e-05;8.086336340425102e-05
1.20778e-05;8.584037374665516e-05
1.20780e-05;8.860448773985952e-05
1.20783e-05;8.919612307270996e-05
1.20785e-05;8.772350485746932e-05
1.20788e-05;8.426338058653112e-05
1.20790e-05;7.882949297760397e-05
1.20793e-05;7.115688062762884e-05
1.20795e-05;6.098150830514822e-05
1.20798e-05;4.8267252968082216e-05
1.20800e-05;3.304043751146243e-05
1.20803e-05;1.5445631815915327e-05
1.20805e-05;-4.330133002721452e-06
1.20808e-05;-2.6119543381921112e-05
1.20810e-05;-4.9794769426407324e-05
1.20813e-05;-7.540255097987348e-05
1.20815e-05;-0.00010298904647453846
1.20817e-05;-0.0001324576507683707
1.20820e-05;-0.00016367262526001706
1.20823e-05;-0.00019642419119881188
1.20825e-05;-0.00023079113609573792
1.20828e-05;-0.0002657860402222442
1.20830e-05;-0.00030207404734805467
1.20833e-05;-0.0003391088753310615
1.20835e-05;-0.0003761437033138174
1.20838e-05;-0.0004139890999965809
1.20840e-05;-0.0004523026338745348
1.20843e-05;-0.0004906161677522291
1.20845e-05;-0.0005285962202068252
1.20848e-05;-0.0005663836732454432
1.20850e-05;-0.0006031942042982512
1.20853e-05;-0.0006394405222026938
1.20855e-05;-0.0006742354505819816
1.20858e-05;-0.0007081921410403324
1.20860e-05;-0.0007400703101955069
1.20863e-05;-0.0007707480466995103
1.20865e-05;-0.0007986330146491538
1.20868e-05;-0.0008249050424024473
1.20870e-05;-0.0008480075760724483
1.20873e-05;-0.0008692795948569613
1.20875e-05;-0.0008880512224717156
1.20878e-05;-0.0009053787700107411
1.20880e-05;-0.000919607845391595
1.20883e-05;-0.0009320474240079658
1.20885e-05;-0.0009444870026243364
1.20888e-05;-0.00095271839842015
1.20890e-05;-0.0009585193933093529
1.20893e-05;-0.0009643203881985558
1.20895e-05;-0.0009665926591353718
1.20898e-05;-0.000966826944970549
1.20900e-05;-0.0009670612308057263
1.20902e-05;-0.0009640703131785198
1.20905e-05;-0.0009592167061783357
1.20908e-05;-0.0009543630991781515
1.20910e-05;-0.0009464181658747568
1.20913e-05;-0.0009366878628356034
1.20915e-05;-0.0009269575597964499
1.20918e-05;-0.0009153017071734668
1.20920e-05;-0.0009025337694406929
1.20923e-05;-0.0008884145087483769
1.20925e-05;-0.0008735148027460521
1.20928e-05;-0.0008573651317695494
1.20930e-05;-0.0008404935539422895
1.20933e-05;-0.0008226905489951025
1.20935e-05;-0.0008043496060796977
1.20938e-05;-0.0007854741999624733
1.20940e-05;-0.0007662901190786127
1.20943e-05;-0.0007467796411301842
1.20945e-05;-0.0007270806552778831
1.20948e-05;-0.0007072500368765984
1.20950e-05;-0.0006873433951941234
1.20953e-05;-0.0006676359642002184
1.20955e-05;-0.0006480435856788803
1.20958e-05;-0.0006290302612312366
1.20960e-05;-0.000610351364636444
1.20963e-05;-0.0005927748729592174
1.20965e-05;-0.0005758350660522048
1.20968e-05;-0.0005588952591450776
1.20970e-05;-0.0005434414087593282
1.20973e-05;-0.0005288457601751607
1.20975e-05;-0.0005142501115908941
1.20978e-05;-0.000500606085468277
1.20980e-05;-0.00048751166096544166
1.20983e-05;-0.00047441723646251757
1.20985e-05;-0.0004624438563658393
1.20987e-05;-0.0004511179261206954
1.20990e-05;-0.00043979199587547473
1.20993e-05;-0.00042946214367219337
1.20995e-05;-0.00041970756803850513
1.20998e-05;-0.00040995299240475077
1.21000e-05;-0.00040155774268795387
1.21003e-05;-0.0003939475603227841
1.21005e-05;-0.0003863373779576659
1.21008e-05;-0.0003787271955924962
1.21010e-05;-0.0003711170132273264
1.21013e-05;-0.00036350683086220823
1.21015e-05;-0.0003558966484970385
1.21018e-05;-0.00034828646613186873
1.21020e-05;-0.0003421403268970253
1.21023e-05;-0.00033683973356743175
1.21025e-05;-0.0003315391402378382
1.21028e-05;-0.0003262385469082806
1.21030e-05;-0.0003209379535786871
1.21033e-05;-0.00031563736024909354
1.21035e-05;-0.00031033676691953594
1.21038e-05;-0.0003050361735899424
1.21040e-05;-0.0003003279409866293
1.21043e-05;-0.00029596182138277844
1.21045e-05;-0.00029159570177889803
1.21048e-05;-0.00028722958217501757
1.21050e-05;-0.00028286346257116676
1.21053e-05;-0.0002785085732264666
1.21055e-05;-0.00027422632557035694
1.21058e-05;-0.0002699440779142763
1.21060e-05;-0.0002656618302581666
1.21063e-05;-0.000261379582602057
1.21065e-05;-0.0002570973349459763
1.21068e-05;-0.0002525178961533492
1.21070e-05;-0.0002477668170972477
1.21072e-05;-0.00024301573804117832
1.21075e-05;-0.00023735338877201267
1.21078e-05;-0.0002311647429877352
1.21080e-05;-0.00022402648412930284
1.21083e-05;-0.00021633978415588353
1.21085e-05;-0.0002077947698576237
1.21088e-05;-0.0001987540432760353
1.21090e-05;-0.00018885151092470277
1.21093e-05;-0.00017845124983503137
1.21095e-05;-0.00016723096962214002
1.21098e-05;-0.00015495762502786096
1.21100e-05;-0.00014181086028402276
1.21103e-05;-0.0001278550920330285
1.21105e-05;-0.00011315490803807928
1.21108e-05;-9.777491490565531e-05
1.21110e-05;-8.176095533092788e-05
1.21113e-05;-6.510396461188698e-05
1.21115e-05;-4.776534246532127e-05
1.21118e-05;-2.9753698822197495e-05
1.21120e-05;-1.1134767923617464e-05
1.21123e-05;8.009116459437843e-06
1.21125e-05;2.7595521836773672e-05
1.21128e-05;4.754201628543713e-05
1.21130e-05;6.785578916804204e-05
1.21133e-05;8.831192390260091e-05
1.21135e-05;0.0001090433489263423
1.21138e-05;0.00012993376556200834
1.21140e-05;0.00015091372369400533
1.21143e-05;0.00017194539577065063
1.21145e-05;0.00019289597131246517
1.21148e-05;0.00021366656487182748
1.21150e-05;0.00023417516412338883
1.21153e-05;0.00025435711770271366
1.21155e-05;0.00027415937366606516
1.21158e-05;0.00029351038041329616
1.21160e-05;0.00031231613130084344
1.21163e-05;0.0003302279476394737
1.21165e-05;0.0003477465472734138
1.21168e-05;0.0003639167726897649
1.21170e-05;0.000379308255816594
1.21173e-05;0.00039469973894342304
1.21175e-05;0.00040895113230077847
1.21178e-05;0.00042254407631559594
1.21180e-05;0.0004361370203304134
1.21183e-05;0.00044864004315014523
1.21185e-05;0.0004605135910692398
1.21188e-05;0.00047238713898833435
1.21190e-05;0.00048266135604995683
1.21193e-05;0.0004920118929067571
1.21195e-05;0.0005013624297635574
1.21198e-05;0.0005107129666202944
1.21200e-05;0.0005200635034770947
1.21203e-05;0.000529414040333895
1.21205e-05;0.000537146348560657
1.21208e-05;0.0005439440623314986
1.21210e-05;0.00055074177610234
1.21213e-05;0.0005575394898731356
1.21215e-05;0.0005643372036439772
1.21218e-05;0.0005711349174148188
1.21220e-05;0.0005767897248917951
1.21223e-05;0.000581784456365842
1.21225e-05;0.000586779187839889
1.21228e-05;0.000591773919313902
1.21230e-05;0.0005967686507879489
1.21233e-05;0.0006017633822619958
1.21235e-05;0.0006060899578639573
1.21238e-05;0.0006100306456116295
1.21240e-05;0.0006139713333593017
1.21243e-05;0.0006179120211069472
1.21245e-05;0.0006218527088546194
1.21248e-05;0.0006257933966022916
1.21250e-05;0.0006295299293693583
1.21253e-05;0.0006331485541291962
1.21255e-05;0.0006367933024614632
1.21258e-05;0.0006404531382452279
1.21260e-05;0.0006441735047077381
1.21263e-05;0.000647979380009835
1.21265e-05;0.0006518726745292269
1.21268e-05;0.0006558653847662529
1.21270e-05;0.0006598997066362424
1.21273e-05;0.0006637111884959535
1.21275e-05;0.0006669188138695188
1.21278e-05;0.00066930954175129
1.21280e-05;0.0006708786688590632
1.21283e-05;0.000671682579670698
1.21285e-05;0.0006717781586586575
1.21288e-05;0.0006712223698130091
1.21290e-05;0.0006700283639648081
1.21293e-05;0.0006677578626109441
1.21295e-05;0.0006650015261398689
1.21298e-05;0.0006606826642685148
1.21300e-05;0.0006554613788769158
1.21303e-05;0.0006502400934853169
1.21305e-05;0.0006435253982373744
1.21308e-05;0.0006359481965754103
1.21310e-05;0.000628370994913446
1.21313e-05;0.0006190987046603229
1.21315e-05;0.0006088474301209582
1.21318e-05;0.0005985961555815935
1.21320e-05;0.0005883448810422982
1.21323e-05;0.0005777915888169203
1.21325e-05;0.0005652847286120514
1.21328e-05;0.0005527778684072673
1.21330e-05;0.0005402710082023984
1.21333e-05;0.0005277641479975296
1.21335e-05;0.0005147294005816214
1.21338e-05;0.0005013897763070993
1.21340e-05;0.00048796777791471925
1.21343e-05;0.00047449820503720787
1.21345e-05;0.0004612343368437982
1.21348e-05;0.0004480892716758794
1.21350e-05;0.0004354037028050285
1.21353e-05;0.00042298351219046445
1.21355e-05;0.00041118580424336093
1.21358e-05;0.0003997476059721534
1.21360e-05;0.0003894750583526325
1.21363e-05;0.0003798757225505344
1.21365e-05;0.00037027638674843623
1.21368e-05;0.0003622451140765397
1.21370e-05;0.00035511946319475007
1.21373e-05;0.00034890375574585556
1.21375e-05;0.00034321357854180673
1.21378e-05;0.00033752340133771935
1.21380e-05;0.00033232894474880014
1.21383e-05;0.00032742078746911843
1.21385e-05;0.0003225126301894035
1.21388e-05;0.0003184376291516297
1.21390e-05;0.000314843810556642
1.21393e-05;0.00031124999196163
1.21395e-05;0.00030812865638836897
1.21398e-05;0.00030528019944596675
1.21400e-05;0.00030243174250354517
1.21403e-05;0.00029958328556112365
1.21405e-05;0.0002967348286187214
1.21408e-05;0.00029388637167629986
1.21410e-05;0.0002910379147338783
1.21413e-05;0.00028818945779147606
1.21415e-05;0.00028546137397289116
1.21418e-05;0.00028351191038541773
1.21420e-05;0.00028156244679795753
1.21423e-05;0.0002796129832104841
1.21425e-05;0.0002776635196230107
1.21427e-05;0.0002757140560355505
1.21430e-05;0.00027376459244807705
1.21433e-05;0.0002718151288606036
1.21435e-05;0.0002698656652731302
1.21438e-05;0.0002684048675392571
1.21440e-05;0.0002672262946958949
1.21443e-05;0.0002660477218525327
1.21445e-05;0.0002648691490091785
1.21448e-05;0.00026369057616581636
1.21450e-05;0.0002626606048040174
1.21453e-05;0.0002625918456816624
1.21455e-05;0.0002625230865593069
1.21458e-05;0.0002624543274369514
1.21460e-05;0.00026238556831459635
1.21463e-05;0.00026231680919224084
1.21465e-05;0.00026288425029635034
1.21468e-05;0.00026381912353827834
1.21470e-05;0.0002653459834976709
1.21473e-05;0.00026721474045129776
1.21475e-05;0.00027011732486936346
1.21478e-05;0.00027361698772220954
1.21480e-05;0.0002782509781530489
1.21483e-05;0.00028354009002149144
1.21485e-05;0.0002899148982978191
1.21488e-05;0.0002969167414848458
1.21490e-05;0.0003050192061997827
1.21493e-05;0.0003137573257041972
1.21495e-05;0.0003237611655004182
1.21498e-05;0.0003344960115009051
1.21500e-05;0.0003464478174811728
1.21503e-05;0.0003591024685539804
1.21505e-05;0.0003730752807762569
1.21508e-05;0.0003878093859832829
1.21510e-05;0.0004025434911903089
1.21512e-05;0.0004187304556796712
1.21515e-05;0.0004357565069377186
1.21518e-05;0.000452782558195766
1.21520e-05;0.0004708712140503066
1.21523e-05;0.0004895735683323206
1.21525e-05;0.0005088972799020008
1.21528e-05;0.0005285798511939243
1.21530e-05;0.0005487080544714733
1.21533e-05;0.0005690936287880792
1.21535e-05;0.0005898080723151233
1.21538e-05;0.0006107124515133094
1.21540e-05;0.0006317449948766146
1.21543e-05;0.0006528515583851251
1.21545e-05;0.0006738490522888664
1.21548e-05;0.0006947835539517168
1.21550e-05;0.0007153873784167791
1.21553e-05;0.0007358002230223847
1.21555e-05;0.0007556977174360447
1.21558e-05;0.0007752975756418101
1.21560e-05;0.0007941449421300199
1.21563e-05;0.0008125577132991162
1.21565e-05;0.0008302435628576921
1.21568e-05;0.0008469382977919868
1.21570e-05;0.0008627966327734098
1.21573e-05;0.0008782366829839809
1.21575e-05;0.0008941272046998023
1.21578e-05;0.0009103198483701676
1.21580e-05;0.0009272169798487337
1.21583e-05;0.0009445209823888025
1.21585e-05;0.0009622951169882823
1.21588e-05;0.0009803407724399973
1.21590e-05;0.00099838642789159
1.21593e-05;0.0010174889810952389
1.21595e-05;0.0010372019367861592
1.21597e-05;0.001056914892476946
1.21600e-05;0.0010781872680110712
1.21603e-05;0.0011003602734777312
1.21605e-05;0.001122533278944391
1.21608e-05;0.0011456817120386598
1.21610e-05;0.001169393495229228
1.21613e-05;0.0011931052784197962
1.21615e-05;0.001218031168167494
1.21618e-05;0.0012436582550378664
1.21620e-05;0.0012692853419082387
1.21623e-05;0.0012956966525187895
1.21625e-05;0.0013225608850142166
1.21628e-05;0.0013496693064958885
1.21630e-05;0.0013769187572910564
1.21633e-05;0.0014043438411439056
1.21635e-05;0.0014318703604052061
1.21638e-05;0.00145953878822496
1.21640e-05;0.0014872822373823166
1.21643e-05;0.001514926853175272
1.21645e-05;0.001542333763569138
1.21648e-05;0.0015693639686700262
1.21650e-05;0.0015958985409329162
1.21653e-05;0.0016218788503964319
1.21655e-05;0.0016472827351270692
1.21658e-05;0.001672043627708358
1.21660e-05;0.001696037457849018
1.21663e-05;0.0017187739048823447
1.21665e-05;0.0017409572519100935
1.21668e-05;0.0017615764315904222
1.21670e-05;0.0017812922394567273
1.21673e-05;0.0017989012254849082
1.21675e-05;0.0018152934341206042
1.21678e-05;0.0018316856427564112
1.21680e-05;0.0018443795612623555
1.21682e-05;0.0018549375631286918
1.21685e-05;0.0018654955649950995
1.21688e-05;0.0018760535668615075
1.21690e-05;0.0018866115687279153
1.21693e-05;0.0018961621093609648
1.21695e-05;0.001899195998479889
1.21698e-05;0.0019022298875988135
1.21700e-05;0.0019052637767177174
1.21703e-05;0.0019082976658366419
1.21705e-05;0.0019113315549555661
1.21708e-05;0.0019110773736411792
1.21710e-05;0.0019089241946537705
1.21713e-05;0.0019067710156663621
1.21715e-05;0.0019027130297547123
1.21718e-05;0.0018975549384803
1.21720e-05;0.0018923968472058879
1.21723e-05;0.0018857382248195513
1.21725e-05;0.001878212983196229
1.21728e-05;0.001870687741572907
1.21730e-05;0.0018620614725472831
1.21733e-05;0.001852799314322303
1.21735e-05;0.0018435371560973231
1.21738e-05;0.0018337156287229592
1.21740e-05;0.001823571042358531
1.21743e-05;0.0018134264559941026
1.21745e-05;0.001803233238459627
1.21748e-05;0.0017930119343981148
1.21750e-05;0.0017827906303366026
1.21753e-05;0.001773077407619996
1.21755e-05;0.0017636576230492622
1.21758e-05;0.0017542378384785284
1.21760e-05;0.0017459600869553752
1.21763e-05;0.0017383419071001279
1.21765e-05;0.0017307237272448804
1.21767e-05;0.0017245573735360383
1.21770e-05;0.0017192295099173068
1.21773e-05;0.0017139016462985753
1.21775e-05;0.0017086512678522574
1.21778e-05;0.0017034456403214793
1.21780e-05;0.001698240012790666
1.21783e-05;0.0016928336125686682
1.21785e-05;0.0016873112577523086
1.21788e-05;0.0016817889029359116
1.21790e-05;0.0016762665481195144
1.21793e-05;0.0016705973810269277
1.21795e-05;0.0016639785749694217
1.21798e-05;0.0016573597689119154
1.21800e-05;0.0016507409628544543
1.21803e-05;0.001644122156796948
1.21805e-05;0.0016366066119693184
1.21808e-05;0.0016285731631391258
1.21810e-05;0.001620539714308879
1.21813e-05;0.001612506265478632
1.21815e-05;0.0016044728166484394
1.21818e-05;0.001595606158689974
1.21820e-05;0.0015862582877440435
1.21823e-05;0.0015769104167981764
1.21825e-05;0.0015675625458522458
1.21828e-05;0.0015582146749063153
1.21830e-05;0.0015486778355061417
1.21833e-05;0.0015390318589501065
1.21835e-05;0.0015293858823940713
1.21838e-05;0.0015197399058381016
1.21840e-05;0.0015100939292820663
1.21843e-05;0.0015004479527260311
1.21845e-05;0.001491000801408498
1.21848e-05;0.0014828397291474396
1.21850e-05;0.0014746786568863813
1.21852e-05;0.0014665175846253781
1.21855e-05;0.0014583565123643199
1.21858e-05;0.0014501954401032614
1.21860e-05;0.0014420343678422031
1.21863e-05;0.0014350502641288774
1.21865e-05;0.0014291990863561186
1.21868e-05;0.0014241211134425075
1.21870e-05;0.0014199815923267695
1.21873e-05;0.0014171541311828444
1.21875e-05;0.0014167706205346364
1.21878e-05;0.001417484828534042
1.21880e-05;0.0014207985164767945
1.21883e-05;0.0014256135123952337
1.21885e-05;0.0014329193983225134
1.21888e-05;0.0014416638770139122
1.21890e-05;0.0014536544309635166
1.21893e-05;0.001467519728623654
1.21895e-05;0.0014813850262838857
1.21898e-05;0.001499530850852361
1.21900e-05;0.0015201488580601314
1.21903e-05;0.0015407668652680417
1.21905e-05;0.0015639555845115983
1.21908e-05;0.001589779541182461
1.21910e-05;0.0016173664295820798
1.21913e-05;0.001646699148037895
1.21915e-05;0.0016777980380555289
1.21918e-05;0.0017106015168002608
1.21920e-05;0.0017449557207505852
1.21923e-05;0.00178068034546162
1.21925e-05;0.0018175949045650974
1.21928e-05;0.001855518806721144
1.21930e-05;0.0018942896766097873
1.21933e-05;0.0019337962961231462
1.21935e-05;0.0019739507405174997
1.21937e-05;0.002014613933390888
1.21940e-05;0.0020555888203325767
1.21943e-05;0.00209666189564206
1.21945e-05;0.0021376198012099134
1.21948e-05;0.002178248821393861
