Time(s);Current(A)
5.50000e-07;-0.0005693365057253065
5.50250e-07;-0.0005607835761917588
5.50500e-07;-0.0005522306466582112
5.50750e-07;-0.0005436777171246635
5.51000e-07;-0.0005351247875911195
5.51250e-07;-0.0005265718580575718
5.51500e-07;-0.0005212204223161192
5.51750e-07;-0.0005173121853394063
5.52000e-07;-0.0005134039483626933
5.52250e-07;-0.000511687079519213
5.52500e-07;-0.0005109580557219353
5.52750e-07;-0.0005102290319246576
5.53000e-07;-0.0005095000081273799
5.53250e-07;-0.0005087709843301023
5.53500e-07;-0.0005080419605328246
5.53750e-07;-0.0005073129367355472
5.54000e-07;-0.0005065839129382696
5.54250e-07;-0.000508552153702964
5.54500e-07;-0.0005105358494222892
5.54750e-07;-0.0005125195451416146
5.55000e-07;-0.0005145032408609398
5.55250e-07;-0.0005164869365802642
5.55500e-07;-0.0005184706322995895
5.55750e-07;-0.0005204543280189147
5.56000e-07;-0.0005229011708469014
5.56250e-07;-0.0005264321689020279
5.56500e-07;-0.0005299631669571528
5.56750e-07;-0.0005334941650122793
5.57000e-07;-0.0005370251630674057
5.57250e-07;-0.0005417556067058974
5.57500e-07;-0.0005472304643352621
5.57750e-07;-0.0005527053219646267
5.58000e-07;-0.0005581801795939891
5.58250e-07;-0.0005636550372233538
5.58500e-07;-0.0005675404077337372
5.58750e-07;-0.0005713148447005638
5.59000e-07;-0.0005750892816673902
5.59250e-07;-0.0005788637186342168
5.59500e-07;-0.0005826381556010417
5.59750e-07;-0.0005864125925678682
5.60000e-07;-0.0005857132004668455
5.60250e-07;-0.000584701570722723
5.60500e-07;-0.0005836899409786006
5.60750e-07;-0.0005826783112344786
5.61000e-07;-0.0005816666814903561
5.61250e-07;-0.0005806550517462337
5.61500e-07;-0.0005756670115144628
5.61750e-07;-0.0005704014494954623
5.62000e-07;-0.0005651358874764618
5.62250e-07;-0.0005571893506698555
5.62500e-07;-0.0005490557031721121
5.62750e-07;-0.0005409220556743688
5.63000e-07;-0.0005307905360436003
5.63250e-07;-0.0005205195808473289
5.63500e-07;-0.0005102486256510619
5.63750e-07;-0.0004978270650997302
5.64000e-07;-0.0004852554094202361
5.64250e-07;-0.0004726837537407419
5.64500e-07;-0.00046011209806124775
5.64750e-07;-0.00044754044238175364
5.65000e-07;-0.0004340960733663332
5.65250e-07;-0.0004205907959096175
5.65500e-07;-0.0004070855184529018
5.65750e-07;-0.0003935802409961861
5.66000e-07;-0.0003800749635394704
5.66250e-07;-0.0003673441109146512
5.66500e-07;-0.0003546673069762329
5.66750e-07;-0.00034199050303780935
5.67000e-07;-0.00033073687194885496
5.67250e-07;-0.0003195825669918377
5.67500e-07;-0.00031001720480418343
5.67750e-07;-0.0003005627381688261
5.68000e-07;-0.0002931102153674727
5.68250e-07;-0.00028579741230393103
5.68500e-07;-0.00028076684751936426
5.68750e-07;-0.000275895564792838
5.69000e-07;-0.00027303101400303866
5.69250e-07;-0.00027030651712249364
5.69500e-07;-0.00026951255061210524
5.69750e-07;-0.00026885331974842977
5.70000e-07;-0.000270273349695622
5.70250e-07;-0.0002718384954899242
5.70500e-07;-0.0002755485208664481
5.70750e-07;-0.00027940824175778803
5.71000e-07;-0.0002851303169657986
5.71250e-07;-0.0002909823696748863
5.71500e-07;-0.00029853915018272233
5.71750e-07;-0.0003062149071158899
5.72000e-07;-0.00031557863348828516
5.72250e-07;-0.00032506016668597124
5.72500e-07;-0.00033650503963949033
5.72750e-07;-0.00034808693807357796
5.73000e-07;-0.0003596688365076656
5.73250e-07;-0.0003730879789242756
5.73500e-07;-0.0003866353463405921
5.73750e-07;-0.0004001827137569143
5.74000e-07;-0.0004158260689530849
5.74250e-07;-0.00043161570740560387
5.74500e-07;-0.00044740534585812285
5.74750e-07;-0.0004631949843106418
5.75000e-07;-0.00047898462276315404
5.75250e-07;-0.000494774261215673
5.75500e-07;-0.0005110110155796902
5.75750e-07;-0.0005278290714627396
5.76000e-07;-0.0005446471273457891
5.76250e-07;-0.0005614651832288313
5.76500e-07;-0.0005782832391118808
5.76750e-07;-0.0005951012949949302
5.77000e-07;-0.0006119193508779796
5.77250e-07;-0.0006276515412387175
5.77500e-07;-0.0006433079468329174
5.77750e-07;-0.0006589643524271107
5.78000e-07;-0.0006746207580213106
5.78250e-07;-0.0006898583814609355
5.78500e-07;-0.0007050667772409997
5.78750e-07;-0.0007202751730210639
5.79000e-07;-0.0007354835688011216
5.79250e-07;-0.0007549635189800693
5.79500e-07;-0.0007747415896409982
5.79750e-07;-0.000794519660301927
5.80000e-07;-0.0008180305829981567
5.80250e-07;-0.0008418020290411613
5.80500e-07;-0.0008655734750841557
5.80750e-07;-0.0008940077714318639
5.81000e-07;-0.0009227674975998308
5.81250e-07;-0.0009515272237677978
5.81500e-07;-0.0009857066469316212
5.81750e-07;-0.0010202643217878567
5.82000e-07;-0.0010548219966440777
5.82250e-07;-0.001093446203512218
5.82500e-07;-0.001132354221932358
5.82750e-07;-0.0011712622403524978
5.83000e-07;-0.0012161503200417178
5.83250e-07;-0.0012614557603873359
5.83500e-07;-0.0013067612007329732
5.83750e-07;-0.0013520666410786104
5.84000e-07;-0.0013973720814242476
5.84250e-07;-0.001442677521769885
5.84500e-07;-0.0014895912362095898
5.84750e-07;-0.0015385958898215758
5.85000e-07;-0.0015876005434335826
5.85250e-07;-0.0016366051970455897
5.85500e-07;-0.0016856098506575965
5.85750e-07;-0.0017346145042696033
5.86000e-07;-0.00178361915788161
5.86250e-07;-0.0018295342407795767
5.86500e-07;-0.0018752336962444564
5.86750e-07;-0.001920933151709336
5.87000e-07;-0.0019666326071742157
5.87250e-07;-0.0020123320626390952
5.87500e-07;-0.0020580315181039557
5.87750e-07;-0.002093167838594631
5.88000e-07;-0.002127566936379985
5.88250e-07;-0.0021619660341653385
5.88500e-07;-0.002196365131950692
5.88750e-07;-0.002230764229736046
5.89000e-07;-0.0022651633275213847
5.89250e-07;-0.0022851188232668337
5.89500e-07;-0.0023040662706065277
5.89750e-07;-0.002323013717946221
5.90000e-07;-0.0023311078422681396
5.90250e-07;-0.0023384444910701024
5.90500e-07;-0.0023457811398720618
5.90750e-07;-0.0023417123829033515
5.91000e-07;-0.0023368476194348476
5.91250e-07;-0.0023319828559663436
5.91500e-07;-0.002315997506291936
5.91750e-07;-0.0022992360282553014
5.92000e-07;-0.0022824745502186593
5.92250e-07;-0.0022559636970290236
5.92500e-07;-0.0022287724150894775
5.92750e-07;-0.002201581133149931
5.93000e-07;-0.002165693133185461
5.93250e-07;-0.0021291981715561657
5.93500e-07;-0.002092703209926854
5.93750e-07;-0.0020475860888142725
5.94000e-07;-0.002001867209629331
5.94250e-07;-0.0019561483304443893
5.94500e-07;-0.0019104294512594482
5.94750e-07;-0.001864710572074526
5.95000e-07;-0.001816860394749882
5.95250e-07;-0.0017662392875292343
5.95500e-07;-0.0017156181803085866
5.95750e-07;-0.0016649970730879388
5.96000e-07;-0.0016143759658673123
5.96250e-07;-0.0015637548586466647
5.96500e-07;-0.0015166827995636099
5.96750e-07;-0.00146985843577895
5.97000e-07;-0.0014230340719942902
5.97250e-07;-0.0013762097082096305
5.97500e-07;-0.0013342129560378509
5.97750e-07;-0.0012984926478300492
5.98000e-07;-0.0012627723396222475
5.98250e-07;-0.001227052031414446
5.98500e-07;-0.0011913317232066444
5.98750e-07;-0.0011674939201410564
5.99000e-07;-0.0011444854213121982
5.99250e-07;-0.0011302392592795973
5.99500e-07;-0.0011166046385795657
5.99750e-07;-0.0011119431400159429
6.00000e-07;-0.0011079078939231167
6.00250e-07;-0.0011130331588958353
6.00500e-07;-0.0011187977545944006
6.00750e-07;-0.001133944691981069
6.01000e-07;-0.0011497464421045699
6.01250e-07;-0.0011747084312423229
6.01500e-07;-0.0012003097321189105
6.01750e-07;-0.0012344709636313432
6.02000e-07;-0.0012692296101381594
6.02250e-07;-0.0013119331881327335
6.02500e-07;-0.0013551912590784732
6.02750e-07;-0.0014058011352876573
6.03000e-07;-0.0014569241089606813
6.03250e-07;-0.0015159171274694864
6.03500e-07;-0.001575459412437485
6.03750e-07;-0.0016350016974054837
6.04000e-07;-0.001703798418734982
6.04250e-07;-0.0017732410260280541
6.04500e-07;-0.0018426836333210969
6.04750e-07;-0.0019121262406141689
6.05000e-07;-0.001981568847907241
6.05250e-07;-0.0020528760419965784
6.05500e-07;-0.0021266074109121823
6.05750e-07;-0.0022003387798277866
6.06000e-07;-0.002274070148743359
6.06250e-07;-0.0023478015176589635
6.06500e-07;-0.0024215328865745673
6.06750e-07;-0.0024812741636588164
6.07000e-07;-0.002540039043738414
6.07250e-07;-0.0025988039238179863
6.07500e-07;-0.002657568803897584
6.07750e-07;-0.0027163336839771813
6.08000e-07;-0.002775098564056779
6.08250e-07;-0.0028338634441363764
6.08500e-07;-0.002892628324215974
6.08750e-07;-0.0029513932042955463
6.09000e-07;-0.0030101580843751438
6.09250e-07;-0.003056781605635403
6.09500e-07;-0.0030876199800386646
6.09750e-07;-0.003118458354441926
6.10000e-07;-0.003149296728845188
6.10250e-07;-0.0031801351032484364
6.10500e-07;-0.003210973477651698
6.10750e-07;-0.0032418118520549594
6.11000e-07;-0.0032726502264582213
6.11250e-07;-0.003303488600861483
6.11500e-07;-0.0033343269752647313
6.11750e-07;-0.003365165349667993
6.12000e-07;-0.0033777531205914186
6.12250e-07;-0.0033890671447241796
6.12500e-07;-0.0034003811688569406
6.12750e-07;-0.0034116951929897017
6.13000e-07;-0.0034230092171224583
6.13250e-07;-0.0034343232412552193
6.13500e-07;-0.0034456372653879803
6.13750e-07;-0.0034569512895207414
6.14000e-07;-0.0034682653136535024
6.14250e-07;-0.0034795793377862634
6.14500e-07;-0.00349089336191902
6.14750e-07;-0.0034936843059999024
6.15000e-07;-0.00349588040696369
6.15250e-07;-0.0034980765079274776
6.15500e-07;-0.003500272608891265
6.15750e-07;-0.003502468709855052
6.16000e-07;-0.0035046648108188394
6.16250e-07;-0.003506860911782627
6.16500e-07;-0.0035090570127464145
6.16750e-07;-0.003511253113710202
6.17000e-07;-0.0035134492146739896
6.17250e-07;-0.0035156453156377763
6.17500e-07;-0.0035166862109760138
6.17750e-07;-0.0035176464821606566
6.18000e-07;-0.0035186067533453
6.18250e-07;-0.003519567024529943
6.18500e-07;-0.0035205272957145855
6.18750e-07;-0.0035214875668992287
6.19000e-07;-0.003522447838083872
6.19250e-07;-0.003523408109268515
6.19500e-07;-0.003524368380453158
6.19750e-07;-0.0035253286516378013
6.20000e-07;-0.0035262889228224437
6.20250e-07;-0.003527249194007087
6.20500e-07;-0.0035282094651917302
6.20750e-07;-0.003529169736376373
6.21000e-07;-0.0035301300075610163
6.21250e-07;-0.0035310902787456596
6.21500e-07;-0.0035320505499303024
6.21750e-07;-0.003533010821114945
6.22000e-07;-0.003528437170035152
6.22250e-07;-0.0035234772952487154
6.22500e-07;-0.003518517420462279
6.22750e-07;-0.0035135575456758444
6.23000e-07;-0.003508597670889408
6.23250e-07;-0.0035036377961029713
6.23500e-07;-0.0034986779213165347
6.23750e-07;-0.003493718046530098
6.24000e-07;-0.0034887581717436616
6.24250e-07;-0.003483798296957227
6.24500e-07;-0.0034788384221707902
6.24750e-07;-0.0034738785473843537
6.25000e-07;-0.003468918672597917
6.25250e-07;-0.0034639587978114806
6.25500e-07;-0.003458998923025044
6.25750e-07;-0.0034540390482386096
6.26000e-07;-0.003449079173452173
6.26250e-07;-0.0034441192986657365
6.26500e-07;-0.0034436540240631104
6.26750e-07;-0.0034435024367621765
6.27000e-07;-0.0034433508494612426
6.27250e-07;-0.0034431992621603087
6.27500e-07;-0.003443047674859375
6.27750e-07;-0.003442896087558441
6.28000e-07;-0.003442744500257507
6.28250e-07;-0.003442592912956573
6.28500e-07;-0.0034424413256556393
6.28750e-07;-0.0034422897383547054
6.29000e-07;-0.0034421381510537715
6.29250e-07;-0.0034419865637528376
6.29500e-07;-0.0034418349764519037
6.29750e-07;-0.0034416833891509698
6.30000e-07;-0.003441531801850036
6.30250e-07;-0.003441380214549102
6.30500e-07;-0.003456935603743267
6.30750e-07;-0.003473587214819935
6.31000e-07;-0.003490238825896603
6.31250e-07;-0.003506890436973264
6.31500e-07;-0.003523542048049932
6.31750e-07;-0.0035401936591265997
6.32000e-07;-0.0035568452702032676
6.32250e-07;-0.0035734968812799355
6.32500e-07;-0.0035901484923566034
6.32750e-07;-0.003606800103433264
6.33000e-07;-0.003623451714509932
6.33250e-07;-0.0036401033255866
6.33500e-07;-0.0036567549366632677
6.33750e-07;-0.0036734065477399356
6.34000e-07;-0.0036900581588166035
6.34250e-07;-0.0037067097698932645
6.34500e-07;-0.003729484837848181
6.34750e-07;-0.0037526872743312623
6.35000e-07;-0.003775889710814344
6.35250e-07;-0.0037990921472974256
6.35500e-07;-0.0038222945837804974
6.35750e-07;-0.0038454970202635792
6.36000e-07;-0.003868699456746661
6.36250e-07;-0.0038919018932297425
6.36500e-07;-0.003915104329712824
6.36750e-07;-0.003938306766195906
6.37000e-07;-0.003961509202678978
6.37250e-07;-0.003984711639162059
6.37500e-07;-0.004007914075645141
6.37750e-07;-0.004031116512128223
6.38000e-07;-0.004054318948611304
6.38250e-07;-0.004077521385094376
6.38500e-07;-0.004100723821577458
6.38750e-07;-0.004115784319830456
6.39000e-07;-0.004130276575630368
6.39250e-07;-0.004144768831430278
6.39500e-07;-0.004159261087230188
6.39750e-07;-0.004173753343030093
6.40000e-07;-0.004188245598830003
6.40250e-07;-0.004202737854629914
6.40500e-07;-0.004217230110429825
6.40750e-07;-0.004231722366229735
6.41000e-07;-0.0042462146220296456
6.41250e-07;-0.004260706877829551
6.41500e-07;-0.004275199133629461
6.41750e-07;-0.0042896913894293716
6.42000e-07;-0.004304183645229282
6.42250e-07;-0.004318675901029193
6.42500e-07;-0.0043331681568290975
6.42750e-07;-0.004347660412629008
6.43000e-07;-0.004357008904415848
6.43250e-07;-0.004365998402435066
6.43500e-07;-0.004374987900454284
6.43750e-07;-0.004383977398473503
6.44000e-07;-0.004392966896492718
6.44250e-07;-0.0044019563945119355
6.44500e-07;-0.004410945892531154
6.44750e-07;-0.004419935390550373
6.45000e-07;-0.004428924888569591
6.45250e-07;-0.00443791438658881
6.45500e-07;-0.004446903884608024
6.45750e-07;-0.004455893382627243
6.46000e-07;-0.004464882880646461
6.46250e-07;-0.00447387237866568
6.46500e-07;-0.004482861876684898
6.46750e-07;-0.004492195363610961
6.47000e-07;-0.0045015528582234956
6.47250e-07;-0.00451091035283603
6.47500e-07;-0.004520267847448566
6.47750e-07;-0.004529625342061101
6.48000e-07;-0.004538982836673635
6.48250e-07;-0.004548340331286166
6.48500e-07;-0.0045576978258987004
6.48750e-07;-0.004567055320511236
6.49000e-07;-0.004576412815123771
6.49250e-07;-0.0045857703097363055
6.49500e-07;-0.00459512780434884
6.49750e-07;-0.0046044852989613715
6.50000e-07;-0.004613842793573906
6.50250e-07;-0.004623200288186441
6.50500e-07;-0.004641898285071169
6.50750e-07;-0.004661248174634832
6.51000e-07;-0.004680598064198487
6.51250e-07;-0.0046999479537621494
6.51500e-07;-0.004719297843325812
6.51750e-07;-0.004738647732889474
6.52000e-07;-0.0047579976224531376
6.52250e-07;-0.0047773475120168
6.52500e-07;-0.004796697401580455
6.52750e-07;-0.004816047291144117
6.53000e-07;-0.004835397180707779
6.53250e-07;-0.004854747070271443
6.53500e-07;-0.004874096959835105
6.53750e-07;-0.0048934468493987675
6.54000e-07;-0.004918132053420624
6.54250e-07;-0.004943189619905859
6.54500e-07;-0.004968247186391094
6.54750e-07;-0.004993304752876329
6.55000e-07;-0.005018362319361563
6.55250e-07;-0.005043419885846787
6.55500e-07;-0.005068477452332022
6.55750e-07;-0.0050935350188172565
6.56000e-07;-0.005118592585302491
6.56250e-07;-0.005143650151787726
6.56500e-07;-0.005168707718272961
6.56750e-07;-0.005193765284758184
6.57000e-07;-0.005218822851243419
6.57250e-07;-0.005243880417728654
6.57500e-07;-0.0052592684199176615
6.57750e-07;-0.005273981563518798
6.58000e-07;-0.005288694707119929
6.58250e-07;-0.005303407850721066
6.58500e-07;-0.0053181209943222035
6.58750e-07;-0.00533283413792334
6.59000e-07;-0.005347547281524478
6.59250e-07;-0.005362260425125614
6.59500e-07;-0.005376973568726745
6.59750e-07;-0.005391686712327882
6.60000e-07;-0.00540639985592902
6.60250e-07;-0.005421112999530156
6.60500e-07;-0.005435826143131294
6.60750e-07;-0.00545053928673243
6.61000e-07;-0.005465252430333561
6.61250e-07;-0.005479965573934698
6.61500e-07;-0.005494678717535836
6.61750e-07;-0.005495642068837276
6.62000e-07;-0.005495645794127575
6.62250e-07;-0.005495649519417873
6.62500e-07;-0.005495653244708172
6.62750e-07;-0.00549565696999847
6.63000e-07;-0.005495660695288769
6.63250e-07;-0.005495664420579067
6.63500e-07;-0.005495668145869366
6.63750e-07;-0.005495671871159664
6.64000e-07;-0.0054956755964499625
6.64250e-07;-0.005495679321740261
6.64500e-07;-0.0054956830470305595
6.64750e-07;-0.005495686772320858
6.65000e-07;-0.005495690497611156
6.65250e-07;-0.005495694222901455
6.65500e-07;-0.005495697948191753
6.65750e-07;-0.005495701673482052
6.66000e-07;-0.0054956067084568055
6.66250e-07;-0.005495504855633418
6.66500e-07;-0.00549540300281003
6.66750e-07;-0.005495301149986643
6.67000e-07;-0.005495199297163256
6.67250e-07;-0.005495097444339868
6.67500e-07;-0.005494995591516481
6.67750e-07;-0.005494893738693093
6.68000e-07;-0.0054947918858697055
6.68250e-07;-0.005494690033046318
6.68500e-07;-0.00549458818022293
6.68750e-07;-0.005494486327399543
6.69000e-07;-0.005494384474576156
6.69250e-07;-0.005494282621752768
6.69500e-07;-0.005494180768929381
6.69750e-07;-0.0054940789161059935
6.70000e-07;-0.005500001612689511
6.70250e-07;-0.005513756908453827
6.70500e-07;-0.005527512204218143
6.70750e-07;-0.005541267499982454
6.71000e-07;-0.005555022795746769
6.71250e-07;-0.005568778091511085
6.71500e-07;-0.005582533387275402
6.71750e-07;-0.005596288683039717
6.72000e-07;-0.005610043978804034
6.72250e-07;-0.005623799274568344
6.72500e-07;-0.00563755457033266
6.72750e-07;-0.005651309866096976
6.73000e-07;-0.005665065161861292
6.73250e-07;-0.005678820457625608
6.73500e-07;-0.005692575753389918
6.73750e-07;-0.005706331049154234
6.74000e-07;-0.00572008634491855
6.74250e-07;-0.005740742297284206
6.74500e-07;-0.005761879860529843
6.74750e-07;-0.00578301742377548
6.75000e-07;-0.005804154987021108
6.75250e-07;-0.005825292550266745
6.75500e-07;-0.005846430113512382
6.75750e-07;-0.005867567676758019
6.76000e-07;-0.005888705240003656
6.76250e-07;-0.005909842803249294
6.76500e-07;-0.005930980366494922
6.76750e-07;-0.005952117929740559
6.77000e-07;-0.0059732554929861955
6.77250e-07;-0.005994393056231832
6.77500e-07;-0.00601553061947747
6.77750e-07;-0.006028587388820886
6.78000e-07;-0.006041080183098299
6.78250e-07;-0.006053572977375712
6.78500e-07;-0.006066065771653124
6.78750e-07;-0.006078558565930537
6.79000e-07;-0.0060910513602079495
6.79250e-07;-0.006103544154485357
6.79500e-07;-0.006116036948762769
6.79750e-07;-0.006128529743040182
6.80000e-07;-0.006141022537317594
6.80250e-07;-0.006153515331595007
6.80500e-07;-0.006166008125872419
6.80750e-07;-0.006178500920149827
6.81000e-07;-0.006190993714427239
6.81250e-07;-0.00618900389710103
6.81500e-07;-0.006186003308811701
6.81750e-07;-0.006183002720522372
6.82000e-07;-0.006180002132233044
6.82250e-07;-0.006177001543943715
6.82500e-07;-0.006174000955654386
6.82750e-07;-0.006171000367365057
6.83000e-07;-0.006167999779075729
6.83250e-07;-0.0061649991907864
6.83500e-07;-0.0061619986024970715
6.83750e-07;-0.006158998014207742
6.84000e-07;-0.006155997425918414
6.84250e-07;-0.006152996837629085
6.84500e-07;-0.006149996249339756
6.84750e-07;-0.006142261782040285
6.85000e-07;-0.006134196927682365
6.85250e-07;-0.0061261320733244405
6.85500e-07;-0.006118067218966517
6.85750e-07;-0.006110002364608593
6.86000e-07;-0.00610193751025067
6.86250e-07;-0.006093872655892749
6.86500e-07;-0.006085807801534826
6.86750e-07;-0.006077742947176902
6.87000e-07;-0.0060696780928189776
6.87250e-07;-0.006061613238461054
6.87500e-07;-0.00605354838410313
6.87750e-07;-0.00604548352974521
6.88000e-07;-0.006037418675387286
6.88250e-07;-0.006040172178826099
6.88500e-07;-0.006043680717491239
6.88750e-07;-0.00604718925615638
6.89000e-07;-0.00605069779482152
6.89250e-07;-0.006054206333486659
6.89500e-07;-0.006057714872151799
6.89750e-07;-0.00606122341081694
6.90000e-07;-0.00606473194948208
6.90250e-07;-0.0060682404881472205
6.90500e-07;-0.006071749026812359
6.90750e-07;-0.0060752575654775
6.91000e-07;-0.00607876610414264
6.91250e-07;-0.0060822746428077805
6.91500e-07;-0.006085783181472921
6.91750e-07;-0.006089291720138061
6.92000e-07;-0.0060928002588032
6.92250e-07;-0.00609630879746834
6.92500e-07;-0.006110967828777393
6.92750e-07;-0.006126405075680294
6.93000e-07;-0.006141842322583194
6.93250e-07;-0.006157279569486088
6.93500e-07;-0.006172716816388989
6.93750e-07;-0.0061881540632918895
6.94000e-07;-0.0062035913101947905
6.94250e-07;-0.006219028557097691
6.94500e-07;-0.006234465804000592
