Time(s);Current(A)
1.05000e-05;-0.0025628253455868126
1.05002e-05;-0.0025906751569519017
1.05005e-05;-0.0026191752106264374
1.05008e-05;-0.0026482165998655636
1.05010e-05;-0.0026776444063133734
1.05013e-05;-0.0027072820616080486
1.05015e-05;-0.0027369520609020963
1.05017e-05;-0.0027664767763884166
1.05020e-05;-0.0027956785582863033
1.05023e-05;-0.0028243936733392226
1.05025e-05;-0.002852479026524032
1.05028e-05;-0.0028797806602284667
1.05030e-05;-0.0029061150216505957
1.05033e-05;-0.0029312854923359247
1.05035e-05;-0.0029550950316371396
1.05038e-05;-0.002977346243117168
1.05040e-05;-0.0029978393669692267
1.05043e-05;-0.003016165864655115
1.05045e-05;-0.003031600055278825
1.05048e-05;-0.003043556898361435
1.05050e-05;-0.0030518770148021696
1.05053e-05;-0.0030549812342344647
1.05055e-05;-0.003057577761572502
1.05058e-05;-0.0030522175510135727
1.05060e-05;-0.0030460281364030934
1.05063e-05;-0.003039838721792614
1.05065e-05;-0.003023303425294692
1.05068e-05;-0.0030056899423226663
1.05070e-05;-0.0029880764593506405
1.05073e-05;-0.002960278680806743
1.05075e-05;-0.0029314195553564893
1.05078e-05;-0.002902560429906236
1.05080e-05;-0.0028649532223551087
1.05083e-05;-0.0028264343415507287
1.05085e-05;-0.002787915460746349
1.05087e-05;-0.0027414307049331964
1.05090e-05;-0.0026941157928524317
1.05093e-05;-0.002646800880771667
1.05095e-05;-0.0025942656904777333
1.05098e-05;-0.002541186473736708
1.05100e-05;-0.0024851463054935954
1.05102e-05;-0.002428797564439442
1.05105e-05;-0.0023707105229267963
1.05108e-05;-0.0023115145577277244
1.05110e-05;-0.0022515781613162296
1.05113e-05;-0.0021912512238754893
1.05115e-05;-0.002130887415153615
1.05118e-05;-0.0020708404048983176
1.05120e-05;-0.0020114632302884006
1.05123e-05;-0.001953077023257002
1.05125e-05;-0.0018959538417865122
1.05128e-05;-0.0018403874379389344
1.05130e-05;-0.001786737156756115
1.05133e-05;-0.0017353914532335904
1.05135e-05;-0.001686741344463497
1.05138e-05;-0.0016427660401868301
1.05140e-05;-0.0015992510406258183
1.05143e-05;-0.0015615762899141847
1.05145e-05;-0.001524510175313437
1.05148e-05;-0.001490957297934529
1.05150e-05;-0.001457770549310906
1.05153e-05;-0.0014280433749459204
1.05155e-05;-0.0013986767369001624
1.05158e-05;-0.001374695881798636
1.05160e-05;-0.0013512763010658532
1.05163e-05;-0.0013278567203330706
1.05165e-05;-0.001309671826336708
1.05168e-05;-0.001292032460358169
1.05170e-05;-0.00127439309437963
1.05172e-05;-0.0012606928429094607
1.05175e-05;-0.0012474031026003414
1.05178e-05;-0.0012341133622912222
1.05180e-05;-0.0012252865390200557
1.05183e-05;-0.0012169248145042998
1.05185e-05;-0.0012085630899885437
1.05187e-05;-0.001203155218141322
1.05190e-05;-0.001198055179307406
1.05193e-05;-0.0011929551404734897
1.05195e-05;-0.001190469475446183
1.05198e-05;-0.0011882562649578189
1.05200e-05;-0.001186043054469455
1.05203e-05;-0.0011862112565687109
1.05205e-05;-0.0011866276353697776
1.05208e-05;-0.0011870440141708472
1.05210e-05;-0.0011886566166758087
1.05213e-05;-0.0011903938825234242
1.05215e-05;-0.0011921311483710515
1.05218e-05;-0.001194910501867885
1.05220e-05;-0.0011977984555615333
1.05223e-05;-0.0012006864092552014
1.05225e-05;-0.0012039281449056534
1.05228e-05;-0.0012072067496142432
1.05230e-05;-0.0012104853543228552
1.05233e-05;-0.0012133694817825478
1.05235e-05;-0.0012162124991619715
1.05238e-05;-0.0012190555165414142
1.05240e-05;-0.0012204791845721828
1.05243e-05;-0.001221754936428332
1.05245e-05;-0.00122303068828449
1.05248e-05;-0.0012243064401406478
1.05250e-05;-0.001225582191996797
1.05253e-05;-0.0012268579438529548
1.05255e-05;-0.0012281336957091127
1.05257e-05;-0.0012294094475652619
1.05260e-05;-0.0012280367635147864
1.05263e-05;-0.0012263880751751566
1.05265e-05;-0.0012247393868355383
1.05268e-05;-0.0012230906984959085
1.05270e-05;-0.001221442010156279
1.05272e-05;-0.0012197933218166604
1.05275e-05;-0.0012181446334770306
1.05278e-05;-0.001216495945137401
1.05280e-05;-0.0012126128393858114
1.05283e-05;-0.0012084968758980586
1.05285e-05;-0.0012043809124103056
1.05288e-05;-0.0012002649489225529
1.05290e-05;-0.0011961489854348279
1.05293e-05;-0.001192033021947075
1.05295e-05;-0.0011879170584593222
1.05298e-05;-0.0011825749949189628
1.05300e-05;-0.0011771051544998833
1.05303e-05;-0.0011716353140808038
1.05305e-05;-0.0011661654736617611
1.05308e-05;-0.0011606956332426816
1.05310e-05;-0.001155225792823602
1.05313e-05;-0.0011497559524045594
1.05315e-05;-0.001144073945227407
1.05318e-05;-0.0011383698272885308
1.05320e-05;-0.0011326657093496933
1.05323e-05;-0.0011271960286248362
1.05325e-05;-0.0011217507795565958
1.05328e-05;-0.0011163055304883925
1.05330e-05;-0.0011111464487464514
1.05333e-05;-0.0011062131807239558
1.05335e-05;-0.0011015290115323373
1.05338e-05;-0.0010971300299212705
1.05340e-05;-0.0010930620240366612
1.05342e-05;-0.0010902044649033582
1.05345e-05;-0.0010908105619492296
1.05348e-05;-0.001096832752779915
1.05350e-05;-0.0011087281989157738
1.05353e-05;-0.001126252726368555
1.05355e-05;-0.0011491051357391667
1.05357e-05;-0.0011769839443052463
1.05360e-05;-0.001209593856648486
1.05363e-05;-0.0012471615681270258
1.05365e-05;-0.0012907747366231151
1.05368e-05;-0.001341331917838743
1.05370e-05;-0.001398795462932305
1.05373e-05;-0.0014626881629690237
1.05375e-05;-0.0015324969646380265
1.05378e-05;-0.0016077090364733759
1.05380e-05;-0.0016899424841234857
1.05383e-05;-0.0017728549897272506
1.05385e-05;-0.0018649334246013435
1.05388e-05;-0.0019579670782853037
1.05390e-05;-0.0020578707509357527
1.05393e-05;-0.002162362965538136
1.05395e-05;-0.002270546642845044
1.05398e-05;-0.0023817765651937407
1.05400e-05;-0.00249540945658008
1.05403e-05;-0.0026110076129341442
1.05405e-05;-0.0027284705960052983
1.05408e-05;-0.0028476237698390155
1.05410e-05;-0.00296792583162991
1.05413e-05;-0.0030886622168007217
1.05415e-05;-0.0032091045871513245
1.05418e-05;-0.003328525070140425
1.05420e-05;-0.0034461968914573445
1.05423e-05;-0.003561522430803632
1.05425e-05;-0.0036741146668611358
1.05427e-05;-0.003783541126131563
1.05430e-05;-0.0038891383168004616
1.05433e-05;-0.003990135467606796
1.05435e-05;-0.004085753061554968
1.05438e-05;-0.004172039035716557
1.05440e-05;-0.004257406158381605
1.05442e-05;-0.004333124701395048
1.05445e-05;-0.004402222198035854
1.05448e-05;-0.004463572949586743
1.05450e-05;-0.004524177369145573
1.05453e-05;-0.004577355003319077
1.05455e-05;-0.004624407125604062
1.05458e-05;-0.004662276670841996
1.05460e-05;-0.004699247383086256
1.05463e-05;-0.004727356642755143
1.05465e-05;-0.004749336368966796
1.05468e-05;-0.004766229174082416
1.05470e-05;-0.004778268059473362
1.05473e-05;-0.004785424154369917
1.05475e-05;-0.004787647545117596
1.05478e-05;-0.004784887140820053
1.05480e-05;-0.004777095514151477
1.05483e-05;-0.00476444745429258
1.05485e-05;-0.004747530951696648
1.05488e-05;-0.004726961997715619
1.05490e-05;-0.0047030436194365685
1.05493e-05;-0.0046745231391740775
1.05495e-05;-0.004645555747474525
1.05498e-05;-0.004611249470817925
1.05500e-05;-0.0045763868072210565
1.05503e-05;-0.004537045974638329
1.05505e-05;-0.0044972384538318096
1.05508e-05;-0.0044547115175711085
1.05510e-05;-0.004411901179953115
1.05512e-05;-0.004367486435714596
1.05515e-05;-0.00432290448972904
1.05518e-05;-0.004277570840549476
1.05520e-05;-0.004232158853319602
1.05523e-05;-0.004187102159183921
1.05525e-05;-0.004142082491588296
1.05527e-05;-0.004098402184073837
1.05530e-05;-0.004057053941947229
1.05533e-05;-0.0040159341876328065
1.05535e-05;-0.003978655394155057
1.05538e-05;-0.003941776882845433
1.05540e-05;-0.0039084607910203776
1.05543e-05;-0.0038777000043983606
1.05545e-05;-0.003848173666101868
1.05548e-05;-0.003818705022805549
1.05550e-05;-0.003789231457286693
1.05553e-05;-0.0037599879361396023
1.05555e-05;-0.0037307683888529726
1.05558e-05;-0.0037026840926172233
1.05560e-05;-0.0036747181055162156
1.05563e-05;-0.0036478109340078776
1.05565e-05;-0.0036210141059837882
1.05568e-05;-0.003593086560322389
1.05570e-05;-0.0035650411779717056
1.05573e-05;-0.0035369957956210224
1.05575e-05;-0.003508372772064397
1.05578e-05;-0.003479689550165424
1.05580e-05;-0.003451006328266451
1.05583e-05;-0.003422323106367672
1.05585e-05;-0.003392932619268606
1.05588e-05;-0.003363468425183157
1.05590e-05;-0.0033340042310979075
1.05593e-05;-0.0033045400370124585
1.05595e-05;-0.00327458950841475
1.05597e-05;-0.0032445882969174343
1.05600e-05;-0.0032145870854199156
1.05603e-05;-0.003184585873922397
1.05605e-05;-0.0031548426125879536
1.05608e-05;-0.0031254773391884683
1.05610e-05;-0.0030961120657889826
1.05612e-05;-0.0030667467923896964
1.05615e-05;-0.0030373815189902106
1.05618e-05;-0.003011259879429582
1.05620e-05;-0.0029854762721591883
1.05623e-05;-0.0029596926648886197
1.05625e-05;-0.002933909057618051
1.05628e-05;-0.0029259323670979154
1.05630e-05;-0.0028882328665095673
1.05633e-05;-0.002862259023678435
1.05635e-05;-0.0028410073780424086
1.05638e-05;-0.0028184573036251297
1.05640e-05;-0.0027989040218100642
1.05643e-05;-0.002780851099605215
1.05645e-05;-0.0027621206842692136
1.05648e-05;-0.0027436122209666776
1.05650e-05;-0.002724652589430294
1.05653e-05;-0.0027048659547788357
1.05655e-05;-0.0026837887741473164
1.05658e-05;-0.002662331804727607
1.05660e-05;-0.0026408748353080433
1.05663e-05;-0.0026198825365155026
1.05665e-05;-0.002599184928978367
1.05668e-05;-0.002578870857259439
1.05670e-05;-0.0025507754168301927
1.05673e-05;-0.002526294823239961
1.05675e-05;-0.0024983612969170744
1.05678e-05;-0.002469525577479332
1.05680e-05;-0.0024409942267272122
1.05682e-05;-0.0024113278598357018
1.05685e-05;-0.002381621075622119
1.05688e-05;-0.0023519142914085363
1.05690e-05;-0.0023198842904275613
1.05693e-05;-0.0022877724044701414
1.05695e-05;-0.002253986673423951
1.05697e-05;-0.0022197404924643917
1.05700e-05;-0.002185834947181355
1.05703e-05;-0.002151941906799983
1.05705e-05;-0.002117779769254086
1.05708e-05;-0.002083608147007582
1.05710e-05;-0.0020494365247610783
1.05713e-05;-0.002015098024038814
1.05715e-05;-0.0019808231928951517
1.05718e-05;-0.0019465508131876067
1.05720e-05;-0.0019139465435268402
1.05723e-05;-0.0018814010687034964
1.05725e-05;-0.0018506330633051861
1.05728e-05;-0.0018199277072660793
1.05730e-05;-0.0017906413805301334
1.05733e-05;-0.0017626011068146237
1.05735e-05;-0.0017357565196805043
1.05738e-05;-0.0017105693098947055
1.05740e-05;-0.0016874863811445866
1.05743e-05;-0.0016667826734087412
1.05745e-05;-0.001649357510888718
1.05748e-05;-0.0016358822320100067
1.05750e-05;-0.001626514672677028
1.05753e-05;-0.0016212052867821457
1.05755e-05;-0.0016216422543198527
1.05758e-05;-0.0016222768924467944
1.05760e-05;-0.0016306377003813466
1.05763e-05;-0.0016392708278174177
1.05765e-05;-0.0016562970767051693
1.05767e-05;-0.0016736191527240104
1.05770e-05;-0.0016975126309848269
1.05773e-05;-0.0017257632466722245
1.05775e-05;-0.0017579635164698963
1.05778e-05;-0.00179397954413982
1.05780e-05;-0.0018336711676682498
1.05782e-05;-0.001876831185878708
1.05785e-05;-0.0019234971078038131
1.05788e-05;-0.001973617092353784
1.05790e-05;-0.0020269377021733845
1.05793e-05;-0.002083124297998367
1.05795e-05;-0.0021417769889867494
1.05798e-05;-0.0022026180483111345
1.05800e-05;-0.0022653658113620206
1.05803e-05;-0.002329696713063648
1.05805e-05;-0.0023954409053252956
1.05808e-05;-0.002462371711413191
1.05810e-05;-0.002530137011629363
1.05813e-05;-0.0025983333374042495
1.05815e-05;-0.0026665164301899642
1.05818e-05;-0.0027343186936868084
1.05820e-05;-0.0028013703343963787
1.05823e-05;-0.0028672750707035466
1.05825e-05;-0.0029317326269853823
1.05828e-05;-0.002994407910557732
1.05830e-05;-0.0030548864395887783
1.05833e-05;-0.0031127224188079532
1.05835e-05;-0.0031674438570057735
1.05838e-05;-0.003218626904130768
1.05840e-05;-0.0032658469642870445
1.05843e-05;-0.003308709041656216
1.05845e-05;-0.00334702834714266
1.05848e-05;-0.003380748461936555
1.05850e-05;-0.003409802613239036
1.05853e-05;-0.003434094950235946
1.05855e-05;-0.0034511176487223
1.05858e-05;-0.003467889836968607
1.05860e-05;-0.0034724870934008892
1.05863e-05;-0.0034766552275835904
1.05865e-05;-0.0034808233617662915
1.05867e-05;-0.0034730981434499294
1.05870e-05;-0.0034649537275348893
1.05873e-05;-0.0034478791765832316
1.05875e-05;-0.003430489870716036
1.05878e-05;-0.003404647450360782
1.05880e-05;-0.0033785070883364746
1.05883e-05;-0.0033444855416945455
1.05885e-05;-0.00331018621184023
1.05888e-05;-0.0032689385975263135
1.05890e-05;-0.003227446081351401
1.05893e-05;-0.003180031403420379
1.05895e-05;-0.003132407990736773
1.05898e-05;-0.0030798687474823667
1.05900e-05;-0.0030271562390054535
1.05903e-05;-0.002970593268339607
1.05905e-05;-0.0029138945828276605
1.05908e-05;-0.0028546370565374866
1.05910e-05;-0.002795289340377368
1.05913e-05;-0.0027347324299789545
1.05915e-05;-0.0026741328998636416
1.05918e-05;-0.0026134605009795362
1.05920e-05;-0.0025531867617685808
1.05923e-05;-0.002493670021003999
1.05925e-05;-0.0024352961096483603
1.05928e-05;-0.0023784708841347404
1.05930e-05;-0.0023235981679240567
1.05933e-05;-0.0022710771912795237
1.05935e-05;-0.002221305001792294
1.05938e-05;-0.0021746832986858414
1.05940e-05;-0.002131613497843245
1.05943e-05;-0.0020926553314332044
1.05945e-05;-0.002058599465672064
1.05948e-05;-0.0020300470443008942
1.05950e-05;-0.002007177303969289
1.05952e-05;-0.0019899974234180383
1.05955e-05;-0.001978507458136393
1.05958e-05;-0.001975461465232981
1.05960e-05;-0.001972706263811312
1.05963e-05;-0.001981229528428889
1.05965e-05;-0.001990150318125195
1.05968e-05;-0.0020079609851120644
1.05970e-05;-0.0020319104412808765
1.05973e-05;-0.0020616516042483253
1.05975e-05;-0.0020969360754257652
1.05978e-05;-0.00213751699884139
1.05980e-05;-0.002183147349109839
1.05983e-05;-0.0022336428410240595
1.05985e-05;-0.0022889088885231154
1.05988e-05;-0.0023487770721314816
1.05990e-05;-0.0024129134311149055
1.05993e-05;-0.0024809164170721556
1.05995e-05;-0.002552381851860823
1.05998e-05;-0.0026269064410975136
1.06000e-05;-0.0027040869221068953
1.06003e-05;-0.0027835593903462606
1.06005e-05;-0.002865016204982824
1.06008e-05;-0.002948103305105592
1.06010e-05;-0.003032363269062221
1.06013e-05;-0.0031172961838538673
1.06015e-05;-0.0032024000903933493
1.06018e-05;-0.0032871743552357418
1.06020e-05;-0.003371118167593007
1.06023e-05;-0.003453754998339545
1.06025e-05;-0.003534644259434054
1.06028e-05;-0.0036133157876573553
1.06030e-05;-0.003689235135872865
1.06033e-05;-0.003761840440244127
1.06035e-05;-0.0038305696238157168
1.06037e-05;-0.0038948608583170246
1.06040e-05;-0.003954153223020242
1.06043e-05;-0.004008065751789219
1.06045e-05;-0.004056618750850298
1.06048e-05;-0.004099974866267868
1.06050e-05;-0.004138103355270344
1.06053e-05;-0.00417085089883992
1.06055e-05;-0.004198060553268515
1.06058e-05;-0.004213904521242939
1.06060e-05;-0.0042293545418741274
1.06063e-05;-0.004244804562505212
1.06065e-05;-0.004246485009788964
1.06068e-05;-0.004247680129482844
1.06070e-05;-0.004238774603323364
1.06073e-05;-0.0042295130659800685
1.06075e-05;-0.004210559082828418
1.06078e-05;-0.004191263476066313
1.06080e-05;-0.004162683848444488
1.06083e-05;-0.004133776992712285
1.06085e-05;-0.004096542406253806
1.06088e-05;-0.004059014297448388
1.06090e-05;-0.004014433211555841
1.06093e-05;-0.003969603533765742
1.06095e-05;-0.003918729121754375
1.06098e-05;-0.0038676416547544865
1.06100e-05;-0.0038115176964001315
1.06103e-05;-0.0037552162199662583
1.06105e-05;-0.003695229585494773
1.06108e-05;-0.0036351130625497164
1.06110e-05;-0.0035728618670270505
1.06113e-05;-0.003510535432027346
1.06115e-05;-0.003447457818983729
1.06118e-05;-0.0033843537296342208
1.06120e-05;-0.0033218816194178205
1.06122e-05;-0.003259431784177403
1.06125e-05;-0.003198431677581397
1.06128e-05;-0.0031390432747921853
1.06130e-05;-0.0030816903788722393
1.06133e-05;-0.0030281828577318768
1.06135e-05;-0.002974808411734698
1.06138e-05;-0.00292963856173931
1.06140e-05;-0.0028847578940382505
1.06143e-05;-0.002839877226336887
1.06145e-05;-0.0028046375015175094
1.06148e-05;-0.0027697375850178926
1.06150e-05;-0.0027348376685180395
1.06153e-05;-0.0027070559511506824
1.06155e-05;-0.002679525124522661
1.06158e-05;-0.0026601139927847754
1.06160e-05;-0.002640989050884403
1.06163e-05;-0.00262186410898416
1.06165e-05;-0.0026104301957008665
1.06168e-05;-0.0025992673633215254
1.06170e-05;-0.002593182966819269
1.06173e-05;-0.002587277566788934
1.06175e-05;-0.0025864829887549557
1.06178e-05;-0.0025858685486863553
1.06180e-05;-0.0025891494390750613
1.06183e-05;-0.0025950831725885543
1.06185e-05;-0.0026033096253568915
1.06188e-05;-0.00261349193310783
1.06190e-05;-0.0026254674743406343
1.06193e-05;-0.002639165475136594
1.06195e-05;-0.002654517731971369
1.06198e-05;-0.0026714555756590748
1.06200e-05;-0.0026899107709669203
1.06203e-05;-0.002709743129362611
1.06205e-05;-0.002730671385040129
1.06207e-05;-0.0027523999431868207
1.06210e-05;-0.0027747428539182644
1.06213e-05;-0.0027975711209220146
1.06215e-05;-0.0028207576186664793
1.06218e-05;-0.00284417499671693
1.06220e-05;-0.0028676963465183456
1.06222e-05;-0.002891149119937743
1.06225e-05;-0.002914273246476468
1.06228e-05;-0.002936798880398851
1.06230e-05;-0.0029585254333725293
1.06233e-05;-0.0029792876024461006
1.06235e-05;-0.0029989219167268944
1.06238e-05;-0.0030172640294884954
1.06240e-05;-0.003034150911718006
1.06243e-05;-0.0030497308485559075
1.06245e-05;-0.0030647231061414486
1.06248e-05;-0.0030798124871684205
1.06250e-05;-0.003095130195369176
1.06253e-05;-0.0031105410452931044
1.06255e-05;-0.0031259013725059297
1.06258e-05;-0.0031410675205007267
1.06260e-05;-0.003155896057673863
1.06263e-05;-0.003170438776678815
1.06265e-05;-0.00318510475065623
1.06268e-05;-0.00320028234224093
1.06270e-05;-0.0032160121723362593
1.06273e-05;-0.003232309264516392
1.06275e-05;-0.0032486256867776896
1.06278e-05;-0.003265250789238196
1.06280e-05;-0.0032818867715579086
1.06283e-05;-0.0032986796241428495
1.06285e-05;-0.0033154780058363966
1.06288e-05;-0.003333034537586086
1.06290e-05;-0.003350617791379504
1.06292e-05;-0.0033686981945939957
1.06295e-05;-0.0033869683966874517
1.06298e-05;-0.003405298197949948
1.06300e-05;-0.0034235639890906927
1.06303e-05;-0.0034417197287822444
1.06305e-05;-0.0034598586270136364
1.06307e-05;-0.0034780663357873894
1.06310e-05;-0.0034962917795340574
1.06313e-05;-0.003514418354925406
1.06315e-05;-0.0035323282179475957
1.06318e-05;-0.003549902431776788
1.06320e-05;-0.003567023144472348
1.06323e-05;-0.0035836197734857357
1.06325e-05;-0.003599709763931046
1.06328e-05;-0.00361530573327893
1.06330e-05;-0.0036303347830866943
1.06333e-05;-0.0036442959427489753
1.06335e-05;-0.0036582201465620513
1.06338e-05;-0.0036703757084171466
1.06340e-05;-0.0036824689320484466
1.06343e-05;-0.003693114676071298
1.06345e-05;-0.003703090466956277
1.06348e-05;-0.00371274172237996
1.06350e-05;-0.0037221265926110163
1.06353e-05;-0.003730969428253982
1.06355e-05;-0.00373979347681776
1.06358e-05;-0.003747657974146404
1.06360e-05;-0.0037554886507690927
1.06363e-05;-0.0037623469566509964
1.06365e-05;-0.0037691709899858477
1.06368e-05;-0.0037755674065977404
1.06370e-05;-0.003781948751268748
1.06373e-05;-0.0037883300959397985
1.06375e-05;-0.0037939155817169334
1.06377e-05;-0.00379947301635027
1.06380e-05;-0.003805030450983644
1.06383e-05;-0.0038105878856170184
1.06385e-05;-0.0038153952667242135
1.06388e-05;-0.003820176211161002
1.06390e-05;-0.0038249571555977907
1.06392e-05;-0.0038297381000345467
1.06395e-05;-0.003833900964381222
1.06398e-05;-0.003838042043643121
1.06400e-05;-0.0038421831229050202
1.06403e-05;-0.003846324202166891
1.06405e-05;-0.00385046528142879
1.06408e-05;-0.003853963946030407
1.06410e-05;-0.0038574399678417493
1.06413e-05;-0.0038609159896531155
1.06415e-05;-0.0038643920114644816
1.06418e-05;-0.0038678680332758244
1.06420e-05;-0.0038705560903098796
1.06423e-05;-0.003873216374439161
1.06425e-05;-0.003875876658568425
1.06428e-05;-0.003878536942697707
1.06430e-05;-0.003881197226826989
1.06433e-05;-0.0038838575109562527
1.06435e-05;-0.0038860349645273226
1.06438e-05;-0.0038880134530525083
1.06440e-05;-0.0038897815410335757
1.06443e-05;-0.003891591243274038
