Time(s);Current(A)
1.00000e-05;0.00377569730613506
1.00003e-05;0.0037681802585164954
1.00005e-05;0.0037606632108979814
1.00008e-05;0.0037531461632794166
1.00010e-05;0.003745629115660852
1.00013e-05;0.003738112068042338
1.00015e-05;0.003730595020423773
1.00018e-05;0.0037230779728052083
1.00020e-05;0.0037155609251866943
1.00023e-05;0.0037080438775681296
1.00025e-05;0.003710222726542292
1.00028e-05;0.003721910040582012
1.00030e-05;0.003733597354621811
1.00033e-05;0.0037452846686616102
1.00035e-05;0.00375697198270133
1.00038e-05;0.0037686592967411292
1.00040e-05;0.0037803466107809284
1.00042e-05;0.0037920339248206487
1.00045e-05;0.003803721238860448
1.00048e-05;0.0038155727275898804
1.00050e-05;0.003860902942246887
1.00053e-05;0.003906233156904201
1.00055e-05;0.003951563371561515
1.00057e-05;0.003996893586218521
1.00060e-05;0.0040422238008758354
1.00063e-05;0.00408755401553315
1.00065e-05;0.004132884230190156
1.00068e-05;0.00417821444484747
1.00070e-05;0.004223544659504784
1.00073e-05;0.004280101946493494
1.00075e-05;0.004347669275105046
1.00078e-05;0.004415236603717056
1.00080e-05;0.004482803932329065
1.00083e-05;0.004550371260940617
1.00085e-05;0.004617938589552627
1.00088e-05;0.004685505918164636
1.00090e-05;0.0047530843463417394
1.00093e-05;0.004822926213033646
1.00095e-05;0.004892768079725554
1.00098e-05;0.004962609946416988
1.00100e-05;0.005032451813108895
1.00103e-05;0.005102293679800802
1.00105e-05;0.0051721355464922365
1.00108e-05;0.005241977413184143
1.00110e-05;0.005298955176477161
1.00113e-05;0.005343317512550146
1.00115e-05;0.0053876798486234305
1.00118e-05;0.005432042184696716
1.00120e-05;0.0054764045207697
1.00123e-05;0.005520766856842985
1.00125e-05;0.00556512919291627
1.00127e-05;0.005609491528989255
1.00130e-05;0.005653853865062539
1.00133e-05;0.005698216201135825
1.00135e-05;0.005742578537208809
1.00138e-05;0.0057867388609583355
1.00140e-05;0.005789704556466487
1.00142e-05;0.005792670251974619
1.00145e-05;0.005795635947482771
1.00148e-05;0.005798601642990923
1.00150e-05;0.005801567338499055
1.00153e-05;0.0058045330340072065
1.00155e-05;0.005807498729515358
1.00157e-05;0.00581046442502349
1.00160e-05;0.005813430120531642
1.00163e-05;0.005816395816039794
1.00165e-05;0.005819361511547946
1.00168e-05;0.005808688201117387
1.00170e-05;0.005784639540578688
1.00173e-05;0.00576059088003999
1.00175e-05;0.005736542219501454
1.00178e-05;0.005712493558962755
1.00180e-05;0.005688444898424057
1.00183e-05;0.0056643962378855215
1.00185e-05;0.005640347577346823
1.00188e-05;0.005616298916808125
1.00190e-05;0.005592217250400722
1.00193e-05;0.005561404982206322
1.00195e-05;0.005530592714011923
1.00198e-05;0.005499780445817733
1.00200e-05;0.005468968177623333
1.00203e-05;0.005438155909428934
1.00205e-05;0.0054073436412347435
1.00208e-05;0.005376531373040344
1.00210e-05;0.005345719104845944
1.00212e-05;0.005314906836651754
1.00215e-05;0.005288075648558505
1.00218e-05;0.005265148582247265
1.00220e-05;0.00524222151593618
1.00223e-05;0.00521929444962494
1.00225e-05;0.0051963673833137
1.00227e-05;0.005173440317002615
1.00230e-05;0.005150513250691375
1.00233e-05;0.005127586184380134
1.00235e-05;0.00510465911806905
1.00238e-05;0.00508173205175781
1.00240e-05;0.00505880498544657
1.00242e-05;0.005035877919135485
1.00245e-05;0.005011204174426715
1.00248e-05;0.00498481751638653
1.00250e-05;0.0049584308583463434
1.00253e-05;0.004932044200306337
1.00255e-05;0.004905657542266151
1.00258e-05;0.004879270884225965
1.00260e-05;0.004852884226185958
1.00263e-05;0.0048264975681457725
1.00265e-05;0.004800110910105586
1.00268e-05;0.004773724252065579
1.00270e-05;0.004747337594025394
1.00273e-05;0.004720950935985208
1.00275e-05;0.004692642372827223
1.00278e-05;0.004662449056927333
1.00280e-05;0.004632255741027443
1.00283e-05;0.004602062425127756
1.00285e-05;0.0045718691092278664
1.00288e-05;0.004541675793327976
1.00290e-05;0.00451148247742829
1.00293e-05;0.0044812891615283994
1.00295e-05;0.0044510958456285095
1.00297e-05;0.004420902529728823
1.00300e-05;0.004390709213828933
1.00303e-05;0.004360552685158396
1.00305e-05;0.00433789785860817
1.00308e-05;0.0043152430320577894
1.00310e-05;0.00429258820550741
1.00312e-05;0.004269933378957183
1.00315e-05;0.004247278552406803
1.00318e-05;0.004224623725856423
1.00320e-05;0.004201968899306197
1.00323e-05;0.004179314072755816
1.00325e-05;0.004156659246205436
1.00327e-05;0.00413400441965521
1.00330e-05;0.00411134959310483
1.00333e-05;0.004091249614386108
1.00335e-05;0.004073655095698313
1.00338e-05;0.004056060577010637
1.00340e-05;0.004038466058322842
1.00343e-05;0.004020871539635046
1.00345e-05;0.004003277020947371
1.00348e-05;0.003985682502259576
1.00350e-05;0.003968087983571781
1.00353e-05;0.0039504934648841045
1.00355e-05;0.0039328989461963094
1.00358e-05;0.003915304427508514
1.00360e-05;0.003897709908820838
1.00363e-05;0.003880115390133043
1.00365e-05;0.003862520871445248
1.00368e-05;0.0038449263527575717
1.00370e-05;0.0038273318340697766
1.00373e-05;0.0038097373153819815
1.00375e-05;0.003792597527450298
1.00378e-05;0.003775903679867677
1.00380e-05;0.0037592098322850563
1.00382e-05;0.0037425159847025487
1.00385e-05;0.003725822137119928
1.00388e-05;0.0037091282895373072
1.00390e-05;0.0036924344419547997
1.00393e-05;0.003675740594372179
1.00395e-05;0.003659046746789558
1.00397e-05;0.0036423528992070506
1.00400e-05;0.00362565905162443
1.00403e-05;0.003608965204041809
1.00405e-05;0.0035922713564593015
1.00408e-05;0.0035755775088766807
1.00410e-05;0.00355888366129406
1.00412e-05;0.0035421898137115524
1.00415e-05;0.0035254959661289316
1.00418e-05;0.003515440017600018
1.00420e-05;0.0035118936508032384
1.00423e-05;0.0035083472840064826
1.00425e-05;0.003504800917209703
1.00428e-05;0.0035012545504129232
1.00430e-05;0.003497708183616168
1.00433e-05;0.003494161816819388
1.00435e-05;0.0034906154500226085
1.00438e-05;0.0034872218070857545
1.00440e-05;0.003514971823221127
1.00443e-05;0.003542721839356499
1.00445e-05;0.003570471855491683
1.00448e-05;0.0035982218716270557
1.00450e-05;0.0036259718877624278
1.00453e-05;0.0036537219038976117
1.00455e-05;0.0036814719200329842
1.00458e-05;0.0037092219361683563
1.00460e-05;0.003751943412025468
1.00463e-05;0.003809346934103416
1.00465e-05;0.003866750456181364
1.00467e-05;0.003924153978258922
1.00470e-05;0.00398155750033687
1.00473e-05;0.004038961022414818
1.00475e-05;0.004096364544492377
1.00478e-05;0.004153768066570325
1.00480e-05;0.0042185882958886214
1.00482e-05;0.0042906818599737955
1.00485e-05;0.004362775424059458
1.00488e-05;0.00443486898814512
1.00490e-05;0.004506962552230294
1.00493e-05;0.004579056116315957
1.00495e-05;0.004651149680401619
1.00497e-05;0.004723243244486792
1.00500e-05;0.004792240056602355
1.00503e-05;0.004858199980103881
1.00505e-05;0.004924159903605407
1.00508e-05;0.004990119827106485
1.00510e-05;0.005056079750608011
1.00513e-05;0.0051220396741095365
1.00515e-05;0.005187999597610615
1.00518e-05;0.005243705770987389
1.00520e-05;0.005289356409627316
1.00523e-05;0.005335007048266934
1.00525e-05;0.005380657686906861
1.00528e-05;0.005426308325546788
1.00530e-05;0.005471958964186405
1.00533e-05;0.005517609602826332
1.00535e-05;0.005552992988626996
1.00538e-05;0.005578307597996748
1.00540e-05;0.005603622207366672
1.00543e-05;0.005628936816736596
1.00545e-05;0.005654251426106349
1.00548e-05;0.005679566035476273
1.00550e-05;0.005704880644846196
1.00552e-05;0.005730195254215949
1.00555e-05;0.005755509863585873
1.00558e-05;0.005780824472955797
1.00560e-05;0.005806139082325549
1.00563e-05;0.005831453691695474
1.00565e-05;0.0058567683010653975
1.00567e-05;0.00588208291043515
1.00570e-05;0.005907397519805074
1.00573e-05;0.0059326452276675995
1.00575e-05;0.005944250288056486
1.00578e-05;0.005955855348445451
1.00580e-05;0.005967460408834416
1.00582e-05;0.005979065469223302
1.00585e-05;0.005990670529612267
1.00588e-05;0.006002275590001232
1.00590e-05;0.0060138806503901975
1.00593e-05;0.006025485710779084
1.00595e-05;0.006037090771168049
1.00598e-05;0.006048695831557013
1.00600e-05;0.0060603008919459
1.00603e-05;0.0060719059523348645
1.00605e-05;0.00608351101272383
1.00608e-05;0.006095116073112717
1.00610e-05;0.006106721133501681
1.00613e-05;0.0061131666442994885
1.00615e-05;0.006114552344830212
1.00618e-05;0.006115938045360944
1.00620e-05;0.006117323745891676
1.00623e-05;0.006118709446422399
1.00625e-05;0.006120095146953131
1.00628e-05;0.006121480847483863
1.00630e-05;0.006122866548014586
1.00633e-05;0.006124252248545318
1.00635e-05;0.00612563794907605
1.00637e-05;0.006127023649606773
1.00640e-05;0.006128409350137505
1.00643e-05;0.006129795050668237
1.00645e-05;0.0061215864857539996
1.00648e-05;0.006103969122271268
1.00650e-05;0.006086351758788536
1.00652e-05;0.0060687343953059235
1.00655e-05;0.006051117031823191
1.00658e-05;0.006033499668340459
1.00660e-05;0.006015882304857847
1.00663e-05;0.005998264941375115
1.00665e-05;0.005980647577892382
1.00667e-05;0.00596303021440977
1.00670e-05;0.005945412850927038
1.00673e-05;0.005927795487444305
1.00675e-05;0.005910178123961573
1.00678e-05;0.0058872137338175385
1.00680e-05;0.0058590056804571555
1.00683e-05;0.0058307976270967725
1.00685e-05;0.005802589573736581
1.00688e-05;0.005774381520376198
1.00690e-05;0.005746173467015816
1.00693e-05;0.005717965413655624
1.00695e-05;0.005689757360295242
1.00698e-05;0.005661549306934859
1.00700e-05;0.005633341253574667
1.00703e-05;0.005605133200214284
1.00705e-05;0.005576925146853902
1.00708e-05;0.005552550526824453
1.00710e-05;0.005531935235974052
1.00713e-05;0.005511319945123651
1.00715e-05;0.00549070465427339
1.00718e-05;0.005470089363422989
1.00720e-05;0.005449474072572588
1.00722e-05;0.005428858781722327
1.00725e-05;0.005408243490871926
1.00728e-05;0.005387628200021525
1.00730e-05;0.0053670129091712634
1.00733e-05;0.0053463976183208625
1.00735e-05;0.005325782327470462
1.00737e-05;0.0053113100022963815
1.00740e-05;0.005302861893046523
1.00743e-05;0.005294413783796664
1.00745e-05;0.005285965674546864
1.00748e-05;0.005277517565297005
1.00750e-05;0.005269069456047147
1.00752e-05;0.005260621346797346
1.00755e-05;0.0052521732375474875
1.00758e-05;0.005243725128297629
1.00760e-05;0.005235277019047771
1.00763e-05;0.00522682890979797
1.00765e-05;0.005218380800548111
1.00768e-05;0.0052099326912982535
1.00770e-05;0.005201484582048452
1.00773e-05;0.0051930364727985935
1.00775e-05;0.005184588363548736
1.00778e-05;0.005176140254298934
1.00780e-05;0.0051706938576043466
1.00783e-05;0.005168191147319791
1.00785e-05;0.0051656884370352525
1.00788e-05;0.005163185726750697
1.00790e-05;0.005160683016466141
1.00793e-05;0.005158180306181603
1.00795e-05;0.005155677595897047
1.00798e-05;0.005153174885612491
1.00800e-05;0.005150672175327952
1.00803e-05;0.005148169465043396
1.00805e-05;0.005145666754758841
1.00808e-05;0.005143164044474302
1.00810e-05;0.0051406613341897466
1.00813e-05;0.005138158623905191
1.00815e-05;0.0051356559136206525
1.00818e-05;0.005133153203336097
1.00820e-05;0.005130650493051541
1.00822e-05;0.005122666897966673
1.00825e-05;0.00510930836913739
1.00828e-05;0.005095949840308107
1.00830e-05;0.005082591311478914
1.00833e-05;0.005069232782649631
1.00835e-05;0.005055874253820348
1.00837e-05;0.005042515724991155
1.00840e-05;0.005029157196161872
1.00843e-05;0.005015798667332589
1.00845e-05;0.004987895698312613
1.00848e-05;0.004945729447865466
1.00850e-05;0.004903563197418034
1.00853e-05;0.004861396946970602
1.00855e-05;0.004819230696523455
1.00858e-05;0.0047770644460760235
1.00860e-05;0.004734898195628591
1.00863e-05;0.004692731945181445
1.00865e-05;0.004650565694734012
1.00868e-05;0.004597006225892455
1.00870e-05;0.004532273781109842
1.00873e-05;0.0044675413363267896
1.00875e-05;0.0044028088915437375
1.00878e-05;0.004338076446761124
1.00880e-05;0.004273344001978072
1.00883e-05;0.004208611557195021
1.00885e-05;0.004143848569219939
1.00888e-05;0.0040728571710741835
1.00890e-05;0.004001865772928428
1.00893e-05;0.003930874374783154
1.00895e-05;0.0038598829766373992
1.00898e-05;0.0037888915784916443
1.00900e-05;0.0037179001803463703
1.00903e-05;0.003646908782200615
1.00905e-05;0.003582991575327658
1.00907e-05;0.0035260118084455266
1.00910e-05;0.0034690320415630086
1.00913e-05;0.003412052274680491
1.00915e-05;0.0033550725077983595
1.00918e-05;0.0032980927409158416
1.00920e-05;0.0032411129740333236
1.00922e-05;0.003184133207151192
1.00925e-05;0.0031272644646929944
1.00928e-05;0.003093035976985758
1.00930e-05;0.003058807489278522
1.00933e-05;0.0030245790015715176
1.00935e-05;0.002990350513864281
1.00938e-05;0.002956122026157045
1.00940e-05;0.0029218935384500407
1.00943e-05;0.0028876650507428047
1.00945e-05;0.0028534365630355682
1.00948e-05;0.002827384024708275
1.00950e-05;0.0028093493863792893
1.00953e-05;0.0027913147480503036
1.00955e-05;0.0027732801097214398
1.00958e-05;0.002755245471392454
1.00960e-05;0.0027372108330634684
1.00963e-05;0.002719176194734605
1.00965e-05;0.0027011415564056193
1.00968e-05;0.0026831069180766336
1.00970e-05;0.0026650722797477698
1.00973e-05;0.002647037641418784
1.00975e-05;0.00263425610252445
1.00978e-05;0.0026266261153334316
1.00980e-05;0.0026189961281423615
1.00983e-05;0.0026113661409512914
1.00985e-05;0.002603736153760273
1.00988e-05;0.0025961061665692024
1.00990e-05;0.0025884761793781323
1.00992e-05;0.002580846192187114
1.00995e-05;0.0025732162049960437
1.00998e-05;0.0025655862178049736
1.01000e-05;0.002557956230613955
1.01003e-05;0.0025533785561845245
1.01005e-05;0.0025517941902205876
1.01007e-05;0.002550209824256661
1.01010e-05;0.002548625458292724
1.01013e-05;0.0025470410923287873
1.01015e-05;0.0025454567263648504
1.01018e-05;0.0025438723604009244
1.01020e-05;0.0025422879944369875
1.01023e-05;0.0025407036284730506
1.01025e-05;0.002539119262509124
1.01028e-05;0.002537534896545187
1.01030e-05;0.0025359505305812503
1.01033e-05;0.0025343661646173242
1.01035e-05;0.0025327817986533874
1.01038e-05;0.0025311974326894505
1.01040e-05;0.002529613066725524
1.01043e-05;0.002528028700761587
1.01045e-05;0.00252644433479765
1.01048e-05;0.002524859968833724
1.01050e-05;0.0025232756028697872
1.01053e-05;0.0025250409085184004
1.01055e-05;0.0025300911332360758
1.01058e-05;0.002535141357953786
1.01060e-05;0.0025401915826714955
1.01063e-05;0.0025452418073891713
1.01065e-05;0.0025502920321068814
1.01068e-05;0.002555342256824591
1.01070e-05;0.002560392481542267
1.01073e-05;0.0025654427062599765
1.01075e-05;0.0025704929309776866
1.01077e-05;0.002575543155695362
1.01080e-05;0.002580593380413072
1.01083e-05;0.0025856436051307817
1.01085e-05;0.0025906938298484576
1.01088e-05;0.002595744054566167
1.01090e-05;0.0026007942792838773
1.01092e-05;0.0026058445040015527
1.01095e-05;0.0026108947287192628
1.01098e-05;0.0026159449534369724
1.01100e-05;0.0026209951781546825
1.01103e-05;0.0026262129813758224
1.01105e-05;0.0026315951236383557
1.01108e-05;0.002636977265900889
1.01110e-05;0.002642359408163386
1.01113e-05;0.002647741550425919
1.01115e-05;0.0026531236926884525
1.01118e-05;0.0026585058349509493
1.01120e-05;0.0026638879772134826
1.01123e-05;0.0026707774678810963
1.01125e-05;0.002679145168383316
1.01128e-05;0.0026875128688855924
1.01130e-05;0.0026958805693878688
1.01133e-05;0.002704248269890089
1.01135e-05;0.0027126159703923652
1.01138e-05;0.0027209836708946417
1.01140e-05;0.0027293513713968613
1.01143e-05;0.002744104352736101
1.01145e-05;0.002765119180971012
1.01148e-05;0.0027861340092057807
1.01150e-05;0.0028071488374406916
1.01153e-05;0.0028281636656756026
1.01155e-05;0.002849178493910371
1.01158e-05;0.002870193322145282
1.01160e-05;0.002891208150380193
1.01162e-05;0.0029122229786149615
1.01165e-05;0.0029332378068498725
1.01168e-05;0.0029543084196570093
1.01170e-05;0.002986754700310777
1.01173e-05;0.003019200980964765
1.01175e-05;0.003051647261618752
1.01177e-05;0.00308409354227252
1.01180e-05;0.0031165398229265075
1.01183e-05;0.003148986103580495
1.01185e-05;0.003181432384234483
1.01188e-05;0.0032138786648882507
1.01190e-05;0.0032463249455422383
1.01193e-05;0.0032787712261962256
1.01195e-05;0.003310529331988092
1.01198e-05;0.003341612566034749
1.01200e-05;0.003372695800081406
1.01203e-05;0.0034037790341278525
1.01205e-05;0.0034348622681745094
1.01208e-05;0.0034659455022211664
1.01210e-05;0.003497028736267613
1.01213e-05;0.00352811197031427
1.01215e-05;0.003559195204360927
1.01218e-05;0.003590200294870071
1.01220e-05;0.0036052702460263233
1.01223e-05;0.0036203401971825755
1.01225e-05;0.003635410148338726
1.01228e-05;0.003650480099494978
1.01230e-05;0.0036655500506512307
1.01233e-05;0.0036806200018073805
1.01235e-05;0.003695689952963633
1.01238e-05;0.0037107599041198854
1.01240e-05;0.0037258298552760357
1.01243e-05;0.0037294119227184058
1.01245e-05;0.0037217281788626128
1.01247e-05;0.0037140444350068718
1.01250e-05;0.003706360691151079
1.01253e-05;0.003698676947295286
1.01255e-05;0.0036909932034395456
1.01258e-05;0.0036833094595837526
1.01260e-05;0.00367562571572796
1.01262e-05;0.003667941971872219
1.01265e-05;0.0036602582280164265
1.01268e-05;0.0036524939968729992
1.01270e-05;0.00362831668544119
1.01273e-05;0.003604139374009544
1.01275e-05;0.0035799620625777346
1.01278e-05;0.0035557847511459247
1.01280e-05;0.0035316074397142793
1.01283e-05;0.0035074301282824695
1.01285e-05;0.00348325281685066
1.01288e-05;0.0034590755054190146
1.01290e-05;0.003434898193987205
1.01293e-05;0.0034107208825553954
1.01295e-05;0.003385834413610812
1.01298e-05;0.0033602524958853087
1.01300e-05;0.0033346705781598053
1.01303e-05;0.0033090886604344753
1.01305e-05;0.003283506742708972
1.01308e-05;0.0032579248249834684
1.01310e-05;0.0032323429072581384
1.01313e-05;0.003206760989532635
1.01315e-05;0.0031811790718071315
1.01318e-05;0.0031555971540818016
1.01320e-05;0.0031340249185907512
1.01323e-05;0.0031163848541202813
1.01325e-05;0.003098744789649931
1.01328e-05;0.003081104725179461
1.01330e-05;0.003063464660708991
1.01332e-05;0.003045824596238641
1.01335e-05;0.003028184531768171
1.01338e-05;0.003010544467297701
1.01340e-05;0.0029929044028273503
1.01343e-05;0.0029752643383568803
1.01345e-05;0.00295861368541047
1.01347e-05;0.0029429333176626336
1.01350e-05;0.0029272529499146907
1.01353e-05;0.0029115725821667483
1.01355e-05;0.002895892214418806
1.01358e-05;0.002880211846670969
1.01360e-05;0.0028645314789230267
1.01363e-05;0.0028488511111750842
1.01365e-05;0.0028331707434272476
1.01368e-05;0.002817490375679305
1.01370e-05;0.0028018100079313627
1.01373e-05;0.002786129640183526
1.01375e-05;0.0027704492724355836
1.01378e-05;0.002754768904687641
1.01380e-05;0.0027390885369398045
1.01383e-05;0.0027243894500692846
1.01385e-05;0.00271065267492435
1.01388e-05;0.002696915899779508
1.01390e-05;0.0026831791246345734
1.01393e-05;0.002669442349489639
1.01395e-05;0.0026557055743447974
1.01398e-05;0.0026419687991998627
1.01400e-05;0.002628232024054928
1.01403e-05;0.0026144952489100862
1.01405e-05;0.0026007584737651516
1.01408e-05;0.002587021698620217
1.01410e-05;0.0025732849234753755
1.01413e-05;0.002559548148330441
1.01415e-05;0.002545811373185506
1.01417e-05;0.0025320745980406648
1.01420e-05;0.002523839191893392
1.01423e-05;0.002520998807717655
1.01425e-05;0.0025181584235419363
1.01428e-05;0.002515318039366199
1.01430e-05;0.0025124776551904613
1.01432e-05;0.0025096372710147427
1.01435e-05;0.0025067968868390054
1.01438e-05;0.0025039565026632677
1.01440e-05;0.00250111611848753
1.01443e-05;0.0024982757343118118
1.01445e-05;0.002495435350136074
1.01448e-05;0.0024925949659603363
1.01450e-05;0.002489754581784618
1.01453e-05;0.0024869141976088804
1.01455e-05;0.0024910224683073814
1.01458e-05;0.0025019450693546893
1.01460e-05;0.002512867670402071
1.01463e-05;0.0025237902714494525
1.01465e-05;0.0025347128724967603
1.01468e-05;0.002545635473544142
1.01470e-05;0.0025565580745915235
1.01473e-05;0.0025674806756388314
1.01475e-05;0.002578403276686213
1.01478e-05;0.0025893258777335945
1.01480e-05;0.0026002484787809024
1.01483e-05;0.002611171079828284
1.01485e-05;0.0026220936808756656
1.01488e-05;0.0026330162819229734
1.01490e-05;0.0026453948414620456
1.01493e-05;0.0026592012143429812
1.01495e-05;0.002673007587223823
1.01498e-05;0.002686813960104759
