Time(s);Current(A)
1.75000e-06;0.009117508901127216
1.75025e-06;0.009121452849769283
1.75050e-06;0.00912539679841135
1.75075e-06;0.00912934074705342
1.75100e-06;0.009133284695695488
1.75125e-06;0.009137228644337558
1.75150e-06;0.009141172592979627
1.75175e-06;0.009145116541621697
1.75200e-06;0.009149060490263764
1.75225e-06;0.009153004438905831
1.75250e-06;0.009156948387547902
1.75275e-06;0.009156097317093815
1.75300e-06;0.009151397701413157
1.75325e-06;0.009146698085732504
1.75350e-06;0.009141998470051852
1.75375e-06;0.009137298854371194
1.75400e-06;0.009132599238690541
1.75425e-06;0.009127899623009883
1.75450e-06;0.00912320000732923
1.75475e-06;0.009118500391648578
1.75500e-06;0.00911380077596792
1.75525e-06;0.009109101160287267
1.75550e-06;0.009104401544606611
1.75575e-06;0.009099701928925957
1.75600e-06;0.0090950023132453
1.75625e-06;0.009090302697564646
1.75650e-06;0.009085603081883994
1.75675e-06;0.009080903466203338
1.75700e-06;0.009076203850522683
1.75725e-06;0.009071504234842027
1.75750e-06;0.009066804619161374
1.75775e-06;0.00906210500348072
1.75800e-06;0.009057405387800064
1.75825e-06;0.00905270577211941
1.75850e-06;0.009053206739965146
1.75875e-06;0.009057881764369122
1.75900e-06;0.009062556788773097
1.75925e-06;0.009067231813177076
1.75950e-06;0.009071906837581052
1.75975e-06;0.009076581861985032
1.76000e-06;0.009081256886389007
1.76025e-06;0.009085931910792986
1.76050e-06;0.009090606935196963
1.76075e-06;0.009095281959600937
1.76100e-06;0.009099956984004917
1.76125e-06;0.009104632008408893
1.76150e-06;0.009109307032812873
1.76175e-06;0.009122023219465529
1.76200e-06;0.00914119334842082
1.76225e-06;0.009160363477376128
1.76250e-06;0.009179533606331418
1.76275e-06;0.009198703735286725
1.76300e-06;0.009217873864242016
1.76325e-06;0.009237043993197306
1.76350e-06;0.009256214122152613
1.76375e-06;0.009275384251107905
1.76400e-06;0.009294554380063212
1.76425e-06;0.009313724509018503
1.76450e-06;0.009332894637973793
1.76475e-06;0.0093520647669291
1.76500e-06;0.009372641340197801
1.76525e-06;0.009394346744121807
1.76550e-06;0.009416052148045796
1.76575e-06;0.009437757551969803
1.76600e-06;0.009459462955893791
1.76625e-06;0.00948116835981778
1.76650e-06;0.009502873763741785
1.76675e-06;0.009524579167665774
1.76700e-06;0.009546284571589781
1.76725e-06;0.00956798997551377
1.76750e-06;0.009585304410931188
1.76775e-06;0.009599094597425788
1.76800e-06;0.009612884783920377
1.76825e-06;0.009626674970414978
1.76850e-06;0.009640465156909566
1.76875e-06;0.009654255343404156
1.76900e-06;0.009668045529898755
1.76925e-06;0.009681835716393345
1.76950e-06;0.009695625902887946
1.76975e-06;0.009709416089382535
1.77000e-06;0.00972004267087303
1.77025e-06;0.009728130101488009
1.77050e-06;0.009736217532102987
1.77075e-06;0.009744304962717972
1.77100e-06;0.00975239239333295
1.77125e-06;0.009760479823947935
1.77150e-06;0.009768567254562913
1.77175e-06;0.009776654685177891
1.77200e-06;0.009784742115792876
1.77225e-06;0.009792829546407854
1.77250e-06;0.00980091697702284
1.77275e-06;0.009809004407637817
1.77300e-06;0.009817091838252795
1.77325e-06;0.00982517926886778
1.77350e-06;0.009833266699482758
1.77375e-06;0.009841354130097743
1.77400e-06;0.009847665636137714
1.77425e-06;0.009852551761817778
1.77450e-06;0.009857437887497838
1.77475e-06;0.009862324013177897
1.77500e-06;0.00986721013885796
1.77525e-06;0.009872096264538019
1.77550e-06;0.009876982390218083
1.77575e-06;0.009881868515898142
1.77600e-06;0.009886754641578201
1.77625e-06;0.009891640767258264
1.77650e-06;0.009896526892938323
1.77675e-06;0.009901413018618386
1.77700e-06;0.009906299144298445
1.77725e-06;0.009911185269978504
1.77750e-06;0.009916071395658569
1.77775e-06;0.009920957521338628
1.77800e-06;0.009919709046801624
1.77825e-06;0.00991353686165879
1.77850e-06;0.00990736467651595
1.77875e-06;0.009901192491373115
1.77900e-06;0.00989502030623028
1.77925e-06;0.00988884812108744
1.77950e-06;0.009882675935944605
1.77975e-06;0.00987509125014486
1.78000e-06;0.0098431200637454
1.78025e-06;0.009811148877345938
1.78050e-06;0.00977917769094645
1.78075e-06;0.009747206504546987
1.78100e-06;0.009715235318147499
1.78125e-06;0.009683264131748037
1.78150e-06;0.009651292945348576
1.78175e-06;0.009605217795957223
1.78200e-06;0.009547822620857847
1.78225e-06;0.009490427445758422
1.78250e-06;0.009433032270659046
1.78275e-06;0.009375637095559622
1.78300e-06;0.009318241920460246
1.78325e-06;0.00926084674536087
1.78350e-06;0.0092026327575794
1.78375e-06;0.00913028215622417
1.78400e-06;0.009057931554868878
1.78425e-06;0.008985580953513648
1.78450e-06;0.008913230352158416
1.78475e-06;0.008840879750803126
1.78500e-06;0.008768529149447894
1.78525e-06;0.008696178548092603
1.78550e-06;0.008622640612954053
1.78575e-06;0.008550425886301416
1.78600e-06;0.008480038050094308
1.78625e-06;0.00840965021388726
1.78650e-06;0.008339262377680151
1.78675e-06;0.008268874541473103
1.78700e-06;0.008199306728113242
1.78725e-06;0.008143896421551168
1.78750e-06;0.008088486114989097
1.78775e-06;0.008033075808426977
1.78800e-06;0.007977665501864904
1.78825e-06;0.007922255195302784
1.78850e-06;0.007878990121413713
1.78875e-06;0.007845472970584478
1.78900e-06;0.007811955819755214
1.78925e-06;0.007778438668925978
1.78950e-06;0.007744921518096714
1.78975e-06;0.007711404367267478
1.79000e-06;0.007677887216438243
1.79025e-06;0.0076443700656089785
1.79050e-06;0.007610852914779743
1.79075e-06;0.0075773357639504785
1.79100e-06;0.007543818613121243
1.79125e-06;0.007510301462291979
1.79150e-06;0.007476784311462743
1.79175e-06;0.007443267160633507
1.79200e-06;0.007409750009804243
1.79225e-06;0.007384706733985965
1.79250e-06;0.0073664647014083555
1.79275e-06;0.007348222668830761
1.79300e-06;0.007329980636253168
1.79325e-06;0.007311738603675558
1.79350e-06;0.007293496571097964
1.79375e-06;0.007275254538520354
1.79400e-06;0.00725701250594276
1.79425e-06;0.007238770473365166
1.79450e-06;0.007220528440787557
1.79475e-06;0.007202286408209963
1.79500e-06;0.007184044375632353
1.79525e-06;0.007165802343054759
1.79550e-06;0.007147560310477149
1.79575e-06;0.007129318277899555
1.79600e-06;0.0071163309204099485
1.79625e-06;0.007107561034074583
1.79650e-06;0.007098791147739225
1.79675e-06;0.007090021261403859
1.79700e-06;0.007081251375068501
1.79725e-06;0.007072481488733143
1.79750e-06;0.007063711602397778
1.79775e-06;0.00705494171606242
1.79800e-06;0.007046171829727054
1.79825e-06;0.007037401943391696
1.79850e-06;0.007028632057056338
1.79875e-06;0.007019862170720973
1.79900e-06;0.007011092284385615
1.79925e-06;0.007002322398050249
1.79950e-06;0.006993552511714891
1.79975e-06;0.006984782625379526
1.80000e-06;0.006983644067577715
1.80025e-06;0.0069886305141613585
1.80050e-06;0.006993616960745006
1.80075e-06;0.00699860340732865
1.80100e-06;0.007003589853912298
1.80125e-06;0.007008576300495941
1.80150e-06;0.007013562747079585
1.80175e-06;0.007018549193663233
1.80200e-06;0.007023535640246876
1.80225e-06;0.007028522086830523
1.80250e-06;0.007033508533414167
1.80275e-06;0.0070384949799978105
1.80300e-06;0.007043481426581458
1.80325e-06;0.007048467873165102
1.80350e-06;0.00705345431974875
1.80375e-06;0.007058440766332393
1.80400e-06;0.007067316575034482
1.80425e-06;0.007079314036791733
1.80450e-06;0.007091311498548972
1.80475e-06;0.007103308960306222
1.80500e-06;0.0071153064220634615
1.80525e-06;0.007127303883820712
1.80550e-06;0.0071393013455779515
1.80575e-06;0.007151298807335191
1.80600e-06;0.007163207801262528
1.80625e-06;0.007173589418352809
1.80650e-06;0.007183971035443099
1.80675e-06;0.00719435265253338
1.80700e-06;0.00720473426962366
1.80725e-06;0.00721511588671395
1.80750e-06;0.007225497503804231
1.80775e-06;0.007235879120894521
1.80800e-06;0.007246260737984801
1.80825e-06;0.007258979268488076
1.80850e-06;0.007273573436351157
1.80875e-06;0.0072881676042142254
1.80900e-06;0.007302761772077306
1.80925e-06;0.007317355939940375
1.80950e-06;0.007331950107803456
1.80975e-06;0.007346544275666524
1.81000e-06;0.007361138443529593
1.81025e-06;0.007375732611392674
1.81050e-06;0.007391262917304358
1.81075e-06;0.007422955432382727
1.81100e-06;0.00745464794746107
1.81125e-06;0.007486340462539412
1.81150e-06;0.007518032977617782
1.81175e-06;0.007549725492696124
1.81200e-06;0.007581418007774493
1.81225e-06;0.007613110522852836
1.81250e-06;0.0076448030379311785
1.81275e-06;0.007676495553009547
1.81300e-06;0.0077155962792941225
1.81325e-06;0.007760642933070105
1.81350e-06;0.007805689586846048
1.81375e-06;0.00785073624062203
1.81400e-06;0.007895782894397973
1.81425e-06;0.007940829548173918
1.81450e-06;0.007985876201949899
1.81475e-06;0.008030922855725842
1.81500e-06;0.008075969509501823
1.81525e-06;0.008121016163277768
1.81550e-06;0.008165786183600594
1.81575e-06;0.008205780190665809
1.81600e-06;0.00824577419773099
1.81625e-06;0.008285768204796205
1.81650e-06;0.008325762211861387
1.81675e-06;0.008365756218926568
1.81700e-06;0.008405750225991783
1.81725e-06;0.008445744233056964
1.81750e-06;0.008485738240122179
1.81775e-06;0.008525732247187359
1.81800e-06;0.008565726254252575
1.81825e-06;0.008597865271936442
1.81850e-06;0.008623699772105203
1.81875e-06;0.008649534272273985
1.81900e-06;0.008675368772442746
1.81925e-06;0.008701203272611528
1.81950e-06;0.00872703777278029
1.81975e-06;0.00875287227294905
1.82000e-06;0.008778706773117833
1.82025e-06;0.008804541273286594
1.82050e-06;0.008830375773455376
1.82075e-06;0.008856210273624137
1.82100e-06;0.008882044773792896
1.82125e-06;0.008907228939023229
1.82150e-06;0.008931891136901193
1.82175e-06;0.008956553334779177
1.82200e-06;0.00898121553265714
1.82225e-06;0.009005877730535124
1.82250e-06;0.009030539928413088
1.82275e-06;0.00905520212629105
1.82300e-06;0.009079864324169035
1.82325e-06;0.009104526522047
1.82350e-06;0.009129188719924982
1.82375e-06;0.009153850917802946
1.82400e-06;0.00917851311568091
1.82425e-06;0.009202672439538295
1.82450e-06;0.0092264281501103
1.82475e-06;0.009250183860682323
1.82500e-06;0.009273939571254327
1.82525e-06;0.009297695281826331
1.82550e-06;0.009321450992398356
1.82575e-06;0.00934520670297036
1.82600e-06;0.009368962413542384
1.82625e-06;0.009389731362422849
1.82650e-06;0.009408103097191017
1.82675e-06;0.009426474831959169
1.82700e-06;0.009444846566727321
1.82725e-06;0.009463218301495489
1.82750e-06;0.009481590036263641
1.82775e-06;0.009499961771031807
1.82800e-06;0.00951833350579996
1.82825e-06;0.009525443704089228
1.82850e-06;0.009523515245478054
1.82875e-06;0.009521586786866884
1.82900e-06;0.009519658328255713
1.82925e-06;0.009517729869644541
1.82950e-06;0.009515801411033371
1.82975e-06;0.009513872952422198
1.83000e-06;0.009510049511193485
1.83025e-06;0.009473509628771963
1.83050e-06;0.009436969746350471
1.83075e-06;0.00940042986392895
1.83100e-06;0.009363889981507457
1.83125e-06;0.009327350099085967
1.83150e-06;0.009290810216664443
1.83175e-06;0.009254270334242951
1.83200e-06;0.009199160255693959
1.83225e-06;0.009129145494140088
1.83250e-06;0.009059130732586218
1.83275e-06;0.008989115971032288
1.83300e-06;0.00891910120947842
1.83325e-06;0.008849086447924488
1.83350e-06;0.00877907168637062
1.83375e-06;0.008709056924816749
1.83400e-06;0.00863904216326282
1.83425e-06;0.008560660806488162
1.83450e-06;0.008475564310641183
1.83475e-06;0.008390467814794274
1.83500e-06;0.008305371318947296
1.83525e-06;0.008220274823100388
1.83550e-06;0.008135178327253481
1.83575e-06;0.008050081831406502
1.83600e-06;0.007964985335559595
1.83625e-06;0.007879888839712615
1.83650e-06;0.007803218101411393
1.83675e-06;0.007733309986640349
1.83700e-06;0.0076634018718692454
1.83725e-06;0.007593493757098201
1.83750e-06;0.007523585642327098
1.83775e-06;0.007453677527556053
1.83800e-06;0.007383769412785009
1.83825e-06;0.007316046234157061
1.83850e-06;0.007286045477972798
1.83875e-06;0.0072560447217885115
1.83900e-06;0.00722604396560425
1.83925e-06;0.007196043209419962
1.83950e-06;0.007166042453235701
1.83975e-06;0.007136041697051439
1.84000e-06;0.007106040940867152
1.84025e-06;0.007106248635615621
1.84050e-06;0.007130702029338478
1.84075e-06;0.007155155423061315
1.84100e-06;0.007179608816784151
1.84125e-06;0.007204062210507008
1.84150e-06;0.007228515604229845
1.84175e-06;0.007252968997952702
1.84200e-06;0.007277422391675538
1.84225e-06;0.007301875785398375
1.84250e-06;0.007328770915382295
1.84275e-06;0.007397822063065962
1.84300e-06;0.007466873210749689
1.84325e-06;0.007535924358433356
1.84350e-06;0.007604975506117024
1.84375e-06;0.00767402665380075
1.84400e-06;0.007743077801484417
1.84425e-06;0.007812128949168143
1.84450e-06;0.007881180096851811
1.84475e-06;0.007950231244535538
1.84500e-06;0.008025681969452986
1.84525e-06;0.00810626907900382
1.84550e-06;0.008186856188554721
1.84575e-06;0.008267443298105555
1.84600e-06;0.008348030407656458
1.84625e-06;0.008428617517207292
1.84650e-06;0.008509204626758126
1.84675e-06;0.008589791736309027
1.84700e-06;0.008657330104583073
1.84725e-06;0.008714395381943501
1.84750e-06;0.00877146065930388
1.84775e-06;0.00882852593666426
1.84800e-06;0.008885591214024687
1.84825e-06;0.008942656491385067
1.84850e-06;0.008999721768745495
1.84875e-06;0.009056787046105874
1.84900e-06;0.009085621651900305
1.84925e-06;0.009091797950384511
1.84950e-06;0.009097974248868717
1.84975e-06;0.009104150547352929
1.85000e-06;0.009110326845837135
1.85025e-06;0.009116503144321346
1.85050e-06;0.009122679442805552
1.85075e-06;0.009128855741289759
1.85100e-06;0.009105636190158152
1.85125e-06;0.009058823144529783
1.85150e-06;0.009012010098901374
1.85175e-06;0.008965197053273005
1.85200e-06;0.008918384007644636
1.85225e-06;0.00887157096201623
1.85250e-06;0.00882475791638786
1.85275e-06;0.008777944870759452
1.85300e-06;0.008710499803898902
1.85325e-06;0.008626495206160446
1.85350e-06;0.00854249060842206
1.85375e-06;0.008458486010683676
1.85400e-06;0.00837448141294522
1.85425e-06;0.008290476815206834
1.85450e-06;0.008206472217468378
1.85475e-06;0.008122467619729993
1.85500e-06;0.00803348857323557
1.85525e-06;0.007940516968918065
1.85550e-06;0.007847545364600639
1.85575e-06;0.007754573760283133
1.85600e-06;0.0076616021559657065
1.85625e-06;0.00756863055164828
1.85650e-06;0.007475658947330774
1.85675e-06;0.0073826873430133475
1.85700e-06;0.007303452659625875
1.85725e-06;0.00723524340916829
1.85750e-06;0.007167034158710647
1.85775e-06;0.007098824908253062
1.85800e-06;0.007030615657795477
1.85825e-06;0.006962406407337835
1.85850e-06;0.0068941971568802505
1.85875e-06;0.0068259879064226075
1.85900e-06;0.006779167894392557
1.85925e-06;0.00674951516569341
1.85950e-06;0.006719862436994237
1.85975e-06;0.006690209708295089
1.86000e-06;0.006660556979595916
1.86025e-06;0.006630904250896769
1.86050e-06;0.006601251522197621
1.86075e-06;0.006571598793498448
1.86100e-06;0.006562542282090488
1.86125e-06;0.006570016564846942
1.86150e-06;0.00657749084760339
1.86175e-06;0.006584965130359844
1.86200e-06;0.006592439413116292
1.86225e-06;0.00659991369587274
1.86250e-06;0.006607387978629194
1.86275e-06;0.006614862261385642
1.86300e-06;0.006622336544142096
1.86325e-06;0.006629810826898544
1.86350e-06;0.006650678160335617
1.86375e-06;0.006682294931929334
1.86400e-06;0.006713911703523024
1.86425e-06;0.006745528475116741
1.86450e-06;0.006777145246710431
1.86475e-06;0.006808762018304121
1.86500e-06;0.0068403787898978375
1.86525e-06;0.006871995561491527
1.86550e-06;0.006903612333085244
1.86575e-06;0.006935229104678934
1.86600e-06;0.006967546621625476
1.86625e-06;0.0070004265659840284
1.86650e-06;0.007033306510342582
1.86675e-06;0.007066186454701163
1.86700e-06;0.007099066399059716
1.86725e-06;0.007131946343418297
1.86750e-06;0.00716482628777685
1.86775e-06;0.007192562192560085
1.86800e-06;0.007216169423704499
1.86825e-06;0.007239776654848894
1.86850e-06;0.007263383885993307
1.86875e-06;0.007286991117137702
1.86900e-06;0.007310598348282096
1.86925e-06;0.00733420557942651
1.86950e-06;0.007356058501090516
1.86975e-06;0.007376503390953865
1.87000e-06;0.007396948280817197
1.87025e-06;0.0074173931706805465
1.87050e-06;0.007437838060543879
1.87075e-06;0.007458282950407211
1.87100e-06;0.007478727840270561
1.87125e-06;0.007499172730133893
1.87150e-06;0.007519617619997242
1.87175e-06;0.007540062509860574
1.87200e-06;0.007560507399723906
1.87225e-06;0.007580952289587255
1.87250e-06;0.007601397179450587
1.87275e-06;0.007621842069313938
1.87300e-06;0.00764228695917727
1.87325e-06;0.0076622431829331955
1.87350e-06;0.007681807196861387
1.87375e-06;0.007701371210789562
1.87400e-06;0.007720935224717753
1.87425e-06;0.007740499238645928
1.87450e-06;0.00776006325257412
1.87475e-06;0.007779627266502295
1.87500e-06;0.00779919128043047
1.87525e-06;0.00781875529435866
1.87550e-06;0.007838319308286837
1.87575e-06;0.007857883322215028
1.87600e-06;0.007877447336143203
1.87625e-06;0.007897011350071377
1.87650e-06;0.007916575363999569
1.87675e-06;0.007936139377927745
1.87700e-06;0.007951575088915386
1.87725e-06;0.007963697369811095
1.87750e-06;0.007975819650706806
1.87775e-06;0.007987941931602526
1.87800e-06;0.008000064212498235
1.87825e-06;0.008012186493393957
1.87850e-06;0.008024308774289666
1.87875e-06;0.008036431055185375
1.87900e-06;0.008048553336081097
1.87925e-06;0.008060675616976806
1.87950e-06;0.008072797897872526
1.87975e-06;0.008084920178768237
1.88000e-06;0.008097042459663957
1.88025e-06;0.008109164740559668
1.88050e-06;0.008121287021455377
1.88075e-06;0.008133290024766605
1.88100e-06;0.008145197294323923
1.88125e-06;0.008157104563881249
1.88150e-06;0.008169011833438567
1.88175e-06;0.008180919102995883
1.88200e-06;0.00819282637255321
1.88225e-06;0.008204733642110528
1.88250e-06;0.008216640911667855
1.88275e-06;0.008228548181225172
1.88300e-06;0.008240455450782488
1.88325e-06;0.008252362720339817
1.88350e-06;0.008264269989897134
1.88375e-06;0.00827617725945446
1.88400e-06;0.008288084529011778
1.88425e-06;0.008299991798569105
1.88450e-06;0.008311712055978944
1.88475e-06;0.008323282214986146
1.88500e-06;0.008334852373993359
1.88525e-06;0.008346422533000561
1.88550e-06;0.008357992692007774
1.88575e-06;0.008369562851014976
1.88600e-06;0.00838113301002218
1.88625e-06;0.00839270316902939
1.88650e-06;0.008404273328036595
1.88675e-06;0.008415843487043806
1.88700e-06;0.00842741364605101
1.88725e-06;0.008437497492942609
1.88750e-06;0.008446388406234028
1.88775e-06;0.008455279319525439
1.88800e-06;0.008464170232816858
1.88825e-06;0.008473061146108268
1.88850e-06;0.008481952059399687
1.88875e-06;0.008490842972691098
1.88900e-06;0.008499733885982508
1.88925e-06;0.008508624799273928
1.88950e-06;0.008517515712565338
1.88975e-06;0.008526406625856757
1.89000e-06;0.008539593596977415
1.89025e-06;0.008556228640463888
1.89050e-06;0.008572863683950374
1.89075e-06;0.008589498727436844
1.89100e-06;0.00860613377092333
1.89125e-06;0.008622768814409803
1.89150e-06;0.008639403857896273
1.89175e-06;0.00865603890138276
1.89200e-06;0.008672673944869232
1.89225e-06;0.008689308988355716
1.89250e-06;0.008705944031842189
1.89275e-06;0.008722579075328675
1.89300e-06;0.008739214118815146
1.89325e-06;0.008755849162301618
1.89350e-06;0.008772484205788104
1.89375e-06;0.008789350280500407
1.89400e-06;0.00881020505644449
1.89425e-06;0.008831059832388553
1.89450e-06;0.008851914608332618
1.89475e-06;0.0088727693842767
1.89500e-06;0.008893624160220765
1.89525e-06;0.008914478936164845
1.89550e-06;0.00893533371210891
1.89575e-06;0.008956188488052975
1.89600e-06;0.008977043263997057
1.89625e-06;0.00899789803994112
1.89650e-06;0.009018752815885203
1.89675e-06;0.009039607591829268
1.89700e-06;0.00906046236777335
1.89725e-06;0.009081317143717413
1.89750e-06;0.009102171919661478
1.89775e-06;0.009114675772815677
1.89800e-06;0.009120477065798644
1.89825e-06;0.009126278358781617
1.89850e-06;0.009132079651764586
1.89875e-06;0.009137880944747555
1.89900e-06;0.009143682237730528
1.89925e-06;0.009149483530713496
1.89950e-06;0.00915528482369647
1.89975e-06;0.009161086116679438
1.90000e-06;0.009166887409662407
1.90025e-06;0.00917268870264538
1.90050e-06;0.00916556262632945
1.90075e-06;0.009148060873844508
1.90100e-06;0.009130559121359579
1.90125e-06;0.009113057368874636
1.90150e-06;0.009095555616389708
