Time(s);Current(A)
1.50000e-06;-0.013160258370631128
1.50025e-06;-0.013097612491988276
1.50050e-06;-0.013033236474780944
1.50075e-06;-0.012965829209475425
1.50100e-06;-0.012897402304562034
1.50125e-06;-0.01282666002417756
1.50150e-06;-0.012754601174520886
1.50175e-06;-0.012681620373639693
1.50200e-06;-0.01260813163774849
1.50225e-06;-0.012534548303492437
1.50250e-06;-0.012461285318408684
1.50275e-06;-0.012388752212677021
1.50300e-06;-0.0123173484425072
1.50325e-06;-0.012247470916408426
1.50350e-06;-0.012179542189362843
1.50375e-06;-0.012114018520028738
1.50400e-06;-0.012051367432338518
1.50425e-06;-0.011992056788638156
1.50450e-06;-0.011936554367355764
1.50475e-06;-0.011885224560251146
1.50500e-06;-0.011837990091709542
1.50525e-06;-0.011794229662079395
1.50550e-06;-0.011753393206886918
1.50575e-06;-0.011715450483913547
1.50600e-06;-0.011680614002541672
1.50625e-06;-0.011649098814368316
1.50650e-06;-0.011621119207503349
1.50675e-06;-0.011597425095940167
1.50700e-06;-0.011577142287248886
1.50725e-06;-0.011558916355270682
1.50750e-06;-0.01154429412518792
1.50775e-06;-0.011532820888298299
1.50800e-06;-0.011526864769992776
1.50825e-06;-0.011520908651687247
1.50850e-06;-0.011514952533381723
1.50875e-06;-0.011508996415076194
1.50900e-06;-0.011512290193418654
1.50925e-06;-0.011517047803050934
1.50950e-06;-0.011521805412683219
1.50975e-06;-0.011526563022315498
1.51000e-06;-0.011533682381542839
1.51025e-06;-0.011544939587943075
1.51050e-06;-0.01155619679434332
1.51075e-06;-0.011568963888579722
1.51100e-06;-0.011584376345867033
1.51125e-06;-0.011599788803154359
1.51150e-06;-0.011615965397924092
1.51175e-06;-0.0116334807815849
1.51200e-06;-0.011650996165245694
1.51225e-06;-0.011668864062876457
1.51250e-06;-0.011687349574219158
1.51275e-06;-0.011705835085561842
1.51300e-06;-0.011724211740590615
1.51325e-06;-0.011742397676505131
1.51350e-06;-0.011760098666001436
1.51375e-06;-0.011776950016666544
1.51400e-06;-0.01179139101045374
1.51425e-06;-0.011801608995835
1.51450e-06;-0.01181182698121625
1.51475e-06;-0.011822044966597509
1.51500e-06;-0.01183226295197876
1.51525e-06;-0.01184248093736001
1.51550e-06;-0.011852698922741269
1.51575e-06;-0.01186291690812252
1.51600e-06;-0.011873134893503778
1.51625e-06;-0.011883352878885029
1.51650e-06;-0.01189357086426628
1.51675e-06;-0.011903788849647538
1.51700e-06;-0.011906720869467435
1.51725e-06;-0.011908499857554095
1.51750e-06;-0.011910278845640753
1.51775e-06;-0.011912057833727412
1.51800e-06;-0.011913836821814074
1.51825e-06;-0.011915615809900732
1.51850e-06;-0.011917394797987393
1.51875e-06;-0.011919173786074051
1.51900e-06;-0.011920952774160712
1.51925e-06;-0.011922731762247372
1.51950e-06;-0.01192451075033403
1.51975e-06;-0.011924710405725925
1.52000e-06;-0.011922143028855208
1.52025e-06;-0.011919575651984489
1.52050e-06;-0.011917008275113772
1.52075e-06;-0.011914440898243055
1.52100e-06;-0.011911873521372336
1.52125e-06;-0.011909306144501619
1.52150e-06;-0.011906738767630898
1.52175e-06;-0.011904171390760183
1.52200e-06;-0.011901045607388836
1.52225e-06;-0.011897043596221629
1.52250e-06;-0.011893041585054425
1.52275e-06;-0.011889039573887218
1.52300e-06;-0.011885037562720014
1.52325e-06;-0.011881035551552807
1.52350e-06;-0.011877033540385603
1.52375e-06;-0.011873031529218397
1.52400e-06;-0.01186902951805119
1.52425e-06;-0.011865101587663544
1.52450e-06;-0.011861278042833457
1.52475e-06;-0.011857782325378187
1.52500e-06;-0.011854748542091377
1.52525e-06;-0.011852757968911797
1.52550e-06;-0.011852237359592586
1.52575e-06;-0.01185274623647518
1.52600e-06;-0.011855850557724784
1.52625e-06;-0.01186056801700607
1.52650e-06;-0.01186528547628736
1.52675e-06;-0.011872893525096222
1.52700e-06;-0.011884574638488347
1.52725e-06;-0.011896255751880462
1.52750e-06;-0.011907936865272587
1.52775e-06;-0.011919617978664702
1.52800e-06;-0.011931299092056816
1.52825e-06;-0.011946802925210708
1.52850e-06;-0.011967693266661479
1.52875e-06;-0.011988583608112268
1.52900e-06;-0.012009473949563039
1.52925e-06;-0.012030364291013809
1.52950e-06;-0.012051254632464597
1.52975e-06;-0.012074978288812722
1.53000e-06;-0.012102694305352903
1.53025e-06;-0.012130410321893062
1.53050e-06;-0.01215812633843322
1.53075e-06;-0.012185842354973404
1.53100e-06;-0.012213558371513562
1.53125e-06;-0.012241274388053745
1.53150e-06;-0.012270743679872284
1.53175e-06;-0.01230037564186905
1.53200e-06;-0.012330007603865791
1.53225e-06;-0.012359639565862533
1.53250e-06;-0.012389271527859298
1.53275e-06;-0.012418903489856038
1.53300e-06;-0.012447510317254069
1.53325e-06;-0.012474672650583588
1.53350e-06;-0.012501834983913105
1.53375e-06;-0.012525730015255167
1.53400e-06;-0.012545021164973587
1.53425e-06;-0.012564312314692024
1.53450e-06;-0.012583603464410445
1.53475e-06;-0.012602894614128864
1.53500e-06;-0.0126221857638473
1.53525e-06;-0.01264147691356572
1.53550e-06;-0.012660768063284157
1.53575e-06;-0.012680059213002578
1.53600e-06;-0.012699350362721013
1.53625e-06;-0.012718641512439434
1.53650e-06;-0.012734058332872694
1.53675e-06;-0.012749115690166925
1.53700e-06;-0.012764173047461146
1.53725e-06;-0.012779230404755378
1.53750e-06;-0.012794287762049597
1.53775e-06;-0.012809345119343818
1.53800e-06;-0.012824402476638049
1.53825e-06;-0.012839459833932268
1.53850e-06;-0.012854517191226501
1.53875e-06;-0.01286957454852072
1.53900e-06;-0.012884738676142392
1.53925e-06;-0.012900053251427124
1.53950e-06;-0.012915367826711844
1.53975e-06;-0.012930682401996576
1.54000e-06;-0.012945996977281295
1.54025e-06;-0.012961311552566015
1.54050e-06;-0.012976626127850747
1.54075e-06;-0.012991940703135467
1.54100e-06;-0.013007255278420199
1.54125e-06;-0.013022569853704919
1.54150e-06;-0.013037057708658192
1.54175e-06;-0.013050380650617097
1.54200e-06;-0.013063703592576002
1.54225e-06;-0.013077026534534917
1.54250e-06;-0.013090349476493821
1.54275e-06;-0.013103672418452736
1.54300e-06;-0.01311699536041164
1.54325e-06;-0.013130318302370545
1.54350e-06;-0.01314364124432946
1.54375e-06;-0.013156964186288365
1.54400e-06;-0.013168936232046078
1.54425e-06;-0.013179004760400246
1.54450e-06;-0.013188262611861692
1.54475e-06;-0.013196378156776899
1.54500e-06;-0.013202585885542557
1.54525e-06;-0.013206105353552032
1.54550e-06;-0.013205898877883834
1.54575e-06;-0.013200442258919158
1.54600e-06;-0.013194985639954486
1.54625e-06;-0.013185322031875711
1.54650e-06;-0.013169730450213203
1.54675e-06;-0.013154138868550706
1.54700e-06;-0.013133899844170622
1.54725e-06;-0.013107112212956957
1.54750e-06;-0.013080324581743292
1.54775e-06;-0.013047597871391503
1.54800e-06;-0.013006502538424598
1.54825e-06;-0.012965407205457656
1.54850e-06;-0.012924311872490749
1.54875e-06;-0.012883216539523843
1.54900e-06;-0.012829078180524487
1.54925e-06;-0.012773729679915084
1.54950e-06;-0.012718381179305634
1.54975e-06;-0.01266303267869623
1.55000e-06;-0.012604169891823822
1.55025e-06;-0.012540355203349882
1.55050e-06;-0.012475165611504926
1.55075e-06;-0.01240803867429431
1.55100e-06;-0.012340128121412991
1.55125e-06;-0.012270655285514397
1.55150e-06;-0.012200201381041621
1.55175e-06;-0.012129109187683666
1.55200e-06;-0.01205778887396219
1.55225e-06;-0.011986650766543833
1.55250e-06;-0.011916106193716847
1.55275e-06;-0.011846550493026867
1.55300e-06;-0.011778313194291868
1.55325e-06;-0.011711660603015107
1.55350e-06;-0.011646898474426856
1.55375e-06;-0.01158443058095729
1.55400e-06;-0.011524701708208301
1.55425e-06;-0.011468156483636763
1.55450e-06;-0.011415241239200093
1.55475e-06;-0.011366443373122948
1.55500e-06;-0.011322393988732173
1.55525e-06;-0.011283807796802882
1.55550e-06;-0.011251169119252018
1.55575e-06;-0.011224627002326926
1.55600e-06;-0.01120420000217979
1.55625e-06;-0.011189903564705481
1.55650e-06;-0.011181753364242993
1.55675e-06;-0.011179791679465088
1.55700e-06;-0.011185519388566437
1.55725e-06;-0.011196943922589245
1.55750e-06;-0.011213719426669811
1.55775e-06;-0.01123803486210916
1.55800e-06;-0.011270150608875767
1.55825e-06;-0.011313257598603852
1.55850e-06;-0.011356364588331972
1.55875e-06;-0.011399471578060056
1.55900e-06;-0.01144257856778814
1.55925e-06;-0.011505970816127939
1.55950e-06;-0.01157124514577701
1.55975e-06;-0.011636519475426137
1.56000e-06;-0.011701793805075208
1.56025e-06;-0.011772634713994347
1.56050e-06;-0.01185131936435595
1.56075e-06;-0.011930004014717489
1.56100e-06;-0.01201139762226233
1.56125e-06;-0.012096608360345058
1.56150e-06;-0.012181819098427785
1.56175e-06;-0.012268047982771872
1.56200e-06;-0.012355711514075277
1.56225e-06;-0.012443375045378758
1.56250e-06;-0.01253043859073196
1.56275e-06;-0.012616656709399635
1.56300e-06;-0.012701420673974647
1.56325e-06;-0.012784135622777833
1.56350e-06;-0.012864518667424099
1.56375e-06;-0.012941615878457205
1.56400e-06;-0.013009447947660957
1.56425e-06;-0.013064224714243493
1.56450e-06;-0.01311900148082603
1.56475e-06;-0.013173778247408613
1.56500e-06;-0.01322855501399115
1.56525e-06;-0.013283331780573733
1.56550e-06;-0.01333810854715627
1.56575e-06;-0.013392885313738806
1.56600e-06;-0.01344766208032139
1.56625e-06;-0.013502438846903927
1.56650e-06;-0.013536315747934248
1.56675e-06;-0.01356825354396856
1.56700e-06;-0.013600191340002898
1.56725e-06;-0.01363212913603721
1.56750e-06;-0.013664066932071523
1.56775e-06;-0.013696004728105863
1.56800e-06;-0.013727942524140176
1.56825e-06;-0.013759880320174516
1.56850e-06;-0.013791818116208828
1.56875e-06;-0.013818036875790586
1.56900e-06;-0.013836197069949156
1.56925e-06;-0.013854357264107709
1.56950e-06;-0.013872517458266278
1.56975e-06;-0.013890677652424832
1.57000e-06;-0.013908837846583385
1.57025e-06;-0.013926998040741954
1.57050e-06;-0.013945158234900508
1.57075e-06;-0.013963318429059075
1.57100e-06;-0.013981478623217629
1.57125e-06;-0.013999638817376198
1.57150e-06;-0.014017799011534752
1.57175e-06;-0.014035959205693305
1.57200e-06;-0.014045822983050092
1.57225e-06;-0.014054917012715086
1.57250e-06;-0.014064011042380089
1.57275e-06;-0.01407310507204508
1.57300e-06;-0.014082199101710074
1.57325e-06;-0.014091293131375077
1.57350e-06;-0.014100387161040069
1.57375e-06;-0.014109481190705072
1.57400e-06;-0.014118575220370065
1.57425e-06;-0.014127669250035058
1.57450e-06;-0.01413676327970006
1.57475e-06;-0.014145857309365054
1.57500e-06;-0.01415100052138368
1.57525e-06;-0.014150576725263535
1.57550e-06;-0.014150152929143392
1.57575e-06;-0.014149729133023247
1.57600e-06;-0.014149305336903104
1.57625e-06;-0.014148881540782959
1.57650e-06;-0.014148457744662814
1.57675e-06;-0.01414803394854267
1.57700e-06;-0.014147610152422526
1.57725e-06;-0.014147186356302383
1.57750e-06;-0.014146762560182238
1.57775e-06;-0.014136890393980042
1.57800e-06;-0.014126141601008151
1.57825e-06;-0.014115392808036267
1.57850e-06;-0.014104644015064385
1.57875e-06;-0.014093895222092492
1.57900e-06;-0.01408314642912061
1.57925e-06;-0.014072397636148717
1.57950e-06;-0.014061648843176833
1.57975e-06;-0.014050900050204951
1.58000e-06;-0.014040151257233058
1.58025e-06;-0.014027021003090738
1.58050e-06;-0.014010535085664435
1.58075e-06;-0.013994049168238144
1.58100e-06;-0.01397756325081184
1.58125e-06;-0.013961077333385549
1.58150e-06;-0.01394459141595926
1.58175e-06;-0.013928105498532954
1.58200e-06;-0.013911619581106665
1.58225e-06;-0.013895133663680361
1.58250e-06;-0.01387864774625407
1.58275e-06;-0.01386216182882778
1.58300e-06;-0.013847828695337905
1.58325e-06;-0.013833695298735092
1.58350e-06;-0.013819561902132267
1.58375e-06;-0.013805428505529455
1.58400e-06;-0.013791295108926642
1.58425e-06;-0.013777161712323818
1.58450e-06;-0.013763028315721003
1.58475e-06;-0.013748894919118178
1.58500e-06;-0.013734761522515366
1.58525e-06;-0.013720628125912541
1.58550e-06;-0.01370859811389754
1.58575e-06;-0.013699531933718546
1.58600e-06;-0.013690465753539544
1.58625e-06;-0.01368139957336055
1.58650e-06;-0.013672333393181548
1.58675e-06;-0.013663267213002555
1.58700e-06;-0.013654201032823561
1.58725e-06;-0.01364513485264456
1.58750e-06;-0.013636068672465567
1.58775e-06;-0.013627002492286565
1.58800e-06;-0.013617936312107571
1.58825e-06;-0.013608870131928578
1.58850e-06;-0.013599803951749577
1.58875e-06;-0.013590737771570584
1.58900e-06;-0.013581671591391582
1.58925e-06;-0.013572605411212588
1.58950e-06;-0.013563539231033588
1.58975e-06;-0.013554473050854594
1.59000e-06;-0.0135454068706756
1.59025e-06;-0.013537408042062618
1.59050e-06;-0.01353091319449516
1.59075e-06;-0.013524418346927696
1.59100e-06;-0.01351792349936024
1.59125e-06;-0.013511428651792782
1.59150e-06;-0.013504933804225318
1.59175e-06;-0.01349843895665786
1.59200e-06;-0.013491944109090397
1.59225e-06;-0.013485449261522939
1.59250e-06;-0.01347895441395548
1.59275e-06;-0.013472459566388017
1.59300e-06;-0.013465964718820559
1.59325e-06;-0.013459469871253096
1.59350e-06;-0.01345297502368564
1.59375e-06;-0.013446480176118174
1.59400e-06;-0.013439985328550718
1.59425e-06;-0.01343349048098326
1.59450e-06;-0.013426995633415796
1.59475e-06;-0.013420500785848338
1.59500e-06;-0.013413298669845525
1.59525e-06;-0.013405099957824412
1.59550e-06;-0.0133969012458033
1.59575e-06;-0.01338870253378218
1.59600e-06;-0.013380503821761069
1.59625e-06;-0.013372305109739949
1.59650e-06;-0.013364106397718836
1.59675e-06;-0.013355907685697724
1.59700e-06;-0.013347708973676604
1.59725e-06;-0.013339510261655493
1.59750e-06;-0.01332860233472488
1.59775e-06;-0.013313876914100862
1.59800e-06;-0.013299151493476833
1.59825e-06;-0.013284426072852814
1.59850e-06;-0.013269700652228796
1.59875e-06;-0.013254975231604767
1.59900e-06;-0.013240249810980749
1.59925e-06;-0.013225524390356718
1.59950e-06;-0.013210798969732701
1.59975e-06;-0.013196073549108683
1.60000e-06;-0.013179600883045687
1.60025e-06;-0.013160666212798157
1.60050e-06;-0.013141731542550612
1.60075e-06;-0.013122796872303085
1.60100e-06;-0.013103862202055555
1.60125e-06;-0.01308492753180801
1.60150e-06;-0.013065992861560481
1.60175e-06;-0.013047058191312936
1.60200e-06;-0.013028123521065409
1.60225e-06;-0.013009188850817864
1.60250e-06;-0.012991945314044804
1.60275e-06;-0.012974858681887176
1.60300e-06;-0.012957772049729532
1.60325e-06;-0.012940685417571905
1.60350e-06;-0.012923598785414263
1.60375e-06;-0.012906512153256635
1.60400e-06;-0.012889425521099007
1.60425e-06;-0.012872338888941365
1.60450e-06;-0.012855252256783738
1.60475e-06;-0.012839655434422203
1.60500e-06;-0.01282615786948056
1.60525e-06;-0.012812660304538915
1.60550e-06;-0.012799162739597258
1.60575e-06;-0.012785665174655615
1.60600e-06;-0.012772167609713957
1.60625e-06;-0.012758670044772312
1.60650e-06;-0.012745172479830657
1.60675e-06;-0.012731674914889012
1.60700e-06;-0.012718177349947367
1.60725e-06;-0.012703730013431816
1.60750e-06;-0.012687944375188855
1.60775e-06;-0.012672158736945882
1.60800e-06;-0.012656373098702923
1.60825e-06;-0.012640587460459964
1.60850e-06;-0.012624801822216989
1.60875e-06;-0.01260901618397403
1.60900e-06;-0.012593230545731056
1.60925e-06;-0.012577444907488097
1.60950e-06;-0.012561659269245136
1.60975e-06;-0.012544968050219672
1.61000e-06;-0.012527000797715414
1.61025e-06;-0.012509033545211143
1.61050e-06;-0.012491066292706885
1.61075e-06;-0.012473099040202612
1.61100e-06;-0.012455131787698356
1.61125e-06;-0.012437164535194098
1.61150e-06;-0.012419197282689826
1.61175e-06;-0.012401230030185569
1.61200e-06;-0.012383262777681297
1.61225e-06;-0.012365295525177039
1.61250e-06;-0.012349810106342696
1.61275e-06;-0.012334554953873093
1.61300e-06;-0.012319299801403503
1.61325e-06;-0.0123040446489339
1.61350e-06;-0.012288789496464309
1.61375e-06;-0.012273534343994719
1.61400e-06;-0.012258279191525116
1.61425e-06;-0.012243024039055526
1.61450e-06;-0.012227768886585923
1.61475e-06;-0.012212513734116331
1.61500e-06;-0.012198856495761874
1.61525e-06;-0.012187450842187614
1.61550e-06;-0.012176045188613363
1.61575e-06;-0.012164639535039103
1.61600e-06;-0.012153233881464854
1.61625e-06;-0.012141828227890594
1.61650e-06;-0.012130422574316345
1.61675e-06;-0.012119016920742093
1.61700e-06;-0.012107611267167834
1.61725e-06;-0.012096205613593584
1.61750e-06;-0.012084799960019325
1.61775e-06;-0.012073230884779835
1.61800e-06;-0.012061431535753588
1.61825e-06;-0.012049632186727333
1.61850e-06;-0.012037832837701086
1.61875e-06;-0.01202603348867483
1.61900e-06;-0.012014234139648583
1.61925e-06;-0.012002434790622336
1.61950e-06;-0.01199063544159608
1.61975e-06;-0.011978836092569833
1.62000e-06;-0.011967036743543578
1.62025e-06;-0.01195523739451733
1.62050e-06;-0.011943332218540886
1.62075e-06;-0.011931277924193124
1.62100e-06;-0.011919223629845361
1.62125e-06;-0.011907169335497588
1.62150e-06;-0.011895115041149826
1.62175e-06;-0.011883060746802053
1.62200e-06;-0.011871006452454291
1.62225e-06;-0.011858952158106529
1.62250e-06;-0.011848097263835313
1.62275e-06;-0.011837353650790892
1.62300e-06;-0.011826610037746462
1.62325e-06;-0.01181586642470204
1.62350e-06;-0.011805122811657619
1.62375e-06;-0.011794379198613187
1.62400e-06;-0.011783635585568766
1.62425e-06;-0.011773621800795017
1.62450e-06;-0.011764636400595127
1.62475e-06;-0.011756544020720785
1.62500e-06;-0.011749709975668257
1.62525e-06;-0.011745458730959904
1.62550e-06;-0.011744846852028382
1.62575e-06;-0.011747212094104275
1.62600e-06;-0.011753772330319871
1.62625e-06;-0.01176369434348398
1.62650e-06;-0.011778353360808428
1.62675e-06;-0.011793012378132888
1.62700e-06;-0.011814352002843646
1.62725e-06;-0.011845105120914358
1.62750e-06;-0.011875858238985045
1.62775e-06;-0.011906611357055731
1.62800e-06;-0.011937364475126444
1.62825e-06;-0.01196811759319713
1.62850e-06;-0.012016450153060198
1.62875e-06;-0.012066413746543173
1.62900e-06;-0.012116377340026189
1.62925e-06;-0.012166340933509165
1.62950e-06;-0.01221630452699214
1.62975e-06;-0.012272478284332288
1.63000e-06;-0.01233740264365388
1.63025e-06;-0.012402327002975524
1.63050e-06;-0.012467251362297115
1.63075e-06;-0.012532175721618704
1.63100e-06;-0.012597100080940348
1.63125e-06;-0.012662024440261939
1.63150e-06;-0.012731165208977152
1.63175e-06;-0.012800697179276364
1.63200e-06;-0.012870229149575576
1.63225e-06;-0.012939761119874845
1.63250e-06;-0.013009293090174057
1.63275e-06;-0.013078825060473328
1.63300e-06;-0.013146101909115193
1.63325e-06;-0.013210201116635732
1.63350e-06;-0.013274300324156217
1.63375e-06;-0.013335029765224469
1.63400e-06;-0.013391010944302936
1.63425e-06;-0.013446992123381355
1.63450e-06;-0.013494081097669836
1.63475e-06;-0.013528640266522701
1.63500e-06;-0.013563199435375567
1.63525e-06;-0.013597758604228462
1.63550e-06;-0.013632317773081328
1.63575e-06;-0.013666876941934223
1.63600e-06;-0.013701436110787089
1.63625e-06;-0.013735995279639954
1.63650e-06;-0.013758030901545861
1.63675e-06;-0.013762419875594059
1.63700e-06;-0.01376680884964226
1.63725e-06;-0.013771197823690457
1.63750e-06;-0.013775586797738658
1.63775e-06;-0.013779975771786855
1.63800e-06;-0.013784364745835052
1.63825e-06;-0.013788753719883253
1.63850e-06;-0.01378308047143612
1.63875e-06;-0.013763228771964632
1.63900e-06;-0.013743377072493158
1.63925e-06;-0.013723525373021687
1.63950e-06;-0.013703673673550196
1.63975e-06;-0.013683821974078724
1.64000e-06;-0.013663970274607234
1.64025e-06;-0.013644118575135762
1.64050e-06;-0.013611857090447389
1.64075e-06;-0.013578444216702394
1.64100e-06;-0.013545031342957429
1.64125e-06;-0.013511618469212434
1.64150e-06;-0.013478205595467467
1.64175e-06;-0.013444792721722472
1.64200e-06;-0.013411379847977505
1.64225e-06;-0.013376755069621542
1.64250e-06;-0.01334042262378147
1.64275e-06;-0.01330409017794143
1.64300e-06;-0.013268357589188763
1.64325e-06;-0.013233470245543668
1.64350e-06;-0.013198582901898572
1.64375e-06;-0.013166388020978319
1.64400e-06;-0.01313798702862456
1.64425e-06;-0.013109586036270778
1.64450e-06;-0.013081185043917018
1.64475e-06;-0.01305278405156326
1.64500e-06;-0.013024383059209476
1.64525e-06;-0.012995982066855719
1.64550e-06;-0.012967581074501935
1.64575e-06;-0.012937489672338655
1.64600e-06;-0.01290724143270221
1.64625e-06;-0.01287699319306579
1.64650e-06;-0.012846744953429372
1.64675e-06;-0.012816496713792926
1.64700e-06;-0.012786248474156508
1.64725e-06;-0.012756000234520061
