Time(s);Current(A)
4.00000e-06;0.01258235775585953
4.00025e-06;0.012545204862591376
4.00050e-06;0.012508051969323222
4.00075e-06;0.01247089907605494
4.00100e-06;0.012433746182786785
4.00125e-06;0.012400735159544918
4.00150e-06;0.012368879915641878
4.00175e-06;0.012337024671738946
4.00200e-06;0.012305169427836014
4.00225e-06;0.012273314183932975
4.00250e-06;0.012241458940030044
4.00275e-06;0.012212053354701938
4.00300e-06;0.012188890031810356
4.00325e-06;0.01216572670891885
4.00350e-06;0.012142563386027348
4.00375e-06;0.012119400063135765
4.00400e-06;0.01209623674024426
4.00425e-06;0.012073073417352677
4.00450e-06;0.012049910094461174
4.00475e-06;0.012026746771569669
4.00500e-06;0.012003583448678088
4.00525e-06;0.011980420125786583
4.00550e-06;0.011958531736948668
4.00575e-06;0.011936999115536542
4.00600e-06;0.01191546649412449
4.00625e-06;0.011893933872712436
4.00650e-06;0.011872401251300308
4.00675e-06;0.011850868629888255
4.00700e-06;0.011829336008476202
4.00725e-06;0.011807803387064076
4.00750e-06;0.01178627076565202
4.00775e-06;0.011764738144239967
4.00800e-06;0.011743598886366892
4.00825e-06;0.011723462004281539
4.00850e-06;0.011703325122196117
4.00875e-06;0.011683188240110763
4.00900e-06;0.01166305135802541
4.00925e-06;0.01164291447593999
4.00950e-06;0.011622777593854636
4.00975e-06;0.011602640711769283
4.01000e-06;0.011582503829683862
4.01025e-06;0.01156236694759851
4.01050e-06;0.011542230065513156
4.01075e-06;0.011522093183427734
4.01100e-06;0.01150195630134238
4.01125e-06;0.011481819419257027
4.01150e-06;0.011461682537171607
4.01175e-06;0.011441545655086253
4.01200e-06;0.011425141463336917
4.01225e-06;0.01141824897779281
4.01250e-06;0.011411356492248724
4.01275e-06;0.011404464006704614
4.01300e-06;0.011397571521160528
4.01325e-06;0.011390679035616443
4.01350e-06;0.011383786550072335
4.01375e-06;0.01137689406452825
4.01400e-06;0.011370001578984164
4.01425e-06;0.011363109093440056
4.01450e-06;0.01135621660789597
4.01475e-06;0.011349324122351885
4.01500e-06;0.011342431636807775
4.01525e-06;0.01133553915126369
4.01550e-06;0.011328646665719604
4.01575e-06;0.011321754180175496
4.01600e-06;0.011319876902953083
4.01625e-06;0.011330779466492918
4.01650e-06;0.01134168203003279
4.01675e-06;0.011352584593572626
4.01700e-06;0.011363487157112497
4.01725e-06;0.011374389720652332
4.01750e-06;0.011385292284192168
4.01775e-06;0.01139619484773204
4.01800e-06;0.011407097411271874
4.01825e-06;0.01141799997481171
4.01850e-06;0.011428902538351582
4.01875e-06;0.011439805101891416
4.01900e-06;0.011450707665431253
4.01925e-06;0.011462784062884373
4.01950e-06;0.011477851644258285
4.01975e-06;0.011492919225632196
4.02000e-06;0.01150798680700616
4.02025e-06;0.01152305438838007
4.02050e-06;0.011538121969753982
4.02075e-06;0.011553189551127944
4.02100e-06;0.011568257132501857
4.02125e-06;0.011583324713875768
4.02150e-06;0.01159839229524973
4.02175e-06;0.011613459876623643
4.02200e-06;0.011628527457997605
4.02225e-06;0.011643595039371516
4.02250e-06;0.011658120261646242
4.02275e-06;0.011671263435065226
4.02300e-06;0.011684406608484165
4.02325e-06;0.011697549781903105
4.02350e-06;0.011710692955322089
4.02375e-06;0.011723836128741028
4.02400e-06;0.011736979302159967
4.02425e-06;0.01175012247557895
4.02450e-06;0.011766450994449758
4.02475e-06;0.011790896465803587
4.02500e-06;0.0118153419371575
4.02525e-06;0.011839787408511328
4.02550e-06;0.011864232879865157
4.02575e-06;0.01188867835121907
4.02600e-06;0.011913123822572898
4.02625e-06;0.01193756929392681
4.02650e-06;0.011965950346148073
4.02675e-06;0.012004360113739503
4.02700e-06;0.012042769881331062
4.02725e-06;0.012081179648922491
4.02750e-06;0.01211958941651392
4.02775e-06;0.01215799918410548
4.02800e-06;0.01219640895169691
4.02825e-06;0.012234818719288339
4.02850e-06;0.012273228486879898
4.02875e-06;0.012311638254471327
4.02900e-06;0.012350048022062757
4.02925e-06;0.012388457789654316
4.02950e-06;0.01242787567941551
4.02975e-06;0.012467574883357648
4.03000e-06;0.012507274087299921
4.03025e-06;0.01254697329124206
4.03050e-06;0.012586672495184333
4.03075e-06;0.012626371699126473
4.03100e-06;0.012666070903068611
4.03125e-06;0.012705770107010884
4.03150e-06;0.012745469310953024
4.03175e-06;0.012785168514895162
4.03200e-06;0.012824867718837436
4.03225e-06;0.012858952199447219
4.03250e-06;0.012878729144760043
4.03275e-06;0.01289850609007293
4.03300e-06;0.012918283035385754
4.03325e-06;0.012938059980698576
4.03350e-06;0.012957836926011466
4.03375e-06;0.012977613871324288
4.03400e-06;0.01299739081663711
4.03425e-06;0.012993135924228356
4.03450e-06;0.012982175002583194
4.03475e-06;0.012971214080937996
4.03500e-06;0.012960253159292834
4.03525e-06;0.012949292237647672
4.03550e-06;0.012938331316002472
4.03575e-06;0.012927370394357311
4.03600e-06;0.012907081273287742
4.03625e-06;0.01286302187279187
4.03650e-06;0.012818962472296148
4.03675e-06;0.012774903071800426
4.03700e-06;0.012730843671304554
4.03725e-06;0.012686784270808833
4.03750e-06;0.01264272487031311
4.03775e-06;0.01259866546981724
4.03800e-06;0.012554606069321517
4.03825e-06;0.012510546668825794
4.03850e-06;0.012451356264916185
4.03875e-06;0.012387943589184113
4.03900e-06;0.012324530913451827
4.03925e-06;0.012261118237719753
4.03950e-06;0.012197705561987682
4.03975e-06;0.012134292886255395
4.04000e-06;0.012070880210523324
4.04025e-06;0.012007467534791252
4.04050e-06;0.011944054859058965
4.04075e-06;0.011882257157895546
4.04100e-06;0.011824574762914162
4.04125e-06;0.011766892367932583
4.04150e-06;0.011709209972951199
4.04175e-06;0.011651527577969814
4.04200e-06;0.011593845182988234
4.04225e-06;0.01153616278800685
4.04250e-06;0.011485366755907835
4.04275e-06;0.011452118673040032
4.04300e-06;0.011418870590172343
4.04325e-06;0.011385622507304538
4.04350e-06;0.011352374424436849
4.04375e-06;0.011319126341569157
4.04400e-06;0.011285878258701355
4.04425e-06;0.011262945576219908
4.04450e-06;0.01126629877575797
4.04475e-06;0.011269651975296044
4.04500e-06;0.011273005174834105
4.04525e-06;0.011276358374372167
4.04550e-06;0.01127971157391024
4.04575e-06;0.011283064773448303
4.04600e-06;0.011286417972986363
4.04625e-06;0.011289771172524438
4.04650e-06;0.01132027113623734
4.04675e-06;0.011358346342271671
4.04700e-06;0.011396421548306132
4.04725e-06;0.011434496754340462
4.04750e-06;0.011472571960374923
4.04775e-06;0.011510647166409255
4.04800e-06;0.011548722372443586
4.04825e-06;0.011586797578478046
4.04850e-06;0.011630039068853732
4.04875e-06;0.011686445374513126
4.04900e-06;0.01174285168017271
4.04925e-06;0.011799257985832104
4.04950e-06;0.011855664291491498
4.04975e-06;0.011912070597151084
4.05000e-06;0.011968476902810478
4.05025e-06;0.012024883208469872
4.05050e-06;0.012081289514129456
4.05075e-06;0.01213769581978885
4.05100e-06;0.012194102125448246
4.05125e-06;0.01223876371225109
4.05150e-06;0.012280147962176698
4.05175e-06;0.012321532212102445
4.05200e-06;0.012362916462028051
4.05225e-06;0.012404300711953658
4.05250e-06;0.012445684961879405
4.05275e-06;0.012487069211805011
4.05300e-06;0.012528453461730617
4.05325e-06;0.012569837711656364
4.05350e-06;0.012611221961581971
4.05375e-06;0.012641498620474083
4.05400e-06;0.012643470723417679
4.05425e-06;0.012645442826361267
4.05450e-06;0.012647414929304854
4.05475e-06;0.01264938703224845
4.05500e-06;0.012651359135192039
4.05525e-06;0.012653331238135626
4.05550e-06;0.012655303341079222
4.05575e-06;0.01265727544402281
4.05600e-06;0.012631738084661724
4.05625e-06;0.012598524272899524
4.05650e-06;0.012565310461137324
4.05675e-06;0.012532096649375013
4.05700e-06;0.012498882837612814
4.05725e-06;0.012465669025850614
4.05750e-06;0.012432455214088303
4.05775e-06;0.012399241402326103
4.05800e-06;0.012359833896960172
4.05825e-06;0.0123046435142277
4.05850e-06;0.012249453131495414
4.05875e-06;0.012194262748763129
4.05900e-06;0.012139072366030656
4.05925e-06;0.012083881983298371
4.05950e-06;0.012028691600566086
4.05975e-06;0.011973501217833613
4.06000e-06;0.011918310835101328
4.06025e-06;0.011863460096562023
4.06050e-06;0.01180947484524129
4.06075e-06;0.011755489593920558
4.06100e-06;0.011701504342599641
4.06125e-06;0.011647519091278908
4.06150e-06;0.011593533839958176
4.06175e-06;0.01153954858863726
4.06200e-06;0.011485563337316528
4.06225e-06;0.011431578085995793
4.06250e-06;0.011383081995123728
4.06275e-06;0.011348573478023026
4.06300e-06;0.011314064960922323
4.06325e-06;0.011279556443821503
4.06350e-06;0.0112450479267208
4.06375e-06;0.011210539409620097
4.06400e-06;0.011176030892519277
4.06425e-06;0.011141522375418574
4.06450e-06;0.011107013858317754
4.06475e-06;0.011072505341217051
4.06500e-06;0.011037996824116348
4.06525e-06;0.011011076747791651
4.06550e-06;0.010986274208471435
4.06575e-06;0.010961471669151221
4.06600e-06;0.010936669129830922
4.06625e-06;0.010911866590510707
4.06650e-06;0.010887064051190491
4.06675e-06;0.010862261511870192
4.06700e-06;0.010837458972549978
4.06725e-06;0.010812656433229761
4.06750e-06;0.010787853893909462
4.06775e-06;0.010764327788812672
4.06800e-06;0.010744054315521504
4.06825e-06;0.010723780842230269
4.06850e-06;0.010703507368939102
4.06875e-06;0.010683233895647867
4.06900e-06;0.0106629604223567
4.06925e-06;0.010642686949065533
4.06950e-06;0.010622413475774299
4.06975e-06;0.010602140002483131
4.07000e-06;0.010581866529191965
4.07025e-06;0.01056159305590073
4.07050e-06;0.01054555297391774
4.07075e-06;0.010530694210075381
4.07100e-06;0.010515835446232972
4.07125e-06;0.010500976682390615
4.07150e-06;0.010486117918548256
4.07175e-06;0.010471259154705847
4.07200e-06;0.01045640039086349
4.07225e-06;0.010441541627021132
4.07250e-06;0.010426682863178724
4.07275e-06;0.010411824099336366
4.07300e-06;0.01040099414600038
4.07325e-06;0.010400430477405012
4.07350e-06;0.010399866808809641
4.07375e-06;0.010399303140214271
4.07400e-06;0.0103987394716189
4.07425e-06;0.010398175803023532
4.07450e-06;0.01039761213442816
4.07475e-06;0.010397048465832791
4.07500e-06;0.010396484797237421
4.07525e-06;0.01039592112864205
4.07550e-06;0.010412590257602517
4.07575e-06;0.010430359376709848
4.07600e-06;0.010448128495817239
4.07625e-06;0.01046589761492457
4.07650e-06;0.010483666734031902
4.07675e-06;0.010501435853139292
4.07700e-06;0.010519204972246624
4.07725e-06;0.010536974091354016
4.07750e-06;0.010554743210461346
4.07775e-06;0.010579820208493228
4.07800e-06;0.0106098064728557
4.07825e-06;0.010640619555133157
4.07850e-06;0.010675174884074113
4.07875e-06;0.010709730213015186
4.07900e-06;0.010743722034374844
4.07925e-06;0.010777531145136871
4.07950e-06;0.010811340255899015
4.07975e-06;0.010845149366661042
4.08000e-06;0.01087895847742307
4.08025e-06;0.010912767588185213
4.08050e-06;0.01094657669894724
4.08075e-06;0.010980385809709269
4.08100e-06;0.01101419492047141
4.08125e-06;0.011048004031233438
4.08150e-06;0.011081813141995581
4.08175e-06;0.011104081230690198
4.08200e-06;0.01112405512419334
4.08225e-06;0.011144029017696552
4.08250e-06;0.011164002911199695
4.08275e-06;0.011183976804702839
4.08300e-06;0.01120395069820605
4.08325e-06;0.011223924591709192
4.08350e-06;0.011243898485212336
4.08375e-06;0.011263872378715546
4.08400e-06;0.01128384627221869
4.08425e-06;0.011303820165721833
4.08450e-06;0.011297601123091819
4.08475e-06;0.01128889252815802
4.08500e-06;0.011280183933224223
4.08525e-06;0.011271475338290394
4.08550e-06;0.011262766743356595
4.08575e-06;0.011254058148422766
4.08600e-06;0.011245349553488968
4.08625e-06;0.011236640958555168
4.08650e-06;0.01122793236362134
4.08675e-06;0.011219223768687543
4.08700e-06;0.011210515173753743
4.08725e-06;0.011192892283976259
4.08750e-06;0.011162610047016632
4.08775e-06;0.011132327810057003
4.08800e-06;0.011102045573097274
4.08825e-06;0.011071763336137646
4.08850e-06;0.011041481099178019
4.08875e-06;0.011011198862218288
4.08900e-06;0.010980916625258661
4.08925e-06;0.010950634388299033
4.08950e-06;0.010920352151339302
4.08975e-06;0.010890069914379675
4.09000e-06;0.010859787677419944
4.09025e-06;0.010827788029663696
4.09050e-06;0.010795625147668188
4.09075e-06;0.01076346226567257
4.09100e-06;0.010731299383677064
4.09125e-06;0.010699136501681555
4.09150e-06;0.010666973619685938
4.09175e-06;0.010634810737690431
4.09200e-06;0.010602647855694923
4.09225e-06;0.010570484973699305
4.09250e-06;0.010545998101396269
4.09275e-06;0.010532412065711736
4.09300e-06;0.010518826030027156
4.09325e-06;0.010505239994342623
4.09350e-06;0.01049165395865809
4.09375e-06;0.010478067922973512
4.09400e-06;0.010464481887288978
4.09425e-06;0.0104508958516044
4.09450e-06;0.010437309815919867
4.09475e-06;0.010423723780235334
4.09500e-06;0.010438198772648436
4.09525e-06;0.010455340873351586
4.09550e-06;0.010472482974054738
4.09575e-06;0.010489625074757947
4.09600e-06;0.010506767175461099
4.09625e-06;0.010523909276164251
4.09650e-06;0.01054105137686746
4.09675e-06;0.01055819347757061
4.09700e-06;0.010575335578273762
4.09725e-06;0.010592477678976971
4.09750e-06;0.010618894583360699
4.09775e-06;0.010658482799875506
4.09800e-06;0.010698071016390448
4.09825e-06;0.010737659232905256
4.09850e-06;0.010777247449420197
4.09875e-06;0.010816835665935007
4.09900e-06;0.010856423882449815
4.09925e-06;0.010896012098964757
4.09950e-06;0.010935600315479565
4.09975e-06;0.010975188531994372
4.10000e-06;0.011014776748509316
4.10025e-06;0.011055333423908763
4.10050e-06;0.011095982148135146
4.10075e-06;0.011136630872361665
4.10100e-06;0.011177279596588048
4.10125e-06;0.01121792832081443
4.10150e-06;0.01125857704504095
4.10175e-06;0.011299225769267333
4.10200e-06;0.011339874493493716
4.10225e-06;0.011373078341510074
4.10250e-06;0.011395709589640595
4.10275e-06;0.011418340837771193
4.10300e-06;0.011440972085901717
4.10325e-06;0.011463603334032239
4.10350e-06;0.011486234582162838
4.10375e-06;0.01150886583029336
4.10400e-06;0.011531497078423882
4.10425e-06;0.011554128326554482
4.10450e-06;0.011549685012609607
4.10475e-06;0.011542668350722238
4.10500e-06;0.011535651688834848
4.10525e-06;0.01152863502694748
4.10550e-06;0.011521618365060113
4.10575e-06;0.01151460170317272
4.10600e-06;0.011507585041285354
4.10625e-06;0.011500568379397986
4.10650e-06;0.011493551717510595
4.10675e-06;0.011486535055623227
4.10700e-06;0.011479518393735837
4.10725e-06;0.011472501731848469
4.10750e-06;0.011444038915789436
4.10775e-06;0.011413537713419603
4.10800e-06;0.011383036511049873
4.10825e-06;0.011352535308680143
4.10850e-06;0.01132203410631031
4.10875e-06;0.01129153290394058
4.10900e-06;0.011261031701570851
4.10925e-06;0.011230530499201018
4.10950e-06;0.011200029296831289
4.10975e-06;0.011169528094461558
4.11000e-06;0.011139026892091725
4.11025e-06;0.011108525689721996
4.11050e-06;0.01107701843255157
4.11075e-06;0.011045415553186179
4.11100e-06;0.011013812673820893
4.11125e-06;0.010982209794455501
4.11150e-06;0.010950606915090215
4.11175e-06;0.01091900403572493
4.11200e-06;0.010887401156359538
4.11225e-06;0.010855798276994252
4.11250e-06;0.010824195397628968
4.11275e-06;0.010806561477545072
4.11300e-06;0.010790255261026989
4.11325e-06;0.010773949044508905
4.11350e-06;0.010757642827990764
4.11375e-06;0.01074133661147268
4.11400e-06;0.010725030394954597
4.11425e-06;0.010708724178436456
4.11450e-06;0.010692417961918372
4.11475e-06;0.010676111745400289
4.11500e-06;0.010681263569617724
4.11525e-06;0.0106884549099237
4.11550e-06;0.010695646250229701
4.11575e-06;0.010702837590535676
4.11600e-06;0.010710028930841652
4.11625e-06;0.01071722027114765
4.11650e-06;0.010724411611453627
4.11675e-06;0.010731602951759603
4.11700e-06;0.010738794292065602
4.11725e-06;0.010745985632371578
4.11750e-06;0.010753176972677553
4.11775e-06;0.010760368312983553
4.11800e-06;0.01076755965328953
4.11825e-06;0.010774750993595504
4.11850e-06;0.0107944317299555
4.11875e-06;0.010815299542269705
4.11900e-06;0.010836167354583908
4.11925e-06;0.010857035166898184
4.11950e-06;0.010877902979212387
4.11975e-06;0.01089877079152666
4.12000e-06;0.010919638603840865
4.12025e-06;0.01094050641615507
4.12050e-06;0.010961374228469344
4.12075e-06;0.010982242040783548
4.12100e-06;0.011003109853097751
4.12125e-06;0.011023977665412025
4.12150e-06;0.01104484547772623
4.12175e-06;0.011065713290040434
4.12200e-06;0.011078172644861377
4.12225e-06;0.011089832803495563
4.12250e-06;0.011101492962129748
4.12275e-06;0.011113153120763974
4.12300e-06;0.01112481327939816
4.12325e-06;0.011136473438032346
4.12350e-06;0.01114813359666657
4.12375e-06;0.011159793755300755
4.12400e-06;0.011171453913934981
4.12425e-06;0.011163876632154747
4.12450e-06;0.011154470895032848
4.12475e-06;0.011145065157910916
4.12500e-06;0.011135659420789016
4.12525e-06;0.011126253683667115
4.12550e-06;0.011116847946545183
4.12575e-06;0.011107442209423285
4.12600e-06;0.011098036472301384
4.12625e-06;0.011088630735179452
4.12650e-06;0.011058569649025175
4.12675e-06;0.011026545339986054
4.12700e-06;0.010994521030946825
4.12725e-06;0.010962496721907706
4.12750e-06;0.010930472412868585
4.12775e-06;0.010898448103829356
4.12800e-06;0.010866423794790235
4.12825e-06;0.010834399485751007
4.12850e-06;0.010802375176711888
4.12875e-06;0.010770350867672767
4.12900e-06;0.010738326558633538
4.12925e-06;0.010706302249594417
4.12950e-06;0.010672236888548303
4.12975e-06;0.010635272993584919
4.13000e-06;0.010598309098621658
4.13025e-06;0.010561345203658399
4.13050e-06;0.010524381308695013
4.13075e-06;0.010487417413731754
4.13100e-06;0.010450453518768495
4.13125e-06;0.01041348962380511
4.13150e-06;0.01037652572884185
4.13175e-06;0.010339561833878592
4.13200e-06;0.010302597938915206
4.13225e-06;0.010265634043951947
4.13250e-06;0.010228670148988563
4.13275e-06;0.01021082041857252
4.13300e-06;0.010194787426532112
4.13325e-06;0.010178754434491651
4.13350e-06;0.010162721442451245
4.13375e-06;0.010146688450410838
4.13400e-06;0.010130655458370377
4.13425e-06;0.010114622466329971
4.13450e-06;0.010098589474289564
4.13475e-06;0.010094058820978245
4.13500e-06;0.01010586284155837
4.13525e-06;0.010117666862138497
4.13550e-06;0.010129470882718662
4.13575e-06;0.010141274903298787
4.13600e-06;0.010153078923878914
4.13625e-06;0.010164882944459079
4.13650e-06;0.010176686965039206
4.13675e-06;0.01018849098561937
4.13700e-06;0.010223355143992103
4.13725e-06;0.010260411092498329
4.13750e-06;0.01029746704100468
4.13775e-06;0.010334522989510904
4.13800e-06;0.01037157893801713
4.13825e-06;0.010408634886523481
4.13850e-06;0.010445690835029706
4.13875e-06;0.010482746783535932
4.13900e-06;0.010519802732042283
4.13925e-06;0.010556858680548509
4.13950e-06;0.010593914629054733
4.13975e-06;0.010632530726397195
4.14000e-06;0.010673362418590066
4.14025e-06;0.010714194110782938
4.14050e-06;0.010755025802975948
4.14075e-06;0.01079585749516882
4.14100e-06;0.01083668918736183
4.14125e-06;0.0108775208795547
4.14150e-06;0.010918352571747572
4.14175e-06;0.010959184263940581
4.14200e-06;0.011000015956133454
4.14225e-06;0.011040847648326324
4.14250e-06;0.011081679340519334
4.14275e-06;0.011098384388221215
4.14300e-06;0.011112796277841942
4.14325e-06;0.011127208167462719
4.14350e-06;0.011141620057083447
4.14375e-06;0.011156031946704175
4.14400e-06;0.011170443836324952
4.14425e-06;0.01118485572594568
4.14450e-06;0.011199267615566407
4.14475e-06;0.011213679505187184
4.14500e-06;0.011228091394807913
4.14525e-06;0.01124250328442869
4.14550e-06;0.011256915174049418
4.14575e-06;0.011271327063670147
4.14600e-06;0.011285738953290924
4.14625e-06;0.011300150842911652
4.14650e-06;0.011314562732532379
4.14675e-06;0.011328974622153156
4.14700e-06;0.011343386511773884
4.14725e-06;0.011349951251166937
4.14750e-06;0.011345372114263699
4.14775e-06;0.011340792977360478
4.14800e-06;0.011336213840457255
4.14825e-06;0.011331634703554017
4.14850e-06;0.011327055566650797
4.14875e-06;0.011322476429747574
4.14900e-06;0.011317897292844336
4.14925e-06;0.011313318155941115
4.14950e-06;0.011308739019037877
4.14975e-06;0.011304159882134655
4.15000e-06;0.011299580745231434
4.15025e-06;0.011295001608328196
4.15050e-06;0.011290422471424973
4.15075e-06;0.011285843334521753
4.15100e-06;0.011281264197618514
4.15125e-06;0.011276685060715292
4.15150e-06;0.01127210592381207
4.15175e-06;0.011267526786908833
