Time(s);Current(A)
1.20000e-05;-0.0049533333597892954
1.20003e-05;-0.004942416810490797
1.20005e-05;-0.004931500261192298
1.20008e-05;-0.004920583711893874
1.20010e-05;-0.004909667162595376
1.20013e-05;-0.004898750613296877
1.20015e-05;-0.004887878513787607
1.20018e-05;-0.004877074456185953
1.20020e-05;-0.004866270398584299
1.20023e-05;-0.004855466340982718
1.20025e-05;-0.004844662283381063
1.20028e-05;-0.004833858225779409
1.20030e-05;-0.004823054168177828
1.20033e-05;-0.004812250110576174
1.20035e-05;-0.00480144605297452
1.20038e-05;-0.004790641995372939
1.20040e-05;-0.0047798379377712846
1.20043e-05;-0.00476903388016963
1.20045e-05;-0.004747487699691601
1.20048e-05;-0.0047255983398342945
1.20050e-05;-0.004703708979976988
1.20052e-05;-0.004681819620119828
1.20055e-05;-0.004659930260262521
1.20058e-05;-0.0046380409004052135
1.20060e-05;-0.004616151540548055
1.20063e-05;-0.004594262180690748
1.20065e-05;-0.00457237282083344
1.20068e-05;-0.004550483460976133
1.20070e-05;-0.004528594101118974
1.20073e-05;-0.004504764385498595
1.20075e-05;-0.004479301267706177
1.20078e-05;-0.004453838149913932
1.20080e-05;-0.004428375032121514
1.20083e-05;-0.004402911914329096
1.20085e-05;-0.004377448796536849
1.20088e-05;-0.004351985678744431
1.20090e-05;-0.004326522560952013
1.20093e-05;-0.004301059443159768
1.20095e-05;-0.004278894519701231
1.20098e-05;-0.004261694964053111
1.20100e-05;-0.004244495408405107
1.20103e-05;-0.004227295852756986
1.20105e-05;-0.004210096297108865
1.20108e-05;-0.004192896741460861
1.20110e-05;-0.004175697185812741
1.20113e-05;-0.004158497630164621
1.20115e-05;-0.004141298074516617
1.20118e-05;-0.004129062037081128
1.20120e-05;-0.004131304040959089
1.20123e-05;-0.004133546044837035
1.20125e-05;-0.004135788048714996
1.20128e-05;-0.004138030052592957
1.20130e-05;-0.004140272056470903
1.20133e-05;-0.004142514060348864
1.20135e-05;-0.004144756064226825
1.20137e-05;-0.004146998068104771
1.20140e-05;-0.004154203433259002
1.20143e-05;-0.004175886381960946
1.20145e-05;-0.004197569330662743
1.20148e-05;-0.004219252279364687
1.20150e-05;-0.004240935228066631
1.20153e-05;-0.004262618176768576
1.20155e-05;-0.004284301125470373
1.20158e-05;-0.004305984074172317
1.20160e-05;-0.004327667022874261
1.20163e-05;-0.00435150253769885
1.20165e-05;-0.004382830518899308
1.20168e-05;-0.0044176986307332385
1.20170e-05;-0.004452566742566932
1.20173e-05;-0.004487434854400862
1.20175e-05;-0.0045223029662347924
1.20178e-05;-0.004557171078068486
1.20180e-05;-0.004592039189902416
1.20183e-05;-0.0046269073017363455
1.20185e-05;-0.004661775413570039
1.20188e-05;-0.00469664352540397
1.20190e-05;-0.0047307705886498784
1.20193e-05;-0.0047627360939814165
1.20195e-05;-0.0047947015993131704
1.20198e-05;-0.004826667104644925
1.20200e-05;-0.004858632609976463
1.20203e-05;-0.004890598115308218
1.20205e-05;-0.004922563620639973
1.20208e-05;-0.004954529125971511
1.20210e-05;-0.004986494631303266
1.20213e-05;-0.005018460136635021
1.20215e-05;-0.005045200936158441
1.20218e-05;-0.0050567018386323825
1.20220e-05;-0.005068202741106323
1.20222e-05;-0.005079703643580185
1.20225e-05;-0.005091204546054127
1.20228e-05;-0.005102705448528067
1.20230e-05;-0.00511420635100193
1.20233e-05;-0.005125707253475871
1.20235e-05;-0.005137208155949811
1.20238e-05;-0.005148709058423752
1.20240e-05;-0.005160209960897615
1.20243e-05;-0.0051656229023129205
1.20245e-05;-0.005153277925256467
1.20248e-05;-0.005140932948200097
1.20250e-05;-0.005128587971143643
1.20253e-05;-0.00511624299408719
1.20255e-05;-0.00510389801703082
1.20258e-05;-0.005091553039974367
1.20260e-05;-0.005079208062917913
1.20263e-05;-0.005066863085861544
1.20265e-05;-0.00505451810880509
1.20268e-05;-0.005042173131748637
1.20270e-05;-0.005027007028894609
1.20273e-05;-0.005003612009752357
1.20275e-05;-0.004980216990610106
1.20278e-05;-0.004956821971468014
1.20280e-05;-0.004933426952325762
1.20283e-05;-0.004910031933183511
1.20285e-05;-0.004886636914041418
1.20288e-05;-0.004863241894899167
1.20290e-05;-0.004839846875756916
1.20293e-05;-0.004816451856614823
1.20295e-05;-0.004797985157225286
1.20298e-05;-0.004781115082074746
1.20300e-05;-0.004764245006924321
1.20303e-05;-0.004747374931773781
1.20305e-05;-0.004730504856623241
1.20307e-05;-0.004713634781472815
1.20310e-05;-0.004696764706322275
1.20313e-05;-0.004679894631171735
1.20315e-05;-0.00466302455602131
1.20318e-05;-0.004651339666752153
1.20320e-05;-0.004654779399221202
1.20323e-05;-0.004658219131690251
1.20325e-05;-0.004661658864159276
1.20328e-05;-0.004665098596628324
1.20330e-05;-0.004668538329097373
1.20333e-05;-0.004671978061566399
1.20335e-05;-0.004675417794035448
1.20338e-05;-0.004678857526504496
1.20340e-05;-0.004682297258973522
1.20343e-05;-0.004685736991442571
1.20345e-05;-0.00468917672391162
1.20348e-05;-0.004692616456380645
1.20350e-05;-0.004700780165661255
1.20353e-05;-0.0047227232001221895
1.20355e-05;-0.004744666234582974
1.20358e-05;-0.004766609269043909
1.20360e-05;-0.004788552303504843
1.20363e-05;-0.004810495337965629
1.20365e-05;-0.004832438372426563
1.20368e-05;-0.004854381406887497
1.20370e-05;-0.004876324441348283
1.20373e-05;-0.004898267475809217
1.20375e-05;-0.004920210510270151
1.20378e-05;-0.004942153544730937
1.20380e-05;-0.004964096579191871
1.20383e-05;-0.004987037632195713
1.20385e-05;-0.00501288979644913
1.20388e-05;-0.005038741960702723
1.20390e-05;-0.005064594124956316
1.20392e-05;-0.005090446289209733
1.20395e-05;-0.005116298453463325
1.20398e-05;-0.005142150617716917
1.20400e-05;-0.005168002781970335
1.20403e-05;-0.005193854946223928
1.20405e-05;-0.00521970711047752
1.20408e-05;-0.005242322927840728
1.20410e-05;-0.005255498674266634
1.20413e-05;-0.005268674420692629
1.20415e-05;-0.005281850167118625
1.20418e-05;-0.00529502591354453
1.20420e-05;-0.0053082016599705255
1.20423e-05;-0.005321377406396521
1.20425e-05;-0.005334553152822427
1.20428e-05;-0.005347728899248422
1.20430e-05;-0.005360904645674417
1.20433e-05;-0.005367804239722684
1.20435e-05;-0.005356396981733627
1.20438e-05;-0.00534498972374457
1.20440e-05;-0.005333582465755591
1.20443e-05;-0.005322175207766534
1.20445e-05;-0.005310767949777477
1.20448e-05;-0.005299360691788498
1.20450e-05;-0.005287953433799441
1.20453e-05;-0.0052765461758103845
1.20455e-05;-0.005265138917821406
1.20458e-05;-0.005249071885729935
1.20460e-05;-0.005219412800754175
1.20463e-05;-0.005189753715778617
1.20465e-05;-0.005160094630802857
1.20468e-05;-0.005130435545827097
1.20470e-05;-0.005100776460851539
1.20473e-05;-0.005071117375875779
1.20475e-05;-0.00504145829090002
1.20477e-05;-0.005011799205924461
1.20480e-05;-0.004982140120948701
1.20483e-05;-0.004951841785587464
1.20485e-05;-0.004919678826565501
1.20488e-05;-0.0048875158675433196
1.20490e-05;-0.004855352908521138
1.20493e-05;-0.004823189949498957
1.20495e-05;-0.004791026990476993
1.20498e-05;-0.004758864031454812
1.20500e-05;-0.004729264819873749
1.20503e-05;-0.0047071437799894675
1.20505e-05;-0.004685022740105037
1.20508e-05;-0.004662901700220606
1.20510e-05;-0.004640780660336324
1.20513e-05;-0.004618659620451894
1.20515e-05;-0.004596538580567463
1.20518e-05;-0.004576071627719716
1.20520e-05;-0.0045604294663716795
1.20523e-05;-0.004544787305023643
1.20525e-05;-0.004529145143675713
1.20528e-05;-0.004513502982327676
1.20530e-05;-0.0044978608209796395
1.20533e-05;-0.004482218659631709
1.20535e-05;-0.004466576498283673
1.20538e-05;-0.004450934336935637
1.20540e-05;-0.004435292175587706
1.20543e-05;-0.00441965001423967
1.20545e-05;-0.004404007852891634
1.20548e-05;-0.004388365691543703
1.20550e-05;-0.004372723530195667
1.20553e-05;-0.004357079712943346
1.20555e-05;-0.004341431065598913
1.20558e-05;-0.004325782418254375
1.20560e-05;-0.004310133770909837
1.20562e-05;-0.004294485123565405
1.20565e-05;-0.004278836476220867
1.20568e-05;-0.0042631878288763286
1.20570e-05;-0.004247539181531896
1.20573e-05;-0.004231890534187359
1.20575e-05;-0.0042162418868428204
1.20578e-05;-0.004200593239498282
1.20580e-05;-0.00418494459215385
1.20583e-05;-0.0041692959448093115
1.20585e-05;-0.004153647297464774
1.20588e-05;-0.004140105437199171
1.20590e-05;-0.004132708845089672
1.20593e-05;-0.004125312252980174
1.20595e-05;-0.004117915660870726
1.20598e-05;-0.004110519068761228
1.20600e-05;-0.004103122476651729
1.20603e-05;-0.004095725884542281
1.20605e-05;-0.004088329292432783
1.20608e-05;-0.004080932700323284
1.20610e-05;-0.0040735361082138355
1.20613e-05;-0.004066139516104337
1.20615e-05;-0.004058742923994839
1.20618e-05;-0.004051346331885391
1.20620e-05;-0.004043949739775892
1.20623e-05;-0.004036553147666394
1.20625e-05;-0.004029156555556946
1.20628e-05;-0.0040217599634474474
1.20630e-05;-0.004024751273771403
1.20633e-05;-0.004031107945449663
1.20635e-05;-0.004037464617127965
1.20638e-05;-0.0040438212888062675
1.20640e-05;-0.004050177960484527
1.20643e-05;-0.00405653463216283
1.20645e-05;-0.004062891303841133
1.20647e-05;-0.0040692479755193925
1.20650e-05;-0.004075604647197695
1.20653e-05;-0.004081961318875998
1.20655e-05;-0.004088317990554258
1.20658e-05;-0.00409467466223256
1.20660e-05;-0.004101031333910862
1.20663e-05;-0.004107388005589165
1.20665e-05;-0.004113744677267425
1.20668e-05;-0.0041201013489457275
1.20670e-05;-0.004127885985593168
1.20673e-05;-0.004139835840331659
1.20675e-05;-0.004151785695070231
1.20678e-05;-0.0041637355498088035
1.20680e-05;-0.004175685404547294
1.20683e-05;-0.0041876352592858665
1.20685e-05;-0.004199585114024439
1.20688e-05;-0.0042115349687629295
1.20690e-05;-0.004223484823501502
1.20693e-05;-0.004235644632050335
1.20695e-05;-0.004247872459185506
1.20698e-05;-0.004260100286320761
1.20700e-05;-0.004272328113456015
1.20703e-05;-0.004284555940591186
1.20705e-05;-0.004296783767726441
1.20708e-05;-0.004309011594861695
1.20710e-05;-0.004321239421996866
1.20713e-05;-0.0043359478117854285
1.20715e-05;-0.0043578917323224735
1.20718e-05;-0.00437983565285937
1.20720e-05;-0.004401779573396415
1.20723e-05;-0.00442372349393346
1.20725e-05;-0.004445667414470357
1.20728e-05;-0.004467611335007402
1.20730e-05;-0.004489555255544448
1.20732e-05;-0.0045114991760813435
1.20735e-05;-0.0045334430966183885
1.20738e-05;-0.004572595707445208
1.20740e-05;-0.004617323405413388
1.20743e-05;-0.004662051103381871
1.20745e-05;-0.004706778801350354
1.20748e-05;-0.004751506499318837
1.20750e-05;-0.0047962341972870165
1.20753e-05;-0.0048409618952554995
1.20755e-05;-0.0048856895932239824
1.20758e-05;-0.004930417291192163
1.20760e-05;-0.0049793651579411674
1.20763e-05;-0.005040622796806215
1.20765e-05;-0.005101880435670846
1.20768e-05;-0.005163138074535893
1.20770e-05;-0.0052243957134009405
1.20773e-05;-0.005285653352265572
1.20775e-05;-0.005346910991130619
1.20778e-05;-0.005408168629995666
1.20780e-05;-0.005469426268860298
1.20783e-05;-0.005530401158530591
1.20785e-05;-0.005590551299633992
1.20788e-05;-0.005650701440736984
1.20790e-05;-0.005710851581840384
1.20793e-05;-0.005771001722943784
1.20795e-05;-0.005831151864046777
1.20798e-05;-0.005891302005150177
1.20800e-05;-0.005951452146253577
1.20803e-05;-0.00601160228735657
1.20805e-05;-0.0060676827290133215
1.20808e-05;-0.00611189230118946
1.20810e-05;-0.006156101873365299
1.20813e-05;-0.006200311445541438
1.20815e-05;-0.006244521017717577
1.20817e-05;-0.0062887305898934156
1.20820e-05;-0.006332940162069554
1.20823e-05;-0.006377149734245692
1.20825e-05;-0.006421359306421532
1.20828e-05;-0.00646556887859767
1.20830e-05;-0.006509778450773809
1.20833e-05;-0.006553423769868264
1.20835e-05;-0.006596886288293184
1.20838e-05;-0.0066403488067183995
1.20840e-05;-0.006683811325143614
1.20843e-05;-0.006727273843568534
1.20845e-05;-0.0067707363619937495
1.20848e-05;-0.006814198880418964
1.20850e-05;-0.006857661398843884
1.20853e-05;-0.0069011239172690995
1.20855e-05;-0.006944586435694314
1.20858e-05;-0.006989024165687434
1.20860e-05;-0.007036306481478087
1.20863e-05;-0.007083588797268741
1.20865e-05;-0.007130871113059073
1.20868e-05;-0.007178153428849726
1.20870e-05;-0.007225435744640379
1.20873e-05;-0.007272718060430713
1.20875e-05;-0.007320000376221366
1.20878e-05;-0.007367282692012019
1.20880e-05;-0.007414565007802351
1.20883e-05;-0.00745878495020114
1.20885e-05;-0.007502012777671693
1.20888e-05;-0.007545240605141954
1.20890e-05;-0.007588468432612508
1.20893e-05;-0.007631696260083061
1.20895e-05;-0.007674924087553322
1.20898e-05;-0.007718151915023876
1.20900e-05;-0.007761379742494429
1.20902e-05;-0.00780460756996469
1.20905e-05;-0.007845631770369989
1.20908e-05;-0.007880228230930946
1.20910e-05;-0.007914824691491669
1.20913e-05;-0.007944938982890632
1.20915e-05;-0.00796197927562308
1.20918e-05;-0.007979019568355526
1.20920e-05;-0.007996059861087857
1.20923e-05;-0.008013100153820302
1.20925e-05;-0.00803014044655275
1.20928e-05;-0.00804718073928508
1.20930e-05;-0.008064221032017527
1.20933e-05;-0.00807365479680158
1.20935e-05;-0.00806090114904954
1.20938e-05;-0.008048147501297412
1.20940e-05;-0.008035393853545285
1.20943e-05;-0.008022640205793243
1.20945e-05;-0.008009886558041116
1.20948e-05;-0.007997132910288987
1.20950e-05;-0.007984379262536945
1.20953e-05;-0.007965187312822425
1.20955e-05;-0.007927215538377564
1.20958e-05;-0.007889243763932961
1.20960e-05;-0.0078512719894881
1.20963e-05;-0.007813300215043239
1.20965e-05;-0.007775328440598636
1.20968e-05;-0.007737356666153775
1.20970e-05;-0.007699384891708915
1.20973e-05;-0.007661413117264312
1.20975e-05;-0.007615784897555332
1.20978e-05;-0.00756767622472259
1.20980e-05;-0.007519567551890175
1.20983e-05;-0.007471458879057433
1.20985e-05;-0.007423350206224691
1.20987e-05;-0.007375241533392276
1.20990e-05;-0.007327132860559534
1.20993e-05;-0.007279024187726793
1.20995e-05;-0.007234155278997266
1.20998e-05;-0.0071987364088627265
1.21000e-05;-0.007163317538728188
1.21003e-05;-0.007127898668593648
1.21005e-05;-0.007092479798459349
1.21008e-05;-0.007057060928324809
1.21010e-05;-0.007021642058190269
1.21013e-05;-0.00698622318805597
1.21015e-05;-0.006950804317921431
1.21018e-05;-0.006922979955095371
1.21020e-05;-0.006917307941915282
1.21023e-05;-0.006911635928735154
1.21025e-05;-0.006905963915555027
1.21028e-05;-0.006900291902374937
1.21030e-05;-0.00689461988919481
1.21033e-05;-0.006888947876014682
1.21035e-05;-0.006883275862834592
1.21038e-05;-0.006877603849654465
1.21040e-05;-0.006879381528112239
1.21043e-05;-0.006902889144698253
1.21045e-05;-0.006926396761284426
1.21048e-05;-0.006949904377870599
1.21050e-05;-0.006973411994456613
1.21053e-05;-0.006996919611042786
1.21055e-05;-0.007020427227628959
1.21058e-05;-0.007043934844214973
1.21060e-05;-0.007067442460801146
1.21063e-05;-0.007095589528677048
1.21065e-05;-0.007137269370039534
1.21068e-05;-0.0071789492114023015
1.21070e-05;-0.007220629052765069
1.21072e-05;-0.007262308894127554
1.21075e-05;-0.007303988735490322
1.21078e-05;-0.00734566857685309
1.21080e-05;-0.007387348418215575
1.21083e-05;-0.007429028259578343
1.21085e-05;-0.007470839139110214
1.21088e-05;-0.007513032242691881
1.21090e-05;-0.007555225346273261
1.21093e-05;-0.007597418449854928
1.21095e-05;-0.007639611553436595
1.21098e-05;-0.007681804657017976
1.21100e-05;-0.007723997760599643
1.21103e-05;-0.00776619086418131
1.21105e-05;-0.0078083839677626915
1.21108e-05;-0.007850577071344358
1.21110e-05;-0.007887521430495432
1.21113e-05;-0.00790915577450683
1.21115e-05;-0.007930790118518376
1.21118e-05;-0.00795242446252992
1.21120e-05;-0.007974058806541319
1.21123e-05;-0.007995693150552865
1.21125e-05;-0.00801732749456441
1.21128e-05;-0.008038961838575808
1.21130e-05;-0.008060596182587353
1.21133e-05;-0.0080822305265989
1.21135e-05;-0.00809709761307822
1.21138e-05;-0.008092225347288968
1.21140e-05;-0.008087353081499717
1.21143e-05;-0.008082480815710499
1.21145e-05;-0.008077608549921247
1.21148e-05;-0.008072736284131996
1.21150e-05;-0.008067864018342778
1.21153e-05;-0.008062991752553527
1.21155e-05;-0.008058119486764275
1.21158e-05;-0.008048712639850415
1.21160e-05;-0.00802607891428009
1.21163e-05;-0.008003445188709764
1.21165e-05;-0.007980811463139593
1.21168e-05;-0.007958177737569268
1.21170e-05;-0.007935544011998943
1.21173e-05;-0.007912910286428619
1.21175e-05;-0.007890276560858446
1.21178e-05;-0.007867642835288123
1.21180e-05;-0.007843786914601351
1.21183e-05;-0.007816365984037133
1.21185e-05;-0.007788945053472731
1.21188e-05;-0.007761524122908327
1.21190e-05;-0.007734103192344109
1.21193e-05;-0.007706682261779706
1.21195e-05;-0.007679261331215302
1.21198e-05;-0.007656525799928942
1.21200e-05;-0.0076353081941134575
1.21203e-05;-0.007614090588297974
1.21205e-05;-0.007592872982482634
1.21208e-05;-0.00757165537666715
1.21210e-05;-0.007550437770851666
1.21213e-05;-0.007530685850364788
1.21215e-05;-0.007515209174152672
1.21218e-05;-0.007499732497940556
1.21220e-05;-0.007484255821728545
1.21223e-05;-0.00746877914551643
1.21225e-05;-0.007453302469304314
1.21228e-05;-0.007437825793092303
1.21230e-05;-0.007422349116880188
1.21233e-05;-0.007406872440668072
1.21235e-05;-0.007391395764456061
1.21238e-05;-0.007375919088243945
1.21240e-05;-0.007359326661410728
1.21243e-05;-0.007339479711684519
1.21245e-05;-0.007319632761958176
1.21248e-05;-0.007299785812231833
1.21250e-05;-0.007279938862505624
1.21253e-05;-0.007260091912779281
1.21255e-05;-0.007240244963052938
1.21258e-05;-0.0072203980133265944
1.21260e-05;-0.007200551063600386
1.21263e-05;-0.007180704113874043
1.21265e-05;-0.007160857164147699
1.21268e-05;-0.00714038180698863
1.21270e-05;-0.007118073453873099
1.21273e-05;-0.0070957651007575685
1.21275e-05;-0.007073456747642189
1.21278e-05;-0.007051148394526659
1.21280e-05;-0.007028840041411128
1.21283e-05;-0.007006531688295748
1.21285e-05;-0.006984223335180218
1.21288e-05;-0.006961914982064687
1.21290e-05;-0.006943367797944149
1.21293e-05;-0.0069260391170677255
1.21295e-05;-0.006908710436191302
1.21298e-05;-0.0068913817553149966
1.21300e-05;-0.006874053074438573
1.21303e-05;-0.00685672439356215
1.21305e-05;-0.006839395712685844
1.21308e-05;-0.006822067031809421
1.21310e-05;-0.0068095561585010045
1.21313e-05;-0.006811098304508216
1.21315e-05;-0.006812640450515439
1.21318e-05;-0.006814182596522662
1.21320e-05;-0.006815724742529874
1.21323e-05;-0.006817266888537097
1.21325e-05;-0.00681880903454432
1.21328e-05;-0.006820351180551532
1.21330e-05;-0.006846629424621267
1.21333e-05;-0.0068809214047885585
1.21335e-05;-0.0069152133849556185
1.21338e-05;-0.00694950536512291
1.21340e-05;-0.006983797345290202
1.21343e-05;-0.007018089325457494
1.21345e-05;-0.007052381305624553
1.21348e-05;-0.00709406624915477
1.21350e-05;-0.007157315660646017
1.21353e-05;-0.007220565072136836
1.21355e-05;-0.007283814483628083
1.21358e-05;-0.007347063895119331
1.21360e-05;-0.0074103133066101496
1.21363e-05;-0.0074735627181013965
1.21365e-05;-0.007549976808328447
1.21368e-05;-0.007630655850162878
1.21370e-05;-0.007711334891997856
1.21373e-05;-0.0077920139338328335
1.21375e-05;-0.007872692975667265
1.21378e-05;-0.007953372017502243
1.21380e-05;-0.008035278956889406
1.21383e-05;-0.008120767539539647
1.21385e-05;-0.008206256122190466
1.21388e-05;-0.008291214158770786
1.21390e-05;-0.008374624650316215
1.21393e-05;-0.00845803514186221
1.21395e-05;-0.008540016154930864
1.21398e-05;-0.008617827535157744
1.21400e-05;-0.008695638915385152
1.21403e-05;-0.008766456312992105
1.21405e-05;-0.00881687302595137
1.21408e-05;-0.008867289738910978
1.21410e-05;-0.008917706451870585
1.21413e-05;-0.008968123164829851
1.21415e-05;-0.009018539877789458
1.21418e-05;-0.009068956590749066
1.21420e-05;-0.009119373303708331
1.21423e-05;-0.009169790016667938
1.21425e-05;-0.009220206729627546
1.21427e-05;-0.009270623442586813
1.21430e-05;-0.00932104015554642
1.21433e-05;-0.009371456868506028
1.21435e-05;-0.009421873581465635
1.21438e-05;-0.0094722902944249
1.21440e-05;-0.009515683430217225
1.21443e-05;-0.009538589557292578
1.21445e-05;-0.009561495684367777
1.21448e-05;-0.009584401811443133
1.21450e-05;-0.009607307938518486
1.21453e-05;-0.009630214065593687
1.21455e-05;-0.00965312019266904
1.21458e-05;-0.009676026319744395
1.21460e-05;-0.009698932446819594
1.21463e-05;-0.009721838573894947
1.21465e-05;-0.009744744700970302
