Time(s);Current(A)
8.05000e-06;0.0006071132953577339
8.05025e-06;0.0006217707007776261
8.05050e-06;0.0006364281061976177
8.05075e-06;0.0006510855116176092
8.05100e-06;0.0006657429170375015
8.05125e-06;0.0006804003224574931
8.05150e-06;0.0006939031385043891
8.05175e-06;0.0007035881540430965
8.05200e-06;0.0007132731695817382
8.05225e-06;0.0007229581851204457
8.05250e-06;0.000732643200659153
8.05275e-06;0.0007423282161977948
8.05300e-06;0.0007520132317365021
8.05325e-06;0.0007616982472752095
8.05350e-06;0.0007713832628138512
8.05375e-06;0.0007810682783525587
8.05400e-06;0.0007894747564062542
8.05425e-06;0.0007936535833362274
8.05450e-06;0.0007978324102662287
8.05475e-06;0.00080201123719623
8.05500e-06;0.0008061900641262032
8.05525e-06;0.0008103688910562045
8.05550e-06;0.0008145477179862059
8.05575e-06;0.000818726544916179
8.05600e-06;0.0008229053718461803
8.05625e-06;0.0008270841987761818
8.05650e-06;0.000830397763159702
8.05675e-06;0.000830850223961822
8.05700e-06;0.000831302684763942
8.05725e-06;0.0008317551455660589
8.05750e-06;0.0008322076063681788
8.05775e-06;0.0008326600671702989
8.05800e-06;0.0008331125279724158
8.05825e-06;0.0008335649887745357
8.05850e-06;0.0008340174495766557
8.05875e-06;0.0008344699103787726
8.05900e-06;0.0008349223711808925
8.05925e-06;0.0008353748319830126
8.05950e-06;0.0008347152570538897
8.05975e-06;0.0008336489585059182
8.06000e-06;0.0008325826599579467
8.06025e-06;0.0008315163614099752
8.06050e-06;0.000830450062862011
8.06075e-06;0.0008293837643140395
8.06100e-06;0.000828317465766068
8.06125e-06;0.0008272511672181038
8.06150e-06;0.0008261848686701323
8.06175e-06;0.0008251185701221609
8.06200e-06;0.0008240522715741966
8.06225e-06;0.0008224029006934932
8.06250e-06;0.000818825525016437
8.06275e-06;0.0008152481493394053
8.06300e-06;0.0008116707736623493
8.06325e-06;0.0008080933979852932
8.06350e-06;0.0008045160223082614
8.06375e-06;0.0008009386466312053
8.06400e-06;0.0007973612709541493
8.06425e-06;0.0007937838952771176
8.06450e-06;0.0007902065196000615
8.06475e-06;0.0007866291439230055
8.06500e-06;0.0007830517682459737
8.06525e-06;0.0007794743925689176
8.06550e-06;0.0007743094981046971
8.06575e-06;0.0007638952654974099
8.06600e-06;0.0007534810328900521
8.06625e-06;0.0007430668002826943
8.06650e-06;0.0007326525676754071
8.06675e-06;0.0007222383350680493
8.06700e-06;0.0007118241024606916
8.06725e-06;0.0007014098698534044
8.06750e-06;0.0006909956372460466
8.06775e-06;0.0006805814046386889
8.06800e-06;0.0006701671720314017
8.06825e-06;0.0006597529394240439
8.06850e-06;0.0006493387068166861
8.06875e-06;0.0006383040739733501
8.06900e-06;0.0006252180067473682
8.06925e-06;0.0006121319395212976
8.06950e-06;0.0005990458722952269
8.06975e-06;0.000585959805069245
8.07000e-06;0.0005728737378431744
8.07025e-06;0.0005597876706171037
8.07050e-06;0.0005476798162579388
8.07075e-06;0.0005359297402201789
8.07100e-06;0.0005241796641824189
8.07125e-06;0.0005124295881447385
8.07150e-06;0.0005006795121069785
8.07175e-06;0.0004889294360692186
8.07200e-06;0.0004777965164696571
8.07225e-06;0.00046870430521199074
8.07250e-06;0.0004596120939543244
8.07275e-06;0.000450711734187319
8.07300e-06;0.00044244575642312723
8.07325e-06;0.00043417977865893554
8.07350e-06;0.0004259138008947998
8.07375e-06;0.0004176478231306081
8.07400e-06;0.00040938184536641636
8.07425e-06;0.0004010434295433633
8.07450e-06;0.0003924654878205058
8.07475e-06;0.0003838875460976484
8.07500e-06;0.00037530960437484904
8.07525e-06;0.0003667316626519916
8.07550e-06;0.00035815372092913415
8.07575e-06;0.0003493175910859804
8.07600e-06;0.0003396277285121949
8.07625e-06;0.0003299378659384095
8.07650e-06;0.0003202480033646897
8.07675e-06;0.0003105581407909043
8.07700e-06;0.0003008682782171188
8.07725e-06;0.0002911784156433334
8.07750e-06;0.0002813064461663709
8.07775e-06;0.0002708323164367327
8.07800e-06;0.0002603581867070946
8.07825e-06;0.00024988405697752743
8.07850e-06;0.00023940992724788928
8.07875e-06;0.00022893579751825114
8.07900e-06;0.00021846166778868398
8.07925e-06;0.00020801059546486961
8.07950e-06;0.00019763576546393924
8.07975e-06;0.0001872609354630792
8.08000e-06;0.00017688610546214882
8.08025e-06;0.00016651127546121847
8.08050e-06;0.00015688612518281826
8.08075e-06;0.0001475351679373558
8.08100e-06;0.0001381842106918933
8.08125e-06;0.00012883325344649422
8.08150e-06;0.00011969243309972625
8.08175e-06;0.00011134963257766104
8.08200e-06;0.00010346611432308828
8.08225e-06;9.61062571803053e-05
8.08250e-06;8.938567600446595e-05
8.08275e-06;8.368327554582454e-05
8.08300e-06;7.967199877999461e-05
8.08325e-06;7.785929991299066e-05
8.08350e-06;7.833665323067107e-05
8.08375e-06;8.1026955410205e-05
8.08400e-06;8.585310819721205e-05
8.08425e-06;9.273802333871874e-05
8.08450e-06;0.00010163668018129146
8.08475e-06;0.00011266900880484978
8.08500e-06;0.00012613906591666142
8.08525e-06;0.00014224723734255554
8.08550e-06;0.0001609333209558382
8.08575e-06;0.00018203154133822783
8.08600e-06;0.00020537611631336165
8.08625e-06;0.00023080126163318884
8.08650e-06;0.000258161337843532
8.08675e-06;0.0002874139798976296
8.08700e-06;0.00031863221132379295
8.08725e-06;0.00035201542284977484
8.08750e-06;0.0003874671625267627
8.08775e-06;0.00042358169794069566
8.08800e-06;0.00046188785399762876
8.08825e-06;0.0005007472791846438
8.08850e-06;0.0005414361609904312
8.08875e-06;0.0005821250427962187
8.08900e-06;0.0006232466367115485
8.08925e-06;0.0006657990497165164
8.08950e-06;0.0007083514627214844
8.08975e-06;0.0007509038757261639
8.09000e-06;0.0007934562887311318
8.09025e-06;0.0008346907599538853
8.09050e-06;0.0008754431980575963
8.09075e-06;0.0009161956361615834
8.09100e-06;0.0009569480742655705
8.09125e-06;0.000996586877550234
8.09150e-06;0.0010325433019007736
8.09175e-06;0.0010684997262513135
8.09200e-06;0.0011029307637123779
8.09225e-06;0.001132317910257331
8.09250e-06;0.001161705056802284
8.09275e-06;0.0011894247921789705
8.09300e-06;0.0012116310148174584
8.09325e-06;0.0012323664184536321
8.09350e-06;0.001248238367016087
8.09375e-06;0.0012625959756230186
8.09400e-06;0.001271946221441546
8.09425e-06;0.001279740782398686
8.09450e-06;0.0012823912682383717
8.09475e-06;0.0012834653359426297
8.09500e-06;0.0012793267712516681
8.09525e-06;0.0012733082455440082
8.09550e-06;0.0012610733832710424
8.09575e-06;0.0012488385209980769
8.09600e-06;0.001234534223876711
8.09625e-06;0.0012133870702259902
8.09650e-06;0.0011922399165752693
8.09675e-06;0.0011692630987945026
8.09700e-06;0.0011402362576706038
8.09725e-06;0.0011112094165467048
8.09750e-06;0.001080711197766715
8.09775e-06;0.0010453476766502396
8.09800e-06;0.0010099841555337643
8.09825e-06;0.000973551987769794
8.09850e-06;0.0009335862003329809
8.09875e-06;0.0008936204128961678
8.09900e-06;0.0008529888596208036
8.09925e-06;0.0008101558646707997
8.09950e-06;0.0007673228697207958
8.09975e-06;0.0007244898747710821
8.10000e-06;0.0006817345552617526
8.10025e-06;0.0006392360797390184
8.10050e-06;0.0005967376042165721
8.10075e-06;0.0005542391286938379
8.10100e-06;0.0005123932613551983
8.10125e-06;0.0004727053281880245
8.10150e-06;0.00043379685259208506
8.10175e-06;0.00039746575522952204
8.10200e-06;0.000361884826648025
8.10225e-06;0.0003293728337301274
8.10250e-06;0.00029943940335060306
8.10275e-06;0.0002722261819006671
8.10300e-06;0.00024769066776630645
8.10325e-06;0.0002257556485271388
8.10350e-06;0.0002064482585086346
8.10375e-06;0.00018985060741061365
8.10400e-06;0.0001760447792077077
8.10425e-06;0.00016511282980714154
8.10450e-06;0.00015712318598498117
8.10475e-06;0.00015206799548077028
8.10500e-06;0.0001498240072149032
8.10525e-06;0.00015024628118725776
8.10550e-06;0.00015325519422568597
8.10575e-06;0.00015880559511621768
8.10600e-06;0.00016685232692292156
8.10625e-06;0.0001773501768453641
8.10650e-06;0.00019024542387155251
8.10675e-06;0.00020543655471222207
8.10700e-06;0.00022274979042517277
8.10725e-06;0.00024199775869988724
8.10750e-06;0.00026303405146521457
8.10775e-06;0.0002859013216538177
8.10800e-06;0.0003105260871551753
8.10825e-06;0.0003357602338561658
8.10850e-06;0.0003630093790612985
8.10875e-06;0.0003907784678797166
8.10900e-06;0.0004202668181442449
8.10925e-06;0.00044975516840897294
8.10950e-06;0.0004795028272663602
8.10975e-06;0.0005101079238430951
8.11000e-06;0.0005407130204200375
8.11025e-06;0.0005713181169969798
8.11050e-06;0.0006019232135737148
8.11075e-06;0.0006309920989115398
8.11100e-06;0.0006594991197534099
8.11125e-06;0.0006880061405952799
8.11150e-06;0.0007165131614369568
8.11175e-06;0.0007438798852448452
8.11200e-06;0.0007674760680208393
8.11225e-06;0.0007910722507966736
8.11250e-06;0.0008136230476585094
8.11275e-06;0.0008327171394985977
8.11300e-06;0.0008518112313385568
8.11325e-06;0.0008699732163008095
8.11350e-06;0.0008850530681657014
8.11375e-06;0.0009001329200304911
8.11400e-06;0.000915212771895383
8.11425e-06;0.0009302926237602749
8.11450e-06;0.0009453724756250646
8.11475e-06;0.0009604523274899565
8.11500e-06;0.0009755321793548483
8.11525e-06;0.000990612031219638
8.11550e-06;0.0010024820815821797
8.11575e-06;0.001013178157000596
8.11600e-06;0.0010238742324189397
8.11625e-06;0.001034570307837356
8.11650e-06;0.001045266383255772
8.11675e-06;0.0010559624586741157
8.11700e-06;0.001066658534092532
8.11725e-06;0.0010773546095109482
8.11750e-06;0.0010873282366495698
8.11775e-06;0.0010949129942202792
8.11800e-06;0.0011024977517909889
8.11825e-06;0.001110082509361647
8.11850e-06;0.0011176672669323563
8.11875e-06;0.0011252520245030658
8.11900e-06;0.001132836782073724
8.11925e-06;0.0011404215396444335
8.11950e-06;0.001148006297215143
8.11975e-06;0.0011555910547858526
8.12000e-06;0.0011631758123565106
8.12025e-06;0.00117076056992722
8.12050e-06;0.0011783453274979295
8.12075e-06;0.0011859300850685878
8.12100e-06;0.0011928016396376001
8.12125e-06;0.0011973148953572277
8.12150e-06;0.0012018281510768247
8.12175e-06;0.0012063414067964525
8.12200e-06;0.0012108546625160801
8.12225e-06;0.0012153679182356771
8.12250e-06;0.0012198811739553047
8.12275e-06;0.0012243944296749325
8.12300e-06;0.0012289076853945295
8.12325e-06;0.0012334209411141571
8.12350e-06;0.0012379341968337847
8.12375e-06;0.001242447452553382
8.12400e-06;0.0012469607082730096
8.12425e-06;0.0012514739639926371
8.12450e-06;0.0012561239657620884
8.12475e-06;0.0012612261362006903
8.12500e-06;0.0012663283066392925
8.12525e-06;0.00127143047707786
8.12550e-06;0.001276532647516462
8.12575e-06;0.001281634817955064
8.12600e-06;0.0012867369883936314
8.12625e-06;0.0012918391588322335
8.12650e-06;0.0012969413292708357
8.12675e-06;0.001302043499709403
8.12700e-06;0.0013071456701480052
8.12725e-06;0.0013122478405866072
8.12750e-06;0.0013173500110251746
8.12775e-06;0.0013224521814637767
8.12800e-06;0.0013275543519023789
8.12825e-06;0.0013330520092201664
8.12850e-06;0.0013386943146374358
8.12875e-06;0.0013443366200547432
8.12900e-06;0.0013499789254720507
8.12925e-06;0.0013556212308893198
8.12950e-06;0.0013612635363066273
8.12975e-06;0.001366905841723935
8.13000e-06;0.001372548147141204
8.13025e-06;0.0013781904525585116
8.13050e-06;0.001383832757975819
8.13075e-06;0.0013894750633930883
8.13100e-06;0.0013951173688103958
8.13125e-06;0.0014007596742277033
8.13150e-06;0.0014064019796449726
8.13175e-06;0.001411234442987071
8.13200e-06;0.0014133890577634448
8.13225e-06;0.0014155436725398038
8.13250e-06;0.0014176982873161776
8.13275e-06;0.0014198529020925514
8.13300e-06;0.0014220075168689104
8.13325e-06;0.0014241621316452842
8.13350e-06;0.001426316746421658
8.13375e-06;0.001428471361198017
8.13400e-06;0.0014306259759743908
8.13425e-06;0.0014327805907507645
8.13450e-06;0.0014349352055271236
8.13475e-06;0.0014370898203034973
8.13500e-06;0.001439244435079871
8.13525e-06;0.0014413990498562301
8.13550e-06;0.001443553664632604
8.13575e-06;0.0014457082794089775
8.13600e-06;0.0014478628941853367
8.13625e-06;0.0014492569435095646
8.13650e-06;0.0014481360838559784
8.13675e-06;0.001447015224202392
8.13700e-06;0.0014458943645488133
8.13725e-06;0.0014447735048952269
8.13750e-06;0.0014436526452416406
8.13775e-06;0.001442531785588062
8.13800e-06;0.0014414109259344755
8.13825e-06;0.0014402900662808893
8.13850e-06;0.0014391692066273104
8.13875e-06;0.0014380483469737242
8.13900e-06;0.0014369274873201378
8.13925e-06;0.0014358066276665591
8.13950e-06;0.0014346857680129727
8.13975e-06;0.0014335649083593864
8.14000e-06;0.0014324440487058078
8.14025e-06;0.0014313231890522213
8.14050e-06;0.001430202329398635
8.14075e-06;0.001428957385197073
8.14100e-06;0.0014273021392352822
8.14125e-06;0.0014256468932734914
8.14150e-06;0.001423991647311712
8.14175e-06;0.0014223364013499214
8.14200e-06;0.0014206811553881306
8.14225e-06;0.001419025909426351
8.14250e-06;0.0014173706634645602
8.14275e-06;0.0014157154175027695
8.14300e-06;0.00141406017154099
8.14325e-06;0.0014124049255791994
8.14350e-06;0.0014101001631789695
8.14375e-06;0.0014056476898643513
8.14400e-06;0.001401195216549703
8.14425e-06;0.0013967427432350547
8.14450e-06;0.0013922902699204365
8.14475e-06;0.0013878377966057881
8.14500e-06;0.00138338532329114
8.14525e-06;0.0013789328499764916
8.14550e-06;0.0013744803766618733
8.14575e-06;0.0013700279033472252
8.14600e-06;0.0013655754300325768
8.14625e-06;0.0013602041040770597
8.14650e-06;0.0013517944718845786
8.14675e-06;0.0013433848396920975
8.14700e-06;0.0013349752074996734
8.14725e-06;0.0013265655753071923
8.14750e-06;0.0013181559431147112
8.14775e-06;0.001309746310922287
8.14800e-06;0.0013013366787298058
8.14825e-06;0.0012929270465373247
8.14850e-06;0.0012845174143449006
8.14875e-06;0.0012761077821524195
8.14900e-06;0.0012670086694851561
8.14925e-06;0.0012576573814724141
8.14950e-06;0.0012483060934596088
8.14975e-06;0.0012389548054468032
8.15000e-06;0.0012296035174340612
8.15025e-06;0.0012202522294212557
8.15050e-06;0.0012109009414084503
8.15075e-06;0.0012015496533957083
8.15100e-06;0.0011921983653829028
8.15125e-06;0.0011828470773700974
8.15150e-06;0.0011739976472501812
8.15175e-06;0.0011668076757837041
8.15200e-06;0.0011596177043172269
8.15225e-06;0.0011524277328507986
8.15250e-06;0.0011452377613843214
8.15275e-06;0.0011380477899178443
8.15300e-06;0.0011308578184514159
8.15325e-06;0.0011226771695092433
8.15350e-06;0.0011141341833523946
8.15375e-06;0.0011055911971955459
8.15400e-06;0.001097048211038755
8.15425e-06;0.001088505224881906
8.15450e-06;0.0010799622387250574
8.15475e-06;0.0010702997916227433
8.15500e-06;0.0010569357007280838
8.15525e-06;0.0010435716098334245
8.15550e-06;0.0010302075189388556
8.15575e-06;0.0010168434280441964
8.15600e-06;0.001003479337149537
8.15625e-06;0.0009901152462549682
8.15650e-06;0.000976751155360309
8.15675e-06;0.0009633870644656494
8.15700e-06;0.0009489511657244403
8.15725e-06;0.0009309711943843072
8.15750e-06;0.0009129912230441742
8.15775e-06;0.000895011251704163
8.15800e-06;0.0008770312803640299
8.15825e-06;0.0008590513090238967
8.15850e-06;0.0008410713376838855
8.15875e-06;0.0008230913663437524
8.15900e-06;0.0008051113950036193
8.15925e-06;0.0007869698016712814
8.15950e-06;0.0007682937841169479
8.15975e-06;0.0007496177665626143
8.16000e-06;0.0007309417490084073
8.16025e-06;0.0007122657314540736
8.16050e-06;0.0006935897138997401
8.16075e-06;0.0006749136963455331
8.16100e-06;0.0006586682776846998
8.16125e-06;0.0006433118430322613
8.16150e-06;0.0006279554083799268
8.16175e-06;0.0006125989737274883
8.16200e-06;0.0005972425390750498
8.16225e-06;0.0005818861044226112
8.16250e-06;0.0005675104911111527
8.16275e-06;0.0005563780916371926
8.16300e-06;0.0005452456921632324
8.16325e-06;0.0005341132926893476
8.16350e-06;0.0005229808932153874
8.16375e-06;0.0005118484937414273
8.16400e-06;0.0005010776358015098
8.16425e-06;0.0004915022621531544
8.16450e-06;0.000481926888504799
8.16475e-06;0.0004723515148565085
8.16500e-06;0.0004627761412081531
8.16525e-06;0.0004532007675597977
8.16550e-06;0.00044375338568218066
8.16575e-06;0.00043472922530724434
8.16600e-06;0.00042570506493230803
8.16625e-06;0.00041668090455743287
8.16650e-06;0.00040765674418249655
8.16675e-06;0.0003986325838075603
8.16700e-06;0.00038960842343268513
8.16725e-06;0.0003805842630577488
8.16750e-06;0.0003715601026828125
8.16775e-06;0.00036253594230793734
8.16800e-06;0.00035396876781313433
8.16825e-06;0.000345568734487001
8.16850e-06;0.0003371687011609246
8.16875e-06;0.00032876866783479133
8.16900e-06;0.00032036863450865804
8.16925e-06;0.00031196860118258167
8.16950e-06;0.0003035685678564483
8.16975e-06;0.00029516853453031503
8.17000e-06;0.00028676850120423866
8.17025e-06;0.0002786117340113838
8.17050e-06;0.00027125935805380117
8.17075e-06;0.0002639069820962185
8.17100e-06;0.0002565546061386856
8.17125e-06;0.0002498599793082093
8.17150e-06;0.00024340592218150418
8.17175e-06;0.00023695186505484278
8.17200e-06;0.00023067558976713444
8.17225e-06;0.00022508763984347487
8.17250e-06;0.00021999576136671234
8.17275e-06;0.00021576915363094953
8.17300e-06;0.00021307943722166732
8.17325e-06;0.00021243556601860606
8.17350e-06;0.0002139270285968637
8.17375e-06;0.00021747267906210122
8.17400e-06;0.00022299139152293418
8.17425e-06;0.00023040200553321174
8.17450e-06;0.00023965603488036732
8.17475e-06;0.0002508731709235017
8.17500e-06;0.0002643625570811245
8.17525e-06;0.0002803313637458856
8.17550e-06;0.0002987240050339434
8.17575e-06;0.000319378068055784
8.17600e-06;0.00034213108847176477
8.17625e-06;0.0003670223269220232
8.17650e-06;0.0003939717026734515
8.17675e-06;0.0004217658376980381
8.17700e-06;0.00045235327956784225
8.17725e-06;0.00048374853182715365
8.17750e-06;0.0005178149146227259
8.17775e-06;0.0005526147291016083
8.17800e-06;0.0005898397312140963
8.17825e-06;0.0006270647333265842
8.17850e-06;0.0006649556781078849
8.17875e-06;0.0007050486492837939
8.17900e-06;0.000745141620459703
8.17925e-06;0.000785234591635612
8.17950e-06;0.0008253275628112494
8.17975e-06;0.0008653431153473484
8.18000e-06;0.0009051026730415451
8.18025e-06;0.0009448622307354724
8.18050e-06;0.000984621788429669
8.18075e-06;0.0010243813461238657
8.18100e-06;0.0010635544522149367
8.18125e-06;0.0011001047311036667
8.18150e-06;0.0011343944372916104
8.18175e-06;0.0011686841434793217
8.18200e-06;0.0012015174024954175
8.18225e-06;0.0012295347287535404
8.18250e-06;0.0012575520550114733
8.18275e-06;0.0012836107851944543
8.18300e-06;0.0013031931616993922
8.18325e-06;0.0013227755382041971
8.18350e-06;0.0013401892827292943
8.18375e-06;0.0013504321624304748
8.18400e-06;0.001360675042131586
8.18425e-06;0.0013686644645415718
8.18450e-06;0.001369202536159057
8.18475e-06;0.0013697406077765387
8.18500e-06;0.001368023104623733
8.18525e-06;0.0013588472489572925
8.18550e-06;0.0013496713932909141
8.18575e-06;0.0013384190204903243
8.18600e-06;0.0013203003726318238
8.18625e-06;0.001302181724773446
8.18650e-06;0.001282202497595416
8.18675e-06;0.0012560710219406749
8.18700e-06;0.0012299395462861107
8.18725e-06;0.0012022516874570907
8.18750e-06;0.0011694174444277347
8.18775e-06;0.0011365832013983787
8.18800e-06;0.0011023113558604244
8.18825e-06;0.0010632858899026038
8.18850e-06;0.0010242604239447835
8.18875e-06;0.0009852349579872275
8.18900e-06;0.0009462094920294071
8.18925e-06;0.0009064575937829747
8.18950e-06;0.0008643036523158559
8.18975e-06;0.0008221497108484516
8.19000e-06;0.0007799957693810472
8.19025e-06;0.0007378418279139284
8.19050e-06;0.0006960727026796472
8.19075e-06;0.000655576022570196
8.19100e-06;0.0006150793424610191
8.19125e-06;0.0005753213314166248
8.19150e-06;0.0005380058260926932
8.19175e-06;0.0005015817096345247
8.19200e-06;0.0004681050868593277
8.19225e-06;0.00043545882900435106
8.19250e-06;0.00040618795639683593
8.19275e-06;0.0003796551032680198
8.19300e-06;0.0003559526816760171
8.19325e-06;0.0003351081357484618
8.19350e-06;0.0003171647878892127
8.19375e-06;0.0003021841053883402
8.19400e-06;0.0002902275622937459
8.19425e-06;0.00028135663472528754
8.19450e-06;0.0002756263455384907
8.19475e-06;0.00027305287469271965
8.19500e-06;0.00027358090146496376
8.19525e-06;0.00027711444450231355
8.19550e-06;0.0002835674404731957
8.19575e-06;0.0002928652401247165
8.19600e-06;0.00030493312509403183
8.19625e-06;0.0003196964305399625
8.19650e-06;0.0003370764530040086
