Time(s);Current(A)
5.55000e-06;-0.0008995682194736313
5.55025e-06;-0.0009627858977478604
5.55050e-06;-0.001021234109336497
5.55075e-06;-0.0010742797826959445
5.55100e-06;-0.0011211494579176872
5.55125e-06;-0.0011612243611832807
5.55150e-06;-0.0011942768793787395
5.55175e-06;-0.0012202636386691986
5.55200e-06;-0.0012391430787846121
5.55225e-06;-0.001250873645590191
5.55250e-06;-0.0012554125852559251
5.55275e-06;-0.001252661992414834
5.55300e-06;-0.001242436062159601
5.55325e-06;-0.0012246456563580464
5.55350e-06;-0.001199446980813132
5.55375e-06;-0.0011671115436628612
5.55400e-06;-0.0011279118793104906
5.55425e-06;-0.0010821207457878412
5.55450e-06;-0.0010300098936002105
5.55475e-06;-0.0009718165078138109
5.55500e-06;-0.0009077229626487381
5.55525e-06;-0.0008379720153724009
5.55550e-06;-0.000762960091771504
5.55575e-06;-0.0006831557849887137
5.55600e-06;-0.0005990284770000783
5.55625e-06;-0.0005110473828283118
5.55650e-06;-0.0004196812694892948
5.55675e-06;-0.000325377201985937
5.55700e-06;-0.00022854775362209646
5.55725e-06;-0.00012964345901779635
5.55750e-06;-2.9210983311936446e-05
5.55775e-06;7.215474339802218e-05
5.55800e-06;0.00017375743788335872
5.55825e-06;0.00027531683720120523
5.55850e-06;0.0003752767077687505
5.55875e-06;0.00047513301316503507
5.55900e-06;0.0005711624696373848
5.55925e-06;0.0006670747481089536
5.55950e-06;0.0007585558087575744
5.55975e-06;0.0008461725335652968
5.56000e-06;0.0009292560536996142
5.56025e-06;0.0010071373410425063
5.56050e-06;0.0010791495172727983
5.56075e-06;0.0011446970498787512
5.56100e-06;0.0012034336116749772
5.56125e-06;0.0012552544784014004
5.56150e-06;0.0013000683051763548
5.56175e-06;0.001337733628978882
5.56200e-06;0.001368108300565785
5.56225e-06;0.0013910499532011188
5.56250e-06;0.001406417661427294
5.56275e-06;0.0014141153051790254
5.56300e-06;0.0014142028466626597
5.56325e-06;0.001406891371696565
5.56350e-06;0.0013924006345487304
5.56375e-06;0.001370831638895323
5.56400e-06;0.001339410677872946
5.56425e-06;0.0013076510625439066
5.56450e-06;0.001263377791784025
5.56475e-06;0.0012187945110979665
5.56500e-06;0.0011627560168761004
5.56525e-06;0.001106449380363868
5.56550e-06;0.0010402345863036527
5.56575e-06;0.0009737934976506559
5.56600e-06;0.0008989905706760313
5.56625e-06;0.000824003123186082
5.56650e-06;0.0007421974362540249
5.56675e-06;0.000660254327308606
5.56700e-06;0.0005732333212701934
5.56725e-06;0.00048612130102088704
5.56750e-06;0.0003956462038771788
5.56775e-06;0.0003051711067337771
5.56800e-06;0.00021467851495856477
5.56825e-06;0.00012355371634910158
5.56850e-06;3.298337586112194e-05
5.56875e-06;-5.649783222931499e-05
5.56900e-06;-0.00014431697398541672
5.56925e-06;-0.0002298639771344249
5.56950e-06;-0.0003125267728833659
5.56975e-06;-0.0003917010711333295
5.57000e-06;-0.0004667828502204201
5.57025e-06;-0.0005371680624443597
5.57050e-06;-0.0006022668510460083
5.57075e-06;-0.0006620476646167984
5.57100e-06;-0.0007178595605574798
5.57125e-06;-0.0007714105531807239
5.57150e-06;-0.0008231023655595851
5.57175e-06;-0.0008714207486108313
5.57200e-06;-0.0009195842164231309
5.57225e-06;-0.0009620233928914533
5.57250e-06;-0.0010042734900171785
5.57275e-06;-0.0010395368939568827
5.57300e-06;-0.001074800297896706
5.57325e-06;-0.0011099480834073404
5.57350e-06;-0.0011408236386469582
5.57375e-06;-0.0011716991938866808
5.57400e-06;-0.00120243070206478
5.57425e-06;-0.0012278395102067268
5.57450e-06;-0.0012532483183487597
5.57475e-06;-0.0012785380356436751
5.57500e-06;-0.0012994272129412275
5.57525e-06;-0.0013203163902388508
5.57550e-06;-0.0013410474800647477
5.57575e-06;-0.001355937060997632
5.57600e-06;-0.0013708266419305668
5.57625e-06;-0.0013857162228634512
5.57650e-06;-0.0014006058037963859
5.57675e-06;-0.0014154953847292703
5.57700e-06;-0.0014303849656621544
5.57725e-06;-0.0014452745465950894
5.57750e-06;-0.0014601641275279735
5.57775e-06;-0.001475053708460858
5.57800e-06;-0.0014864958774963007
5.57825e-06;-0.0014948357976265173
5.57850e-06;-0.0015031757177567339
5.57875e-06;-0.0015115156378869789
5.57900e-06;-0.0015198555580171955
5.57925e-06;-0.0015281954781474123
5.57950e-06;-0.0015365353982776573
5.57975e-06;-0.0015448753184078739
5.58000e-06;-0.0015532152385380905
5.58025e-06;-0.0015614098995039099
5.58050e-06;-0.001564237071881808
5.58075e-06;-0.0015670642442597157
5.58100e-06;-0.0015698914166376139
5.58125e-06;-0.001572718589015512
5.58150e-06;-0.0015755457613934197
5.58175e-06;-0.0015783729337713178
5.58200e-06;-0.0015812001061492162
5.58225e-06;-0.001584027278527124
5.58250e-06;-0.001586854450905022
5.58275e-06;-0.0015896816232829202
5.58300e-06;-0.0015925087956608279
5.58325e-06;-0.001595335968038726
5.58350e-06;-0.0015981631404166242
5.58375e-06;-0.0016009903127945319
5.58400e-06;-0.00160381748517243
5.58425e-06;-0.0016040447679881876
5.58450e-06;-0.0016019324683036254
5.58475e-06;-0.0015998201686190702
5.58500e-06;-0.001597707868934508
5.58525e-06;-0.001595595569249953
5.58550e-06;-0.001593483269565398
5.58575e-06;-0.0015913709698808357
5.58600e-06;-0.0015892586701962805
5.58625e-06;-0.0015871463705117255
5.58650e-06;-0.0015850340708271633
5.58675e-06;-0.0015829217711426083
5.58700e-06;-0.0015808094714580532
5.58725e-06;-0.0015786971717734908
5.58750e-06;-0.0015765848720889358
5.58775e-06;-0.0015744725724043808
5.58800e-06;-0.0015723302010777803
5.58825e-06;-0.0015690766489464254
5.58850e-06;-0.0015658230968150705
5.58875e-06;-0.0015625695446837048
5.58900e-06;-0.00155931599255235
5.58925e-06;-0.0015560738564550918
5.58950e-06;-0.0015532535555854482
5.58975e-06;-0.0015504332547158044
5.59000e-06;-0.0015476129538461512
5.59025e-06;-0.0015447926529765076
5.59050e-06;-0.001541892213077081
5.59075e-06;-0.0015360305464026459
5.59100e-06;-0.0015301688797282305
5.59125e-06;-0.0015240132932228144
5.59150e-06;-0.0015069970402542964
5.59175e-06;-0.001489745003359023
5.59200e-06;-0.0014637804866783352
5.59225e-06;-0.0014376067721540303
5.59250e-06;-0.0014037029633553893
5.59275e-06;-0.0013695413029844263
5.59300e-06;-0.001325851738648187
5.59325e-06;-0.0012818520570214286
5.59350e-06;-0.0012263931946867508
5.59375e-06;-0.001170665732235283
5.59400e-06;-0.0011050131950756613
5.59425e-06;-0.0010391900784518097
5.59450e-06;-0.0009669054453703238
5.59475e-06;-0.0008887672194256111
5.59500e-06;-0.0008104527813068417
5.59525e-06;-0.0007255119505563891
5.59550e-06;-0.0006362159225514226
5.59575e-06;-0.0005431375695715041
5.59600e-06;-0.0004468537800758223
5.59625e-06;-0.00034794116375433143
5.59650e-06;-0.0002469728887125995
5.59675e-06;-0.00014437967087505552
5.59700e-06;-4.025828862894209e-05
5.59725e-06;6.534204916710798e-05
5.59750e-06;0.0001721855480130031
5.59775e-06;0.00027902904685926026
5.59800e-06;0.0003858297960326362
5.59825e-06;0.0004910508969990824
5.59850e-06;0.0005961659254903143
5.59875e-06;0.0006973614573875613
5.59900e-06;0.0007984104828488877
5.59925e-06;0.0008940459316645127
5.59950e-06;0.0009894731481338503
5.59975e-06;0.001077205946553743
5.60000e-06;0.0011646581938492902
5.60025e-06;0.0012417437633502133
5.60050e-06;0.0013185051234328156
5.60075e-06;0.0013832865829470867
5.60100e-06;0.0014477967613426782
5.60125e-06;0.0015022827990403213
5.60150e-06;0.0015565022918504958
5.60175e-06;0.001600872652988631
5.60200e-06;0.001644947134669575
5.60225e-06;0.0016780885395255715
5.60250e-06;0.00171092262619054
5.60275e-06;0.0017324009620293776
5.60300e-06;0.001753621038316889
5.60325e-06;0.0017652981353804007
5.60350e-06;0.0017767358380608572
5.60375e-06;0.0017793276505783512
5.60400e-06;0.0017816775963020897
5.60425e-06;0.0017750902935241512
5.60450e-06;0.001768221527038036
5.60475e-06;0.0017509523617829066
5.60500e-06;0.001733683196527719
5.60525e-06;0.0017161561623171308
5.60550e-06;0.0016891005818377275
5.60575e-06;0.0016620450013582326
5.60600e-06;0.0016347734387317536
5.60625e-06;0.0015995210942475035
5.60650e-06;0.001564268749763373
5.60675e-06;0.001528839822805865
5.60700e-06;0.0014868859759934747
5.60725e-06;0.0014449321291812264
5.60750e-06;0.0014029782823689783
5.60775e-06;0.001361024435556588
5.60800e-06;0.0013190268773827286
5.60825e-06;0.0012754141355175107
5.60850e-06;0.0012318013936521454
5.60875e-06;0.0011881886517869276
5.60900e-06;0.00114457590992171
5.60925e-06;0.001101079213687651
5.60950e-06;0.0010618705332963393
5.60975e-06;0.0010226618529050276
5.61000e-06;0.0009835985746472755
5.61025e-06;0.000949908067822052
5.61050e-06;0.000916304621191776
5.61075e-06;0.0008859181461217067
5.61100e-06;0.0008555316710516375
5.61125e-06;0.0008250061034540655
5.61150e-06;0.0007893409114336293
5.61175e-06;0.0007536757194131932
5.61200e-06;0.0007179183094401105
5.61225e-06;0.0006787533430021448
5.61250e-06;0.0006395268753489019
5.61275e-06;0.000598027869019657
5.61300e-06;0.0005564220635989821
5.61325e-06;0.0005107828626068744
5.61350e-06;0.00046185064962174857
5.61375e-06;0.00041002873045128523
5.61400e-06;0.00035572738025951394
5.61425e-06;0.0002993568163862108
5.61450e-06;0.00024132093064503424
5.61475e-06;0.0001817754310903324
5.61500e-06;0.00012028070784742311
5.61525e-06;5.628798928416334e-05
5.61550e-06;-1.0140609573099896e-05
5.61575e-06;-7.857201792807963e-05
5.61600e-06;-0.00014856885566398424
5.61625e-06;-0.0002196992593134283
5.61650e-06;-0.0002917153344504996
5.61675e-06;-0.00036376881471352087
5.61700e-06;-0.00043720445620638914
5.61725e-06;-0.0005106400976990086
5.61750e-06;-0.0005840757391916281
5.61775e-06;-0.0006570777406977127
5.61800e-06;-0.0007296895192730724
5.61825e-06;-0.0008023012978484322
5.61850e-06;-0.0008747826631154618
5.61875e-06;-0.0009424451108064255
5.61900e-06;-0.0010101075584976185
5.61925e-06;-0.0010776269944095015
5.61950e-06;-0.0011398619851739108
5.61975e-06;-0.0012019314501915692
5.62000e-06;-0.0012578845537748753
5.62025e-06;-0.0013136282846657023
5.62050e-06;-0.0013616354604578736
5.62075e-06;-0.0014094550832461498
5.62100e-06;-0.0014503444128335695
5.62125e-06;-0.0014912337424211278
5.62150e-06;-0.001531967487029335
5.62175e-06;-0.0015669521926885853
5.62200e-06;-0.0016019368983479544
5.62225e-06;-0.0016366665782581512
5.62250e-06;-0.001661972771585521
5.62275e-06;-0.0016872789649129763
5.62300e-06;-0.0017125851582403461
5.62325e-06;-0.0017378913515678014
5.62350e-06;-0.0017631975448951713
5.62375e-06;-0.0017839269956600576
5.62400e-06;-0.0018005379381024174
5.62425e-06;-0.001817148880544721
5.62450e-06;-0.0018337598229870248
5.62475e-06;-0.0018503707654293846
5.62500e-06;-0.0018668637348974973
5.62525e-06;-0.001878868103772046
5.62550e-06;-0.001886092206675759
5.62575e-06;-0.0018933163095794475
5.62600e-06;-0.0019005404124831358
5.62625e-06;-0.0019077645153868488
5.62650e-06;-0.0019149886182905373
5.62675e-06;-0.0019222127211942258
5.62700e-06;-0.0019294368240979388
5.62725e-06;-0.0019366609270016274
5.62750e-06;-0.0019438850299053404
5.62775e-06;-0.0019511091328090287
5.62800e-06;-0.0019555368179551297
5.62825e-06;-0.0019574480692730236
5.62850e-06;-0.001959359320590911
5.62875e-06;-0.0019612705719087987
5.62900e-06;-0.0019631818232266926
5.62925e-06;-0.00196509307454458
5.62950e-06;-0.0019670043258624673
5.62975e-06;-0.001968915577180361
5.63000e-06;-0.0019708268284982485
5.63025e-06;-0.001972738079816136
5.63050e-06;-0.00197438227389826
5.63075e-06;-0.001966158404526101
5.63100e-06;-0.0019579345351539417
5.63125e-06;-0.0019497106657817545
5.63150e-06;-0.0019414867964095953
5.63175e-06;-0.001933262927037408
5.63200e-06;-0.0019250390576652488
5.63225e-06;-0.0019168151882930896
5.63250e-06;-0.0019085913189209026
5.63275e-06;-0.0019003674495487433
5.63300e-06;-0.001892143580176584
5.63325e-06;-0.0018839197108043969
5.63350e-06;-0.0018751516068895204
5.63375e-06;-0.0018462734281315947
5.63400e-06;-0.001817395249373571
5.63425e-06;-0.0017885170706156452
5.63450e-06;-0.0017596388918577194
5.63475e-06;-0.0017307607130996956
5.63500e-06;-0.0017018825343417699
5.63525e-06;-0.0016730043555838441
5.63550e-06;-0.0016441261768258204
5.63575e-06;-0.0016152479980678946
5.63600e-06;-0.0015863698193098708
5.63625e-06;-0.001557491640551945
5.63650e-06;-0.001528374048493215
5.63675e-06;-0.0014904098672946582
5.63700e-06;-0.0014524456860962303
5.63725e-06;-0.0014144815048978022
5.63750e-06;-0.0013765173236992454
5.63775e-06;-0.0013385531425008173
5.63800e-06;-0.0013006303174323297
5.63825e-06;-0.001264235647602649
5.63850e-06;-0.0012278409777730917
5.63875e-06;-0.0011914463079435343
5.63900e-06;-0.0011550516381138537
5.63925e-06;-0.0011186569682842963
5.63950e-06;-0.0010824084626090723
5.63975e-06;-0.0010515608858516958
5.64000e-06;-0.0010207133090944236
5.64025e-06;-0.0009900324830424388
5.64050e-06;-0.0009655132819847861
5.64075e-06;-0.0009409940809271334
5.64100e-06;-0.00091662550008902
5.64125e-06;-0.0008978225047611599
5.64150e-06;-0.0008791413607824846
5.64175e-06;-0.0008649627603873382
5.64200e-06;-0.0008509134868561074
5.64225e-06;-0.0008416429855330631
5.64250e-06;-0.000832505817238072
5.64275e-06;-0.0008282954533973877
5.64300e-06;-0.0008242088174533541
5.64325e-06;-0.000824694065618561
5.64350e-06;-0.0008252955914726968
5.64375e-06;-0.0008301937079309041
5.64400e-06;-0.0008352309997400409
5.64425e-06;-0.0008454109763623045
5.64450e-06;-0.0008555909529846025
5.64475e-06;-0.000865918938866838
5.64500e-06;-0.0008817160323774658
5.64525e-06;-0.000897513125888147
5.64550e-06;-0.0009134270356908626
5.64575e-06;-0.00093365743808475
5.64600e-06;-0.000953887840478706
5.64625e-06;-0.0009742352457713749
5.64650e-06;-0.0009989060389805997
5.64675e-06;-0.0010235768321899083
5.64700e-06;-0.0010482476253991333
5.64725e-06;-0.0010729184186083582
5.64750e-06;-0.0010975892118176666
5.64775e-06;-0.0011222917828661505
5.64800e-06;-0.0011481685806018415
5.64825e-06;-0.0011740453783376204
5.64850e-06;-0.0011999221760733115
5.64875e-06;-0.0012257989738090902
5.64900e-06;-0.0012516757715447812
5.64925e-06;-0.0012774088825310873
5.64950e-06;-0.0012978326074919735
5.64975e-06;-0.0013182563324527906
5.65000e-06;-0.0013386800574136076
5.65025e-06;-0.0013591037823744937
5.65050e-06;-0.0013795275073353107
5.65075e-06;-0.0013999512322961278
5.65100e-06;-0.0014134964991369336
5.65125e-06;-0.001420851995281001
5.65150e-06;-0.0014282074914250683
5.65175e-06;-0.0014355629875691606
5.65200e-06;-0.001442918483713228
5.65225e-06;-0.0014502739798572955
5.65250e-06;-0.0014573188861146502
5.65275e-06;-0.001452887148838235
5.65300e-06;-0.0014484554115618052
5.65325e-06;-0.001443823829268545
5.65350e-06;-0.0014318077501904271
5.65375e-06;-0.0014197916711122683
5.65400e-06;-0.001407596506882499
5.65425e-06;-0.0013887839460956953
5.65450e-06;-0.001369971385308828
5.65475e-06;-0.0013509994286756111
5.65500e-06;-0.0013261376173258218
5.65525e-06;-0.0013012758059759483
5.65550e-06;-0.0012762437336697476
5.65575e-06;-0.0012449203286870713
5.65600e-06;-0.0012135969237042888
5.65625e-06;-0.0011822735187216123
5.65650e-06;-0.001150950113738936
5.65675e-06;-0.0011196267087561535
5.65700e-06;-0.0010861202700757535
5.65725e-06;-0.0010506493681718414
5.65750e-06;-0.0010151784662680496
5.65775e-06;-0.0009797075643642576
5.65800e-06;-0.0009442366624603455
5.65825e-06;-0.0009087954133106469
5.65850e-06;-0.0008744498665733466
5.65875e-06;-0.0008401043198359299
5.65900e-06;-0.0008057587730986296
5.65925e-06;-0.0007714132263613292
5.65950e-06;-0.0007400159751807685
5.65975e-06;-0.0007112718292633618
5.66000e-06;-0.0006825276833459553
5.66025e-06;-0.0006537835374284514
5.66050e-06;-0.0006252088500588895
5.66075e-06;-0.000602895845466456
5.66100e-06;-0.0005806769803648351
5.66125e-06;-0.0005619366746877788
5.66150e-06;-0.0005432891549640713
5.66175e-06;-0.0005280701799416361
5.66200e-06;-0.0005129538015270532
5.66225e-06;-0.0005016284824622337
5.66250e-06;-0.0004904096657086769
5.66275e-06;-0.00048312622841006615
5.66300e-06;-0.00047593308663257557
5.66325e-06;-0.00047207646529917764
5.66350e-06;-0.00046830365285981584
5.66375e-06;-0.00046762767274171024
5.66400e-06;-0.00046703600803975657
5.66425e-06;-0.0004695598922169645
5.66450e-06;-0.00047216489738518
5.66475e-06;-0.0004777674138519317
5.66500e-06;-0.00048344939229961575
5.66525e-06;-0.0004920675797693856
5.66550e-06;-0.0005006857672391264
5.66575e-06;-0.0005093834118329629
5.66600e-06;-0.000521017085981433
5.66625e-06;-0.0005326507601299032
5.66650e-06;-0.0005443606725650831
5.66675e-06;-0.0005588876749145745
5.66700e-06;-0.000573414677264066
5.66725e-06;-0.0005879416796136065
5.66750e-06;-0.000602468681963098
5.66775e-06;-0.0006169956843125894
5.66800e-06;-0.0006319848963950891
5.66825e-06;-0.0006473900406835524
5.66850e-06;-0.0006627951849720158
5.66875e-06;-0.0006782003292605314
5.66900e-06;-0.0006936054735489947
5.66925e-06;-0.000708950521067261
5.66950e-06;-0.0007220749257493541
5.66975e-06;-0.0007351993304314026
5.67000e-06;-0.0007483237351134955
5.67025e-06;-0.000761448139795544
5.67050e-06;-0.0007733225310509396
5.67075e-06;-0.000784072063167764
5.67100e-06;-0.000794821595284552
5.67125e-06;-0.0008055711274013401
5.67150e-06;-0.0008163934879299712
5.67175e-06;-0.0008299069396825344
5.67200e-06;-0.0008434203914350978
5.67225e-06;-0.0008569338431877069
5.67250e-06;-0.0008704472949402702
5.67275e-06;-0.0008839607466928335
5.67300e-06;-0.0008974741984454426
5.67325e-06;-0.0009109876501980059
5.67350e-06;-0.0009245011019505692
5.67375e-06;-0.0009380145537031784
5.67400e-06;-0.0009515280054557416
5.67425e-06;-0.0009650414572083507
5.67450e-06;-0.0009786869265404916
5.67475e-06;-0.0009972105930049048
5.67500e-06;-0.0010157342594693808
5.67525e-06;-0.0010342579259337938
5.67550e-06;-0.0010527815923982071
5.67575e-06;-0.001071305258862683
5.67600e-06;-0.0010898289253270963
5.67625e-06;-0.0011083525917915096
5.67650e-06;-0.0011268762582559856
5.67675e-06;-0.0011453999247203986
5.67700e-06;-0.001163923591184812
5.67725e-06;-0.0011824472576492879
5.67750e-06;-0.0012009605867001037
5.67775e-06;-0.001219091936763719
5.67800e-06;-0.0012372232868273958
5.67825e-06;-0.0012553546368910113
5.67850e-06;-0.0012734859869546879
5.67875e-06;-0.0012916173370183034
5.67900e-06;-0.0013097486870819188
5.67925e-06;-0.0013278800371455954
5.67950e-06;-0.001346011387209211
5.67975e-06;-0.0013639618361561633
5.68000e-06;-0.0013752277866406098
5.68025e-06;-0.001386493737125018
5.68050e-06;-0.0013977596876094261
5.68075e-06;-0.0014090256380938726
5.68100e-06;-0.001420291588578281
5.68125e-06;-0.0014315575390626892
5.68150e-06;-0.0014428234895471357
5.68175e-06;-0.001454089440031544
5.68200e-06;-0.0014651122340954262
5.68225e-06;-0.0014671501266368579
5.68250e-06;-0.0014691880191782826
5.68275e-06;-0.0014712259117197143
5.68300e-06;-0.0014732638042611393
5.68325e-06;-0.001475301696802564
5.68350e-06;-0.0014773395893439957
5.68375e-06;-0.0014793774818854205
5.68400e-06;-0.0014814153744268452
5.68425e-06;-0.001483453266968277
5.68450e-06;-0.0014854911595097017
5.68475e-06;-0.0014873418504606924
5.68500e-06;-0.0014822752334073346
5.68525e-06;-0.0014772086163539937
5.68550e-06;-0.001472141999300653
5.68575e-06;-0.001467075382247295
5.68600e-06;-0.0014620087651939543
5.68625e-06;-0.0014569421481406134
5.68650e-06;-0.0014518755310872556
5.68675e-06;-0.0014468089140339147
5.68700e-06;-0.0014417422969805569
5.68725e-06;-0.001436675679927216
5.68750e-06;-0.0014315563710035738
5.68775e-06;-0.001424490038578871
5.68800e-06;-0.0014174237061541923
5.68825e-06;-0.0014103573737295136
5.68850e-06;-0.0014032910413048108
5.68875e-06;-0.001396224708880132
5.68900e-06;-0.0013891583764554531
5.68925e-06;-0.0013820920440307505
5.68950e-06;-0.0013754945074912603
5.68975e-06;-0.001369318829888769
5.69000e-06;-0.001363143152286257
5.69025e-06;-0.0013569674746837658
5.69050e-06;-0.0013507917970812745
5.69075e-06;-0.0013446161194787625
5.69100e-06;-0.0013384404418762712
5.69125e-06;-0.00133200694719285
5.69150e-06;-0.00131604682321463
5.69175e-06;-0.0013000866992364639
5.69200e-06;-0.001284126575258244
5.69225e-06;-0.001268166451280078
5.69250e-06;-0.0012522063273019122
5.69275e-06;-0.0012362462033236922
5.69300e-06;-0.0012202860793455261
5.69325e-06;-0.0012043259553673603
5.69350e-06;-0.0011883658313891403
5.69375e-06;-0.0011640199329962472
