Time(s);Current(A)
7.25000e-06;-0.00027869611482428126
7.25025e-06;-0.00024756824392641334
7.25050e-06;-0.00021629129450408184
7.25075e-06;-0.00018381473755092905
7.25100e-06;-0.00015126143284826943
7.25125e-06;-0.00011809055308797801
7.25150e-06;-8.492884868362155e-05
7.25175e-06;-5.184097668577153e-05
7.25200e-06;-1.881356563832389e-05
7.25225e-06;1.3660867370518731e-05
7.25250e-06;4.551646260540089e-05
7.25275e-06;7.658991736412793e-05
7.25300e-06;0.0001066907997236126
7.25325e-06;0.00013560498600822434
7.25350e-06;0.00016311510698434185
7.25375e-06;0.00018900379904811652
7.25400e-06;0.00021305576418875272
7.25425e-06;0.00023508880725872422
7.25450e-06;0.00025507542584012044
7.25475e-06;0.0002731357290373852
7.25500e-06;0.0002893255858672803
7.25525e-06;0.0003035945484693031
7.25550e-06;0.0003158740610870512
7.25575e-06;0.00032609567472834317
7.25600e-06;0.0003341922305783462
7.25625e-06;0.00034011729196045106
7.25650e-06;0.00034392129488507075
7.25675e-06;0.00034574716316090583
7.25700e-06;0.000345697594602786
7.25725e-06;0.0003438086917743954
7.25750e-06;0.0003401051929316398
7.25775e-06;0.00033461184919849983
7.25800e-06;0.0003273543034171623
7.25825e-06;0.0003182891159490452
7.25850e-06;0.0003071015598657311
7.25875e-06;0.000295613635028776
7.25900e-06;0.00028170869795146234
7.25925e-06;0.00026754445582993606
7.25950e-06;0.00025129363360248784
7.25975e-06;0.00023482053267455218
7.26000e-06;0.00021655879583354928
7.26025e-06;0.00019812392516714895
7.26050e-06;0.00017829587837868744
7.26075e-06;0.00015836174538116855
7.26100e-06;0.00013757395612765057
7.26125e-06;0.00011673409691955391
7.26150e-06;9.547524034214881e-05
7.26175e-06;7.421638376481575e-05
7.26200e-06;5.2969096814030954e-05
7.26225e-06;3.1845797791108645e-05
7.26250e-06;1.1021023035018944e-05
7.26275e-06;-9.333645755959082e-06
7.26300e-06;-2.9056539967634747e-05
7.26325e-06;-4.800239047448159e-05
7.26350e-06;-6.602871784728522e-05
7.26375e-06;-8.299305964009618e-05
7.26400e-06;-9.875311992581758e-05
7.26425e-06;-0.00011317026159300048
7.26450e-06;-0.00012613023580500073
7.26475e-06;-0.00013756561758349964
7.26500e-06;-0.00014744291152976065
7.26525e-06;-0.00015573627045116552
7.26550e-06;-0.0001624194782305558
7.26575e-06;-0.000167466370524363
7.26600e-06;-0.00017085088271673663
7.26625e-06;-0.000172549237339673
7.26650e-06;-0.00017255293330646236
7.26675e-06;-0.00017088282634309204
7.26700e-06;-0.00016758100393495138
7.26725e-06;-0.00016269435250349472
7.26750e-06;-0.0001562695287060061
7.26775e-06;-0.0001483532150864909
7.26800e-06;-0.00013899215531252526
7.26825e-06;-0.00012823451864228056
7.26850e-06;-0.0001161380685899404
7.26875e-06;-0.00010277891866956262
7.26900e-06;-8.824649410970309e-05
7.26925e-06;-7.263321866028729e-05
7.26950e-06;-5.603137612556734e-05
7.26975e-06;-3.8533243636868565e-05
7.27000e-06;-2.023113651825768e-05
7.27025e-06;-1.2182719203970048e-06
7.27050e-06;1.8406149462623535e-05
7.27075e-06;3.8546582935219e-05
7.27100e-06;5.916050226760966e-05
7.27125e-06;7.980570836982733e-05
7.27150e-06;0.00010070267336741693
7.27175e-06;0.00012159963836493574
7.27200e-06;0.00014244977635363058
7.27225e-06;0.00016292310599502118
7.27250e-06;0.00018329331069843902
7.27275e-06;0.00020283368795077477
7.27300e-06;0.00022221023501239792
7.27325e-06;0.00024026847059482783
7.27350e-06;0.0002581015956908624
7.27375e-06;0.00027412329801304
7.27400e-06;0.0002898962230036314
7.27425e-06;0.00030366728246089075
7.27450e-06;0.0003174091860248874
7.27475e-06;0.0003309164774666707
7.27500e-06;0.0003444237689084998
7.27525e-06;0.00035796514472506333
7.27550e-06;0.00037178079125053574
7.27575e-06;0.0003855964377760549
7.27600e-06;0.00039938648214806177
7.27625e-06;0.0004129705106895287
7.27650e-06;0.0004265545392309496
7.27675e-06;0.0004403250860772079
7.27700e-06;0.0004555965114937881
7.27725e-06;0.00047086793691031656
7.27750e-06;0.00048613936232684503
7.27775e-06;0.0005014107877434253
7.27800e-06;0.0005166822131599537
7.27825e-06;0.0005329091487731984
7.27850e-06;0.00054974560886036
7.27875e-06;0.0005665820689474645
7.27900e-06;0.000583418529034569
7.27925e-06;0.0006002549891217305
7.27950e-06;0.0006171954201268031
7.27975e-06;0.0006349724860285097
7.28000e-06;0.0006527495519302765
7.28025e-06;0.0006705268730492617
7.28050e-06;0.0006883062478549115
7.28075e-06;0.000706085622660501
7.28100e-06;0.0007238643165292338
7.28125e-06;0.0007416375310241036
7.28150e-06;0.0007593576549632591
7.28175e-06;0.0007766505689440411
7.28200e-06;0.0007938465957974093
7.28225e-06;0.0008102629897163259
7.28250e-06;0.0008266011681180848
7.28275e-06;0.0008422555607225231
7.28300e-06;0.0008574067924619276
7.28325e-06;0.0008719540343898933
7.28350e-06;0.0008857869701209354
7.28375e-06;0.0008987951925903073
7.28400e-06;0.0009108638494079533
7.28425e-06;0.0009218085998155623
7.28450e-06;0.0009311556269589436
7.28475e-06;0.0009382673616524441
7.28500e-06;0.0009428369006844029
7.28525e-06;0.000944873288496383
7.28550e-06;0.0009444312078181695
7.28575e-06;0.0009415655098697191
7.28600e-06;0.0009361895689763182
7.28625e-06;0.0009276136305670948
7.28650e-06;0.0009184297034767066
7.28675e-06;0.0009043534030456637
7.28700e-06;0.0008896669392247844
7.28725e-06;0.0008700706025825042
7.28750e-06;0.0008499322713000312
7.28775e-06;0.000825432608613809
7.28800e-06;0.0008004508683691622
7.28825e-06;0.0007715899384814204
7.28850e-06;0.0007422522005212242
7.28875e-06;0.000709077675506168
7.28900e-06;0.000675479748242703
7.28925e-06;0.0006384747807897448
7.28950e-06;0.0006010825682994244
7.28975e-06;0.000560574266060207
7.29000e-06;0.0005200659638211266
7.29025e-06;0.00047925172255007975
7.29050e-06;0.0004359756460344175
7.29075e-06;0.0003926995695189018
7.29100e-06;0.00034929637442410985
7.29125e-06;0.0003048702794504995
7.29150e-06;0.0002604441844770397
7.29175e-06;0.00021610174983477116
7.29200e-06;0.00017243251452410597
7.29225e-06;0.00012889420809033316
7.29250e-06;8.652404788753598e-05
7.29275e-06;4.521563013973195e-05
7.29300e-06;5.2020303168104324e-06
7.29325e-06;-3.323507812303897e-05
7.29350e-06;-6.980702255712398e-05
7.29375e-06;-0.00010422515944814409
7.29400e-06;-0.0001362088354236893
7.29425e-06;-0.0001656026371419198
7.29450e-06;-0.00019280263619175593
7.29475e-06;-0.00021862572042577092
7.29500e-06;-0.00024346157703055492
7.29525e-06;-0.00026713218479730886
7.29550e-06;-0.0002890669269053706
7.29575e-06;-0.000310747244194987
7.29600e-06;-0.0003301066067322651
7.29625e-06;-0.0003472639987265835
7.29650e-06;-0.0003641949910115892
7.29675e-06;-0.00037930418638554156
7.29700e-06;-0.00039425056493145254
7.29725e-06;-0.0004078867863421592
7.29750e-06;-0.00042126225933664834
7.29775e-06;-0.0004325395376786222
7.29800e-06;-0.000443816816020596
7.29825e-06;-0.00045473090342073864
7.29850e-06;-0.0004623378030176846
7.29875e-06;-0.00046956646232021286
7.29900e-06;-0.00047679512162276564
7.29925e-06;-0.0004840237809252939
7.29950e-06;-0.0004912524402278223
7.29975e-06;-0.000498481099530375
7.30000e-06;-0.0005057097588329032
7.30025e-06;-0.0005109794121686212
7.30050e-06;-0.0005149846121243844
7.30075e-06;-0.0005189898120801339
7.30100e-06;-0.0005229950120358834
7.30125e-06;-0.0005270002119916466
7.30150e-06;-0.0005310054119473961
7.30175e-06;-0.0005350106119031593
7.30200e-06;-0.0005377302917300128
7.30225e-06;-0.0005399281140995846
7.30250e-06;-0.0005421259364691637
7.30275e-06;-0.0005443237588387354
7.30300e-06;-0.0005464451190069804
7.30325e-06;-0.0005481034279439177
7.30350e-06;-0.0005497617368808494
7.30375e-06;-0.0005514200458177812
7.30400e-06;-0.0005530783547547185
7.30425e-06;-0.0005541335146325928
7.30450e-06;-0.0005547377101528746
7.30475e-06;-0.0005553419056731584
7.30500e-06;-0.0005545265825648472
7.30525e-06;-0.0005526499093693361
7.30550e-06;-0.0005507732361738186
7.30575e-06;-0.0005475837333373012
7.30600e-06;-0.0005434126499664426
7.30625e-06;-0.000539241566595598
7.30650e-06;-0.0005335234595990016
7.30675e-06;-0.0005266486691838106
7.30700e-06;-0.0005197738787686428
7.30725e-06;-0.0005112845820002316
7.30750e-06;-0.0005015881461184202
7.30775e-06;-0.0004918917102366416
7.30800e-06;-0.0004808974821991299
7.30825e-06;-0.0004689329169008798
7.30850e-06;-0.0004569683516026702
7.30875e-06;-0.0004437229855634459
7.30900e-06;-0.00042951998645709993
7.30925e-06;-0.000415316987350802
7.30950e-06;-0.0003999803139487728
7.30975e-06;-0.00038379601143616164
7.31000e-06;-0.00036761170892360537
7.31025e-06;-0.0003514274064109942
7.31050e-06;-0.00033524310389843786
7.31075e-06;-0.0003184729073200421
7.31100e-06;-0.0003012646476508512
7.31125e-06;-0.0002840563879817187
7.31150e-06;-0.0002668481283125862
7.31175e-06;-0.00024963986864339534
7.31200e-06;-0.00023279865572778597
7.31225e-06;-0.00021623187746626105
7.31250e-06;-0.00019966509920467997
7.31275e-06;-0.00018371359916562912
7.31300e-06;-0.00016822213225458515
7.31325e-06;-0.00015326215218886696
7.31350e-06;-0.00013913814917589307
7.31375e-06;-0.00012584533114963248
7.31400e-06;-0.00011349766582014744
7.31425e-06;-0.00010214459945751434
7.31450e-06;-9.166449074085428e-05
7.31475e-06;-8.183878241548403e-05
7.31500e-06;-7.255304012240676e-05
7.31525e-06;-6.382805978902494e-05
7.31550e-06;-5.5723312001949865e-05
7.31575e-06;-4.829822032781083e-05
7.31600e-06;-4.161385006296774e-05
7.31625e-06;-3.569084668841483e-05
7.31650e-06;-3.044268233829022e-05
7.31675e-06;-2.572213493521454e-05
7.31700e-06;-2.1447219339581413e-05
7.31725e-06;-1.7620654511345692e-05
7.31750e-06;-1.4269387435108142e-05
7.31775e-06;-1.142033290428822e-05
7.31800e-06;-9.101430178549506e-06
7.31825e-06;-7.315296802466516e-06
7.31850e-06;-5.997419716590649e-06
7.31875e-06;-5.04527461027993e-06
7.31900e-06;-4.397208422497298e-06
7.31925e-06;-4.044630413968653e-06
7.31950e-06;-3.994125164609782e-06
7.31975e-06;-4.252255141923964e-06
7.32000e-06;-4.826223786958883e-06
7.32025e-06;-5.707373113235562e-06
7.32050e-06;-6.844997454239763e-06
7.32075e-06;-8.164585343068942e-06
7.32100e-06;-9.617231959895639e-06
7.32125e-06;-1.118727321265843e-05
7.32150e-06;-1.2868551647594603e-05
7.32175e-06;-1.4654896796508043e-05
7.32200e-06;-1.6561611973874553e-05
7.32225e-06;-1.8525527539158522e-05
7.32250e-06;-2.0492225164125415e-05
7.32275e-06;-2.2461002888085063e-05
7.32300e-06;-2.4429780612051377e-05
7.32325e-06;-2.6317714158923343e-05
7.32350e-06;-2.8089901029193014e-05
7.32375e-06;-2.975744410622163e-05
7.32400e-06;-3.130649585025752e-05
7.32425e-06;-3.284249223070578e-05
7.32450e-06;-3.478524344395936e-05
7.32475e-06;-3.769918677876743e-05
7.32500e-06;-4.188551451046148e-05
7.32525e-06;-4.734613090806749e-05
7.32550e-06;-5.39961881721968e-05
7.32575e-06;-6.175083583446132e-05
7.32600e-06;-7.052540575419418e-05
7.32625e-06;-8.030995700969836e-05
7.32650e-06;-9.12914574887981e-05
7.32675e-06;-0.00010374743611623702
7.32700e-06;-0.00011779051449044892
7.32725e-06;-0.00013334582156225545
7.32750e-06;-0.00015028416947560715
7.32775e-06;-0.00016847637473072616
7.32800e-06;-0.00018779336191676967
7.32825e-06;-0.00020815288526434221
7.32850e-06;-0.000229596023297377
7.32875e-06;-0.00025254752621598815
7.32900e-06;-0.00027626553277563577
7.32925e-06;-0.0003013189196535592
7.32950e-06;-0.00032737074782570534
7.32975e-06;-0.0003534225759977632
7.33000e-06;-0.00038063445873342394
7.33025e-06;-0.00040871369465978954
7.33050e-06;-0.00043679293058606006
7.33075e-06;-0.0004648721665123305
7.33100e-06;-0.0004929514024386961
7.33125e-06;-0.0005211463154279616
7.33150e-06;-0.0005494277182022126
7.33175e-06;-0.0005777091209763677
7.33200e-06;-0.0006059905237505228
7.33225e-06;-0.0006342719265247738
7.33250e-06;-0.0006612345557154866
7.33275e-06;-0.0006872111601870907
7.33300e-06;-0.0007131877646587827
7.33325e-06;-0.0007372864986239482
7.33350e-06;-0.0007599811805502683
7.33375e-06;-0.0007826758624766651
7.33400e-06;-0.0008026918514789496
7.33425e-06;-0.0008207050270558749
7.33450e-06;-0.0008387182026328612
7.33475e-06;-0.0008543922138297945
7.33500e-06;-0.0008683172713552306
7.33525e-06;-0.0008822423288807139
7.33550e-06;-0.0008937833482604868
7.33575e-06;-0.0009035418626126627
7.33600e-06;-0.0009133003769648055
7.33625e-06;-0.0009205483695462993
7.33650e-06;-0.0009259192874315713
7.33675e-06;-0.0009312902053168252
7.33700e-06;-0.0009346280485283667
7.33725e-06;-0.0009364457961684859
7.33750e-06;-0.000938263543808599
7.33775e-06;-0.0009368328970936835
7.33800e-06;-0.0009329734808224218
7.33825e-06;-0.0009291140645511732
7.33850e-06;-0.0009252546482799247
7.33875e-06;-0.000921395232008663
7.33900e-06;-0.0009175358157374144
7.33925e-06;-0.0009136763994661659
7.33950e-06;-0.0009094379569928152
7.33975e-06;-0.0009003278604612035
7.34000e-06;-0.0008912177639295609
7.34025e-06;-0.0008821076673979491
7.34050e-06;-0.0008729975708663374
7.34075e-06;-0.0008638874743346948
7.34100e-06;-0.000854777377803083
7.34125e-06;-0.0008456672812714712
7.34150e-06;-0.0008358247412879411
7.34175e-06;-0.0008254345657149454
7.34200e-06;-0.0008150443901419498
7.34225e-06;-0.000804654214568919
7.34250e-06;-0.0007942640389959233
7.34275e-06;-0.0007838738634229277
7.34300e-06;-0.0007734836878498969
7.34325e-06;-0.0007646709233121225
7.34350e-06;-0.0007570375623445503
7.34375e-06;-0.0007494042013769522
7.34400e-06;-0.0007417708404093799
7.34425e-06;-0.0007341374794417818
7.34450e-06;-0.0007265041184742095
7.34475e-06;-0.0007188707575066373
7.34500e-06;-0.0007148970260051499
7.34525e-06;-0.0007136595376016475
7.34550e-06;-0.000712422049198145
7.34575e-06;-0.0007111845607946384
7.34600e-06;-0.000709947072391136
7.34625e-06;-0.0007087095839876335
7.34650e-06;-0.0007074720955841269
7.34675e-06;-0.0007062346071806245
7.34700e-06;-0.000704997118777122
7.34725e-06;-0.0007078444382672089
7.34750e-06;-0.0007137458995791354
7.34775e-06;-0.0007196473608910618
7.34800e-06;-0.0007255488222030083
7.34825e-06;-0.0007314502835149346
7.34850e-06;-0.0007373517448268812
7.34875e-06;-0.0007432532061388076
7.34900e-06;-0.000749154667450734
7.34925e-06;-0.0007550561287626805
7.34950e-06;-0.0007633830093373598
7.34975e-06;-0.0007735233349010115
7.35000e-06;-0.0007836636604646975
7.35025e-06;-0.0007938039860283491
7.35050e-06;-0.0008039443115920007
7.35075e-06;-0.0008140846371556867
7.35100e-06;-0.0008242249627193383
7.35125e-06;-0.0008344028707272246
7.35150e-06;-0.0008450638288931821
7.35175e-06;-0.0008557247870591035
7.35200e-06;-0.0008663857452250248
7.35225e-06;-0.0008770467033909823
7.35250e-06;-0.0008877076615569036
7.35275e-06;-0.0008983686197228611
7.35300e-06;-0.0009090295778887825
7.35325e-06;-0.0009179488668974971
7.35350e-06;-0.0009255659393147107
7.35375e-06;-0.0009331830117318985
7.35400e-06;-0.0009408000841490863
7.35425e-06;-0.0009484171565663001
7.35450e-06;-0.0009560342289834879
7.35475e-06;-0.0009631533536981901
7.35500e-06;-0.000963872316815746
7.35525e-06;-0.0009645912799332994
7.35550e-06;-0.0009653102430508529
7.35575e-06;-0.0009660292061684088
7.35600e-06;-0.0009667481692859622
7.35625e-06;-0.0009674671324035157
7.35650e-06;-0.0009646648917963316
7.35675e-06;-0.0009592299066789657
7.35700e-06;-0.0009537949215615814
7.35725e-06;-0.0009461383297838772
7.35750e-06;-0.000936820680255493
7.35775e-06;-0.0009275030307270771
7.35800e-06;-0.0009152622242039106
7.35825e-06;-0.0009008358226025264
7.35850e-06;-0.0008864094210010934
7.35875e-06;-0.0008719830193997093
7.35900e-06;-0.0008575566177983251
7.35925e-06;-0.0008431302161968921
7.35950e-06;-0.0008283655579879345
7.35975e-06;-0.0008092532605825124
7.36000e-06;-0.0007901409631770255
7.36025e-06;-0.0007710286657716034
7.36050e-06;-0.0007519163683661812
7.36075e-06;-0.0007328040709606943
7.36100e-06;-0.0007136917735552723
7.36125e-06;-0.0006939015659703377
7.36150e-06;-0.0006736044964020819
7.36175e-06;-0.0006533074268338949
7.36200e-06;-0.0006333728111749681
7.36225e-06;-0.0006137091961779488
7.36250e-06;-0.0005940455811809294
7.36275e-06;-0.0005752980371323995
7.36300e-06;-0.000557235423848805
7.36325e-06;-0.0005391728105652105
7.36350e-06;-0.000522347029060042
7.36375e-06;-0.0005064460057708532
7.36400e-06;-0.000491906449423504
7.36425e-06;-0.0004783848388970902
7.36450e-06;-0.00046677457102101686
7.36475e-06;-0.0004565933817391509
7.36500e-06;-0.0004486855754721709
7.36525e-06;-0.0004424775392608516
7.36550e-06;-0.00043854984693804855
7.36575e-06;-0.00043632712919839935
7.36600e-06;-0.0004363822407733329
7.36625e-06;-0.0004381404468269758
7.36650e-06;-0.0004423169069956728
7.36675e-06;-0.0004483014548929148
7.36700e-06;-0.0004567269546820725
7.36725e-06;-0.0004669775129438321
7.36750e-06;-0.00047946933095460395
7.36775e-06;-0.0004936369009980072
7.36800e-06;-0.0005098400769423664
7.36825e-06;-0.0005275652410130919
7.36850e-06;-0.0005472099242627942
7.36875e-06;-0.000568289799558776
7.36900e-06;-0.0005914636266428291
7.36925e-06;-0.0006162030660869085
7.36950e-06;-0.0006409425055309041
7.36975e-06;-0.0006680467173366804
7.37000e-06;-0.0006969190294680225
7.37025e-06;-0.0007257913415992668
7.37050e-06;-0.0007546636537306089
7.37075e-06;-0.0007835359658618531
7.37100e-06;-0.0008125238927767107
7.37125e-06;-0.0008429978257393494
7.37150e-06;-0.0008734717587018846
7.37175e-06;-0.00090394569166442
7.37200e-06;-0.0009344196246270587
7.37225e-06;-0.0009648935575895939
7.37250e-06;-0.0009941587571063537
7.37275e-06;-0.0010225202070558931
7.37300e-06;-0.0010508816570053365
7.37325e-06;-0.0010771929687035519
7.37350e-06;-0.001101971426682997
7.37375e-06;-0.0011267498846623584
7.37400e-06;-0.0011484486390067948
7.37425e-06;-0.0011678447509968753
7.37450e-06;-0.00118724086298689
7.37475e-06;-0.001202833873377834
7.37500e-06;-0.0012155833689834617
7.37525e-06;-0.0012283328645890895
7.37550e-06;-0.001237038925275642
7.37575e-06;-0.001242721778015731
7.37600e-06;-0.0012484046307558202
7.37625e-06;-0.0012499015893583023
7.37650e-06;-0.0012482688256645724
7.37675e-06;-0.0012466360619708423
7.37700e-06;-0.0012409661248136156
7.37725e-06;-0.0012322776612945989
7.37750e-06;-0.001223589197775582
7.37775e-06;-0.001211221995824818
7.37800e-06;-0.001196104263327265
7.37825e-06;-0.001180986530829712
7.37850e-06;-0.0011626180148531593
7.37875e-06;-0.001141818943014701
7.37900e-06;-0.001121019871176172
7.37925e-06;-0.0010976089951900466
7.37950e-06;-0.0010722453173878613
7.37975e-06;-0.0010468816395855902
7.38000e-06;-0.0010198655924955227
7.38025e-06;-0.000991614096817545
7.38050e-06;-0.0009624262137654497
7.38075e-06;-0.0009325382097008898
7.38100e-06;-0.0009021011126097672
7.38125e-06;-0.0008712534679434529
7.38150e-06;-0.000840265223622274
7.38175e-06;-0.000809171855315518
7.38200e-06;-0.0007783471634072453
7.38225e-06;-0.0007477233563010782
7.38250e-06;-0.0007177887922506437
7.38275e-06;-0.0006883695635831507
7.38300e-06;-0.0006604774584373594
7.38325e-06;-0.000633727157736803
7.38350e-06;-0.0006069768570363371
7.38375e-06;-0.0005824358399190368
7.38400e-06;-0.0005595466667949738
7.38425e-06;-0.0005380383444811639
7.38450e-06;-0.0005176745676797373
7.38475e-06;-0.0004964054843479136
7.38500e-06;-0.0004743968476143965
7.38525e-06;-0.00045114786813522684
7.38550e-06;-0.0004269715053496342
7.38575e-06;-0.00040209587451816626
7.38600e-06;-0.00037669741278794684
7.38625e-06;-0.0003505916063999706
7.38650e-06;-0.00032395693036727094
7.38675e-06;-0.000295923843138706
7.38700e-06;-0.00026575429537178507
7.38725e-06;-0.0002338250250316316
7.38750e-06;-0.00020039256985531918
7.38775e-06;-0.00016571341147359348
7.38800e-06;-0.00013004396704510766
7.38825e-06;-9.352464100931954e-05
7.38850e-06;-5.598539218695202e-05
7.38875e-06;-1.7098914489131527e-05
7.38900e-06;2.3227236427793884e-05
7.38925e-06;6.480589176711046e-05
7.38950e-06;0.00010736794753305801
7.38975e-06;0.00015073884478009766
7.39000e-06;0.00019443676191553002
7.39025e-06;0.00023833692739985745
7.39050e-06;0.00028255495520247893
7.39075e-06;0.00032711684790850227
7.39100e-06;0.0003719721754641141
7.39125e-06;0.0004168952963294995
7.39150e-06;0.0004616093043646965
7.39175e-06;0.0005058373597329173
7.39200e-06;0.0005493026643059565
7.39225e-06;0.0005917739818834571
7.39250e-06;0.0006331418319010786
7.39275e-06;0.0006733585289420669
