Time(s);Current(A)
2.50000e-07;0.00038227279284232046
2.50250e-07;0.0003825088423732338
2.50500e-07;0.0003788412874279363
2.50750e-07;0.0003714598628876791
2.51000e-07;0.0003608591618712971
2.51250e-07;0.0003474989641268756
2.51500e-07;0.0003315909817328031
2.51750e-07;0.00031323060274847657
2.52000e-07;0.00029249934897741423
2.52250e-07;0.000269478749291872
2.52500e-07;0.0002442666930431139
2.52750e-07;0.00021709901377978678
2.53000e-07;0.00018840247188273653
2.53250e-07;0.00015858196700973184
2.53500e-07;0.00012788702222093853
2.53750e-07;9.64942604042547e-05
2.54000e-07;6.457158982073254e-05
2.54250e-07;3.228693731133545e-05
2.54500e-07;-1.8152885950719618e-07
2.54750e-07;-3.256925928991554e-05
2.55000e-07;-6.44921298875069e-05
2.55250e-07;-9.557973973057738e-05
2.55500e-07;-0.0001255590408752084
2.55750e-07;-0.00015420266832861162
2.56000e-07;-0.0001812887217026658
2.56250e-07;-0.00020659530661160642
2.56500e-07;-0.0002299087202131087
2.56750e-07;-0.0002510917795977557
2.57000e-07;-0.0002701335756704607
2.57250e-07;-0.0002870576490758706
2.57500e-07;-0.0003018389047855447
2.57750e-07;-0.00031442311609524456
2.58000e-07;-0.0003247521245085743
2.58250e-07;-0.00033276784075435246
2.58500e-07;-0.0003384172379237358
2.58750e-07;-0.0003416952772464729
2.59000e-07;-0.0003426760061800788
2.59250e-07;-0.0003414550584956648
2.59500e-07;-0.000338097569943204
2.59750e-07;-0.0003326504418063003
2.60000e-07;-0.00032515813569475104
2.60250e-07;-0.00031566510220080334
2.60500e-07;-0.00030421903270517233
2.60750e-07;-0.00029089760987715575
2.61000e-07;-0.00027582810685472406
2.61250e-07;-0.00025915124536121317
2.61500e-07;-0.00024098869202676798
2.61750e-07;-0.00022145066495710198
2.62000e-07;-0.0002006458488726962
2.62250e-07;-0.00017868290645891988
2.62500e-07;-0.00015567252850514284
2.62750e-07;-0.00013174420227500552
2.63000e-07;-0.00010705844196005749
2.63250e-07;-8.17842003531227e-05
2.63500e-07;-5.607845551293014e-05
2.63750e-07;-3.0061177421753252e-05
2.64000e-07;-3.957289772965906e-06
2.64250e-07;2.2133559227059222e-05
2.64500e-07;4.80718178113205e-05
2.64750e-07;7.368218580234549e-05
2.65000e-07;9.878340497444724e-05
2.65250e-07;0.00012318894026063504
2.65500e-07;0.00014671975741546971
2.65750e-07;0.0001692013393359874
2.66000e-07;0.00019045979063521878
2.66250e-07;0.00021032122595652025
2.66500e-07;0.00022859827365153342
2.66750e-07;0.0002450052214508338
2.67000e-07;0.0002591624995521035
2.67250e-07;0.00027080335884144583
2.67500e-07;0.00027985029653042055
2.67750e-07;0.00028630146021902894
2.68000e-07;0.0002901631764560286
2.68250e-07;0.00029144170963370236
2.68500e-07;0.00029013496278586356
2.68750e-07;0.00028617921095503617
2.69000e-07;0.00027945196085816956
2.69250e-07;0.00026990136622673363
2.69500e-07;0.00025759417073343085
2.69750e-07;0.00024264450142227423
2.70000e-07;0.00022517157761316222
2.70250e-07;0.00020529461311720912
2.70500e-07;0.0001831275212020972
2.70750e-07;0.0001587456583239926
2.71000e-07;0.00013218755407012428
2.71250e-07;0.00010353598875130555
2.71500e-07;7.294801747428106e-05
2.71750e-07;4.061036682292583e-05
2.72000e-07;6.712943370752107e-06
2.72250e-07;-2.855435767743319e-05
2.72500e-07;-6.50049691253736e-05
2.72750e-07;-0.00010247650401483597
2.73000e-07;-0.00014105640716563029
2.73250e-07;-0.00017999957331168515
2.73500e-07;-0.00021954751907714992
2.73750e-07;-0.00025936809295189916
2.74000e-07;-0.00029918866682664
2.74250e-07;-0.0003384543720760209
2.74500e-07;-0.0003774699485522521
2.74750e-07;-0.0004164855250284751
2.75000e-07;-0.0004540357082999884
2.75250e-07;-0.0004909253081690162
2.75500e-07;-0.000525885009581221
2.75750e-07;-0.0005599747336488196
2.76000e-07;-0.0005914146212554018
2.76250e-07;-0.0006216599912541336
2.76500e-07;-0.0006484721348285799
2.76750e-07;-0.0006737366170752918
2.77000e-07;-0.0006945525613097501
2.77250e-07;-0.0007133631527373594
2.77500e-07;-0.0007273122568711656
2.77750e-07;-0.0007390698551297193
2.78000e-07;-0.0007471540603961536
2.78250e-07;-0.0007498841518408196
2.78500e-07;-0.0007509471401444214
2.78750e-07;-0.0007482324599948606
2.79000e-07;-0.0007411952026533144
2.79250e-07;-0.0007303686264935418
2.79500e-07;-0.0007146364633458668
2.79750e-07;-0.0006972229721955062
2.80000e-07;-0.0006762783383982
2.80250e-07;-0.0006504567050986494
2.80500e-07;-0.0006231541398127191
2.80750e-07;-0.0005917217808008924
2.81000e-07;-0.0005584277554579809
2.81250e-07;-0.0005213655202767457
2.81500e-07;-0.00048260461686892614
2.81750e-07;-0.00044070505819302636
2.82000e-07;-0.00039739062767960714
2.82250e-07;-0.00035160304522289723
2.82500e-07;-0.0003047005926273752
2.82750e-07;-0.00025594091142066856
2.83000e-07;-0.00020634401164953698
2.83250e-07;-0.00015553434794452725
2.83500e-07;-0.00010417798337909146
2.83750e-07;-5.242110966682113e-05
2.84000e-07;-4.836907643064473e-07
2.84250e-07;5.1231872652803905e-05
2.84500e-07;0.00010242288110039226
2.84750e-07;0.0001528027054037441
2.85000e-07;0.00020209208692264794
2.85250e-07;0.00024999119888206595
2.85500e-07;0.000296171081519234
2.85750e-07;0.00034029166096173
2.86000e-07;0.0003820116837798826
2.86250e-07;0.0004209899988219077
2.86500e-07;0.000456882821062527
2.86750e-07;0.000489343147626607
2.87000e-07;0.0005180709762500387
2.87250e-07;0.0005428847125754257
2.87500e-07;0.000563701611462325
2.87750e-07;0.000580469431488697
2.88000e-07;0.0005931383830693628
2.88250e-07;0.0006016588410534645
2.88500e-07;0.0006059794251381892
2.88750e-07;0.0006060468397744921
2.89000e-07;0.0006018372316315689
2.89250e-07;0.0005934008631477124
2.89500e-07;0.0005808499900053876
2.89750e-07;0.0005643159047527356
2.90000e-07;0.0005439315175147195
2.90250e-07;0.0005198296943461145
2.90500e-07;0.0004921423824588023
2.90750e-07;0.0004610001682533833
2.91000e-07;0.00042655214135001445
2.91250e-07;0.00038899386285719517
2.91500e-07;0.00034855961988674254
2.91750e-07;0.0003054956346721386
2.92000e-07;0.00026004913520995363
2.92250e-07;0.00021246734850958188
2.92500e-07;0.00016299683505611415
2.92750e-07;0.00011188336542406045
2.93000e-07;5.938422413401656e-05
2.93250e-07;5.785795474544308e-06
2.93500e-07;-4.8601268146866505e-05
2.93750e-07;-0.00010342204670771957
2.94000e-07;-0.00015834166357023022
2.94250e-07;-0.00021326128043274088
2.94500e-07;-0.00026735769129055965
2.94750e-07;-0.0003210830203436822
2.95000e-07;-0.000373105693408989
2.95250e-07;-0.0004243608275761278
2.95500e-07;-0.0004729388628060261
2.95750e-07;-0.0005203100907987247
2.96000e-07;-0.0005650477716098222
2.96250e-07;-0.0006065087564853999
2.96500e-07;-0.0006447189026865033
2.96750e-07;-0.0006786201326370166
2.97000e-07;-0.0007110481444008575
2.97250e-07;-0.0007397180067618852
2.97500e-07;-0.0007666937360317863
2.97750e-07;-0.0007897044500746706
2.98000e-07;-0.0008109277781509691
2.98250e-07;-0.0008278075658608955
2.98500e-07;-0.0008427293325667066
2.98750e-07;-0.0008533845919516178
2.99000e-07;-0.0008621165559958916
2.99250e-07;-0.0008672373151837412
2.99500e-07;-0.0008707301822921753
2.99750e-07;-0.0008707213759057247
3.00000e-07;-0.0008691340529926143
3.00250e-07;-0.0008640470827142005
3.00500e-07;-0.000857382509266421
3.00750e-07;-0.0008468491851508815
3.01000e-07;-0.0008345718700905864
3.01250e-07;-0.0008222945550302888
3.01500e-07;-0.0008064097530279187
3.01750e-07;-0.0007888987349416939
3.02000e-07;-0.0007713877168554691
3.02250e-07;-0.0007508793509939783
3.02500e-07;-0.0007290198131838911
3.02750e-07;-0.0007071602753738039
3.03000e-07;-0.0006833962693735848
3.03250e-07;-0.0006587737497178107
3.03500e-07;-0.0006341512300620367
3.03750e-07;-0.0006087474936842985
3.04000e-07;-0.0005829915932603247
3.04250e-07;-0.0005572356928363509
3.04500e-07;-0.0005316528827233369
3.04750e-07;-0.0005061480998498206
3.05000e-07;-0.00048064331697630436
3.05250e-07;-0.0004566317447961421
3.05500e-07;-0.000433293295841396
3.05750e-07;-0.0004099548468866548
3.06000e-07;-0.00038872081435202153
3.06250e-07;-0.0003684354299717629
3.06500e-07;-0.0003497693744926891
3.06750e-07;-0.0003330301156639987
3.07000e-07;-0.0003180485559940638
3.07250e-07;-0.00030484323337450007
3.07500e-07;-0.00029344135311654027
3.07750e-07;-0.0002838802704756468
3.08000e-07;-0.0002761988933243301
3.08250e-07;-0.0002704361354583126
3.08500e-07;-0.00026662851045938866
3.08750e-07;-0.00026478776607629056
3.09000e-07;-0.00026487909057825506
3.09250e-07;-0.00026684377068908536
3.09500e-07;-0.00027062859871173495
3.09750e-07;-0.00027618662495234464
3.10000e-07;-0.0002834719345839986
3.10250e-07;-0.00029243861080538035
3.10500e-07;-0.00030303922322035877
3.10750e-07;-0.000315709547074782
3.11000e-07;-0.0003290861041101537
3.11250e-07;-0.00034430981929084296
3.11500e-07;-0.00036036621337892156
3.11750e-07;-0.00037799108252175396
3.12000e-07;-0.0003963230032498414
3.12250e-07;-0.0004162129507571923
3.12500e-07;-0.0004368052398802556
3.12750e-07;-0.00045739752900331886
3.13000e-07;-0.0004793656430297804
3.13250e-07;-0.0005019539640375686
3.13500e-07;-0.0005245422850453519
3.13750e-07;-0.0005471306060531401
3.14000e-07;-0.0005697189270609283
3.14250e-07;-0.0005920143941074877
3.14500e-07;-0.0006141778457567363
3.14750e-07;-0.0006363412974059849
3.15000e-07;-0.0006585047490552288
3.15250e-07;-0.0006806682007044774
3.15500e-07;-0.0007008641855760924
3.15750e-07;-0.0007201732577104838
3.16000e-07;-0.0007394823298448792
3.16250e-07;-0.0007563651285225842
3.16500e-07;-0.0007721541893760027
3.16750e-07;-0.0007879432502294244
3.17000e-07;-0.0008037828105237701
3.17250e-07;-0.0008196451354197249
3.17500e-07;-0.000835507460315683
3.17750e-07;-0.0008528817289410393
3.18000e-07;-0.0008709375654418086
3.18250e-07;-0.0008889934019425779
3.18500e-07;-0.0009070492384433434
3.18750e-07;-0.0009251050749441127
3.19000e-07;-0.0009439643110010061
3.19250e-07;-0.0009662646501355808
3.19500e-07;-0.00098856498927016
3.19750e-07;-0.0010108653284047395
3.20000e-07;-0.0010331656675393141
3.20250e-07;-0.0010554660066738933
3.20500e-07;-0.001081113940811225
3.20750e-07;-0.0011082709345579768
3.21000e-07;-0.0011354279283047343
3.21250e-07;-0.001162584922051486
3.21500e-07;-0.0011897419157982435
3.21750e-07;-0.001216898909545001
3.22000e-07;-0.0012440559032917528
3.22250e-07;-0.0012717280863687873
3.22500e-07;-0.0013016069169059874
3.22750e-07;-0.001331485747443181
3.23000e-07;-0.001361364577980381
3.23250e-07;-0.0013912434085175808
3.23500e-07;-0.0014211222390547746
3.23750e-07;-0.0014510010695919745
3.24000e-07;-0.0014808799001291746
3.24250e-07;-0.0015085950833427268
3.24500e-07;-0.0015353349177514017
3.24750e-07;-0.0015620747521600765
3.25000e-07;-0.0015888145865687459
3.25250e-07;-0.0016155544209774208
3.25500e-07;-0.0016422942553860902
3.25750e-07;-0.001669034089794765
3.26000e-07;-0.0016894918564182711
3.26250e-07;-0.0017071177348502349
3.26500e-07;-0.001724743613282202
3.26750e-07;-0.0017423694917141695
3.27000e-07;-0.001759995370146133
3.27250e-07;-0.0017776212485781004
3.27500e-07;-0.0017952471270100676
3.27750e-07;-0.001803652657901427
3.28000e-07;-0.0018079017558768882
3.28250e-07;-0.0018121508538523495
3.28500e-07;-0.00181639995182781
3.28750e-07;-0.0018206490498032712
3.29000e-07;-0.0018248981477787315
3.29250e-07;-0.0018291472457541928
3.29500e-07;-0.001833396343729654
3.29750e-07;-0.0018376454417051145
3.30000e-07;-0.0018394625309073646
3.30250e-07;-0.0018308628943212754
3.30500e-07;-0.0018222632577351882
3.30750e-07;-0.0018136636211490993
3.31000e-07;-0.00180506398456301
3.31250e-07;-0.0017964643479769229
3.31500e-07;-0.0017878647113908337
3.31750e-07;-0.0017792650748047448
3.32000e-07;-0.0017706654382186574
3.32250e-07;-0.0017620658016325684
3.32500e-07;-0.0017491748078111782
3.32750e-07;-0.0017343493165765213
3.33000e-07;-0.0017195238253418612
3.33250e-07;-0.001704698334107204
3.33500e-07;-0.001689872842872544
3.33750e-07;-0.0016750473516378838
3.34000e-07;-0.0016602218604032269
3.34250e-07;-0.001645390901197928
3.34500e-07;-0.0016305574770906232
3.34750e-07;-0.0016157240529833217
3.35000e-07;-0.001600890628876017
3.35250e-07;-0.0015860572047687125
3.35500e-07;-0.001571223780661411
3.35750e-07;-0.0015563903565541063
3.36000e-07;-0.001543332154394518
3.36250e-07;-0.0015310742030827534
3.36500e-07;-0.0015196733246446727
3.36750e-07;-0.001507547603704337
3.37000e-07;-0.001494920965068344
3.37250e-07;-0.0014777298777595772
3.37500e-07;-0.0014584811863721067
3.37750e-07;-0.0014347813089615373
3.38000e-07;-0.00140907488504934
3.38250e-07;-0.0013796705941046138
3.38500e-07;-0.0013485993447090049
3.38750e-07;-0.0013132072235255675
3.39000e-07;-0.0012758673000878905
3.39250e-07;-0.0012324757087431987
3.39500e-07;-0.001186356090979292
3.39750e-07;-0.0011348636590216544
3.40000e-07;-0.0010809492205541816
3.40250e-07;-0.0010227418748992461
3.40500e-07;-0.0009625993331293669
3.40750e-07;-0.0008983814022220409
3.41000e-07;-0.0008323263299833861
3.41250e-07;-0.0007617196077914867
3.41500e-07;-0.0006890610510451678
3.41750e-07;-0.0006136016008502943
3.42000e-07;-0.0005354445569915043
3.42250e-07;-0.0004555298587262201
3.42500e-07;-0.0003743025164083564
3.42750e-07;-0.00029200504084200097
3.43000e-07;-0.00020862968038176481
3.43250e-07;-0.00012426978661277634
3.43500e-07;-3.930248938435859e-05
3.43750e-07;4.57713406172142e-05
3.44000e-07;0.0001304367376168523
3.44250e-07;0.00021417880771550408
3.44500e-07;0.0002964985895154201
3.44750e-07;0.00037702392843828154
3.45000e-07;0.00045553951453610017
3.45250e-07;0.0005317666972084455
3.45500e-07;0.0006052490517044089
3.45750e-07;0.0006754527742287891
3.46000e-07;0.0007418352128451593
3.46250e-07;0.0008038537777736073
3.46500e-07;0.0008609748223526275
3.46750e-07;0.0009127634015272892
3.47000e-07;0.000958985693191858
3.47250e-07;0.0009995399614956863
3.47500e-07;0.0010343326390295066
3.47750e-07;0.0010632539302003554
3.48000e-07;0.0010861909019573934
3.48250e-07;0.0011030305873682576
3.48500e-07;0.0011136657246338677
3.48750e-07;0.0011180507150480971
3.49000e-07;0.001116266083930563
3.49250e-07;0.0011084752456490753
3.49500e-07;0.0010948463227406578
3.49750e-07;0.001075537658371277
3.50000e-07;0.001050705474005206
3.50250e-07;0.0010205058825890226
3.50500e-07;0.0009850986481146674
3.50750e-07;0.0009430841980384457
3.51000e-07;0.000898813692142617
3.51250e-07;0.000848615714064938
3.51500e-07;0.0007957456956572355
3.51750e-07;0.0007378530424417203
3.52000e-07;0.0006776962397949045
3.52250e-07;0.0006134130938607973
3.52500e-07;0.0005472698370158586
3.52750e-07;0.0004779691180070273
3.53000e-07;0.0004072450492154368
3.53250e-07;0.0003345240692357099
3.53500e-07;0.0002609029032970345
3.53750e-07;0.00018652239347424554
3.54000e-07;0.00011179957964384501
3.54250e-07;3.7076765813444514e-05
3.54500e-07;-3.7066534982506903e-05
3.54750e-07;-0.00011014827055246253
3.55000e-07;-0.00018173224988299216
3.55250e-07;-0.00025132075116585616
3.55500e-07;-0.00031841490712529387
3.55750e-07;-0.0003825183302516982
3.56000e-07;-0.00044313526532429746
3.56250e-07;-0.0004997699557207119
3.56500e-07;-0.0005520095886984855
3.56750e-07;-0.0006001261525016033
3.57000e-07;-0.0006452993989695912
3.57250e-07;-0.0006885075619007016
3.57500e-07;-0.0007291313912717174
3.57750e-07;-0.0007688323047475438
3.58000e-07;-0.0008051189290895143
3.58250e-07;-0.0008398664288292655
3.58500e-07;-0.0008706850025214587
3.58750e-07;-0.0008997324588585915
3.59000e-07;-0.0009262783874080222
3.59250e-07;-0.0009516966542948674
3.59500e-07;-0.0009747455197781634
3.59750e-07;-0.0009967262847433798
3.60000e-07;-0.001018707049708596
3.60250e-07;-0.001037050490800483
3.60500e-07;-0.001053754265642606
3.60750e-07;-0.0010704580404847259
3.61000e-07;-0.0010846061905480057
3.61250e-07;-0.00109760229261037
3.61500e-07;-0.0011105983946727317
3.61750e-07;-0.0011199447903031973
3.62000e-07;-0.0011276459377604533
3.62250e-07;-0.0011353470852177078
3.62500e-07;-0.0011430482326749637
3.62750e-07;-0.0011507493801322197
3.63000e-07;-0.0011584505275894742
3.63250e-07;-0.0011661516750467304
3.63500e-07;-0.0011738528225039863
3.63750e-07;-0.0011806512232360304
3.64000e-07;-0.0011835829993090796
3.64250e-07;-0.0011865147753821286
3.64500e-07;-0.0011894465514551771
3.64750e-07;-0.0011923783275282261
3.65000e-07;-0.0011953101036012747
3.65250e-07;-0.0011982418796743237
3.65500e-07;-0.001201173655747373
3.65750e-07;-0.0012041054318204212
3.66000e-07;-0.0012065243609326608
3.66250e-07;-0.0012087121041834735
3.66500e-07;-0.001210899847434286
3.66750e-07;-0.0012130875906850988
3.67000e-07;-0.0012152753339359115
3.67250e-07;-0.0012174630771867238
3.67500e-07;-0.0012196508204375368
3.67750e-07;-0.0012218385636883495
3.68000e-07;-0.0012240263069391618
3.68250e-07;-0.0012262140501899746
3.68500e-07;-0.0012288601569897194
3.68750e-07;-0.0012334695163293086
3.69000e-07;-0.0012380788756688977
3.69250e-07;-0.001242688235008486
3.69500e-07;-0.0012472975943480752
3.69750e-07;-0.0012519069536876643
3.70000e-07;-0.0012565163130272526
3.70250e-07;-0.0012611256723668418
3.70500e-07;-0.001265735031706431
3.70750e-07;-0.001270344391046019
3.71000e-07;-0.0012749537503856081
3.71250e-07;-0.001281088373276664
3.71500e-07;-0.0012879105684748535
3.71750e-07;-0.0012947327636730443
3.72000e-07;-0.0013015549588712351
3.72250e-07;-0.0013083771540694246
3.72500e-07;-0.0013151993492676154
3.72750e-07;-0.0013220215444658047
3.73000e-07;-0.0013288437396639955
3.73250e-07;-0.0013356659348621866
3.73500e-07;-0.0013424568726985446
3.73750e-07;-0.001349113929699163
3.74000e-07;-0.0013557709866997812
3.74250e-07;-0.001362428043700398
3.74500e-07;-0.0013690851007010162
3.74750e-07;-0.0013757421577016344
3.75000e-07;-0.0013823992147022513
3.75250e-07;-0.0013890562717028695
3.75500e-07;-0.0013957133287034876
3.75750e-07;-0.0014023703857041045
3.76000e-07;-0.001408042127125875
3.76250e-07;-0.0014132696989448514
3.76500e-07;-0.0014175612791399218
3.76750e-07;-0.0014214309244374496
3.77000e-07;-0.0014209583934955746
3.77250e-07;-0.0014185284564830806
3.77500e-07;-0.0014160985194705865
3.77750e-07;-0.001407520115040211
3.78000e-07;-0.001396170048018264
3.78250e-07;-0.0013848199809963172
3.78500e-07;-0.0013676201100932212
3.78750e-07;-0.0013477832108896625
3.79000e-07;-0.0013279463116861036
3.79250e-07;-0.0013019987394026055
3.79500e-07;-0.0012732965418061747
3.79750e-07;-0.001240030417114955
3.80000e-07;-0.0012047069234666422
3.80250e-07;-0.0011655167320278445
3.80500e-07;-0.0011245834750589973
3.80750e-07;-0.0010800139373726687
3.81000e-07;-0.0010338052036799035
3.81250e-07;-0.0009838566560541298
3.81500e-07;-0.000932222240768468
3.81750e-07;-0.0008776109997923971
3.82000e-07;-0.0008216578380014419
3.82250e-07;-0.00076363158455618
3.82500e-07;-0.0007046708038219837
3.82750e-07;-0.0006442482006857676
3.83000e-07;-0.0005831666238261891
3.83250e-07;-0.0005210252006492761
3.83500e-07;-0.0004584060102190207
3.83750e-07;-0.0003955708062903977
3.84000e-07;-0.0003328399761622989
3.84250e-07;-0.00027066108754010635
3.84500e-07;-0.00020940150276441412
3.84750e-07;-0.00014935954443059683
3.85000e-07;-9.075060302441663e-05
3.85250e-07;-3.382993873615319e-05
3.85500e-07;2.104607234098806e-05
3.85750e-07;7.347757497922457e-05
3.86000e-07;0.0001230598218183921
3.86250e-07;0.00016938814450708086
3.86500e-07;0.0002121480830264073
3.86750e-07;0.000251762977600977
3.87000e-07;0.00028961488534162184
3.87250e-07;0.00032682458497128016
3.87500e-07;0.00036356491931009585
3.87750e-07;0.000399198734600596
3.88000e-07;0.0004344056819598524
3.88250e-07;0.00046768524847882537
3.88500e-07;0.000500095972567375
3.88750e-07;0.0005310576997210159
3.89000e-07;0.0005613662347331155
3.89250e-07;0.0005916747697452216
3.89500e-07;0.0006218238557148486
3.89750e-07;0.0006519010637812014
3.90000e-07;0.0006819782718475605
3.90250e-07;0.0007120554799139197
3.90500e-07;0.0007410675456410651
3.90750e-07;0.0007695994567254935
3.91000e-07;0.0007981313678099219
3.91250e-07;0.0008266632788943443
3.91500e-07;0.0008549604197362735
3.91750e-07;0.0008831517286928668
3.92000e-07;0.0009113430376494541
3.92250e-07;0.0009395343466060474
3.92500e-07;0.0009677256555626347
3.92750e-07;0.0009947758483389215
3.93000e-07;0.0010213116382868784
3.93250e-07;0.0010478474282348295
