Time(s);Current(A)
1.75000e-06;0.010579661753312338
1.75025e-06;0.01055684916741999
1.75050e-06;0.01053403658152764
1.75075e-06;0.01051122399563527
1.75100e-06;0.010488411409742921
1.75125e-06;0.010472963270679526
1.75150e-06;0.010469376319539715
1.75175e-06;0.0104657893683999
1.75200e-06;0.01046220241726009
1.75225e-06;0.010458615466120279
1.75250e-06;0.010455028514980464
1.75275e-06;0.010451441563840654
1.75300e-06;0.01044785461270084
1.75325e-06;0.010444267661561028
1.75350e-06;0.010440680710421217
1.75375e-06;0.010437093759281403
1.75400e-06;0.010433506808141592
1.75425e-06;0.010429919857001778
1.75450e-06;0.010426332905861967
1.75475e-06;0.010422745954722156
1.75500e-06;0.010419159003582342
1.75525e-06;0.010415572052442531
1.75550e-06;0.010411985101302717
1.75575e-06;0.010408398150162906
1.75600e-06;0.010412804290267886
1.75625e-06;0.010418268989085164
1.75650e-06;0.010423733687902444
1.75675e-06;0.010429198386719726
1.75700e-06;0.010434663085537007
1.75725e-06;0.010440127784354289
1.75750e-06;0.010445592483171569
1.75775e-06;0.010451057181988847
1.75800e-06;0.01045652188080613
1.75825e-06;0.01046198657962341
1.75850e-06;0.010467451278440692
1.75875e-06;0.010472915977257972
1.75900e-06;0.01047838067607525
1.75925e-06;0.010483845374892534
1.75950e-06;0.010489310073709813
1.75975e-06;0.010494774772527094
1.76000e-06;0.010500239471344375
1.76025e-06;0.010505704170161657
1.76050e-06;0.010510293948768065
1.76075e-06;0.01051347457971142
1.76100e-06;0.010516655210654776
1.76125e-06;0.01051983584159813
1.76150e-06;0.010523016472541488
1.76175e-06;0.010526197103484842
1.76200e-06;0.010529377734428197
1.76225e-06;0.010532558365371553
1.76250e-06;0.010535738996314908
1.76275e-06;0.010538919627258265
1.76300e-06;0.01054210025820162
1.76325e-06;0.010545280889144974
1.76350e-06;0.01054846152008833
1.76375e-06;0.010551642151031685
1.76400e-06;0.010554822781975042
1.76425e-06;0.010558003412918397
1.76450e-06;0.010561184043861752
1.76475e-06;0.010564364674805109
1.76500e-06;0.010567545305748462
1.76525e-06;0.010570725936691821
1.76550e-06;0.010573906567635174
1.76575e-06;0.010577087198578531
1.76600e-06;0.010580267829521886
1.76625e-06;0.010583448460465241
1.76650e-06;0.010586629091408598
1.76675e-06;0.010589809722351953
1.76700e-06;0.01059299035329531
1.76725e-06;0.010596170984238663
1.76750e-06;0.010599351615182018
1.76775e-06;0.010602532246125375
1.76800e-06;0.01060571287706873
1.76825e-06;0.010608893508012087
1.76850e-06;0.010612074138955442
1.76875e-06;0.010615254769898795
1.76900e-06;0.010616750571634493
1.76925e-06;0.010615532785192661
1.76950e-06;0.010614314998750828
1.76975e-06;0.010613097212308999
1.77000e-06;0.010611879425867166
1.77025e-06;0.010610661639425334
1.77050e-06;0.010609443852983503
1.77075e-06;0.010608226066541672
1.77100e-06;0.01060700828009984
1.77125e-06;0.010605790493658009
1.77150e-06;0.010604572707216178
1.77175e-06;0.010603354920774346
1.77200e-06;0.010602137134332515
1.77225e-06;0.010600919347890684
1.77250e-06;0.01059970156144885
1.77275e-06;0.010598483775007021
1.77300e-06;0.01059726598856519
1.77325e-06;0.010596048202123357
1.77350e-06;0.010594830415681527
1.77375e-06;0.010593612629239694
1.77400e-06;0.010592394842797863
1.77425e-06;0.010591177056356031
1.77450e-06;0.0105899592699142
1.77475e-06;0.010588741483472369
1.77500e-06;0.010587523697030537
1.77525e-06;0.010586305910588706
1.77550e-06;0.010585088124146875
1.77575e-06;0.010583870337705043
1.77600e-06;0.010582652551263212
1.77625e-06;0.01058143476482138
1.77650e-06;0.01058021697837955
1.77675e-06;0.010578999191937716
1.77700e-06;0.010577781405495885
1.77725e-06;0.010576563619054055
1.77750e-06;0.010574723386251778
1.77775e-06;0.010571880640508086
1.77800e-06;0.010569037894764393
1.77825e-06;0.0105661951490207
1.77850e-06;0.010563352403277007
1.77875e-06;0.010560509657533315
1.77900e-06;0.010557666911789623
1.77925e-06;0.010554824166045928
1.77950e-06;0.010551981420302236
1.77975e-06;0.010549138674558542
1.78000e-06;0.01054629592881485
1.78025e-06;0.010543453183071158
1.78050e-06;0.010540610437327463
1.78075e-06;0.010537767691583771
1.78100e-06;0.010534924945840077
1.78125e-06;0.010532082200096386
1.78150e-06;0.010529239454352694
1.78175e-06;0.010526396708609
1.78200e-06;0.010523553962865308
1.78225e-06;0.010520711217121613
1.78250e-06;0.01051786847137792
1.78275e-06;0.010515025725634227
1.78300e-06;0.010512182979890535
1.78325e-06;0.010509340234146843
1.78350e-06;0.01050649748840315
1.78375e-06;0.010503654742659458
1.78400e-06;0.010500811996915762
1.78425e-06;0.01049796925117207
1.78450e-06;0.010495126505428378
1.78475e-06;0.010492283759684685
1.78500e-06;0.010489441013940993
1.78525e-06;0.010486598268197297
1.78550e-06;0.010484278635448322
1.78575e-06;0.010482801529188903
1.78600e-06;0.010481324422929482
1.78625e-06;0.010479847316670062
1.78650e-06;0.010478370210410643
1.78675e-06;0.010476893104151223
1.78700e-06;0.010475415997891802
1.78725e-06;0.010473938891632383
1.78750e-06;0.010472461785372963
1.78775e-06;0.010470984679113542
1.78800e-06;0.010469507572854123
1.78825e-06;0.010468030466594704
1.78850e-06;0.010466553360335284
1.78875e-06;0.010465076254075865
1.78900e-06;0.010463599147816444
1.78925e-06;0.010462122041557024
1.78950e-06;0.010460644935297603
1.78975e-06;0.010459167829038184
1.79000e-06;0.010457690722778764
1.79025e-06;0.010456213616519345
1.79050e-06;0.010454736510259926
1.79075e-06;0.010453259404000504
1.79100e-06;0.010451782297741085
1.79125e-06;0.010450305191481664
1.79150e-06;0.010448828085222244
1.79175e-06;0.010447350978962825
1.79200e-06;0.010445873872703406
1.79225e-06;0.010444396766443986
1.79250e-06;0.010442919660184565
1.79275e-06;0.010441442553925146
1.79300e-06;0.010439965447665726
1.79325e-06;0.010438488341406305
1.79350e-06;0.010437011235146886
1.79375e-06;0.010436353550581349
1.79400e-06;0.010435804385479197
1.79425e-06;0.010435255220377046
1.79450e-06;0.010434706055274892
1.79475e-06;0.010434156890172741
1.79500e-06;0.01043360772507059
1.79525e-06;0.010433058559968438
1.79550e-06;0.010432509394866285
1.79575e-06;0.010431960229764134
1.79600e-06;0.010431411064661982
1.79625e-06;0.010430861899559829
1.79650e-06;0.010430312734457678
1.79675e-06;0.010429763569355526
1.79700e-06;0.010429214404253375
1.79725e-06;0.010428665239151223
1.79750e-06;0.01042811607404907
1.79775e-06;0.010427566908946919
1.79800e-06;0.010427017743844766
1.79825e-06;0.010426468578742614
1.79850e-06;0.010425919413640463
1.79875e-06;0.010425370248538311
1.79900e-06;0.01042482108343616
1.79925e-06;0.010424271918334007
1.79950e-06;0.010423722753231855
1.79975e-06;0.010423173588129702
1.80000e-06;0.01042262442302755
1.80025e-06;0.0104220752579254
1.80050e-06;0.010421526092823248
1.80075e-06;0.010420976927721095
1.80100e-06;0.010420427762618943
1.80125e-06;0.010419878597516792
1.80150e-06;0.01041932943241464
1.80175e-06;0.01042088303674602
1.80200e-06;0.010425823364341601
1.80225e-06;0.010430763691937186
1.80250e-06;0.010435704019532767
1.80275e-06;0.010440644347128348
1.80300e-06;0.010445584674723932
1.80325e-06;0.010450525002319513
1.80350e-06;0.010455465329915098
1.80375e-06;0.010460405657510679
1.80400e-06;0.01046534598510626
1.80425e-06;0.010470286312701844
1.80450e-06;0.010475226640297425
1.80475e-06;0.01048016696789301
1.80500e-06;0.01048510729548859
1.80525e-06;0.010490047623084175
1.80550e-06;0.010494987950679756
1.80575e-06;0.010499928278275337
1.80600e-06;0.010504868605870922
1.80625e-06;0.010509808933466503
1.80650e-06;0.010514749261062087
1.80675e-06;0.010519689588657668
1.80700e-06;0.01052462991625325
1.80725e-06;0.010529391838227823
1.80750e-06;0.010533866419870407
1.80775e-06;0.010538341001512996
1.80800e-06;0.01054281558315558
1.80825e-06;0.010547290164798164
1.80850e-06;0.010551764746440753
1.80875e-06;0.010556239328083337
1.80900e-06;0.010560713909725924
1.80925e-06;0.01056518849136851
1.80950e-06;0.010569663073011097
1.80975e-06;0.010574137654653681
1.81000e-06;0.010578612236296267
1.81025e-06;0.010583086817938854
1.81050e-06;0.010587561399581438
1.81075e-06;0.010592035981224027
1.81100e-06;0.010596510562866611
1.81125e-06;0.010600985144509195
1.81150e-06;0.010605459726151784
1.81175e-06;0.010609934307794368
1.81200e-06;0.010614408889436957
1.81225e-06;0.01061888347107954
1.81250e-06;0.010623358052722125
1.81275e-06;0.01062613244939898
1.81300e-06;0.010626168525894502
1.81325e-06;0.010626204602390023
1.81350e-06;0.010626240678885545
1.81375e-06;0.010626276755381067
1.81400e-06;0.010626312831876589
1.81425e-06;0.010626348908372111
1.81450e-06;0.010626384984867633
1.81475e-06;0.010626421061363155
1.81500e-06;0.010626457137858676
1.81525e-06;0.010626493214354198
1.81550e-06;0.01062652929084972
1.81575e-06;0.010626565367345242
1.81600e-06;0.010626601443840764
1.81625e-06;0.010626637520336286
1.81650e-06;0.010626673596831808
1.81675e-06;0.010626709673327331
1.81700e-06;0.010626745749822853
1.81725e-06;0.010626781826318375
1.81750e-06;0.010625906021516777
1.81775e-06;0.010623561539477628
1.81800e-06;0.010621217057438475
1.81825e-06;0.010618872575399325
1.81850e-06;0.010616528093360174
1.81875e-06;0.01061418361132102
1.81900e-06;0.010611839129281871
1.81925e-06;0.010609494647242718
1.81950e-06;0.010607150165203569
1.81975e-06;0.010604805683164418
1.82000e-06;0.010602461201125265
1.82025e-06;0.010600116719086115
1.82050e-06;0.010597772237046962
1.82075e-06;0.010595427755007812
1.82100e-06;0.010593083272968661
1.82125e-06;0.010590738790929508
1.82150e-06;0.010588394308890359
1.82175e-06;0.010586049826851206
1.82200e-06;0.010583705344812056
1.82225e-06;0.010578367158773442
1.82250e-06;0.010568207309066819
1.82275e-06;0.010558047459360195
1.82300e-06;0.010547887609653563
1.82325e-06;0.01053772775994694
1.82350e-06;0.010527567910240308
1.82375e-06;0.010517408060533685
1.82400e-06;0.010507248210827061
1.82425e-06;0.01049708836112043
1.82450e-06;0.010486928511413807
1.82475e-06;0.010476768661707174
1.82500e-06;0.01046660881200055
1.82525e-06;0.010456448962293929
1.82550e-06;0.010446289112587296
1.82575e-06;0.010436129262880673
1.82600e-06;0.01042596941317404
1.82625e-06;0.010415809563467418
1.82650e-06;0.010405649713760786
1.82675e-06;0.01039503875825783
1.82700e-06;0.010383701251155605
1.82725e-06;0.010372363744053372
1.82750e-06;0.010361026236951147
1.82775e-06;0.010349688729848913
1.82800e-06;0.010338351222746688
1.82825e-06;0.010327013715644463
1.82850e-06;0.01031567620854223
1.82875e-06;0.010304338701440005
1.82900e-06;0.010293001194337771
1.82925e-06;0.010281663687235546
1.82950e-06;0.010270326180133321
1.82975e-06;0.010258988673031088
1.83000e-06;0.010247651165928863
1.83025e-06;0.010236313658826629
1.83050e-06;0.010224976151724404
1.83075e-06;0.01021363864462217
1.83100e-06;0.010202301137519946
1.83125e-06;0.010191417067129411
1.83150e-06;0.010181263302513514
1.83175e-06;0.010171109537897627
1.83200e-06;0.01016095577328173
1.83225e-06;0.010150802008665841
1.83250e-06;0.010140648244049952
1.83275e-06;0.010130494479434057
1.83300e-06;0.010120340714818168
1.83325e-06;0.010110186950202271
1.83350e-06;0.010100033185586383
1.83375e-06;0.010089879420970496
1.83400e-06;0.010079725656354599
1.83425e-06;0.01006957189173871
1.83450e-06;0.010059418127122813
1.83475e-06;0.010049264362506926
1.83500e-06;0.010039110597891029
1.83525e-06;0.01002895683327514
1.83550e-06;0.010018803068659252
1.83575e-06;0.010008649304043354
1.83600e-06;0.009998495539427468
1.83625e-06;0.00998834177481157
1.83650e-06;0.009978188010195682
1.83675e-06;0.009968034245579793
1.83700e-06;0.009958489416011565
1.83725e-06;0.009949925338045973
1.83750e-06;0.009941361260080375
1.83775e-06;0.009932797182114783
1.83800e-06;0.009924233104149194
1.83825e-06;0.009915669026183594
1.83850e-06;0.009907104948218004
1.83875e-06;0.009898540870252404
1.83900e-06;0.009889976792286814
1.83925e-06;0.009881412714321214
1.83950e-06;0.009872848636355623
1.83975e-06;0.009864284558390033
1.84000e-06;0.009855720480424433
1.84025e-06;0.009847156402458843
1.84050e-06;0.009838592324493243
1.84075e-06;0.009830028246527654
1.84100e-06;0.009821464168562062
1.84125e-06;0.009812900090596464
1.84150e-06;0.009804336012630872
1.84175e-06;0.009795771934665274
1.84200e-06;0.009787207856699683
1.84225e-06;0.009778643778734091
1.84250e-06;0.009770079700768493
1.84275e-06;0.009762055240478053
1.84300e-06;0.009754899889137277
1.84325e-06;0.009747744537796506
1.84350e-06;0.009740589186455735
1.84375e-06;0.009733433835114958
1.84400e-06;0.009726278483774187
1.84425e-06;0.009719123132433411
1.84450e-06;0.00971196778109264
1.84475e-06;0.009704812429751863
1.84500e-06;0.009697657078411092
1.84525e-06;0.009690501727070321
1.84550e-06;0.009683346375729545
1.84575e-06;0.009676191024388775
1.84600e-06;0.009669035673047997
1.84625e-06;0.009661880321707226
1.84650e-06;0.009654724970366456
1.84675e-06;0.009648017915444309
1.84700e-06;0.009642032887333864
1.84725e-06;0.009636047859223415
1.84750e-06;0.00963006283111297
1.84775e-06;0.009624077803002526
1.84800e-06;0.009618092774892076
1.84825e-06;0.009612107746781631
1.84850e-06;0.009606122718671182
1.84875e-06;0.009600137690560737
1.84900e-06;0.009594152662450287
1.84925e-06;0.009588167634339843
1.84950e-06;0.009582182606229398
1.84975e-06;0.009576197578118948
1.85000e-06;0.009570212550008504
1.85025e-06;0.009564227521898054
1.85050e-06;0.00955824249378761
1.85075e-06;0.009556721479732395
1.85100e-06;0.009562390212687552
1.85125e-06;0.009568058945642702
1.85150e-06;0.009573727678597857
1.85175e-06;0.009579396411553009
1.85200e-06;0.00958506514450816
1.85225e-06;0.009590733877463316
1.85250e-06;0.009596402610418466
1.85275e-06;0.009602071343373621
1.85300e-06;0.009607740076328773
1.85325e-06;0.009613408809283928
1.85350e-06;0.00961907754223908
1.85375e-06;0.00962474627519423
1.85400e-06;0.009640241277842321
1.85425e-06;0.009659689944305043
1.85450e-06;0.00967913861076778
1.85475e-06;0.009698587277230502
1.85500e-06;0.009718035943693224
1.85525e-06;0.009737484610155962
1.85550e-06;0.009756933276618683
1.85575e-06;0.009776381943081421
1.85600e-06;0.009795830609544143
1.85625e-06;0.009815279276006863
1.85650e-06;0.009834727942469602
1.85675e-06;0.009854176608932322
1.85700e-06;0.009873683523288058
1.85725e-06;0.009894483105637316
1.85750e-06;0.00991528268798659
1.85775e-06;0.009936082270335848
1.85800e-06;0.009956881852685106
1.85825e-06;0.00997768143503438
1.85850e-06;0.009998481017383636
1.85875e-06;0.010019280599732911
1.85900e-06;0.010040080182082169
1.85925e-06;0.010060879764431426
1.85950e-06;0.010081679346780701
1.85975e-06;0.010097018804508527
1.86000e-06;0.010108284996633703
1.86025e-06;0.01011955118875887
1.86050e-06;0.010130817380884036
1.86075e-06;0.010142083573009213
1.86100e-06;0.01015334976513438
1.86125e-06;0.010164615957259556
1.86150e-06;0.010175882149384724
1.86175e-06;0.0101871483415099
1.86200e-06;0.010198414533635066
1.86225e-06;0.010208560872778744
1.86250e-06;0.01020888635499724
1.86275e-06;0.010209211837215737
1.86300e-06;0.010209537319434234
1.86325e-06;0.01020986280165273
1.86350e-06;0.010210188283871225
1.86375e-06;0.010210513766089722
1.86400e-06;0.010210839248308219
1.86425e-06;0.010211164730526716
1.86450e-06;0.010211490212745212
1.86475e-06;0.010211815694963707
1.86500e-06;0.010212141177182204
1.86525e-06;0.0102124666594007
1.86550e-06;0.010212792141619197
1.86575e-06;0.010213117623837694
1.86600e-06;0.010213443106056189
1.86625e-06;0.010210644752493258
1.86650e-06;0.010205784210019003
1.86675e-06;0.010200923667544746
1.86700e-06;0.01019606312507049
1.86725e-06;0.010191202582596232
1.86750e-06;0.010186342040121978
1.86775e-06;0.010181481497647723
1.86800e-06;0.010176620955173464
1.86825e-06;0.010171760412699208
1.86850e-06;0.010166899870224951
1.86875e-06;0.010162039327750696
1.86900e-06;0.01015717878527644
1.86925e-06;0.010152318242802182
1.86950e-06;0.010147457700327928
1.86975e-06;0.010142597157853669
1.87000e-06;0.010137045677649083
1.87025e-06;0.010125434830094364
1.87050e-06;0.010113823982539655
1.87075e-06;0.010102213134984946
1.87100e-06;0.010090602287430226
1.87125e-06;0.010078991439875517
1.87150e-06;0.010067380592320797
1.87175e-06;0.010055769744766088
1.87200e-06;0.010044158897211379
1.87225e-06;0.01003254804965666
1.87250e-06;0.010010119223290615
1.87275e-06;0.009980548947274908
1.87300e-06;0.009950978671259226
1.87325e-06;0.009921408395243544
1.87350e-06;0.009891838119227838
1.87375e-06;0.009862267843212156
1.87400e-06;0.00983269756719645
1.87425e-06;0.009803127291180767
1.87450e-06;0.009773557015165059
1.87475e-06;0.009742525656426339
1.87500e-06;0.009698680933243164
1.87525e-06;0.009654836210059954
1.87550e-06;0.00961099148687678
1.87575e-06;0.009567146763693569
1.87600e-06;0.009523302040510395
1.87625e-06;0.00947945731732722
1.87650e-06;0.009435612594144008
1.87675e-06;0.009391767870960833
1.87700e-06;0.009347923147777623
1.87725e-06;0.009304078424594448
1.87750e-06;0.009260233701411274
1.87775e-06;0.009220068329254625
1.87800e-06;0.009182331867392349
1.87825e-06;0.009144595405530042
1.87850e-06;0.009106858943667766
1.87875e-06;0.009069122481805492
1.87900e-06;0.009031386019943185
1.87925e-06;0.008993649558080909
1.87950e-06;0.008955913096218602
1.87975e-06;0.008918176634356328
1.88000e-06;0.008880440172494019
1.88025e-06;0.008842703710631745
1.88050e-06;0.008808046823519246
1.88075e-06;0.008800397109222724
1.88100e-06;0.00879274739492621
1.88125e-06;0.00878509768062969
1.88150e-06;0.008777447966333176
1.88175e-06;0.008769798252036661
1.88200e-06;0.00876214853774014
1.88225e-06;0.008754498823443625
1.88250e-06;0.008746849109147106
1.88275e-06;0.008739199394850591
1.88300e-06;0.008731549680554077
1.88325e-06;0.008727040191546466
1.88350e-06;0.008750069766840179
1.88375e-06;0.008773099342133914
1.88400e-06;0.008796128917427627
1.88425e-06;0.008819158492721363
1.88450e-06;0.008842188068015077
1.88475e-06;0.00886521764330879
1.88500e-06;0.008888247218602525
1.88525e-06;0.00891127679389624
1.88550e-06;0.008934306369189973
1.88575e-06;0.008957335944483688
1.88600e-06;0.008981757837489309
1.88625e-06;0.009018390041369817
1.88650e-06;0.009055022245250293
1.88675e-06;0.009091654449130801
1.88700e-06;0.009128286653011276
1.88725e-06;0.009164918856891753
1.88750e-06;0.009201551060772261
1.88775e-06;0.009238183264652738
1.88800e-06;0.009274815468533246
1.88825e-06;0.009308075143207365
1.88850e-06;0.009339108454904007
1.88875e-06;0.009370141766600622
1.88900e-06;0.009401175078297236
1.88925e-06;0.009432208389993878
1.88950e-06;0.009463241701690493
1.88975e-06;0.009494275013387135
1.89000e-06;0.00952530832508375
1.89025e-06;0.00955509378655606
1.89050e-06;0.009573935884288405
1.89075e-06;0.009592777982020732
1.89100e-06;0.009611620079753077
1.89125e-06;0.009630462177485406
1.89150e-06;0.009649304275217733
1.89175e-06;0.009668146372950078
1.89200e-06;0.009686988470682405
1.89225e-06;0.00970583056841475
1.89250e-06;0.009724672666147077
1.89275e-06;0.009743514763879422
1.89300e-06;0.00976235686161175
1.89325e-06;0.009781198959344078
1.89350e-06;0.009800041057076422
1.89375e-06;0.00981888315480875
1.89400e-06;0.009837725252541094
1.89425e-06;0.00985397250829078
1.89450e-06;0.009868506788475557
1.89475e-06;0.009883041068660345
1.89500e-06;0.009897575348845122
1.89525e-06;0.009912109629029912
1.89550e-06;0.009926643909214689
1.89575e-06;0.009941178189399465
1.89600e-06;0.009955712469584255
1.89625e-06;0.009970246749769032
1.89650e-06;0.00998478102995382
1.89675e-06;0.009999315310138597
1.89700e-06;0.010013849590323387
1.89725e-06;0.010028383870508164
1.89750e-06;0.01004291815069294
1.89775e-06;0.01005745243087773
1.89800e-06;0.010070980344047471
1.89825e-06;0.01007568264651039
1.89850e-06;0.010080384948973302
1.89875e-06;0.010085087251436215
1.89900e-06;0.010089789553899133
1.89925e-06;0.010094491856362046
1.89950e-06;0.010099194158824962
1.89975e-06;0.010103896461287877
1.90000e-06;0.01010859876375079
1.90025e-06;0.010113301066213706
1.90050e-06;0.010118003368676621
1.90075e-06;0.010122705671139537
1.90100e-06;0.01012740797360245
1.90125e-06;0.010132110276065368
1.90150e-06;0.010136812578528281
1.90175e-06;0.010141514880991194
