Time(s);Current(A)
1.23000e-05;-0.0007984588190951467
1.23003e-05;-0.0008399807935641865
1.23005e-05;-0.0008783266326936876
1.23008e-05;-0.0009129172957957175
1.23010e-05;-0.0009441968122020748
1.23013e-05;-0.0009731364445649571
1.23015e-05;-0.0010000128715653457
1.23018e-05;-0.0010241702525392341
1.23020e-05;-0.0010459301000285827
1.23023e-05;-0.0010676899475180787
1.23025e-05;-0.001085655164398349
1.23028e-05;-0.0011002744452928471
1.23030e-05;-0.0011148937261874446
1.23033e-05;-0.0011269933580048033
1.23035e-05;-0.0011368712756719664
1.23038e-05;-0.0011467491933391963
1.23040e-05;-0.0011544585886302413
1.23042e-05;-0.0011602558776316468
1.23045e-05;-0.0011660531666330919
1.23048e-05;-0.001168941133663268
1.23050e-05;-0.0011692637903692419
1.23053e-05;-0.001169586447075218
1.23055e-05;-0.0011699091037811942
1.23058e-05;-0.00117023176048717
1.23060e-05;-0.001170554417193144
1.23063e-05;-0.0011708770738991202
1.23065e-05;-0.001171107956094139
1.23068e-05;-0.0011685095971550605
1.23070e-05;-0.0011659112382159645
1.23073e-05;-0.0011633128792768684
1.23075e-05;-0.00116071452033779
1.23078e-05;-0.001158116161398694
1.23080e-05;-0.001155517802459598
1.23083e-05;-0.0011529194435205194
1.23085e-05;-0.0011493111041498906
1.23088e-05;-0.0011448122090917483
1.23090e-05;-0.0011403133140336363
1.23093e-05;-0.0011358144189754942
1.23095e-05;-0.001131315523917352
1.23098e-05;-0.00112681662885924
1.23100e-05;-0.0011223177338010979
1.23103e-05;-0.0011178188387429555
1.23105e-05;-0.0011133199436848436
1.23108e-05;-0.0011088210486267015
1.23110e-05;-0.0011043221535685592
1.23113e-05;-0.0010998232585104472
1.23115e-05;-0.001095324363452305
1.23118e-05;-0.0010908254683941628
1.23120e-05;-0.0010831568903078783
1.23123e-05;-0.0010726934271321025
1.23125e-05;-0.0010622299639563267
1.23127e-05;-0.0010517665007806218
1.23130e-05;-0.001041303037604846
1.23133e-05;-0.0010308395744290703
1.23135e-05;-0.0010203761112533654
1.23138e-05;-0.0010099126480775898
1.23140e-05;-0.000999449184901814
1.23143e-05;-0.0009889857217260383
1.23145e-05;-0.0009785222585503334
1.23148e-05;-0.0009680587953745576
1.23150e-05;-0.0009575953321987819
1.23153e-05;-0.0009471318690230771
1.23155e-05;-0.0009358979953203538
1.23158e-05;-0.0009239848079841772
1.23160e-05;-0.0009120716206480813
1.23163e-05;-0.0009001584333119047
1.23165e-05;-0.000888245245975728
1.23168e-05;-0.0008763320586396321
1.23170e-05;-0.0008644188713034554
1.23173e-05;-0.0008525056839672788
1.23175e-05;-0.0008419945378458837
1.23178e-05;-0.000832719649120398
1.23180e-05;-0.0008234447603949124
1.23183e-05;-0.0008141698716694896
1.23185e-05;-0.000804894982944004
1.23188e-05;-0.0007956200942185183
1.23190e-05;-0.0007863452054930954
1.23193e-05;-0.0007770703167676098
1.23195e-05;-0.0007654297390555035
1.23198e-05;-0.0007517032023318604
1.23200e-05;-0.0007379766656081244
1.23203e-05;-0.0007242501288843883
1.23205e-05;-0.0007105235921607453
1.23208e-05;-0.0006967970554370091
1.23210e-05;-0.0006830705187132731
1.23212e-05;-0.00066934398198963
1.23215e-05;-0.0006556174452658939
1.23218e-05;-0.0006416030842348132
1.23220e-05;-0.000618715623641638
1.23223e-05;-0.0005958281630483078
1.23225e-05;-0.0005729407024549776
1.23228e-05;-0.0005500532418616474
1.23230e-05;-0.0005271657812684722
1.23233e-05;-0.000504278320675142
1.23235e-05;-0.0004813908600818117
1.23238e-05;-0.0004585033994886366
1.23240e-05;-0.0004356159388953064
1.23243e-05;-0.00041019748712202013
1.23245e-05;-0.0003825473202372115
1.23248e-05;-0.00035489715335221554
1.23250e-05;-0.00032724698646721955
1.23253e-05;-0.00029916391342717555
1.23255e-05;-0.00027069912305173797
1.23258e-05;-0.00024223433267630038
1.23260e-05;-0.0002137695423010557
1.23263e-05;-0.00018561481296998066
1.23265e-05;-0.00015773348163562444
1.23268e-05;-0.0001303167044133852
1.23270e-05;-0.00010367366998086283
1.23273e-05;-7.774306367499247e-05
1.23275e-05;-5.2620604029423675e-05
1.23278e-05;-2.8465346479650556e-05
1.23280e-05;-5.457673510360879e-06
1.23283e-05;1.6222007740315264e-05
1.23285e-05;3.639332151470794e-05
1.23288e-05;5.482962147808709e-05
1.23290e-05;7.117683396892082e-05
1.23293e-05;8.503573619649118e-05
1.23295e-05;9.617181609329784e-05
1.23297e-05;0.00010453736564499069
1.23300e-05;0.00011014289706909909
1.23303e-05;0.00011299906623408844
1.23305e-05;0.00011311654788418871
1.23308e-05;0.00011047704265142512
1.23310e-05;0.00010498244294691387
1.23313e-05;9.650637637383452e-05
1.23315e-05;8.502565626824048e-05
1.23318e-05;7.063411465036439e-05
1.23320e-05;5.346204177979604e-05
1.23323e-05;3.3639815260324914e-05
1.23325e-05;1.1297823037763146e-05
1.23328e-05;-1.3451706505454894e-05
1.23330e-05;-4.054653725850593e-05
1.23333e-05;-6.994214090486601e-05
1.23335e-05;-0.00010152935223747257
1.23338e-05;-0.0001351257082436949
1.23340e-05;-0.00017052593391238868
1.23343e-05;-0.00020752470421443405
1.23345e-05;-0.00024621246270502425
1.23348e-05;-0.00028576877379922635
1.23350e-05;-0.0003265276711600003
1.23353e-05;-0.0003683469554417208
1.23355e-05;-0.0004101662397237246
1.23358e-05;-0.00045244940662156775
1.23360e-05;-0.0004951416045154903
1.23363e-05;-0.0005378338024097022
1.23365e-05;-0.0005805260003039141
1.23368e-05;-0.0006218529126922946
1.23370e-05;-0.0006619759772288959
1.23373e-05;-0.0007020990417654972
1.23375e-05;-0.0007422221063018266
1.23378e-05;-0.0007800160358885246
1.23380e-05;-0.0008157562381813245
1.23382e-05;-0.0008491574689446754
1.23385e-05;-0.0008804962989575035
1.23388e-05;-0.0009087731688601268
1.23390e-05;-0.0009343501389342794
1.23393e-05;-0.0009560042626109498
1.23395e-05;-0.0009741993953358906
1.23398e-05;-0.0009882478530844059
1.23400e-05;-0.0009986399578255564
1.23403e-05;-0.001004869395415743
1.23405e-05;-0.0010074283788124904
1.23408e-05;-0.0010057306598343714
1.23410e-05;-0.0010002795705974677
1.23413e-05;-0.0009903913488999644
1.23415e-05;-0.0009765906617433936
1.23418e-05;-0.0009585715513531388
1.23420e-05;-0.0009368328235432775
1.23423e-05;-0.0009112245308072961
1.23425e-05;-0.0008822042283439732
1.23428e-05;-0.0008496143302250859
1.23430e-05;-0.000813876921900252
1.23433e-05;-0.000774815739605065
1.23435e-05;-0.000732823801699515
1.23438e-05;-0.0006880038627023526
1.23440e-05;-0.0006406903185016193
1.23443e-05;-0.0005911260845246495
1.23445e-05;-0.0005395772927085407
1.23448e-05;-0.0004863243212558345
1.23450e-05;-0.00043156868022475544
1.23453e-05;-0.00037546087041659756
1.23455e-05;-0.00031816077850145455
1.23458e-05;-0.0002608606865863115
1.23460e-05;-0.0002032075301697548
1.23463e-05;-0.00014524305722560506
1.23465e-05;-8.760676218599149e-05
1.23467e-05;-3.071183910951378e-05
1.23470e-05;2.5170773426996663e-05
1.23473e-05;7.972904924100751e-05
1.23475e-05;0.00013262161686968
1.23478e-05;0.0001834769049074048
1.23480e-05;0.00023191427025962428
1.23483e-05;0.00027755307257535907
1.23485e-05;0.0003200127383585781
1.23488e-05;0.0003589129824877543
1.23490e-05;0.00039390108249389127
1.23493e-05;0.000424717855336261
1.23495e-05;0.0004512228250708591
1.23498e-05;0.0004733416108349281
1.23500e-05;0.000491013383793899
1.23503e-05;0.0005041773651701668
1.23505e-05;0.0005127728443731871
1.23508e-05;0.0005167392345431798
1.23510e-05;0.0005160332874006586
1.23513e-05;0.0005106704072113885
1.23515e-05;0.0005007402943061124
1.23518e-05;0.00048637400538253126
1.23520e-05;0.00046771115517302845
1.23523e-05;0.0004448913820275687
1.23525e-05;0.0004180543124868122
1.23528e-05;0.0003873397104599879
1.23530e-05;0.0003528981825823906
1.23533e-05;0.00031491700517742604
1.23535e-05;0.00027363002377736806
1.23538e-05;0.00022929699561232387
1.23540e-05;0.00018218300793146087
1.23543e-05;0.00013255314727939516
1.23545e-05;8.067247338299215e-05
1.23548e-05;2.6806107376131363e-05
1.23550e-05;-2.8774057894321948e-05
1.23552e-05;-8.577315258231597e-05
1.23555e-05;-0.00014402492095148513
1.23558e-05;-0.0002028549709172486
1.23560e-05;-0.00026186533045986673
1.23563e-05;-0.0003210346789443928
1.23565e-05;-0.00038020402742891887
1.23568e-05;-0.00043848678718048174
1.23570e-05;-0.0004959877925381548
1.23573e-05;-0.0005518868042345097
1.23575e-05;-0.0006063732493857792
1.23578e-05;-0.000658432503120393
1.23580e-05;-0.0007083515677427654
1.23583e-05;-0.0007550092495293451
1.23585e-05;-0.0007987911894230093
1.23588e-05;-0.0008388829582337757
1.23590e-05;-0.0008757208988037428
1.23593e-05;-0.0009096288997689796
1.23595e-05;-0.000940953410697223
1.23598e-05;-0.0009693963606690158
1.23600e-05;-0.0009952984787370287
1.23603e-05;-0.0010179564434496977
1.23605e-05;-0.0010377538584566035
1.23608e-05;-0.001054198268149832
1.23610e-05;-0.0010676861473367008
1.23613e-05;-0.0010784569962761857
1.23615e-05;-0.0010868320891513413
1.23618e-05;-0.0010920343490267092
1.23620e-05;-0.0010944389463041625
1.23623e-05;-0.0010968435435815998
1.23625e-05;-0.001095411833676561
1.23628e-05;-0.0010905974392372902
1.23630e-05;-0.0010857830447980517
1.23633e-05;-0.0010779870532465748
1.23635e-05;-0.0010675620223718654
1.23637e-05;-0.001057136991497227
1.23640e-05;-0.0010443005139198426
1.23643e-05;-0.0010293377302156414
1.23645e-05;-0.0010143749465115414
1.23648e-05;-0.0009970499139989914
1.23650e-05;-0.0009776419558680464
1.23653e-05;-0.0009582339977371016
1.23655e-05;-0.0009388260396062882
1.23658e-05;-0.0009194180814753434
1.23660e-05;-0.0008999614148469119
1.23663e-05;-0.0008790031538753398
1.23665e-05;-0.0008580448929036257
1.23668e-05;-0.0008370866319319114
1.23670e-05;-0.0008161283709603393
1.23673e-05;-0.0007951701099886252
1.23675e-05;-0.000775323862405793
1.23678e-05;-0.0007564581386221497
1.23680e-05;-0.0007375924148383785
1.23683e-05;-0.0007204430194844808
1.23685e-05;-0.0007048070059742603
1.23688e-05;-0.0006891709924639338
1.23690e-05;-0.0006732290551499228
1.23693e-05;-0.0006570173678732719
1.23695e-05;-0.0006408056805965112
1.23698e-05;-0.0006226249194488111
1.23700e-05;-0.0006027079168026935
1.23703e-05;-0.0005816563668084885
1.23705e-05;-0.0005596044235752518
1.23708e-05;-0.0005364375288212867
1.23710e-05;-0.0005122875195542546
1.23713e-05;-0.0004859860601521469
1.23715e-05;-0.0004577875479977067
1.23718e-05;-0.0004274723462615533
1.23720e-05;-0.00039529074207827434
1.23723e-05;-0.00036185071305966756
1.23725e-05;-0.00032663764884215173
1.23728e-05;-0.00029022258841380496
1.23730e-05;-0.0002525057799582956
1.23733e-05;-0.00021320927540547911
1.23735e-05;-0.00017223687160978975
1.23738e-05;-0.00012976827291369495
1.23740e-05;-8.607628277922998e-05
1.23743e-05;-4.1433881145253585e-05
1.23745e-05;3.8859901329668855e-06
1.23748e-05;4.966384624817505e-05
1.23750e-05;9.597439592699835e-05
1.23753e-05;0.00014259879416432547
1.23755e-05;0.00018949379693066298
1.23758e-05;0.0002366274066995975
1.23760e-05;0.00028376101646853205
1.23763e-05;0.00033030358856301137
1.23765e-05;0.00037632501000295707
1.23768e-05;0.00042126150778182004
1.23770e-05;0.00046524136827450396
1.23773e-05;0.0005078860755200107
1.23775e-05;0.0005493535041930695
1.23778e-05;0.0005889722746049173
1.23780e-05;0.0006269609806311435
1.23783e-05;0.0006624668164908805
1.23785e-05;0.0006957833681983397
1.23788e-05;0.0007263395220988995
1.23790e-05;0.0007544616803543276
1.23793e-05;0.0007825838386095651
1.23795e-05;0.0008096087027259272
1.23798e-05;0.0008356660218206645
1.23800e-05;0.0008617233409152253
1.23803e-05;0.0008853289665071196
1.23805e-05;0.0009067727981379985
1.23808e-05;0.0009282166297687322
1.23810e-05;0.0009496604613996112
1.23813e-05;0.0009711042930304901
1.23815e-05;0.0009925481246612238
1.23818e-05;0.001013991956292103
1.23820e-05;0.0010354357879229818
1.23823e-05;0.0010568796195538608
1.23825e-05;0.0010767822564854699
1.23828e-05;0.0010953259366839605
1.23830e-05;0.0011138696168824511
1.23833e-05;0.0011324132970808162
1.23835e-05;0.0011509569772793068
1.23838e-05;0.0011695006574777974
1.23840e-05;0.0011880443376761623
1.23843e-05;0.001206588017874653
1.23845e-05;0.0012251316980731435
1.23848e-05;0.0012420139843397167
1.23850e-05;0.0012574313275517327
1.23853e-05;0.0012728486707637488
1.23855e-05;0.0012882660139756602
1.23858e-05;0.0013036833571876763
1.23860e-05;0.0013191007003996924
1.23863e-05;0.0013345180436116037
1.23865e-05;0.0013499353868236198
1.23868e-05;0.001365352730035636
1.23870e-05;0.0013807700732475473
1.23873e-05;0.0013961874164595634
1.23875e-05;0.0014113232741157118
1.23878e-05;0.001420774718395763
1.23880e-05;0.0014302261626758783
1.23883e-05;0.0014396776069559936
1.23885e-05;0.0014491290512360449
1.23888e-05;0.0014585804955161601
1.23890e-05;0.0014680319397962756
1.23893e-05;0.0014774833840763269
1.23895e-05;0.0014869348283564421
1.23898e-05;0.0014963862726365574
1.23900e-05;0.0015058377169166086
1.23903e-05;0.001515289161196724
1.23905e-05;0.0015195267563911773
1.23908e-05;0.0015241256718396463
1.23910e-05;0.0015280223979006443
1.23913e-05;0.0015273305628094476
1.23915e-05;0.001526638727718251
1.23918e-05;0.001525946892627059
1.23920e-05;0.0015252550575358625
1.23923e-05;0.0015245632224446658
1.23925e-05;0.001523871387353474
1.23928e-05;0.0015231795522622773
1.23930e-05;0.0015224877171710809
1.23933e-05;0.001521795882079889
1.23935e-05;0.0015211040469886924
1.23938e-05;0.0015172471134834128
1.23940e-05;0.0015102253751825008
1.23943e-05;0.0015032036368815413
1.23945e-05;0.0014961818985805815
1.23948e-05;0.0014891601602796695
1.23950e-05;0.0014821384219787098
1.23953e-05;0.0014751166836777503
1.23955e-05;0.0014680949453768383
1.23958e-05;0.0014610732070758788
1.23960e-05;0.001454051468774919
1.23963e-05;0.001447029730474007
1.23965e-05;0.0014388023550530506
1.23968e-05;0.0014293694543560578
1.23970e-05;0.0014199365536591286
1.23973e-05;0.0014105036529621358
1.23975e-05;0.001401070752265143
1.23978e-05;0.001391637851568214
1.23980e-05;0.0013822049696695473
1.23983e-05;0.0013735825882632126
1.23985e-05;0.0013649602068569364
1.23988e-05;0.0013563378254506015
1.23990e-05;0.0013477154440442668
1.23993e-05;0.0013390930626379321
1.23995e-05;0.0013304706812316558
1.23998e-05;0.001327126011603303
1.24000e-05;0.0013290585641532937
1.24003e-05;0.0013309911167032713
1.24005e-05;0.001332923669253262
1.24008e-05;0.0013348562218032526
1.24010e-05;0.0013367887743532302
1.24013e-05;0.0013387213269032208
1.24015e-05;0.0013406538794532115
1.24018e-05;0.0013425864320031889
1.24020e-05;0.0013445189845531795
1.24023e-05;0.0013535492195473195
1.24025e-05;0.0013696764785520931
1.24028e-05;0.0013858037375569761
1.24030e-05;0.001401930996561859
1.24033e-05;0.0014180582555666328
1.24035e-05;0.0014341855145715158
1.24038e-05;0.0014503127735763987
1.24040e-05;0.0014664400325811724
1.24043e-05;0.0014825672915860554
1.24045e-05;0.0014986945505909384
1.24048e-05;0.0015178599106162047
1.24050e-05;0.0015400630898255647
1.24053e-05;0.0015622662690349246
1.24055e-05;0.0015844694482441343
1.24058e-05;0.0016066726274534945
1.24060e-05;0.0016288758066628545
1.24063e-05;0.001651078985872064
1.24065e-05;0.0016717584257266414
1.24068e-05;0.0016909142675795787
1.24070e-05;0.0017100701094323863
1.24073e-05;0.0017292259512853238
1.24075e-05;0.0017483817931382613
1.24078e-05;0.0017675376349911987
1.24080e-05;0.0017866934768440063
1.24083e-05;0.001802213823868757
1.24085e-05;0.0018140990133200612
1.24088e-05;0.0018259842027712847
1.24090e-05;0.001833791989281574
1.24093e-05;0.0018375227511001743
1.24095e-05;0.001836433403982746
1.24098e-05;0.0018305243950774346
1.24100e-05;0.0018199156853676195
1.24103e-05;0.0018046077108316994
1.24105e-05;0.0017847601139837465
1.24108e-05;0.0017603733159521184
1.24110e-05;0.001730931268231732
1.24113e-05;0.0016964344397837046
1.24115e-05;0.0016565626703445805
1.24118e-05;0.001611316458532987
1.24120e-05;0.0015612420465449973
1.24123e-05;0.0015063398822794838
1.24125e-05;0.0014471810562669968
1.24128e-05;0.0013837659633852278
1.24130e-05;0.0013162424123350116
1.24133e-05;0.0012446107842468438
1.24135e-05;0.001169141725430232
1.24138e-05;0.001089835591873121
1.24140e-05;0.0010075056192505863
1.24143e-05;0.0009221520880743619
1.24145e-05;0.0008341785522110376
1.24148e-05;0.0007435852547114882
1.24150e-05;0.0006529919572113249
1.24153e-05;0.0005603260012267553
1.24155e-05;0.00046558757903290154
1.24158e-05;0.0003708491568384057
1.24160e-05;0.0002761107346439099
1.24163e-05;0.00018137231244941412
1.24165e-05;8.712039644423491e-05
1.24168e-05;-5.923246391156824e-06
1.24170e-05;-9.734488446040582e-05
1.24173e-05;-0.00018678063224570024
1.24175e-05;-0.0002738003323851663
1.24178e-05;-0.0003578847020359763
1.24180e-05;-0.00043848391887717827
1.24183e-05;-0.0005150480224026177
1.24185e-05;-0.0005870282308143433
1.24188e-05;-0.0006540251300412291
1.24190e-05;-0.0007161251449938534
1.24193e-05;-0.0007738336383799936
1.24195e-05;-0.0008274846522229881
1.24198e-05;-0.0008770118229591271
1.24200e-05;-0.0009210365208617904
1.24203e-05;-0.0009616742866397438
1.24205e-05;-0.0009974869228391407
1.24208e-05;-0.0010284748770719825
1.24210e-05;-0.0010549860470781224
1.24213e-05;-0.00107702084815522
1.24215e-05;-0.0010951866393840856
1.24218e-05;-0.0011094837796805372
1.24220e-05;-0.0011199509401759067
1.24223e-05;-0.0011265884761652138
1.24225e-05;-0.0011294188799199293
1.24228e-05;-0.0011284425046157636
1.24230e-05;-0.00112413812655765
1.24233e-05;-0.001116506054474024
1.24235e-05;-0.0011055765012689769
1.24238e-05;-0.001091349772839548
1.24240e-05;-0.0010771230444102152
1.24243e-05;-0.0010594991981250123
1.24245e-05;-0.00103847854912401
1.24248e-05;-0.0010174579001230076
1.24250e-05;-0.000993809092134012
1.24253e-05;-0.0009675323689627383
1.24255e-05;-0.0009412556457914644
1.24258e-05;-0.0009149789226203686
1.24260e-05;-0.0008887021633846644
1.24263e-05;-0.0008608704548896767
1.24265e-05;-0.0008330387463948776
1.24268e-05;-0.0008052070378998898
1.24270e-05;-0.0007773753294049021
1.24273e-05;-0.0007509654025074303
1.24275e-05;-0.0007259771253130297
1.24278e-05;-0.0007009888481186291
1.24280e-05;-0.0006781307160205241
1.24283e-05;-0.0006574025314117815
1.24285e-05;-0.000639010022981797
1.24288e-05;-0.0006229529740576386
1.24290e-05;-0.0006091238684866526
1.24293e-05;-0.0005992710515160095
1.24295e-05;-0.0005929735029717466
1.24298e-05;-0.0005902933570032615
1.24300e-05;-0.0005912381223934671
1.24303e-05;-0.0005958152497256171
1.24305e-05;-0.0006040322477880313
1.24308e-05;-0.0006159218304552214
1.24310e-05;-0.0006315814391847334
1.24313e-05;-0.0006511170686908344
1.24315e-05;-0.0006745244952420219
1.24318e-05;-0.0007025675590656836
1.24320e-05;-0.000733331064558043
1.24323e-05;-0.0007674687627254463
1.24325e-05;-0.0008049803405549107
1.24328e-05;-0.0008456060999300582
1.24330e-05;-0.0008893457519583655
1.24333e-05;-0.0009359818351245491
1.24335e-05;-0.0009855140807359854
1.24338e-05;-0.0010380168738276145
1.24340e-05;-0.0010934899388313673
1.24343e-05;-0.0011489630038347442
1.24345e-05;-0.0012076783965244804
1.24348e-05;-0.0012696358161204157
1.24350e-05;-0.001331593235715931
1.24353e-05;-0.0013935506553118659
1.24355e-05;-0.0014555080749078012
1.24358e-05;-0.001517465528829487
1.24360e-05;-0.0015809029893278635
1.24363e-05;-0.0016443404498262396
1.24365e-05;-0.0017077779103241862
1.24368e-05;-0.0017712153708225624
1.24370e-05;-0.0018346528313209387
1.24373e-05;-0.0018894086008907833
1.24375e-05;-0.0019354834849031497
1.24378e-05;-0.001981558368915516
1.24380e-05;-0.0020276332529275704
1.24383e-05;-0.002073708136939937
1.24385e-05;-0.0021197830209523033
1.24388e-05;-0.0021658579049643576
1.24390e-05;-0.002211932788976724
1.24393e-05;-0.002258007672989091
1.24395e-05;-0.002304082557001145
1.24398e-05;-0.0023501574410135116
1.24400e-05;-0.002396232325025878
1.24403e-05;-0.00244230648802974
1.24405e-05;-0.0024572936289236763
1.24408e-05;-0.0024722807698176123
1.24410e-05;-0.002487267910711447
1.24413e-05;-0.0025022550516053833
1.24415e-05;-0.0025172421924993193
1.24417e-05;-0.002532229333393154
1.24420e-05;-0.0025472164742870902
1.24423e-05;-0.0025622036151810262
1.24425e-05;-0.0025771907560749622
1.24428e-05;-0.002592177896968797
1.24430e-05;-0.002607165037862733
1.24433e-05;-0.002622152178756669
1.24435e-05;-0.0026281654066103296
1.24438e-05;-0.002625205553900835
1.24440e-05;-0.0026222457011913407
