Time(s);Current(A)
7.50000e-06;-0.000679483175454608
7.50025e-06;-0.000674147636739998
7.50050e-06;-0.0006699883594450408
7.50075e-06;-0.0006666928831381215
7.50100e-06;-0.0006633974068311912
7.50125e-06;-0.0006601019305242719
7.50150e-06;-0.0006568064542173525
7.50175e-06;-0.0006535109779104221
7.50200e-06;-0.0006502155016035029
7.50225e-06;-0.0006469200252965724
7.50250e-06;-0.0006436245489896531
7.50275e-06;-0.0006403290726827338
7.50300e-06;-0.0006370335963758033
7.50325e-06;-0.0006337381200688841
7.50350e-06;-0.0006304426437619648
7.50375e-06;-0.0006274373982512494
7.50400e-06;-0.0006279317710062625
7.50425e-06;-0.0006284261437612757
7.50450e-06;-0.0006289205165162906
7.50475e-06;-0.0006294148892713037
7.50500e-06;-0.000629909262026317
7.50525e-06;-0.0006304036347813319
7.50550e-06;-0.000630898007536345
7.50575e-06;-0.0006313923802913582
7.50600e-06;-0.0006318867530463731
7.50625e-06;-0.0006323811258013862
7.50650e-06;-0.0006328754985564011
7.50675e-06;-0.0006333698713114143
7.50700e-06;-0.0006338642440664275
7.50725e-06;-0.0006353960691302554
7.50750e-06;-0.0006376897591284504
7.50775e-06;-0.0006399834491266454
7.50800e-06;-0.0006422771391248482
7.50825e-06;-0.0006445708291230432
7.50850e-06;-0.0006468645191212382
7.50875e-06;-0.000649158209119441
7.50900e-06;-0.000651451899117636
7.50925e-06;-0.0006537399415906192
7.50950e-06;-0.0006559598859064253
7.50975e-06;-0.0006581798302222239
7.51000e-06;-0.0006603997745380225
7.51025e-06;-0.0006626197188538286
7.51050e-06;-0.0006648396631696271
7.51075e-06;-0.0006670596074854258
7.51100e-06;-0.0006692795518012318
7.51125e-06;-0.0006714994961170305
7.51150e-06;-0.0006721828134024447
7.51175e-06;-0.0006717376911040593
7.51200e-06;-0.0006712925688056739
7.51225e-06;-0.000670847446507287
7.51250e-06;-0.0006704023242089015
7.51275e-06;-0.0006699572019105161
7.51300e-06;-0.0006695120796121292
7.51325e-06;-0.0006658222327950326
7.51350e-06;-0.0006597495855241531
7.51375e-06;-0.0006536769382532529
7.51400e-06;-0.0006476042909823734
7.51425e-06;-0.0006415316437114938
7.51450e-06;-0.0006354589964405937
7.51475e-06;-0.0006293863491697141
7.51500e-06;-0.0006209000400652969
7.51525e-06;-0.000610641230867568
7.51550e-06;-0.0006003824216698739
7.51575e-06;-0.0005883599533668659
7.51600e-06;-0.0005750423218868923
7.51625e-06;-0.0005617246904069187
7.51650e-06;-0.0005484070589269
7.51675e-06;-0.0005350894274469264
7.51700e-06;-0.0005217717959669528
7.51725e-06;-0.0005070192620308516
7.51750e-06;-0.0004912129911123531
7.51775e-06;-0.0004754067201938547
7.51800e-06;-0.0004596004492753027
7.51825e-06;-0.0004437941783568042
7.51850e-06;-0.0004279879074383058
7.51875e-06;-0.0004120719129952205
7.51900e-06;-0.00039607534183064833
7.51925e-06;-0.00038007877066607615
7.51950e-06;-0.0003640821995014498
7.51975e-06;-0.00034821605889346594
7.52000e-06;-0.0003339226568221977
7.52025e-06;-0.00031962925475097795
7.52050e-06;-0.0003053358526797582
7.52075e-06;-0.00029104245060849
7.52100e-06;-0.0002780684754114708
7.52125e-06;-0.0002660634363863727
7.52150e-06;-0.0002549158081717465
7.52175e-06;-0.00024516010189095023
7.52200e-06;-0.00023691291061390832
7.52225e-06;-0.00023038715408299612
7.52250e-06;-0.00022563429130477997
7.52275e-06;-0.00022264206061489505
7.52300e-06;-0.00022139473139297779
7.52325e-06;-0.00022187656462831635
7.52350e-06;-0.00022408575992567946
7.52375e-06;-0.00022808123379709105
7.52400e-06;-0.00023397357829080492
7.52425e-06;-0.00024181490065076528
7.52450e-06;-0.0002515561476803913
7.52475e-06;-0.00026310836638305754
7.52500e-06;-0.0002763804388272073
7.52525e-06;-0.0002912812577003097
7.52550e-06;-0.0003081588626348787
7.52575e-06;-0.0003259936899388255
7.52600e-06;-0.0003455224972114501
7.52625e-06;-0.00036629529799228286
7.52650e-06;-0.0003885342301464626
7.52675e-06;-0.0004118498325943002
7.52700e-06;-0.0004365358771650896
7.52725e-06;-0.0004622283215374779
7.52750e-06;-0.0004879207659097792
7.52775e-06;-0.0005148883356866651
7.52800e-06;-0.0005427923083460197
7.52825e-06;-0.0005706962810052797
7.52850e-06;-0.0005986002536646342
7.52875e-06;-0.0006265042263238943
7.52900e-06;-0.0006541822029789986
7.52925e-06;-0.0006816942168912927
7.52950e-06;-0.0007092062308034937
7.52975e-06;-0.0007367182447156946
7.53000e-06;-0.0007642302586279887
7.53025e-06;-0.0007899844094948651
7.53050e-06;-0.0008144476535878263
7.53075e-06;-0.0008389108976808703
7.53100e-06;-0.0008609754499390125
7.53125e-06;-0.00088127849549372
7.53150e-06;-0.0009015815410484962
7.53175e-06;-0.0009206277723185763
7.53200e-06;-0.0009387510476861194
7.53225e-06;-0.0009578797286141345
7.53250e-06;-0.0009777467405809393
7.53275e-06;-0.0009976137525478112
7.53300e-06;-0.0010181944932200343
7.53325e-06;-0.0010392993687063784
7.53350e-06;-0.001060404244192794
7.53375e-06;-0.0010815091196791382
7.53400e-06;-0.0011045251847543003
7.53425e-06;-0.0011289447536991055
7.53450e-06;-0.001153364322643828
7.53475e-06;-0.0011777838915885503
7.53500e-06;-0.0012046378393628877
7.53525e-06;-0.0012332795009919685
7.53550e-06;-0.0012619211626210493
7.53575e-06;-0.001290562824250227
7.53600e-06;-0.0013192044858793077
7.53625e-06;-0.0013478461475083885
7.53650e-06;-0.0013786483266415711
7.53675e-06;-0.0014110371064419563
7.53700e-06;-0.0014434258862424513
7.53725e-06;-0.0014758146660428365
7.53750e-06;-0.0015082034458432218
7.53775e-06;-0.0015405922256437167
7.53800e-06;-0.0015731333005327157
7.53825e-06;-0.0016057862150567867
7.53850e-06;-0.0016384391295809683
7.53875e-06;-0.0016710920441050394
7.53900e-06;-0.0017037449586291104
7.53925e-06;-0.001736397873153292
7.53950e-06;-0.0017690507876773629
7.53975e-06;-0.001801193786490064
7.54000e-06;-0.0018271881947449801
7.54025e-06;-0.0018531826029998082
7.54050e-06;-0.001879177011254636
7.54075e-06;-0.001905171419509552
7.54100e-06;-0.0019311658277643801
7.54125e-06;-0.001957160236019296
7.54150e-06;-0.001983154644274124
7.54175e-06;-0.0020014951687595955
7.54200e-06;-0.0020142149764158287
7.54225e-06;-0.0020269347840720185
7.54250e-06;-0.0020396545917282087
7.54275e-06;-0.002052374399384442
7.54300e-06;-0.002065094207040632
7.54325e-06;-0.0020778140146968218
7.54350e-06;-0.002090533822353055
7.54375e-06;-0.002103253630009245
7.54400e-06;-0.002114972384996792
7.54425e-06;-0.002114620394080564
7.54450e-06;-0.002114268403164337
7.54475e-06;-0.0021139164122481098
7.54500e-06;-0.0021135644213318818
7.54525e-06;-0.0021132124304156547
7.54550e-06;-0.0021128604394994267
7.54575e-06;-0.0021125084485831996
7.54600e-06;-0.0021121564576669725
7.54625e-06;-0.0021118044667507445
7.54650e-06;-0.0021067164067506594
7.54675e-06;-0.002098150360410061
7.54700e-06;-0.0020895843140694343
7.54725e-06;-0.002081018267728836
7.54750e-06;-0.0020724522213882383
7.54775e-06;-0.002063886175047611
7.54800e-06;-0.002055320128707013
7.54825e-06;-0.0020467540823664154
7.54850e-06;-0.002038188036025788
7.54875e-06;-0.0020285011943108064
7.54900e-06;-0.0020179912837314496
7.54925e-06;-0.002007481373152057
7.54950e-06;-0.0019969714625727004
7.54975e-06;-0.001986461551993308
7.55000e-06;-0.0019759516414139507
7.55025e-06;-0.001965441730834594
7.55050e-06;-0.0019549318202552015
7.55075e-06;-0.0019444219096758446
7.55100e-06;-0.0019348371835000977
7.55125e-06;-0.0019262870241675005
7.55150e-06;-0.0019182258889481386
7.55175e-06;-0.0019097745569693955
7.55200e-06;-0.001898187241417083
7.55225e-06;-0.0018845977898619202
7.55250e-06;-0.0018670403024921322
7.55275e-06;-0.001846568842771779
7.55300e-06;-0.001821953697862944
7.55325e-06;-0.0017942955904828716
7.55350e-06;-0.0017666374831027056
7.55375e-06;-0.0017343751045603623
7.55400e-06;-0.001698731526984558
7.55425e-06;-0.0016569504128118972
7.55450e-06;-0.0016106621286492168
7.55475e-06;-0.00156437384448638
7.55500e-06;-0.0015130006893840993
7.55525e-06;-0.0014578934013215268
7.55550e-06;-0.001399470880954349
7.55575e-06;-0.0013386137819390834
7.55600e-06;-0.0012749699090057827
7.55625e-06;-0.0012073730458783418
7.55650e-06;-0.0011367161135583143
7.55675e-06;-0.0010634399465591362
7.55700e-06;-0.0009879950879070306
7.55725e-06;-0.0009108319731288814
7.55750e-06;-0.0008323595982913752
7.55775e-06;-0.0007527945785260478
7.55800e-06;-0.000672153871032559
7.55825e-06;-0.0005905619927440141
7.55850e-06;-0.0005084014812756154
7.55875e-06;-0.0004261627401687465
7.55900e-06;-0.00034434222597096083
7.55925e-06;-0.00026343631683436655
7.55950e-06;-0.00018366221455447712
7.55975e-06;-0.00014276749862465393
7.56000e-06;-6.99437379219561e-05
7.56025e-06;9.81709854986855e-06
7.56050e-06;7.790147535371208e-05
7.56075e-06;0.00015259054289852347
7.56100e-06;0.0002193480582860661
7.56125e-06;0.0002794032668685574
7.56150e-06;0.0003347671543443122
7.56175e-06;0.0003847953259543888
7.56200e-06;0.0004287597563434595
7.56225e-06;0.0004663414903512777
7.56250e-06;0.0004986519216704908
7.56275e-06;0.0005255054948497984
7.56300e-06;0.0005440895867576104
7.56325e-06;0.0005544057661080443
7.56350e-06;0.0005579766896674984
7.56375e-06;0.0005546762610539758
7.56400e-06;0.0005443259559403157
7.56425e-06;0.0005270035309647468
7.56450e-06;0.0005036827071812054
7.56475e-06;0.00047452469159054057
7.56500e-06;0.0004380453201238583
7.56525e-06;0.0003945231263759359
7.56550e-06;0.0003451894875865168
7.56575e-06;0.00029024289954509403
7.56600e-06;0.00022984909979848126
7.56625e-06;0.00016433426762219304
7.56650e-06;9.458582678816257e-05
7.56675e-06;2.0982162950927474e-05
7.56700e-06;-5.712896931029468e-05
7.56725e-06;-0.00013929563082942133
7.56750e-06;-0.00022446907506989521
7.56775e-06;-0.0003122476034639526
7.56800e-06;-0.00040310607923064654
7.56825e-06;-0.0004940067713884019
7.56850e-06;-0.0005868401942776749
7.56875e-06;-0.0006797004182359437
7.56900e-06;-0.000773252422525535
7.56925e-06;-0.0008668140196939805
7.56950e-06;-0.000958645807212792
7.56975e-06;-0.0010504536075582258
7.57000e-06;-0.0011382459875015735
7.57025e-06;-0.0012259826858347475
7.57050e-06;-0.0013071116031650321
7.57075e-06;-0.0013881488907653706
7.57100e-06;-0.0014607086757942307
7.57125e-06;-0.0015331509037687647
7.57150e-06;-0.001594574250016169
7.57175e-06;-0.0016558447980471109
7.57200e-06;-0.0017046000326043007
7.57225e-06;-0.0017531817180095252
7.57250e-06;-0.0017886167926659303
7.57275e-06;-0.001823869564006241
7.57300e-06;-0.0018458294399979211
7.57325e-06;-0.001867604984153384
7.57350e-06;-0.0018755124267576396
7.57375e-06;-0.0018832275611734151
7.57400e-06;-0.0018771539367839981
7.57425e-06;-0.0018708891044475426
7.57450e-06;-0.0018514568209736014
7.57475e-06;-0.0018318419451912537
7.57500e-06;-0.0017999848052115222
7.57525e-06;-0.0017679579024389273
7.57550e-06;-0.0017243450067635248
7.57575e-06;-0.0016805714487727354
7.57600e-06;-0.0016287249099088696
7.57625e-06;-0.0015718732380597417
7.57650e-06;-0.0015103859358701777
7.57675e-06;-0.0014446360978388317
7.57700e-06;-0.0013750958205258881
7.57725e-06;-0.0013021309758221894
7.57750e-06;-0.001226050943431082
7.57775e-06;-0.0011472563136556305
7.57800e-06;-0.001066213597578687
7.57825e-06;-0.0009834202863631878
7.57850e-06;-0.0008993411044719923
7.57875e-06;-0.0008144668977505159
7.57900e-06;-0.0007293509425218474
7.57925e-06;-0.0006444796875147763
7.57950e-06;-0.0005603041384938762
7.57975e-06;-0.0004773326361742843
7.58000e-06;-0.00039611451104255054
7.58025e-06;-0.0003172186540902428
7.58050e-06;-0.00024119320720329028
7.58075e-06;-0.00016860288552531828
7.58100e-06;-0.00010005126884985603
7.58125e-06;-3.610008141752067e-05
7.58150e-06;2.2732060789384545e-05
7.58175e-06;7.630973626106694e-05
7.58200e-06;0.00012508273581931275
7.58225e-06;0.0001694075819854187
7.58250e-06;0.000209228404749251
7.58275e-06;0.0002443458329123278
7.58300e-06;0.00027453435671418694
7.58325e-06;0.00029959476938435183
7.58350e-06;0.00031935481509519955
7.58375e-06;0.00033388232850248246
7.58400e-06;0.000343611739980309
7.58425e-06;0.0003489189627957157
7.58450e-06;0.000349921595570118
7.58475e-06;0.00034664734886335157
7.58500e-06;0.00033910760832463123
7.58525e-06;0.0003273301417593886
7.58550e-06;0.0003113596825160111
7.58575e-06;0.000291391355891021
7.58600e-06;0.00026784986266013106
7.58625e-06;0.00024112321462743647
7.58650e-06;0.00021143763078234986
7.58675e-06;0.00017896298382908343
7.58700e-06;0.00014385892322280882
7.58725e-06;0.0001062953513701535
7.58750e-06;6.645281381145493e-05
7.58775e-06;2.4605991543050227e-05
7.58800e-06;-1.8826617707838593e-05
7.58825e-06;-6.344952118399074e-05
7.58850e-06;-0.00010896860249602925
7.58875e-06;-0.00015541629887077694
7.58900e-06;-0.00020187670308677836
7.58925e-06;-0.0002483371073027798
7.58950e-06;-0.0002946319270738125
7.58975e-06;-0.0003409244506944627
7.59000e-06;-0.000385481581393204
7.59025e-06;-0.00043001464749565843
7.59050e-06;-0.00047136447344384646
7.59075e-06;-0.0005126701575791419
7.59100e-06;-0.0005508098106690646
7.59125e-06;-0.0005863828975895846
7.59150e-06;-0.0006190772371556992
7.59175e-06;-0.0006484229987242005
7.59200e-06;-0.0006738305999304018
7.59225e-06;-0.0006949421460543522
7.59250e-06;-0.0007116799884903812
7.59275e-06;-0.0007240363431936141
7.59300e-06;-0.0007320066381216229
7.59325e-06;-0.0007355837495575631
7.59350e-06;-0.0007347538008091997
7.59375e-06;-0.0007294122266304126
7.59400e-06;-0.0007193796039015451
7.59425e-06;-0.0007046216012388085
7.59450e-06;-0.0006852795832937746
7.59475e-06;-0.0006615383722389209
7.59500e-06;-0.0006335850244088184
7.59525e-06;-0.0006016050691139993
7.59550e-06;-0.000565779478658471
7.59575e-06;-0.0005262326694985421
7.59600e-06;-0.00048304217324056766
7.59625e-06;-0.00043637622396237744
7.59650e-06;-0.00038651320335468954
7.59675e-06;-0.0003337587520302753
7.59700e-06;-0.0002784198436585503
7.59725e-06;-0.00022080236027086398
7.59750e-06;-0.00016120952764302215
7.59775e-06;-9.990898283350957e-05
7.59800e-06;-3.713898472165381e-05
7.59825e-06;2.6805318822947682e-05
7.59850e-06;9.155992058334988e-05
7.59875e-06;0.00015674366483405837
7.59900e-06;0.00022197466928993332
7.59925e-06;0.0002868716829062106
7.59950e-06;0.0003510552255603586
7.59975e-06;0.00041416803107000857
7.60000e-06;0.0004758713691182482
7.60025e-06;0.0005357908799456124
7.60050e-06;0.0005935089920308873
7.60075e-06;0.0006485974945192583
7.60100e-06;0.0007006278075875265
7.60125e-06;0.0007491717501093496
7.60150e-06;0.0007937916736273749
7.60175e-06;0.0008338976577469783
7.60200e-06;0.0008687936426417182
7.60225e-06;0.000898062868333405
7.60250e-06;0.0009216062219399401
7.60275e-06;0.0009393997298162367
7.60300e-06;0.0009514202851131975
7.60325e-06;0.0009576451238585695
7.60350e-06;0.0009580455160570089
7.60375e-06;0.0009524972883511766
7.60400e-06;0.0009408100125743077
7.60425e-06;0.0009229680394522749
7.60450e-06;0.0008991547329532166
7.60475e-06;0.0008696006194998841
7.60500e-06;0.0008345367268905085
7.60525e-06;0.0007941941387430136
7.60550e-06;0.0007488003799557494
7.60575e-06;0.0006985231606559912
7.60600e-06;0.000643488485192611
7.60625e-06;0.0005839320786398591
7.60650e-06;0.000520214228350048
7.60675e-06;0.0004527247149513708
7.60700e-06;0.0003818535895716517
7.60725e-06;0.00030799095915795983
7.60750e-06;0.0002315246924042343
7.60775e-06;0.00015280509416171648
7.60800e-06;7.215642938768848e-05
7.60825e-06;-1.0028403696491308e-05
7.60850e-06;-9.327850394503399e-05
7.60875e-06;-0.00017714384737619216
7.60900e-06;-0.00026101752153326774
7.60925e-06;-0.0003440835445222436
7.60950e-06;-0.00042713836785750376
7.60975e-06;-0.0005075145123429926
7.61000e-06;-0.0005878535117394548
7.61025e-06;-0.0006636281216035418
7.61050e-06;-0.0007393394373341284
7.61075e-06;-0.0008083559648741468
7.61100e-06;-0.0008772796561617836
7.61125e-06;-0.0009398223420213566
7.61150e-06;-0.000997298560582688
7.61175e-06;-0.0010492401712939167
7.61200e-06;-0.0010953151189099853
7.61225e-06;-0.0011353602071085375
7.61250e-06;-0.0011692736837990002
7.61275e-06;-0.001196955994774426
7.61300e-06;-0.001218307260465494
7.61325e-06;-0.0012332280558182184
7.61350e-06;-0.00124161965108634
7.61375e-06;-0.0012434175433537183
7.61400e-06;-0.0012386597819085566
7.61425e-06;-0.0012274900908985312
7.61450e-06;-0.0012100906132607027
7.61475e-06;-0.001186644693573461
7.61500e-06;-0.0011545362993593904
7.61525e-06;-0.0011223089294027182
7.61550e-06;-0.001079256786127679
7.61575e-06;-0.001036054536328609
7.61600e-06;-0.0009852971003194455
7.61625e-06;-0.000929819124108254
7.61650e-06;-0.0008700167457970308
7.61675e-06;-0.0008062506152764527
7.61700e-06;-0.000738881502036428
7.61725e-06;-0.0006682700623359822
7.61750e-06;-0.0005947772953118342
7.61775e-06;-0.0005187777539995305
7.61800e-06;-0.0004406858506935296
7.61825e-06;-0.00036095776929275934
7.61850e-06;-0.00028006456078517904
7.61875e-06;-0.00019847776145178175
7.61900e-06;-0.00011666887567114584
7.61925e-06;-3.510938579494001e-05
7.61950e-06;4.572909340845679e-05
7.61975e-06;0.00012536650568505613
7.62000e-06;0.0002032977468898305
7.62025e-06;0.0002789917401848141
7.62050e-06;0.0003519080073088488
7.62075e-06;0.00042150588719989815
7.62100e-06;0.000487244717999083
7.62125e-06;0.0005485839813771014
7.62150e-06;0.000604965133771864
7.62175e-06;0.0006555310712850058
7.62200e-06;0.0006991630626165676
7.62225e-06;0.0007351764540128939
7.62250e-06;0.0007634347403082003
7.62275e-06;0.0007839369610564619
7.62300e-06;0.0007966840459878439
7.62325e-06;0.0008016770986596311
7.62350e-06;0.0007989058001212423
7.62375e-06;0.0007881729132594961
7.62400e-06;0.0007691172847517664
7.62425e-06;0.0007416497790895122
7.62450e-06;0.000706024653091257
7.62475e-06;0.00066258096173632
7.62500e-06;0.0006116591002410599
7.62525e-06;0.000553599237360667
7.62550e-06;0.0004887347066923098
7.62575e-06;0.0004172815988504983
7.62600e-06;0.0003393533356548573
7.62625e-06;0.0002552337130710152
7.62650e-06;0.00016542164751971416
7.62675e-06;7.046915443182371e-05
7.62700e-06;-2.9071062525232055e-05
7.62725e-06;-0.00013264631413543022
7.62750e-06;-0.00023970833207121378
7.62775e-06;-0.00034978233866404937
7.62800e-06;-0.00046348215713801737
7.62825e-06;-0.0005772316845104371
7.62850e-06;-0.0006937735081676337
7.62875e-06;-0.0008103540524400715
7.62900e-06;-0.0009270379661872872
7.62925e-06;-0.0010437233133535951
7.62950e-06;-0.0011578364513671366
7.62975e-06;-0.001271913920701336
7.63000e-06;-0.001380932916803139
7.63025e-06;-0.0014898817673417205
7.63050e-06;-0.0015910097884817304
7.63075e-06;-0.0016920293586193513
7.63100e-06;-0.001782206472684886
7.63125e-06;-0.0018722332350213787
7.63150e-06;-0.0019489275454553365
7.63175e-06;-0.0020254369755285384
7.63200e-06;-0.0020910893095867676
7.63225e-06;-0.00215659108890418
7.63250e-06;-0.002213099924856938
7.63275e-06;-0.0022694840561693084
7.63300e-06;-0.0023127018080230754
7.63325e-06;-0.0023557369824323323
7.63350e-06;-0.0023987721568418806
7.63375e-06;-0.0024260497776959935
7.63400e-06;-0.0024531088894399755
7.63425e-06;-0.002480168001184141
7.63450e-06;-0.002495200850072555
7.63475e-06;-0.002510066931449358
7.63500e-06;-0.0025249330128262622
7.63525e-06;-0.0025273345133893367
7.63550e-06;-0.0025295631683103816
7.63575e-06;-0.002531791823231441
7.63600e-06;-0.002523858559318245
7.63625e-06;-0.0025157843806474195
7.63650e-06;-0.0025077102019765395
7.63675e-06;-0.0024918968713892125
7.63700e-06;-0.0024759762224171268
7.63725e-06;-0.0024600555734449335
7.63750e-06;-0.002438110195914104
7.63775e-06;-0.0024160812738109076
7.63800e-06;-0.0023907942469070086
7.63825e-06;-0.002365462040046824
7.63850e-06;-0.002338229626090987
7.63875e-06;-0.0023109708620698884
7.63900e-06;-0.0022823909437286165
7.63925e-06;-0.002253792705014771
7.63950e-06;-0.0022244995570407256
7.63975e-06;-0.0021951967727989897
7.64000e-06;-0.002166589586755914
7.64025e-06;-0.0021379920465338055
7.64050e-06;-0.0021113856532842166
7.64075e-06;-0.002084806871158089
7.64100e-06;-0.0020618885721672506
7.64125e-06;-0.0020390210328905716
7.64150e-06;-0.002016153493613892
7.64175e-06;-0.0020024444835140434
7.64200e-06;-0.0019888624742240846
7.64225e-06;-0.0019752804649341253
7.64250e-06;-0.0019616984556442584
7.64275e-06;-0.0019481164463542994
7.64300e-06;-0.0019345344370643404
7.64325e-06;-0.0019209524277744735
