Time(s);Current(A)
8.00000e-06;0.0007180319644114866
8.00025e-06;0.0007720352859768083
8.00050e-06;0.0008302472717797956
8.00075e-06;0.0008904831786377928
8.00100e-06;0.00095521586095243
8.00125e-06;0.0010221110152572324
8.00150e-06;0.0010932058327802838
8.00175e-06;0.0011663202428225511
8.00200e-06;0.0012394346528653139
8.00225e-06;0.001316217375142166
8.00250e-06;0.0013947641664790642
8.00275e-06;0.0014733109578164948
8.00300e-06;0.0015518577491539253
8.00325e-06;0.0016304045404908233
8.00350e-06;0.0017089152648630053
8.00375e-06;0.0017874086448507816
8.00400e-06;0.001865902024838026
8.00425e-06;0.0019443954048258022
8.00450e-06;0.0020228887848135783
8.00475e-06;0.0020966809600869666
8.00500e-06;0.0021682123545835267
8.00525e-06;0.002239743749080087
8.00550e-06;0.0023046629190218025
8.00575e-06;0.002366402310358641
8.00600e-06;0.0024281417016954795
8.00625e-06;0.002481174972038368
8.00650e-06;0.002530021521703302
8.00675e-06;0.0025788680713682366
8.00700e-06;0.0026214920475780166
8.00725e-06;0.0026611236260284184
8.00750e-06;0.00270075520447882
8.00775e-06;0.0027336776041671407
8.00800e-06;0.002763373600560901
8.00825e-06;0.0027930695969546606
8.00850e-06;0.0028111043961591637
8.00875e-06;0.002823531396500445
8.00900e-06;0.0028359583968418116
8.00925e-06;0.0028483853971831776
8.00950e-06;0.002860812397524459
8.00975e-06;0.002873239397865825
8.01000e-06;0.0028856663982071915
8.01025e-06;0.002898093398548473
8.01050e-06;0.002910520398889839
8.01075e-06;0.0029098244029490657
8.01100e-06;0.0029035278174255608
8.01125e-06;0.002897231231902013
8.01150e-06;0.002890934646378465
8.01175e-06;0.0028846380608549597
8.01200e-06;0.002878341475331412
8.01225e-06;0.002872044889807864
8.01250e-06;0.0028657483042843586
8.01275e-06;0.0028594517187608107
8.01300e-06;0.0028471860601862655
8.01325e-06;0.0028326731925255805
8.01350e-06;0.0028181603248647975
8.01375e-06;0.002803647457204014
8.01400e-06;0.0027891345895433295
8.01425e-06;0.002774621721882546
8.01450e-06;0.002760108854221763
8.01475e-06;0.0027427022960314577
8.01500e-06;0.0027244818443937714
8.01525e-06;0.002706261392756085
8.01550e-06;0.002688040941118522
8.01575e-06;0.002669820489480836
8.01600e-06;0.0026516000378431497
8.01625e-06;0.002633379586205587
8.01650e-06;0.0026118979786058177
8.01675e-06;0.0025897694437920955
8.01700e-06;0.0025676409089783734
8.01725e-06;0.002534409348438998
8.01750e-06;0.0024989752408323884
8.01775e-06;0.0024635411332257786
8.01800e-06;0.002416973820356781
8.01825e-06;0.002368197973597303
8.01850e-06;0.0023194221268378248
8.01875e-06;0.002260259726921474
8.01900e-06;0.002199036909172689
8.01925e-06;0.0021282402162044055
8.01950e-06;0.0020555443192441032
8.01975e-06;0.0019742999065449894
8.02000e-06;0.0018913596940940676
8.02025e-06;0.0018012481339474968
8.02050e-06;0.0017097139678163282
8.02075e-06;0.001610900672241504
8.02100e-06;0.0015106433896312009
8.02125e-06;0.0014035571448750912
8.02150e-06;0.0012951162143856406
8.02175e-06;0.001181464505129971
8.02200e-06;0.0010667791149853844
8.02225e-06;0.0009480861608194021
8.02250e-06;0.0008285982117940841
8.02275e-06;0.0007091102627679564
8.02300e-06;0.0005868401619687541
8.02325e-06;0.0004640181557365499
8.02350e-06;0.0003411961495035134
8.02375e-06;0.00021837414327047688
8.02400e-06;9.648552984593465e-05
8.02425e-06;-2.369626937564314e-05
8.02450e-06;-0.00014161987476435454
8.02475e-06;-0.0002569526032497695
8.02500e-06;-0.0003693091947141039
8.02525e-06;-0.000478083625181603
8.02550e-06;-0.0005825185789072297
8.02575e-06;-0.0006820087477684908
8.02600e-06;-0.0007759393410160932
8.02625e-06;-0.0008635552560523215
8.02650e-06;-0.0009449527449426423
8.02675e-06;-0.0010214762014792017
8.02700e-06;-0.0010943132591913942
8.02725e-06;-0.0011619565019697958
8.02750e-06;-0.0012286844256647938
8.02775e-06;-0.0012883004054843456
8.02800e-06;-0.0013465055634679993
8.02825e-06;-0.0013966515222190723
8.02850e-06;-0.001445198748689036
8.02875e-06;-0.0014874396014866753
8.02900e-06;-0.001528429436301939
8.02925e-06;-0.0015631602553558646
8.02950e-06;-0.001596649450985592
8.02975e-06;-0.0016301386466155464
8.03000e-06;-0.001655319661833141
8.03025e-06;-0.001678852553479009
8.03050e-06;-0.0017023854451250365
8.03075e-06;-0.0017192693184963591
8.03100e-06;-0.0017348342022449439
8.03125e-06;-0.0017503990859936342
8.03150e-06;-0.0017580479845321854
8.03175e-06;-0.0017641265606690687
8.03200e-06;-0.0017702051368059931
8.03225e-06;-0.0017762837129429174
8.03250e-06;-0.0017823622890798007
8.03275e-06;-0.001788440865216725
8.03300e-06;-0.0017945194413536494
8.03325e-06;-0.001794527337027704
8.03350e-06;-0.0017933309700268066
8.03375e-06;-0.0017921346030259095
8.03400e-06;-0.0017909382360250122
8.03425e-06;-0.0017897418690241231
8.03450e-06;-0.001788545502023226
8.03475e-06;-0.0017873491350223287
8.03500e-06;-0.0017888694768284795
8.03525e-06;-0.001790928741912692
8.03550e-06;-0.0017929880069969047
8.03575e-06;-0.0017950472720811032
8.03600e-06;-0.0017971065371653158
8.03625e-06;-0.0017991658022495282
8.03650e-06;-0.001801225067333727
8.03675e-06;-0.0018032843324179396
8.03700e-06;-0.001805343597502152
8.03725e-06;-0.0018074028625863507
8.03750e-06;-0.0018140049475152478
8.03775e-06;-0.0018296465877661496
8.03800e-06;-0.0018452882280169452
8.03825e-06;-0.001860929868267847
8.03850e-06;-0.0018765715085187486
8.03875e-06;-0.0018922131487695444
8.03900e-06;-0.001907854789020446
8.03925e-06;-0.0019234964292713479
8.03950e-06;-0.0019391380695221434
8.03975e-06;-0.0019547797097730453
8.04000e-06;-0.001970421350023947
8.04025e-06;-0.0019963460306409134
8.04050e-06;-0.002024310594888177
8.04075e-06;-0.002052275159135441
8.04100e-06;-0.002080239723382515
8.04125e-06;-0.002108204287629779
8.04150e-06;-0.002136168851877043
8.04175e-06;-0.0021641334161241173
8.04200e-06;-0.002192097980371381
8.04225e-06;-0.0022200625446186445
8.04250e-06;-0.002252029092478563
8.04275e-06;-0.0022847895281938807
8.04300e-06;-0.0023175499639091985
8.04325e-06;-0.002350310399624516
8.04350e-06;-0.002383070835339612
8.04375e-06;-0.0024158312710549296
8.04400e-06;-0.0024485917067702473
8.04425e-06;-0.002481352142485343
8.04450e-06;-0.0025141125782006607
8.04475e-06;-0.0025421126677273287
8.04500e-06;-0.002569168430292052
8.04525e-06;-0.002596224192856959
8.04550e-06;-0.0026232799554218654
8.04575e-06;-0.0026503357179865888
8.04600e-06;-0.0026773914805514956
8.04625e-06;-0.0027044472431164025
8.04650e-06;-0.002731503005681126
8.04675e-06;-0.0027585587682460323
8.04700e-06;-0.002785614530810939
8.04725e-06;-0.0028126702933756625
8.04750e-06;-0.002839726055940569
8.04775e-06;-0.0028667818185054757
8.04800e-06;-0.002887927657562816
8.04825e-06;-0.0029079011238789107
8.04850e-06;-0.0029278745901950053
8.04875e-06;-0.0029478480565109646
8.04900e-06;-0.0029678215228270597
8.04925e-06;-0.0029877949891431543
8.04950e-06;-0.0030077684554591136
8.04975e-06;-0.0030277419217752087
8.05000e-06;-0.0030477153880913033
8.05025e-06;-0.0030676888544072627
8.05050e-06;-0.0030876623207233573
8.05075e-06;-0.0031076357870394524
8.05100e-06;-0.0031276092533554117
8.05125e-06;-0.0031447860942089984
8.05150e-06;-0.0031614081584302347
8.05175e-06;-0.003178030222651471
8.05200e-06;-0.0031946522868725948
8.05225e-06;-0.0032112743510938316
8.05250e-06;-0.003227896415315068
8.05275e-06;-0.0032445184795361916
8.05300e-06;-0.003261140543757428
8.05325e-06;-0.0032777626079786644
8.05350e-06;-0.0032943846721997885
8.05375e-06;-0.003311006736421025
8.05400e-06;-0.0033276288006422613
8.05425e-06;-0.003344250864863385
8.05450e-06;-0.0033608729290846213
8.05475e-06;-0.0033774949933058577
8.05500e-06;-0.0033941170575269818
8.05525e-06;-0.003410739121748218
8.05550e-06;-0.0034273611859694545
8.05575e-06;-0.003443260581966388
8.05600e-06;-0.0034590166196735183
8.05625e-06;-0.0034747726573806483
8.05650e-06;-0.0034905286950876716
8.05675e-06;-0.003506284732794802
8.05700e-06;-0.003522040770501932
8.05725e-06;-0.0035377968082089552
8.05750e-06;-0.003553552845916085
8.05775e-06;-0.0035693088836232156
8.05800e-06;-0.003585064921330239
8.05825e-06;-0.003600820959037369
8.05850e-06;-0.0036165769967444993
8.05875e-06;-0.0036323330344515225
8.05900e-06;-0.0036480890721586525
8.05925e-06;-0.0036638451098657825
8.05950e-06;-0.0036796011475728058
8.05975e-06;-0.003695357185279936
8.06000e-06;-0.003711113222987066
8.06025e-06;-0.0037293588584893953
8.06050e-06;-0.003748098364443679
8.06075e-06;-0.00376683787039809
8.06100e-06;-0.0037855773763525004
8.06125e-06;-0.003804316882306784
8.06150e-06;-0.003823056388261195
8.06175e-06;-0.0038417958942156055
8.06200e-06;-0.0038605354001698894
8.06225e-06;-0.0038792749061243
8.06250e-06;-0.0038980144120787106
8.06275e-06;-0.0039167539180329945
8.06300e-06;-0.003935498502696689
8.06325e-06;-0.003954253193258294
8.06350e-06;-0.003973007883819773
8.06375e-06;-0.003991762574381379
8.06400e-06;-0.004010517264942984
8.06425e-06;-0.004029271955504462
8.06450e-06;-0.004048026646066068
8.06475e-06;-0.004066781336627674
8.06500e-06;-0.004085536027189152
8.06525e-06;-0.004104290717750757
8.06550e-06;-0.004123045408312363
8.06575e-06;-0.004141800098873842
8.06600e-06;-0.004158399844353745
8.06625e-06;-0.00417457210564155
8.06650e-06;-0.004190744366929245
8.06675e-06;-0.004196478394226425
8.06700e-06;-0.004200141751573683
8.06725e-06;-0.004203805108920916
8.06750e-06;-0.0041919668054253645
8.06775e-06;-0.004177053381817551
8.06800e-06;-0.0041621399582098375
8.06825e-06;-0.004132875970516481
8.06850e-06;-0.0041007652099071725
8.06875e-06;-0.004068654449297863
8.06900e-06;-0.00401815644963534
8.06925e-06;-0.003964010907351488
8.06950e-06;-0.003909865365067635
8.06975e-06;-0.003839452404764877
8.07000e-06;-0.003765812418349173
8.07025e-06;-0.003692172431933469
8.07050e-06;-0.0036045725315759043
8.07075e-06;-0.0035142033529728116
8.07100e-06;-0.0034238341743697185
8.07125e-06;-0.00331746019152963
8.07150e-06;-0.0032079112782146917
8.07175e-06;-0.003098362364899753
8.07200e-06;-0.0029888134515855566
8.07225e-06;-0.002879264538270618
8.07250e-06;-0.0027597026374787115
8.07275e-06;-0.0026381544244148646
8.07300e-06;-0.002516606211350194
8.07325e-06;-0.0023950579982855236
8.07350e-06;-0.0022735097852216767
8.07375e-06;-0.002153006185664063
8.07400e-06;-0.002032709809838062
8.07425e-06;-0.0019124134340128757
8.07450e-06;-0.0017921170581868746
8.07475e-06;-0.0016826397549061156
8.07500e-06;-0.0015753086698880293
8.07525e-06;-0.0014679775848692156
8.07550e-06;-0.001360646499850402
8.07575e-06;-0.001264462932702241
8.07600e-06;-0.0011764025602523094
8.07625e-06;-0.0010961018152859942
8.07650e-06;-0.001023333816795898
8.07675e-06;-0.0009562893702398942
8.07700e-06;-0.0008933986887806443
8.07725e-06;-0.0008344585764446785
8.07750e-06;-0.0007798773636461852
8.07775e-06;-0.0007301346229076755
8.07800e-06;-0.0006857100146567978
8.07825e-06;-0.0006470513648536739
8.07850e-06;-0.0006139511566550753
8.07875e-06;-0.0005852108704250881
8.07900e-06;-0.0005597820004582611
8.07925e-06;-0.0005374722356161218
8.07950e-06;-0.0005184721431950413
8.07975e-06;-0.0005030171539126257
8.08000e-06;-0.0004913424263237466
8.08025e-06;-0.0004836633894234234
8.08050e-06;-0.00047978487468665267
8.08075e-06;-0.000478890937252015
8.08100e-06;-0.0004802597984783401
8.08125e-06;-0.0004837059004430301
8.08150e-06;-0.000490213092029926
8.08175e-06;-0.0004972597842197103
8.08200e-06;-0.0005081553995235406
8.08225e-06;-0.0005198145395236604
8.08250e-06;-0.0005348752403851307
8.08275e-06;-0.000550610721086575
8.08300e-06;-0.000568177568621604
8.08325e-06;-0.0005861077109702362
8.08350e-06;-0.0006058464316875197
8.08375e-06;-0.000625943926588988
8.08400e-06;-0.0006460414214904563
8.08425e-06;-0.000667846563314696
8.08450e-06;-0.0006899904571898778
8.08475e-06;-0.0007121343510650594
8.08500e-06;-0.0007342782449400911
8.08525e-06;-0.0007564221388152727
8.08550e-06;-0.000777003241068372
8.08575e-06;-0.0007972743267367272
8.08600e-06;-0.0008175454124049451
8.08625e-06;-0.0008378164980733003
8.08650e-06;-0.0008580875837416555
8.08675e-06;-0.0008746747453042831
8.08700e-06;-0.0008905311136162744
8.08725e-06;-0.0009063874819282657
8.08750e-06;-0.0009183020853829882
8.08775e-06;-0.0009294347467914226
8.08800e-06;-0.0009405674081998568
8.08825e-06;-0.0009478289611346906
8.08850e-06;-0.000954322588383658
8.08875e-06;-0.0009608162156326254
8.08900e-06;-0.0009629350890999372
8.08925e-06;-0.0009641861269533996
8.08950e-06;-0.0009654371648068619
8.08975e-06;-0.0009627523150413113
8.09000e-06;-0.0009592866891181687
8.09025e-06;-0.0009558210631950261
8.09050e-06;-0.0009489105499940596
8.09075e-06;-0.0009413166621359668
8.09100e-06;-0.000933722774277874
8.09125e-06;-0.0009220268818220047
8.09150e-06;-0.0009095172599870014
8.09175e-06;-0.0008970076381519981
8.09200e-06;-0.0008844980163170796
8.09225e-06;-0.0008719883944820763
8.09250e-06;-0.000859478772647073
8.09275e-06;-0.0008445101661846966
8.09300e-06;-0.0008290537621133953
8.09325e-06;-0.0008135973580420941
8.09350e-06;-0.0007981409539708976
8.09375e-06;-0.0007826845498995964
8.09400e-06;-0.0007672281458282952
8.09425e-06;-0.0007530992592789485
8.09450e-06;-0.0007392337171466162
8.09475e-06;-0.00072536817501419
8.09500e-06;-0.0007115026328817637
8.09525e-06;-0.0006976370907494315
8.09550e-06;-0.0006884593017585984
8.09575e-06;-0.0006802114391886106
8.09600e-06;-0.0006719635766186787
8.09625e-06;-0.0006637157140486909
8.09650e-06;-0.0006554678514787032
8.09675e-06;-0.0006525309332964059
8.09700e-06;-0.0006506475662198833
8.09725e-06;-0.0006523183496210313
8.09750e-06;-0.0006546941826126977
8.09775e-06;-0.0006607146318344121
8.09800e-06;-0.0006674580766627516
8.09825e-06;-0.0006779350005902776
8.09850e-06;-0.0006891525481708773
8.09875e-06;-0.0007041585828853857
8.09900e-06;-0.0007199161533941464
8.09925e-06;-0.0007393177086941953
8.09950e-06;-0.000759442134340113
8.09975e-06;-0.0007837775282547874
8.10000e-06;-0.0008089482670635981
8.10025e-06;-0.0008341190058724088
8.10050e-06;-0.0008638565206230782
8.10075e-06;-0.0008944999631135266
8.10100e-06;-0.0009251434056039752
8.10125e-06;-0.0009595763552445382
8.10150e-06;-0.0009947610430241338
8.10175e-06;-0.0010299457308037292
8.10200e-06;-0.0010688327709870795
8.10225e-06;-0.0011084542601095895
8.10250e-06;-0.0011480757492320995
8.10275e-06;-0.0011876972383546094
8.10300e-06;-0.001227318727476851
8.10325e-06;-0.0012669402165993609
8.10350e-06;-0.0013076694922528763
8.10375e-06;-0.0013486185234975624
8.10400e-06;-0.0013895675547425258
8.10425e-06;-0.0014305165859874892
8.10450e-06;-0.001471465617232175
8.10475e-06;-0.0015124146484771384
8.10500e-06;-0.0015499546927091917
8.10525e-06;-0.0015868184839478725
8.10550e-06;-0.001623682275186803
8.10575e-06;-0.0016605460664257336
8.10600e-06;-0.0016962474133408278
8.10625e-06;-0.0017296356639517226
8.10650e-06;-0.0017630239145626171
8.10675e-06;-0.0017964121651732855
8.10700e-06;-0.00182980041578418
8.10725e-06;-0.0018757632575570325
8.10750e-06;-0.0019242205661255923
8.10775e-06;-0.001972677874694481
8.10800e-06;-0.0020211351832633687
8.10825e-06;-0.002069592491831929
8.10850e-06;-0.002118049800400817
8.10875e-06;-0.002166507108969705
8.10900e-06;-0.002214964417538265
8.10925e-06;-0.0022634217261071534
8.10950e-06;-0.002332834707744067
8.10975e-06;-0.0024064047414858905
8.11000e-06;-0.002479974775228212
8.11025e-06;-0.0025535448089705343
8.11050e-06;-0.002627114842712357
8.11075e-06;-0.0027006848764546793
8.11100e-06;-0.002774254910197001
8.11125e-06;-0.002847824943939323
8.11150e-06;-0.0029213949776811464
8.11175e-06;-0.003007694226630046
8.11200e-06;-0.003096518615702611
8.11225e-06;-0.0031853430047745737
8.11250e-06;-0.0032741673938471386
8.11275e-06;-0.0033629917829197035
8.11300e-06;-0.0034518161719916665
8.11325e-06;-0.0035400718685558207
8.11350e-06;-0.0036271959491679297
8.11375e-06;-0.0037143200297794486
8.11400e-06;-0.003801444110391558
8.11425e-06;-0.003888568191003667
8.11450e-06;-0.003975692271615186
8.11475e-06;-0.004062816352227295
8.11500e-06;-0.004083474423698942
8.11525e-06;-0.004196847455857896
8.11550e-06;-0.0042707441362145075
8.11575e-06;-0.004348862661282876
8.11600e-06;-0.004415001780122158
8.11625e-06;-0.004500634910548754
8.11650e-06;-0.004555309250087456
8.11675e-06;-0.004610578277836779
8.11700e-06;-0.004665847305586477
8.11725e-06;-0.004703407855583561
8.11750e-06;-0.004726699105784085
8.11775e-06;-0.004749990355984766
8.11800e-06;-0.004773281606185447
8.11825e-06;-0.004796572856385971
8.11850e-06;-0.004819864106586652
8.11875e-06;-0.004843155356787333
8.11900e-06;-0.004866446606987857
8.11925e-06;-0.004889737857188538
8.11950e-06;-0.004910792890936193
8.11975e-06;-0.004892499068653928
8.12000e-06;-0.004874205246371786
8.12025e-06;-0.004855911424089521
8.12050e-06;-0.004837617601807256
8.12075e-06;-0.004819323779525115
8.12100e-06;-0.00480102995724285
8.12125e-06;-0.0047827361349605845
8.12150e-06;-0.004764442312678444
8.12175e-06;-0.004746148490396178
8.12200e-06;-0.004715845655617841
8.12225e-06;-0.004675866088487706
8.12250e-06;-0.004635886521357299
8.12275e-06;-0.004595906954226892
8.12300e-06;-0.004555927387096756
8.12325e-06;-0.004515947819966349
8.12350e-06;-0.004475968252835943
8.12375e-06;-0.0044359849229229
8.12400e-06;-0.004395935382423053
8.12425e-06;-0.004355885841923208
8.12450e-06;-0.0043158363014236326
8.12475e-06;-0.004275786760923787
8.12500e-06;-0.00423573722042394
8.12525e-06;-0.004195687679924366
8.12550e-06;-0.004155638139424519
8.12575e-06;-0.004129042165381827
8.12600e-06;-0.004113286929646996
8.12625e-06;-0.0040975316939120595
8.12650e-06;-0.004081776458177123
8.12675e-06;-0.004066021222442292
8.12700e-06;-0.0040502659867073555
8.12725e-06;-0.004034510750972419
8.12750e-06;-0.004018755515237589
8.12775e-06;-0.004003000279502652
8.12800e-06;-0.004011618097884334
8.12825e-06;-0.004039875459601071
8.12850e-06;-0.004068132821317616
8.12875e-06;-0.004096390183034353
8.12900e-06;-0.00412464754475109
8.12925e-06;-0.004152904906467635
8.12950e-06;-0.004181162268184372
8.12975e-06;-0.004209419629901109
8.13000e-06;-0.004237676991617654
8.13025e-06;-0.004286482548615601
8.13050e-06;-0.0043518456190775
8.13075e-06;-0.004417208689538956
8.13100e-06;-0.004482571760000855
8.13125e-06;-0.004547934830462754
8.13150e-06;-0.00461329790092421
8.13175e-06;-0.004678660971386109
8.13200e-06;-0.004744024041848008
8.13225e-06;-0.004818881516235936
8.13250e-06;-0.004901389478596914
8.13275e-06;-0.004983897440957892
8.13300e-06;-0.005066405403318311
8.13325e-06;-0.0051489133656792896
8.13350e-06;-0.005231421328040268
8.13375e-06;-0.005313929290400686
8.13400e-06;-0.0053964372527616645
8.13425e-06;-0.005474798901747052
8.13450e-06;-0.005549819496268901
8.13475e-06;-0.005624840090791258
8.13500e-06;-0.005699860685313615
8.13525e-06;-0.005774881279835464
8.13550e-06;-0.005849901874357821
8.13575e-06;-0.005924922468880178
8.13600e-06;-0.0059999430634020265
8.13625e-06;-0.006058388300235541
8.13650e-06;-0.006103477293155314
8.13675e-06;-0.006148566286075087
8.13700e-06;-0.006193655278994554
8.13725e-06;-0.006238744271914327
8.13750e-06;-0.0062838332648341
8.13775e-06;-0.0063289222577535675
8.13800e-06;-0.00637401125067334
8.13825e-06;-0.006398344125215351
8.13850e-06;-0.006405951944106916
8.13875e-06;-0.0064135597629985325
8.13900e-06;-0.006421167581890148
8.13925e-06;-0.006428775400781713
8.13950e-06;-0.006436383219673329
8.13975e-06;-0.006443991038564946
8.14000e-06;-0.0064515988574565105
8.14025e-06;-0.006459206676348126
8.14050e-06;-0.006450131766369716
8.14075e-06;-0.006427614093940353
8.14100e-06;-0.006405096421510837
8.14125e-06;-0.006382578749081321
8.14150e-06;-0.0063600610766519575
8.14175e-06;-0.006337543404222441
8.14200e-06;-0.006315025731792926
8.14225e-06;-0.006292508059363562
8.14250e-06;-0.006269990386934046
8.14275e-06;-0.0062408094048763615
8.14300e-06;-0.006206259200003511
8.14325e-06;-0.006171708995130426
8.14350e-06;-0.006137158790257341
8.14375e-06;-0.00610260858538449
8.14400e-06;-0.006068058380511405
8.14425e-06;-0.00603350817563832
8.14450e-06;-0.005998957970765469
8.14475e-06;-0.005964949646694854
8.14500e-06;-0.005940476352079108
