Time(s);Current(A)
7.00000e-06;0.0017815933236329233
7.00025e-06;0.0017699227334766776
7.00050e-06;0.0017544088202363938
7.00075e-06;0.0017343087967118833
7.00100e-06;0.0017106800952559921
7.00125e-06;0.0016817781449715086
7.00150e-06;0.001648818813678738
7.00175e-06;0.0016096855649339523
7.00200e-06;0.0015658019362563755
7.00225e-06;0.001516440377783726
7.00250e-06;0.0014628639512031776
7.00275e-06;0.001404636970427403
7.00300e-06;0.0013428317268235179
7.00325e-06;0.001276516626628692
7.00350e-06;0.0012067315201669605
7.00375e-06;0.0011324435969291523
7.00400e-06;0.0010546910840494826
7.00425e-06;0.000973442941333801
7.00450e-06;0.0008895051659901444
7.00475e-06;0.0008031609583024262
7.00500e-06;0.0007149651761473288
7.00525e-06;0.0006246816283987422
7.00550e-06;0.0005327916970440705
7.00575e-06;0.00044090176568908744
7.00600e-06;0.0003481495063836855
7.00625e-06;0.0002547337485096586
7.00650e-06;0.00016131799063531522
7.00675e-06;6.877585237735227e-05
7.00700e-06;-2.2156286979742693e-05
7.00725e-06;-0.00011122630953236528
7.00750e-06;-0.00019810640132711691
7.00775e-06;-0.0002823960194362747
7.00800e-06;-0.0003635506604380764
7.00825e-06;-0.00044096942354911515
7.00850e-06;-0.0005140492875229007
7.00875e-06;-0.0005821872665438658
7.00900e-06;-0.0006447946809083206
7.00925e-06;-0.0007013775205014835
7.00950e-06;-0.0007516309961507374
7.00975e-06;-0.000795401279159294
7.01000e-06;-0.0008325752722101109
7.01025e-06;-0.0008630380557379565
7.01050e-06;-0.0008866741052623873
7.01075e-06;-0.0009033680177468566
7.01100e-06;-0.0009130133253427931
7.01125e-06;-0.0009155628537663927
7.01150e-06;-0.0009110880126094403
7.01175e-06;-0.0008997547278506447
7.01200e-06;-0.0008817545205046699
7.01225e-06;-0.0008572777271504882
7.01250e-06;-0.0008265142464892817
7.01275e-06;-0.0007896540505998069
7.01300e-06;-0.0007468928127676523
7.01325e-06;-0.0006984632663641174
7.01350e-06;-0.0006446723779627959
7.01375e-06;-0.0005858864004282392
7.01400e-06;-0.000522487441826839
7.01425e-06;-0.0004548569546866575
7.01450e-06;-0.0003833761346726417
7.01475e-06;-0.00030842612047756563
7.01500e-06;-0.00023039160930756302
7.01525e-06;-0.00014968050267235653
7.01550e-06;-6.674718324732076e-05
7.01575e-06;1.7916898987553022e-05
7.01600e-06;0.00010396026561157177
7.01625e-06;0.00019055882227524053
7.01650e-06;0.0002771573789386159
7.01675e-06;0.00036375593560199123
7.01700e-06;0.0004492288159076175
7.01725e-06;0.0005338355573462373
7.01750e-06;0.0006160828670722608
7.01775e-06;0.0006965147658955412
7.01800e-06;0.0007732897441755963
7.01825e-06;0.0008472509883731586
7.01850e-06;0.0009176565833804148
7.01875e-06;0.0009825225123275601
7.01900e-06;0.0010409953162525745
7.01925e-06;0.001096209007919484
7.01950e-06;0.0011475506370439183
7.01975e-06;0.0011959129959829848
7.02000e-06;0.0012408160755305125
7.02025e-06;0.0012830574914707376
7.02050e-06;0.0013211679507503554
7.02075e-06;0.001356099939671372
7.02100e-06;0.0013857706978888653
7.02125e-06;0.0014113933221719878
7.02150e-06;0.0014370159464550233
7.02175e-06;0.0014582151985984256
7.02200e-06;0.001476010987964453
7.02225e-06;0.00149380677733042
7.02250e-06;0.001507011752236174
7.02275e-06;0.0015166844296910559
7.02300e-06;0.0015263571071459049
7.02325e-06;0.0015320074625875869
7.02350e-06;0.0015345629341221257
7.02375e-06;0.0015371184056566561
7.02400e-06;0.0015351509952191886
7.02425e-06;0.0015297035564341807
7.02450e-06;0.0015242561176491726
7.02475e-06;0.001518808678864146
7.02500e-06;0.0015133612400791382
7.02525e-06;0.00150791380129413
7.02550e-06;0.0015024663625091037
7.02575e-06;0.0014933876576189574
7.02600e-06;0.0014815149578686362
7.02625e-06;0.0014696422581182748
7.02650e-06;0.0014577695583679535
7.02675e-06;0.0014458968586176322
7.02700e-06;0.0014340241588672706
7.02725e-06;0.0014221514591169495
7.02750e-06;0.0014124468718975042
7.02775e-06;0.0014044104894011201
7.02800e-06;0.0013963741069047632
7.02825e-06;0.0013883377244083789
7.02850e-06;0.001380301341912022
7.02875e-06;0.001372264959415665
7.02900e-06;0.0013642285769192807
7.02925e-06;0.0013561921944229237
7.02950e-06;0.0013481558119265667
7.02975e-06;0.0013401194294301827
7.03000e-06;0.0013320830469338257
7.03025e-06;0.0013240466644374688
7.03050e-06;0.0013160102819410845
7.03075e-06;0.0013079738994447275
7.03100e-06;0.0012999375169483705
7.03125e-06;0.00129802836543389
7.03150e-06;0.0013008336720100825
7.03175e-06;0.001303638978586275
7.03200e-06;0.0013064442851624769
7.03225e-06;0.001309249591738669
7.03250e-06;0.001312054898314871
7.03275e-06;0.0013148602048910635
7.03300e-06;0.001317665511467256
7.03325e-06;0.0013204708180434576
7.03350e-06;0.00132327612461965
7.03375e-06;0.0013260814311958425
7.03400e-06;0.0013288867377720445
7.03425e-06;0.0013316920443482367
7.03450e-06;0.001334497350924429
7.03475e-06;0.001337302657500631
7.03500e-06;0.001342862742240955
7.03525e-06;0.0013505424281912354
7.03550e-06;0.001358222114141542
7.03575e-06;0.0013659018000918225
7.03600e-06;0.0013735814860421033
7.03625e-06;0.0013812611719924098
7.03650e-06;0.0013889408579426904
7.03675e-06;0.0013966205438929972
7.03700e-06;0.0014043002298432777
7.03725e-06;0.0014118781546427807
7.03750e-06;0.001417996000381205
7.03775e-06;0.0014241138461196085
7.03800e-06;0.0014302316918580122
7.03825e-06;0.0014363495375964365
7.03850e-06;0.00144246738333484
7.03875e-06;0.0014485852290732435
7.03900e-06;0.001454703074811668
7.03925e-06;0.0014608209205500715
7.03950e-06;0.001466938766288475
7.03975e-06;0.0014695337220054935
7.04000e-06;0.0014694180703681775
7.04025e-06;0.0014693024187308619
7.04050e-06;0.0014691867670935457
7.04075e-06;0.0014690711154562298
7.04100e-06;0.0014689554638189137
7.04125e-06;0.001468839812181598
7.04150e-06;0.0014687241605442823
7.04175e-06;0.001468608508906966
7.04200e-06;0.0014684928572696503
7.04225e-06;0.0014683772056323346
7.04250e-06;0.0014682615539950185
7.04275e-06;0.0014677400472420188
7.04300e-06;0.001461395291130517
7.04325e-06;0.0014550505350189938
7.04350e-06;0.001448705778907492
7.04375e-06;0.0014423610227959902
7.04400e-06;0.0014360162666844669
7.04425e-06;0.001429671510572965
7.04450e-06;0.0014233267544614633
7.04475e-06;0.00141698199834994
7.04500e-06;0.0014106372422384383
7.04525e-06;0.0014042924861269149
7.04550e-06;0.0013979477300154132
7.04575e-06;0.0013916029739039113
7.04600e-06;0.0013846047144607865
7.04625e-06;0.0013771036317885381
7.04650e-06;0.0013696025491162897
7.04675e-06;0.0013621014664440157
7.04700e-06;0.0013546003837717673
7.04725e-06;0.0013470993010995188
7.04750e-06;0.0013395982184272448
7.04775e-06;0.0013320971357549964
7.04800e-06;0.0013245960530827478
7.04825e-06;0.001317094970410474
7.04850e-06;0.0013096806666332034
7.04875e-06;0.0013035114750272144
7.04900e-06;0.0012973422834212044
7.04925e-06;0.0012911730918152154
7.04950e-06;0.0012850039002092056
7.04975e-06;0.0012788347086032166
7.05000e-06;0.0012726655169972277
7.05025e-06;0.0012664963253912176
7.05050e-06;0.0012603271337852287
7.05075e-06;0.0012541579421792397
7.05100e-06;0.0012479887505732299
7.05125e-06;0.0012403741854845021
7.05150e-06;0.0012316475107450701
7.05175e-06;0.0012229208360056084
7.05200e-06;0.0012141941612661764
7.05225e-06;0.0012054674865267442
7.05250e-06;0.0011967408117872828
7.05275e-06;0.0011880141370478505
7.05300e-06;0.0011792874623084185
7.05325e-06;0.0011705607875689568
7.05350e-06;0.0011618341128295248
7.05375e-06;0.0011531074380900631
7.05400e-06;0.0011442391289858825
7.05425e-06;0.001133338636003509
7.05450e-06;0.0011224381430210986
7.05475e-06;0.0011115376500387248
7.05500e-06;0.0011006371570563512
7.05525e-06;0.0010897366640739408
7.05550e-06;0.0010788361710915672
7.05575e-06;0.0010679356781091935
7.05600e-06;0.001057035185126783
7.05625e-06;0.0010461346921444095
7.05650e-06;0.0010352341991620357
7.05675e-06;0.0010243337061796253
7.05700e-06;0.0010142202896928642
7.05725e-06;0.0010047124712587658
7.05750e-06;0.000995204652824635
7.05775e-06;0.0009856968343905368
7.05800e-06;0.0009761890159564383
7.05825e-06;0.0009666811975223077
7.05850e-06;0.0009572865262752655
7.05875e-06;0.0009495153020619029
7.05900e-06;0.0009417440778485666
7.05925e-06;0.0009339728536352304
7.05950e-06;0.0009262016294218678
7.05975e-06;0.0009184304052085315
7.06000e-06;0.0009106591809951953
7.06025e-06;0.000901021103708846
7.06050e-06;0.0008899466189172394
7.06075e-06;0.0008788721341256326
7.06100e-06;0.0008677976493339885
7.06125e-06;0.0008567231645423818
7.06150e-06;0.0008456486797507751
7.06175e-06;0.0008345741949591309
7.06200e-06;0.0008234997101675243
7.06225e-06;0.0008124252253759177
7.06250e-06;0.0008013507405842734
7.06275e-06;0.0007872943021509428
7.06300e-06;0.0007709434675204576
7.06325e-06;0.0007545926328900279
7.06350e-06;0.0007382417982595981
7.06375e-06;0.000721890963629113
7.06400e-06;0.0007055401289986833
7.06425e-06;0.0006891892943682535
7.06450e-06;0.0006728384597377684
7.06475e-06;0.0006564876251073386
7.06500e-06;0.0006401367904769089
7.06525e-06;0.000622732841242205
7.06550e-06;0.0006045185970019309
7.06575e-06;0.000586304352761657
7.06600e-06;0.0005680901085213212
7.06625e-06;0.0005498758642810471
7.06650e-06;0.0005316616200407732
7.06675e-06;0.0005143395571712506
7.06700e-06;0.0004977039629026107
7.06725e-06;0.0004810683686339145
7.06750e-06;0.00046443277436527457
7.06775e-06;0.0004477971800966347
7.06800e-06;0.00043116158582793846
7.06825e-06;0.00041624161741903433
7.06850e-06;0.0004026416981861841
7.06875e-06;0.00038904177895328774
7.06900e-06;0.00037697678877986207
7.06925e-06;0.00036609281475204214
7.06950e-06;0.00035680327650355545
7.06975e-06;0.0003487405404887199
7.07000e-06;0.0003423753538002063
7.07025e-06;0.0003373163077114713
7.07050e-06;0.00033397390726875567
7.07075e-06;0.0003319523406533157
7.07100e-06;0.000331682552964515
7.07125e-06;0.0003327606316042086
7.07150e-06;0.000335645722108937
7.07175e-06;0.0003399211766664378
7.07200e-06;0.0003459242477960769
7.07225e-06;0.0003532565940817951
7.07250e-06;0.00036218456041478336
7.07275e-06;0.000372340240189254
7.07300e-06;0.0003839695933150794
7.07325e-06;0.0003967328307793211
7.07350e-06;0.0004108603941933588
7.07375e-06;0.00042603770708254663
7.07400e-06;0.00044263114941744134
7.07425e-06;0.0004603142002454959
7.07450e-06;0.00047799725107361033
7.07475e-06;0.0004972613787804689
7.07500e-06;0.0005177420300195651
7.07525e-06;0.0005382226812587307
7.07550e-06;0.000558703332497827
7.07575e-06;0.0005791839837369926
7.07600e-06;0.0005997172148818334
7.07625e-06;0.0006210048677150579
7.07650e-06;0.0006422925205483545
7.07675e-06;0.0006635801733815789
7.07700e-06;0.0006848678262148034
7.07725e-06;0.0007061554790481
7.07750e-06;0.0007264143948532622
7.07775e-06;0.0007458817724227886
7.07800e-06;0.0007653491499923811
7.07825e-06;0.0007832132042905514
7.07850e-06;0.00079984361807737
7.07875e-06;0.0008164740318642449
7.07900e-06;0.0008309643968218689
7.07925e-06;0.0008438081500330691
7.07950e-06;0.0008533966139946643
7.07975e-06;0.0008604803699125115
7.08000e-06;0.0008638926322112291
7.08025e-06;0.000864479947509846
7.08050e-06;0.0008615501845631921
7.08075e-06;0.0008559142860028874
7.08100e-06;0.0008467530686665989
7.08125e-06;0.000834879375228352
7.08150e-06;0.0008189414882292936
7.08175e-06;0.000799876500219662
7.08200e-06;0.0007768473892856793
7.08225e-06;0.0007507681744090733
7.08250e-06;0.0007211823587683853
7.08275e-06;0.0006888984691729662
7.08300e-06;0.0006534635552462115
7.08325e-06;0.0006156041575387045
7.08350e-06;0.0005746169274127515
7.08375e-06;0.0005312230579939537
7.08400e-06;0.0004851247894948941
7.08425e-06;0.00043694568282429905
7.08450e-06;0.00038670944526616205
7.08475e-06;0.0003348903952800827
7.08500e-06;0.00028159754858111903
7.08525e-06;0.0002271707226265402
7.08550e-06;0.00017185852484135743
7.08575e-06;0.00011531985356406504
7.08600e-06;5.836165647189328e-05
7.08625e-06;1.2396731378322578e-06
7.08650e-06;-5.58619099487123e-05
7.08675e-06;-0.0001125127429583647
7.08700e-06;-0.00016838507326160377
7.08725e-06;-0.00022319638181669412
7.08750e-06;-0.0002767024793848475
7.08775e-06;-0.00032862265180069045
7.08800e-06;-0.0003789152489855373
7.08825e-06;-0.00040656171172787656
7.08850e-06;-0.00044782407309378226
7.08875e-06;-0.0004966721830597923
7.08900e-06;-0.0005350333148881628
7.08925e-06;-0.0005669281553354091
7.08950e-06;-0.0006036094170070569
7.08975e-06;-0.0006370232053512256
7.09000e-06;-0.0006702602162903849
7.09025e-06;-0.0007008244163920924
7.09050e-06;-0.0007312440116212214
7.09075e-06;-0.0007616636068504534
7.09100e-06;-0.0007874599885761244
7.09125e-06;-0.0008130062444080415
7.09150e-06;-0.0008385525002400451
7.09175e-06;-0.0008618465477753578
7.09200e-06;-0.0008850187459492582
7.09225e-06;-0.0009081909441232372
7.09250e-06;-0.0009261563319742388
7.09275e-06;-0.0009438400200758801
7.09300e-06;-0.0009615237081774616
7.09325e-06;-0.0009792073962790432
7.09350e-06;-0.0009968910843806845
7.09375e-06;-0.001014574772482266
7.09400e-06;-0.0010322584605838474
7.09425e-06;-0.0010499421486854887
7.09450e-06;-0.0010676258367870702
7.09475e-06;-0.0010853095248886517
7.09500e-06;-0.001102993212990293
7.09525e-06;-0.0011206769010918744
7.09550e-06;-0.001138360589193456
7.09575e-06;-0.0011560442772950972
7.09600e-06;-0.0011705298639939764
7.09625e-06;-0.0011810856667420987
7.09650e-06;-0.0011916414694902566
7.09675e-06;-0.0012021972722383789
7.09700e-06;-0.001212753074986537
7.09725e-06;-0.0012233088777346593
7.09750e-06;-0.0012338646804827815
7.09775e-06;-0.0012444204832309396
7.09800e-06;-0.001254976285979062
7.09825e-06;-0.0012655320887271842
7.09850e-06;-0.0012760878914753423
7.09875e-06;-0.0012866436942234646
7.09900e-06;-0.001297199496971587
7.09925e-06;-0.001307755299719745
7.09950e-06;-0.0013183111024678673
7.09975e-06;-0.0013275312559004996
7.10000e-06;-0.0013366791478037635
7.10025e-06;-0.0013458270397069965
7.10050e-06;-0.0013549749316102294
7.10075e-06;-0.0013641228235134935
7.10100e-06;-0.0013732707154167263
7.10125e-06;-0.0013824186073199904
7.10150e-06;-0.0013915664992232232
7.10175e-06;-0.0014007143911264563
7.10200e-06;-0.0014098622830297201
7.10225e-06;-0.0014190101749329532
7.10250e-06;-0.001428158066836186
7.10275e-06;-0.00143730595873945
7.10300e-06;-0.001446453850642683
7.10325e-06;-0.0014569501542025772
7.10350e-06;-0.0014691033678536328
7.10375e-06;-0.0014812565815046472
7.10400e-06;-0.0014934097951556616
7.10425e-06;-0.0015055630088067172
7.10450e-06;-0.0015177162224577318
7.10475e-06;-0.0015298694361087462
7.10500e-06;-0.0015420226497598018
7.10525e-06;-0.0015541758634108162
7.10550e-06;-0.0015663290770618718
7.10575e-06;-0.0015784822907128862
7.10600e-06;-0.0015906355043639007
7.10625e-06;-0.0016027887180149563
7.10650e-06;-0.0016149419316659707
7.10675e-06;-0.001627095145316985
7.10700e-06;-0.0016382971947361425
7.10725e-06;-0.001649447784104138
7.10750e-06;-0.0016605983734721338
7.10775e-06;-0.0016717489628401672
7.10800e-06;-0.001682899552208163
7.10825e-06;-0.0016940501415761585
7.10850e-06;-0.0017003550723426013
7.10875e-06;-0.001706397842452672
7.10900e-06;-0.0017124406125627427
7.10925e-06;-0.0017184833826728338
7.10950e-06;-0.0017245261527829045
7.10975e-06;-0.0017305689228929958
7.11000e-06;-0.0017252615998530672
7.11025e-06;-0.001719340212118555
7.11050e-06;-0.0017134188243840224
7.11075e-06;-0.0016989514954206442
7.11100e-06;-0.001684021812472949
7.11125e-06;-0.001669092129525203
7.11150e-06;-0.0016441566691301251
7.11175e-06;-0.0016186798744402314
7.11200e-06;-0.0015932030797502512
7.11225e-06;-0.0015577903794864153
7.11250e-06;-0.0015218401251479324
7.11275e-06;-0.0014858898708093274
7.11300e-06;-0.0014417338680673853
7.11325e-06;-0.0013971339165120538
7.11350e-06;-0.0013525339649565712
7.11375e-06;-0.0013000690836514114
7.11400e-06;-0.0012471786925622099
7.11425e-06;-0.0011942883014731877
7.11450e-06;-0.0011357948708609522
7.11475e-06;-0.0010769983036392704
7.11500e-06;-0.0010182017364177877
7.11525e-06;-0.0009556697665651581
7.11550e-06;-0.0008929357033158642
7.11575e-06;-0.0008302016400667828
7.11600e-06;-0.0007674675768177014
7.11625e-06;-0.0007042243287327878
7.11650e-06;-0.0006409535326424233
7.11675e-06;-0.0005776827365520589
7.11700e-06;-0.00051441194046148
7.11725e-06;-0.0004540813126804368
7.11750e-06;-0.0003939097543915795
7.11775e-06;-0.0003361212761118623
7.11800e-06;-0.0002805131003148155
7.11825e-06;-0.00022745833608146544
7.11850e-06;-0.0001773690850745911
7.11875e-06;-0.00013065747059142253
7.11900e-06;-8.771617993659251e-05
7.11925e-06;-4.869106399815969e-05
7.11950e-06;-1.3389705695947632e-05
7.11975e-06;1.8337349867783888e-05
7.12000e-06;4.642633557046011e-05
7.12025e-06;7.075158109376439e-05
7.12050e-06;9.118479297048436e-05
7.12075e-06;0.00010759767461329952
7.12100e-06;0.00011987411200326633
7.12125e-06;0.00012805263848512233
7.12150e-06;0.00013238363920017987
7.12175e-06;0.0001330906015812236
7.12200e-06;0.00013026344157328007
7.12225e-06;0.00012395327702336803
7.12250e-06;0.00011420959451385373
7.12275e-06;0.00010108189201100108
7.12300e-06;8.46272882326304e-05
7.12325e-06;6.499974923326059e-05
7.12350e-06;4.2485985856910204e-05
7.12375e-06;1.7355789600366257e-05
7.12400e-06;-1.0204721677055778e-05
7.12425e-06;-4.0033721703536235e-05
7.12450e-06;-7.197044003433115e-05
7.12475e-06;-0.00010585408976046117
7.12500e-06;-0.00014151913074976906
7.12525e-06;-0.00017873935493198257
7.12550e-06;-0.00021764745401719
7.12575e-06;-0.0002566425850525254
7.12600e-06;-0.0002971446833463731
7.12625e-06;-0.0003377283118424193
7.12650e-06;-0.00037831194033832803
7.12675e-06;-0.000418674113791372
7.12700e-06;-0.0004587641662688358
7.12725e-06;-0.0004988542187462997
7.12750e-06;-0.0005389442712238993
7.12775e-06;-0.0005764654082268185
7.12800e-06;-0.000613847561322496
7.12825e-06;-0.0006479895627426172
7.12850e-06;-0.0006819562649188752
7.12875e-06;-0.0007116374707137476
7.12900e-06;-0.0007410868218457634
7.12925e-06;-0.0007648678540548612
7.12950e-06;-0.0007883422178978403
7.12975e-06;-0.0008047976060034323
7.13000e-06;-0.0008208732522753615
7.13025e-06;-0.0008297132114024361
7.13050e-06;-0.000838161704138089
7.13075e-06;-0.0008393464302917944
7.13100e-06;-0.0008401381708955421
7.13125e-06;-0.0008334266275955045
7.13150e-06;-0.000826309140338158
7.13175e-06;-0.0008114691176435232
7.13200e-06;-0.0007962112890074282
7.13225e-06;-0.0007737221080067504
7.13250e-06;-0.0007508416951356548
7.13275e-06;-0.000721339063174313
7.13300e-06;-0.0006914781547759083
7.13325e-06;-0.000655471880735528
7.13350e-06;-0.0006191331290655549
7.13375e-06;-0.0005771383725620416
7.13400e-06;-0.000534837613911372
7.13425e-06;-0.0004878151888629932
7.13450e-06;-0.00044053731140648465
7.13475e-06;-0.00038954590769385794
7.13500e-06;-0.00033835359414474914
7.13525e-06;-0.00028437285030564417
7.13550e-06;-0.00023024124633126084
7.13575e-06;-0.00017425409752305058
7.13600e-06;-0.00011816655970869601
7.13625e-06;-6.143493082552436e-05
7.13650e-06;-4.6684552164863354e-06
7.13675e-06;5.1794505252489734e-05
7.13700e-06;0.00010762122885835544
7.13725e-06;0.00016250192238491672
7.13750e-06;0.00021614057590979034
7.13775e-06;0.00026820879507239006
7.13800e-06;0.00031834243653528985
7.13825e-06;0.00036616922453562844
7.13850e-06;0.0004113166255619336
7.13875e-06;0.00045341211058452866
7.13900e-06;0.00049208651900174
7.13925e-06;0.000527031669815917
7.13950e-06;0.0005580726042696561
7.13975e-06;0.0005851276471069305
7.14000e-06;0.0006081289009142227
7.14025e-06;0.0006270040466285245
7.14050e-06;0.0006416804992965361
7.14075e-06;0.0006520858396255713
7.14100e-06;0.0006581497004303512
7.14125e-06;0.0006598399269550677
7.14150e-06;0.0006572078203133929
7.14175e-06;0.000650363145745867
7.14200e-06;0.0006394241705173682
7.14225e-06;0.000624506592186312
7.14250e-06;0.0006057258425192836
7.14275e-06;0.0005831974025281222
7.14300e-06;0.0005570380814951929
7.14325e-06;0.0005273886155004635
7.14350e-06;0.000494441999418441
7.14375e-06;0.0004584278631634491
7.14400e-06;0.0004195812035877834
7.14425e-06;0.00037813522082050623
7.14450e-06;0.00033432311787986047
7.14475e-06;0.0002883779657092569
7.14500e-06;0.00024053379413515932
