Time(s);Current(A)
2.75000e-06;0.00528230102083684
2.75025e-06;0.005209263041333499
2.75050e-06;0.0051362250618300345
2.75075e-06;0.00506318708232657
2.75100e-06;0.004990149102823229
2.75125e-06;0.004917111123319765
2.75150e-06;0.004844073143816301
2.75175e-06;0.004772309835332577
2.75200e-06;0.004709324117082402
2.75225e-06;0.00464633839883212
2.75250e-06;0.004583352680581838
2.75275e-06;0.004520366962331663
2.75300e-06;0.004457381244081382
2.75325e-06;0.0043943955258311
2.75350e-06;0.0043314098075809245
2.75375e-06;0.004282978058492872
2.75400e-06;0.004243211655577752
2.75425e-06;0.004203445252662632
2.75450e-06;0.004163678849747579
2.75475e-06;0.004123912446832459
2.75500e-06;0.004084146043917339
2.75525e-06;0.004044379641002286
2.75550e-06;0.004004613238087166
2.75575e-06;0.003964846835172045
2.75600e-06;0.003925080432256926
2.75625e-06;0.0038937747273690804
2.75650e-06;0.0038675064714722143
2.75675e-06;0.003841238215575348
2.75700e-06;0.003814969959678526
2.75725e-06;0.00378870170378166
2.75750e-06;0.0037624334478847934
2.75775e-06;0.0037361651919879716
2.75800e-06;0.003709896936091105
2.75825e-06;0.003683628680194239
2.75850e-06;0.0036573604242973725
2.75875e-06;0.0036357909022149736
2.75900e-06;0.003617018978136508
2.75925e-06;0.003598247054058042
2.75950e-06;0.003579475129979608
2.75975e-06;0.003560703205901142
2.76000e-06;0.0035419312818226766
2.76025e-06;0.0035231593577442107
2.76050e-06;0.0035043874336657768
2.76075e-06;0.003485615509587311
2.76100e-06;0.0034668435855088452
2.76125e-06;0.0034480716614304113
2.76150e-06;0.0034292997373519454
2.76175e-06;0.003411596471670449
2.76200e-06;0.0034012521600755028
2.76225e-06;0.003390907848480539
2.76250e-06;0.003380563536885575
2.76275e-06;0.0033702192252906115
2.76300e-06;0.0033598749136956652
2.76325e-06;0.0033495306021007016
2.76350e-06;0.0033391862905057376
2.76375e-06;0.0033288419789107913
2.76400e-06;0.0033184976673158277
2.76425e-06;0.003308153355720864
2.76450e-06;0.0032978090441259
2.76475e-06;0.003287464732530954
2.76500e-06;0.00328943541736183
2.76525e-06;0.0032987383773932432
2.76550e-06;0.0033080413374246406
2.76575e-06;0.003317344297456054
2.76600e-06;0.0033266472574874674
2.76625e-06;0.0033359502175188648
2.76650e-06;0.003345253177550278
2.76675e-06;0.0033545561375816916
2.76700e-06;0.0033638590976131045
2.76725e-06;0.0033731620576445023
2.76750e-06;0.0033824650176759157
2.76775e-06;0.0034037986807138074
2.76800e-06;0.0034322953523511185
2.76825e-06;0.003460792023988478
2.76850e-06;0.003489288695625838
2.76875e-06;0.0035177853672631494
2.76900e-06;0.0035462820389005087
2.76925e-06;0.0035747787105378684
2.76950e-06;0.003603275382175228
2.76975e-06;0.0036317720538125396
2.77000e-06;0.0036602687254498993
2.77025e-06;0.0036887653970872586
2.77050e-06;0.0037208099294094112
2.77075e-06;0.0037549668367592324
2.77100e-06;0.0037891237441090536
2.77125e-06;0.0038232806514588743
2.77150e-06;0.003857437558808638
2.77175e-06;0.0038915944661584586
2.77200e-06;0.00392575137350828
2.77225e-06;0.003959018251815568
2.77250e-06;0.0039861562465818064
2.77275e-06;0.004013294241348045
2.77300e-06;0.004040432236114238
2.77325e-06;0.004067570230880476
2.77350e-06;0.004094708225646715
2.77375e-06;0.004121846220412953
2.77400e-06;0.004148984215179145
2.77425e-06;0.00417826576599227
2.77450e-06;0.004208823577252494
2.77475e-06;0.004239381388512665
2.77500e-06;0.004269939199772889
2.77525e-06;0.004300497011033112
2.77550e-06;0.004331054822293336
2.77575e-06;0.004361612633553507
2.77600e-06;0.00439217044481373
2.77625e-06;0.004422728256073954
2.77650e-06;0.004453286067334125
2.77675e-06;0.004495532738753532
2.77700e-06;0.004544738887586569
2.77725e-06;0.004593945036419522
2.77750e-06;0.004643151185252559
2.77775e-06;0.0046923573340855946
2.77800e-06;0.004741563482918631
2.77825e-06;0.0047907696317515845
2.77850e-06;0.004839975780584621
2.77875e-06;0.004889181929417657
2.77900e-06;0.00493838807825061
2.77925e-06;0.004994797218831116
2.77950e-06;0.00505549497760839
2.77975e-06;0.005116192736385664
2.78000e-06;0.005176890495162835
2.78025e-06;0.005237588253940109
2.78050e-06;0.005298286012717383
2.78075e-06;0.005358983771494554
2.78100e-06;0.005419681530271828
2.78125e-06;0.005480379289049102
2.78150e-06;0.005536264359762875
2.78175e-06;0.005589283984794161
2.78200e-06;0.005642303609825447
2.78225e-06;0.005695323234856732
2.78250e-06;0.005748342859887928
2.78275e-06;0.005801362484919214
2.78300e-06;0.0058543821099505
2.78325e-06;0.005907401734981696
2.78350e-06;0.005960421360012982
2.78375e-06;0.005994812108298432
2.78400e-06;0.006018111334810515
2.78425e-06;0.006041410561322558
2.78450e-06;0.006064709787834641
2.78475e-06;0.006088009014346724
2.78500e-06;0.006111308240858767
2.78525e-06;0.00613460746737085
2.78550e-06;0.006157906693882933
2.78575e-06;0.006181205920394976
2.78600e-06;0.006193043620015746
2.78625e-06;0.0061827834768895485
2.78650e-06;0.006172523333763351
2.78675e-06;0.006162263190637171
2.78700e-06;0.006152003047510974
2.78725e-06;0.0061417429043847775
2.78750e-06;0.0061314827612585976
2.78775e-06;0.0061212226181324
2.78800e-06;0.006110962475006203
2.78825e-06;0.006099265291180974
2.78850e-06;0.006063460173107933
2.78875e-06;0.0060276550550348315
2.78900e-06;0.005991849936961729
2.78925e-06;0.005956044818888688
2.78950e-06;0.005918436753643217
2.78975e-06;0.005875470631339947
2.79000e-06;0.00583250450903675
2.79025e-06;0.00578953838673348
2.79050e-06;0.00574657226443021
2.79075e-06;0.0057023652444258555
2.79100e-06;0.005656624868108556
2.79125e-06;0.00561088449179118
2.79150e-06;0.005565144115473803
2.79175e-06;0.005519403739156504
2.79200e-06;0.005473663362839128
2.79225e-06;0.005427922986521751
2.79250e-06;0.005386234729173972
2.79275e-06;0.0053488223340109105
2.79300e-06;0.005311409938847785
2.79325e-06;0.00527399754368466
2.79350e-06;0.005236585148521598
2.79375e-06;0.005199172753358472
2.79400e-06;0.005161760358195347
2.79425e-06;0.005131222582424442
2.79450e-06;0.0051068837087002985
2.79475e-06;0.005082544834976155
2.79500e-06;0.005058205961252011
2.79525e-06;0.005033867087527908
2.79550e-06;0.005009528213803764
2.79575e-06;0.00498518934007962
2.79600e-06;0.004960850466355517
2.79625e-06;0.004936511592631373
2.79650e-06;0.004912172718907229
2.79675e-06;0.004887833845183085
2.79700e-06;0.004863494971458982
2.79725e-06;0.004839156097734838
2.79750e-06;0.004814817224010694
2.79775e-06;0.004790478350286592
2.79800e-06;0.004766139476562448
2.79825e-06;0.004741953608411686
2.79850e-06;0.004723535321625783
2.79875e-06;0.004705117034839849
2.79900e-06;0.004686698748053915
2.79925e-06;0.004668280461267982
2.79950e-06;0.004649862174482078
2.79975e-06;0.004631443887696145
2.80000e-06;0.00461302560091021
2.80025e-06;0.004594607314124308
2.80050e-06;0.004576189027338374
2.80075e-06;0.00455777074055244
2.80100e-06;0.004539352453766506
2.80125e-06;0.004520934166980603
2.80150e-06;0.004502515880194669
2.80175e-06;0.004484097593408736
2.80200e-06;0.004465679306622832
2.80225e-06;0.004447261019836899
2.80250e-06;0.004432420341971046
2.80275e-06;0.0044208056241175
2.80300e-06;0.004409190906263934
2.80325e-06;0.004397576188410368
2.80350e-06;0.004385961470556802
2.80375e-06;0.004374346752703256
2.80400e-06;0.004362732034849689
2.80425e-06;0.004351117316996124
2.80450e-06;0.004339502599142577
2.80475e-06;0.004327887881289011
2.80500e-06;0.0043162731634354455
2.80525e-06;0.004304658445581879
2.80550e-06;0.004294494163468842
2.80575e-06;0.004287143600887518
2.80600e-06;0.004281150875395994
2.80625e-06;0.00427515814990448
2.80650e-06;0.004269165424412955
2.80675e-06;0.004263172698921431
2.80700e-06;0.004257179973429917
2.80725e-06;0.004251187247938393
2.80750e-06;0.004245194522446869
2.80775e-06;0.004239201796955345
2.80800e-06;0.004233209071463831
2.80825e-06;0.004227216345972307
2.80850e-06;0.004221223620480783
2.80875e-06;0.004215230894989269
2.80900e-06;0.0042092381694977445
2.80925e-06;0.00420324544400622
2.80950e-06;0.004197252718514696
2.80975e-06;0.004191259993023182
2.81000e-06;0.004185267267531658
2.81025e-06;0.0041792745420401334
2.81050e-06;0.0041732818165486196
2.81075e-06;0.004167289091057096
2.81100e-06;0.004161296365565572
2.81125e-06;0.004155303640074058
2.81150e-06;0.004149310914582534
2.81175e-06;0.004143318189091009
2.81200e-06;0.004137325463599485
2.81225e-06;0.004131332738107971
2.81250e-06;0.004125340012616447
2.81275e-06;0.0041193472871249226
2.81300e-06;0.004113354561633409
2.81325e-06;0.004107361836141884
2.81350e-06;0.004101369110650361
2.81375e-06;0.004095376385158837
2.81400e-06;0.004089383659667323
2.81425e-06;0.0040833909341757985
2.81450e-06;0.004077398208684274
2.81475e-06;0.00407140548319276
2.81500e-06;0.00406553395589354
2.81525e-06;0.0040642310231940185
2.81550e-06;0.004062928090494499
2.81575e-06;0.004061625157794978
2.81600e-06;0.004060322225095456
2.81625e-06;0.004059019292395935
2.81650e-06;0.004057716359696416
2.81675e-06;0.0040564134269968945
2.81700e-06;0.004055110494297373
2.81725e-06;0.004053807561597854
2.81750e-06;0.004052504628898332
2.81775e-06;0.004051201696198811
2.81800e-06;0.0040498987634992895
2.81825e-06;0.0040485958307997704
2.81850e-06;0.004047292898100249
2.81875e-06;0.004045989965400728
2.81900e-06;0.004044687032701208
2.81925e-06;0.004043384100001687
2.81950e-06;0.0040420811673021655
2.81975e-06;0.004040778234602646
2.82000e-06;0.004039475301903125
2.82025e-06;0.004038172369203603
2.82050e-06;0.004036869436504082
2.82075e-06;0.004035566503804563
2.82100e-06;0.0040342635711050415
2.82125e-06;0.00403296063840552
2.82150e-06;0.004031657705706001
2.82175e-06;0.004030354773006479
2.82200e-06;0.004029051840306958
2.82225e-06;0.0040277489076074365
2.82250e-06;0.0040264459749079174
2.82275e-06;0.004025143042208396
2.82300e-06;0.004023840109508875
2.82325e-06;0.004022537176809355
2.82350e-06;0.004021234244109834
2.82375e-06;0.0040199313114103125
2.82400e-06;0.004018628378710793
2.82425e-06;0.004017325446011272
2.82450e-06;0.0040178762157036885
2.82475e-06;0.004020098484412804
2.82500e-06;0.004022320753121915
2.82525e-06;0.004024543021831029
2.82550e-06;0.004026765290540144
2.82575e-06;0.004028987559249255
2.82600e-06;0.00403120982795837
2.82625e-06;0.004033432096667485
2.82650e-06;0.004035654365376599
2.82675e-06;0.00403787663408571
2.82700e-06;0.004040098902794826
2.82725e-06;0.00404232117150394
2.82750e-06;0.004044543440213051
2.82775e-06;0.004046765708922166
2.82800e-06;0.004048987977631281
2.82825e-06;0.004051210246340392
2.82850e-06;0.0040534325150495066
2.82875e-06;0.004055654783758621
2.82900e-06;0.004057877052467736
2.82925e-06;0.0040600993211768474
2.82950e-06;0.004062321589885962
2.82975e-06;0.00406548136397143
2.83000e-06;0.004069486494529211
2.83025e-06;0.004073491625086998
2.83050e-06;0.004077496755644785
2.83075e-06;0.004081501886202573
2.83100e-06;0.004085507016760353
2.83125e-06;0.00408951214731814
2.83150e-06;0.004093517277875928
2.83175e-06;0.004097522408433708
2.83200e-06;0.0041015275389914944
2.83225e-06;0.004105532669549282
2.83250e-06;0.004109537800107062
2.83275e-06;0.004113542930664849
2.83300e-06;0.004117548061222637
2.83325e-06;0.004121553191780424
2.83350e-06;0.004125558322338204
2.83375e-06;0.004129563452895992
2.83400e-06;0.004133568583453779
2.83425e-06;0.004137573714011559
2.83450e-06;0.004141578844569346
2.83475e-06;0.004145583975127133
2.83500e-06;0.004153222732416099
2.83525e-06;0.004164137961448859
2.83550e-06;0.004175053190481638
2.83575e-06;0.004185968419514417
2.83600e-06;0.004196883648547177
2.83625e-06;0.004207798877579956
2.83650e-06;0.004218714106612735
2.83675e-06;0.004229629335645496
2.83700e-06;0.004240544564678274
2.83725e-06;0.0042514597937110534
2.83750e-06;0.0042623750227438325
2.83775e-06;0.004273290251776593
2.83800e-06;0.004284205480809372
2.83825e-06;0.004295120709842151
2.83850e-06;0.004306234594022879
2.83875e-06;0.00432483683112825
2.83900e-06;0.004343439068233621
2.83925e-06;0.004362041305338992
2.83950e-06;0.004380643542444331
2.83975e-06;0.004399245779549701
2.84000e-06;0.004417848016655072
2.84025e-06;0.004436450253760411
2.84050e-06;0.004455052490865782
2.84075e-06;0.004473654727971153
2.84100e-06;0.004492256965076492
2.84125e-06;0.004510859202181862
2.84150e-06;0.004529461439287233
2.84175e-06;0.004548063676392603
2.84200e-06;0.004566665913497942
2.84225e-06;0.004582716551432964
2.84250e-06;0.004596466390964019
2.84275e-06;0.004610216230495052
2.84300e-06;0.004623966070026108
2.84325e-06;0.0046377159095571645
2.84350e-06;0.00465146574908822
2.84375e-06;0.004665215588619253
2.84400e-06;0.004678965428150309
2.84425e-06;0.004692715267681365
2.84450e-06;0.00469557600049539
2.84475e-06;0.004688617934320006
2.84500e-06;0.0046816598681446225
2.84525e-06;0.0046747018019692495
2.84550e-06;0.004667743735793866
2.84575e-06;0.004660785669618482
2.84600e-06;0.004653827603443098
2.84625e-06;0.004646869537267726
2.84650e-06;0.004639911471092342
2.84675e-06;0.0046186128484052
2.84700e-06;0.004584383225458412
2.84725e-06;0.004550153602511567
2.84750e-06;0.004515923979564722
2.84775e-06;0.0044816943566179344
2.84800e-06;0.00444746473367109
2.84825e-06;0.004413235110724245
2.84850e-06;0.004379005487777399
2.84875e-06;0.004344775864830612
2.84900e-06;0.004301585771292289
2.84925e-06;0.004250315946158277
2.84950e-06;0.004199046121024351
2.84975e-06;0.004147776295890339
2.85000e-06;0.004096506470756326
2.85025e-06;0.004045236645622314
2.85050e-06;0.003993966820488388
2.85075e-06;0.003942696995354376
2.85100e-06;0.0038914271702203632
2.85125e-06;0.003840152090211896
2.85150e-06;0.0037888722718388288
2.85175e-06;0.0037375924534657616
2.85200e-06;0.0036863126350927815
2.85225e-06;0.0036350328167197147
2.85250e-06;0.0035837529983466475
2.85275e-06;0.0035324731799735807
2.85300e-06;0.003489538211201786
2.85325e-06;0.0034541278634080026
2.85350e-06;0.003418717515614219
2.85375e-06;0.0033833071678204957
2.85400e-06;0.0033478968200267123
2.85425e-06;0.0033124864722329284
2.85450e-06;0.003277076124439145
2.85475e-06;0.0032517962730379624
2.85500e-06;0.0032356511753252773
2.85525e-06;0.0032195060776125926
2.85550e-06;0.0032100994936431716
2.85575e-06;0.0032067690841163445
2.85600e-06;0.003203438674589518
2.85625e-06;0.003206954886578083
2.85650e-06;0.0032166447546954657
2.85675e-06;0.003226334622812849
2.85700e-06;0.003247032470964357
2.85725e-06;0.003277656307174303
2.85750e-06;0.0033082801433843003
2.85775e-06;0.003338903979594298
2.85800e-06;0.0033695278158042434
2.85825e-06;0.003400151652014241
2.85850e-06;0.0034307754882242384
2.85875e-06;0.003461399324434236
2.85900e-06;0.003502754004833093
2.85925e-06;0.0035537847775712517
2.85950e-06;0.0036048155503094104
2.85975e-06;0.0036558463230474823
2.86000e-06;0.003706877095785641
2.86025e-06;0.0037579078685237998
2.86050e-06;0.003808938641261872
2.86075e-06;0.003859969414000031
2.86100e-06;0.003912075232865537
2.86125e-06;0.003965150429853974
2.86150e-06;0.004018225626842321
2.86175e-06;0.004071300823830759
2.86200e-06;0.004124376020819195
2.86225e-06;0.004177451217807542
2.86250e-06;0.00423052641479598
2.86275e-06;0.004283601611784417
2.86300e-06;0.004336201062248578
2.86325e-06;0.004370867134606627
2.86350e-06;0.004405533206964733
2.86375e-06;0.004440199279322841
2.86400e-06;0.004474865351680888
2.86425e-06;0.0045095314240389955
2.86450e-06;0.004544197496397102
2.86475e-06;0.0045788635687551505
2.86500e-06;0.004613529641113257
2.86525e-06;0.00463469146759161
2.86550e-06;0.004643676402130216
2.86575e-06;0.004652661336668806
2.86600e-06;0.004661646271207412
2.86625e-06;0.004670631205746017
2.86650e-06;0.004679616140284607
2.86675e-06;0.0046886010748232124
2.86700e-06;0.004697586009361818
2.86725e-06;0.004706570943900423
2.86750e-06;0.004715555878439013
2.86775e-06;0.0047245408129776185
2.86800e-06;0.004733525747516224
2.86825e-06;0.004732243994239561
2.86850e-06;0.0047217046823239215
2.86875e-06;0.004711165370408283
2.86900e-06;0.0047006260584926615
2.86925e-06;0.004690086746577022
2.86950e-06;0.004679547434661383
2.86975e-06;0.004669008122745745
2.87000e-06;0.004658468810830123
2.87025e-06;0.004647929498914484
2.87050e-06;0.004637390186998845
2.87075e-06;0.004626850875083224
2.87100e-06;0.004616311563167585
2.87125e-06;0.004604570480556326
2.87150e-06;0.004591745751214437
2.87175e-06;0.00457892102187257
2.87200e-06;0.004566096292530681
2.87225e-06;0.004553271563188792
2.87250e-06;0.004540446833846925
2.87275e-06;0.004527622104505036
2.87300e-06;0.004514797375163147
2.87325e-06;0.00450197264582128
2.87350e-06;0.004489147916479391
2.87375e-06;0.0044763231871375025
2.87400e-06;0.004463498457795614
2.87425e-06;0.004450673728453747
2.87450e-06;0.004437848999111857
2.87475e-06;0.004425364126083768
2.87500e-06;0.004425690217443169
2.87525e-06;0.00442601630880257
2.87550e-06;0.004426342400161972
2.87575e-06;0.004426668491521374
2.87600e-06;0.004426994582880775
2.87625e-06;0.004427320674240176
2.87650e-06;0.004427646765599578
2.87675e-06;0.004427972856958979
2.87700e-06;0.00442829894831838
2.87725e-06;0.004428625039677782
2.87750e-06;0.004428951131037183
2.87775e-06;0.004429277222396585
2.87800e-06;0.004429603313755986
2.87825e-06;0.004429929405115388
2.87850e-06;0.004435550511301533
2.87875e-06;0.004445946176833107
2.87900e-06;0.004456341842364681
2.87925e-06;0.004466737507896237
2.87950e-06;0.0044771331734278115
2.87975e-06;0.004487528838959385
2.88000e-06;0.004497924504490959
2.88025e-06;0.004508320170022515
2.88050e-06;0.004518715835554089
2.88075e-06;0.004529111501085663
2.88100e-06;0.004539507166617219
2.88125e-06;0.004549893302209888
2.88150e-06;0.0045599202044942005
2.88175e-06;0.004569947106778495
2.88200e-06;0.0045799740090628075
2.88225e-06;0.00459000091134712
2.88250e-06;0.004600027813631431
2.88275e-06;0.004610054715915726
2.88300e-06;0.004620081618200038
2.88325e-06;0.00463010852048435
2.88350e-06;0.004640135422768645
2.88375e-06;0.004650162325052957
2.88400e-06;0.004660189227337269
2.88425e-06;0.004659928724122456
2.88450e-06;0.0046503919809584085
2.88475e-06;0.004640855237794344
2.88500e-06;0.00463131849463028
2.88525e-06;0.004621781751466232
2.88550e-06;0.004612245008302169
2.88575e-06;0.004602708265138105
2.88600e-06;0.004593171521974057
2.88625e-06;0.004583634778809993
2.88650e-06;0.0045740980356459284
2.88675e-06;0.004564561292481865
2.88700e-06;0.004540317306658639
2.88725e-06;0.004502811676593533
2.88750e-06;0.0044653060465284266
2.88775e-06;0.004427800416463385
2.88800e-06;0.004390294786398278
2.88825e-06;0.004352789156333173
2.88850e-06;0.004315283526268067
2.88875e-06;0.004277777896203024
2.88900e-06;0.004240272266137919
2.88925e-06;0.004202766636072813
2.88950e-06;0.004165261006007771
2.88975e-06;0.004121021758010276
2.89000e-06;0.0040707107501628936
2.89025e-06;0.004020399742315595
2.89050e-06;0.003970088734468213
2.89075e-06;0.00391977772662083
2.89100e-06;0.003869466718773447
2.89125e-06;0.0038191557109261494
2.89150e-06;0.0037689598041676354
2.89175e-06;0.003723102660268825
2.89200e-06;0.0036772455163700925
2.89225e-06;0.0036313883724712823
2.89250e-06;0.003585531228572472
2.89275e-06;0.003539674084673662
2.89300e-06;0.0034938169407749296
2.89325e-06;0.0034479597968761194
2.89350e-06;0.0034159574475437432
2.89375e-06;0.003396448082848172
2.89400e-06;0.0033769387181525677
2.89425e-06;0.0033574293534569637
2.89450e-06;0.0033379199887613926
2.89475e-06;0.0033184106240657886
2.89500e-06;0.003298901259370184
2.89525e-06;0.00327939189467458
2.89550e-06;0.003259882529979009
2.89575e-06;0.0032403731652834045
2.89600e-06;0.0032208638005878005
2.89625e-06;0.0032013544358922294
2.89650e-06;0.0032007846121862747
2.89675e-06;0.0032172927316775186
2.89700e-06;0.003233800851168763
2.89725e-06;0.0032503089706599785
2.89750e-06;0.003266817090151223
2.89775e-06;0.0032833252096424667
2.89800e-06;0.003299833329133683
2.89825e-06;0.003316341448624927
2.89850e-06;0.003332849568116171
2.89875e-06;0.003349357687607387
2.89900e-06;0.003365865807098631
2.89925e-06;0.0033823739265898753
2.89950e-06;0.003408312020958202
2.89975e-06;0.003442753202882338
2.90000e-06;0.003477194384806532
2.90025e-06;0.003511635566730726
2.90050e-06;0.0035460767486548616
